399.26312622,0.00036958
401.19193359,0.00003953
403.12074097,0.00042013
405.04954834,0.00027626
406.97835571,0.00024915
408.90716309,0.00052216
410.83597046,0.00054522
412.76477783,0.00009530
414.69358521,0.00006791
416.62239258,0.00011721
418.55119995,-0.00015879
420.48000732,-0.00004842
422.40881470,0.00017606
424.33762207,0.00047630
426.26642944,-0.00012653
428.19523682,-0.00007691
430.12404419,0.00036725
432.05285156,-0.00020273
433.98165894,0.00020084
435.91046631,0.00014799
437.83927368,0.00052061
439.76808105,0.00045551
441.69688843,-0.00026283
443.62569580,0.00044687
445.55450317,0.00025103
447.48331055,0.00011702
449.41211792,0.00066349
451.34092529,0.00035183
453.26973267,0.00042595
455.19854004,0.00063337
457.12734741,0.00013984
459.05615479,0.00022523
460.98496216,0.00042488
462.91376953,0.00021153
464.84257690,0.00047014
466.77138428,0.00039230
468.70019165,0.00033588
470.62899902,0.00010107
472.55780640,0.00003619
474.48661377,0.00022901
476.41542114,0.00001342
478.34422852,0.00031500
480.27303589,-0.00004239
482.20184326,0.00011227
484.13065063,0.00055869
486.05945801,0.00039525
487.98826538,0.00033683
489.91707275,-0.00018434
491.84588013,0.00012045
493.77468750,-0.00006383
495.70349487,-0.00012561
497.63230225,0.00028837
499.56110962,0.00005263
501.48991699,0.00042010
503.41872437,0.00029144
505.34753174,0.00030773
507.27633911,0.00020162
509.20514648,-0.00001514
511.13395386,0.00027912
513.06276123,-0.00001013
514.99156860,0.00024369
516.92037598,0.00024742
518.84918335,0.00021135
520.77799072,0.00033436
522.70679810,0.00032077
524.63560547,0.00025305
526.56441284,-0.00011973
528.49322021,0.00023687
530.42202759,0.00015502
532.35083496,0.00050694
534.27964233,0.00066799
536.20844971,0.00018372
538.13725708,0.00049480
540.06606445,0.00034347
541.99487183,0.00044770
543.92367920,0.00032108
545.85248657,0.00027865
547.78129395,0.00051723
549.71010132,0.00036994
551.63890869,0.00068140
553.56771606,0.00044662
555.49652344,0.00018247
557.42533081,0.00008113
559.35413818,0.00016424
561.28294556,0.00060823
563.21175293,0.00045732
565.14056030,0.00047068
567.06936768,0.00065835
568.99817505,0.00032391
570.92698242,0.00012952
572.85578979,0.00025600
574.78459717,0.00019305
576.71340454,0.00026560
578.64221191,0.00016057
580.57101929,0.00025976
582.49982666,0.00061401
584.42863403,0.00040019
586.35744141,0.00037959
588.28624878,0.00020897
590.21505615,0.00016652
592.14386353,0.00019686
594.07267090,0.00030861
596.00147827,0.00075314
597.93028564,0.00039474
599.85909302,0.00045787
601.78790039,0.00053919
603.71670776,0.00035974
605.64551514,0.00063348
607.57432251,0.00044024
609.50312988,0.00037477
611.43193726,0.00030810
613.36074463,0.00015590
615.28955200,0.00015054
617.21835938,0.00024913
619.14716675,0.00022682
621.07597412,0.00016260
623.00478149,0.00032786
624.93358887,0.00028452
626.86239624,0.00027953
628.79120361,0.00022819
630.72001099,0.00031215
632.64881836,0.00042937
634.57762573,0.00030007
636.50643311,0.00020759
638.43524048,0.00008480
640.36404785,0.00008173
642.29285522,0.00067778
644.22166260,0.00101596
646.15046997,0.00072172
648.07927734,0.00068408
650.00808472,0.00065153
651.93689209,0.00043878
653.86569946,0.00046007
655.79450684,0.00043578
657.72331421,0.00046693
659.65212158,0.00079107
661.58092896,0.00050705
663.50973633,0.00025098
665.43854370,0.00034037
667.36735107,0.00043691
669.29615845,0.00060163
671.22496582,0.00064634
673.15377319,0.00077646
675.08258057,0.00073527
677.01138794,0.00084101
678.94019531,0.00076829
680.86900269,0.00061109
682.79781006,0.00084567
684.72661743,0.00108839
686.65542480,0.00103148
688.58423218,0.00064564
690.51303955,0.00092632
692.44184692,0.00071083
694.37065430,0.00062028
696.29946167,0.00126907
698.22826904,0.00091939
700.15707642,0.00111270
702.08588379,0.00133829
704.01469116,0.00121470
705.94349854,0.00132877
707.87230591,0.00100465
709.80111328,0.00069079
711.72992065,0.00048120
713.65872803,0.00041364
715.58753540,-0.00001137
717.51634277,0.00017260
719.44515015,0.00047864
721.37395752,0.00011657
723.30276489,0.00005279
725.23157227,0.00039010
727.16037964,0.00025561
729.08918701,0.00052219
731.01799438,0.00058593
732.94680176,0.00017325
734.87560913,0.00031287
736.80441650,0.00011276
738.73322388,0.00024172
740.66203125,0.00042828
742.59083862,0.00044863
744.51964600,0.00050908
746.44845337,0.00031510
748.37726074,0.00045679
750.30606812,0.00016606
752.23487549,0.00024286
754.16368286,0.00038171
756.09249023,0.00019821
758.02129761,0.00032992
759.95010498,0.00038704
761.87891235,0.00040664
763.80771973,0.00016312
765.73652710,0.00031670
767.66533447,0.00051204
769.59414185,0.00053121
771.52294922,0.00062461
773.45175659,0.00033740
775.38056396,0.00022841
777.30937134,0.00023561
779.23817871,0.00041264
781.16698608,0.00038916
783.09579346,0.00032447
785.02460083,0.00058312
786.95340820,0.00033950
788.88221558,0.00032848
790.81102295,0.00073412
792.73983032,0.00055629
794.66863770,0.00034606
796.59744507,0.00030517
798.52625244,0.00021259
800.45505981,0.00032213
802.38386719,0.00021370
804.31267456,0.00029018
806.24148193,0.00048286
808.17028931,0.00034056
810.09909668,0.00044717
812.02790405,0.00025718
813.95671143,0.00002697
815.88551880,0.00028701
817.81432617,0.00021150
819.74313354,-0.00000579
821.67194092,0.00019528
823.60074829,0.00041178
825.52955566,0.00032488
827.45836304,0.00015737
829.38717041,0.00014047
831.31597778,0.00030157
833.24478516,0.00035984
835.17359253,0.00036594
837.10239990,0.00041257
839.03120728,0.00041662
840.96001465,0.00061397
842.88882202,0.00060363
844.81762939,0.00025579
846.74643677,0.00024982
848.67524414,0.00045588
850.60405151,0.00054343
852.53285889,0.00050937
854.46166626,0.00021376
856.39047363,0.00020092
858.31928101,0.00054778
860.24808838,0.00054812
862.17689575,0.00045037
864.10570313,0.00025696
866.03451050,0.00024076
867.96331787,0.00046968
869.89212524,0.00021667
871.82093262,0.00033823
873.74973999,0.00057690
875.67854736,0.00023335
877.60735474,0.00022268
879.53616211,0.00028290
881.46496948,0.00014161
883.39377686,0.00030693
885.32258423,0.00044044
887.25139160,0.00041990
889.18019897,0.00050055
891.10900635,0.00040283
893.03781372,0.00037879
894.96662109,0.00025104
896.89542847,0.00015775
898.82423584,0.00041349
900.75304321,0.00043187
902.68185059,0.00047128
904.61065796,0.00026442
906.53946533,0.00015933
908.46827271,0.00058363
910.39708008,0.00062954
912.32588745,0.00040908
914.25469482,0.00016003
916.18350220,0.00005882
918.11230957,0.00047602
920.04111694,0.00050951
921.96992432,0.00035895
923.89873169,0.00055304
925.82753906,0.00063505
927.75634644,0.00052969
929.68515381,0.00024338
931.61396118,0.00044442
933.54276855,0.00059224
935.47157593,0.00065413
937.40038330,0.00067514
939.32919067,0.00078574
941.25799805,0.00103940
943.18680542,0.00065914
945.11561279,0.00081184
947.04442017,0.00071870
948.97322754,0.00073044
950.90203491,0.00099673
952.83084229,0.00066830
954.75964966,0.00103815
956.68845703,0.00077192
958.61726440,0.00062402
960.54607178,0.00065061
962.47487915,0.00037128
964.40368652,0.00083882
966.33249390,0.00067195
968.26130127,0.00055283
970.19010864,0.00075414
972.11891602,0.00098041
974.04772339,0.00104594
975.97653076,0.00095027
977.90533813,0.00115213
979.83414551,0.00094620
981.76295288,0.00099326
983.69176025,0.00130358
985.62056763,0.00160181
987.54937500,0.00169717
989.47818237,0.00185830
991.40698975,0.00222508
993.33579712,0.00223551
995.26460449,0.00258906
997.19341187,0.00283846
999.12221924,0.00313244
1001.05102661,0.00324963
1002.97983398,0.00323073
1004.90864136,0.00390766
1006.83744873,0.00391258
1008.76625610,0.00394560
1010.69506348,0.00445679
1012.62387085,0.00457810
1014.55267822,0.00490614
1016.48148560,0.00503272
1018.41029297,0.00511723
1020.33910034,0.00567356
1022.26790771,0.00573566
1024.19671509,0.00585432
1026.12552246,0.00624335
1028.05432983,0.00608705
1029.98313721,0.00640259
1031.91194458,0.00671957
1033.84075195,0.00668467
1035.76955933,0.00693305
1037.69836670,0.00700906
1039.62717407,0.00712803
1041.55598145,0.00713497
1043.48478882,0.00702251
1045.41359619,0.00686919
1047.34240356,0.00675329
1049.27121094,0.00673580
1051.20001831,0.00669919
1053.12882568,0.00658962
1055.05763306,0.00614814
1056.98644043,0.00626925
1058.91524780,0.00638338
1060.84405518,0.00599866
1062.77286255,0.00576563
1064.70166992,0.00538739
1066.63047729,0.00537846
1068.55928467,0.00548752
1070.48809204,0.00510340
1072.41689941,0.00466629
1074.34570679,0.00462340
1076.27451416,0.00443552
1078.20332153,0.00408547
1080.13212891,0.00407626
1082.06093628,0.00379226
1083.98974365,0.00370391
1085.91855103,0.00359054
1087.84735840,0.00324960
1089.77616577,0.00329847
1091.70497314,0.00297714
1093.63378052,0.00272769
1095.56258789,0.00278976
1097.49139526,0.00260141
1099.42020264,0.00261167
1101.34901001,0.00281402
1103.27781738,0.00277028
1105.20662476,0.00254295
1107.13543213,0.00248844
1109.06423950,0.00257641
1110.99304687,0.00248845
1112.92185425,0.00233098
1114.85066162,0.00241263
1116.77946899,0.00242752
1118.70827637,0.00221079
1120.63708374,0.00233133
1122.56589111,0.00258860
1124.49469849,0.00247521
1126.42350586,0.00257036
1128.35231323,0.00268112
1130.28112061,0.00245511
1132.20992798,0.00256671
1134.13873535,0.00285921
1136.06754272,0.00296440
1137.99635010,0.00300788
1139.92515747,0.00332002
1141.85396484,0.00351908
1143.78277222,0.00349337
1145.71157959,0.00379597
1147.64038696,0.00408958
1149.56919434,0.00440371
1151.49800171,0.00451989
1153.42680908,0.00467792
1155.35561646,0.00496761
1157.28442383,0.00503385
1159.21323120,0.00542425
1161.14203857,0.00568603
1163.07084595,0.00586580
1164.99965332,0.00596116
1166.92846069,0.00609817
1168.85726807,0.00658413
1170.78607544,0.00676315
1172.71488281,0.00698006
1174.64369019,0.00724419
1176.57249756,0.00763488
1178.50130493,0.00804683
1180.43011230,0.00807515
1182.35891968,0.00829095
1184.28772705,0.00876092
1186.21653442,0.00921259
1188.14534180,0.00963857
1190.07414917,0.01009634
1192.00295654,0.01066785
1193.93176392,0.01118260
1195.86057129,0.01144561
1197.78937866,0.01214083
1199.71818604,0.01271759
1201.64699341,0.01305041
1203.57580078,0.01392891
1205.50460815,0.01436751
1207.43341553,0.01475659
1209.36222290,0.01528360
1211.29103027,0.01585402
1213.21983765,0.01635770
1215.14864502,0.01655515
1217.07745239,0.01702203
1219.00625977,0.01718694
1220.93506714,0.01764708
1222.86387451,0.01786531
1224.79268188,0.01775739
1226.72148926,0.01802553
1228.65029663,0.01810870
1230.57910400,0.01837936
1232.50791138,0.01823732
1234.43671875,0.01852833
1236.36552612,0.01866329
1238.29433350,0.01821283
1240.22314087,0.01843494
1242.15194824,0.01835726
1244.08075562,0.01841667
1246.00956299,0.01818723
1247.93837036,0.01803011
1249.86717773,0.01828390
1251.79598511,0.01790428
1253.72479248,0.01774846
1255.65359985,0.01759016
1257.58240723,0.01743549
1259.51121460,0.01708669
1261.44002197,0.01660433
1263.36882935,0.01665078
1265.29763672,0.01644773
1267.22644409,0.01625349
1269.15525146,0.01613487
1271.08405884,0.01566083
1273.01286621,0.01559442
1274.94167358,0.01551553
1276.87048096,0.01491218
1278.79928833,0.01473901
1280.72809570,0.01452830
1282.65690308,0.01413397
1284.58571045,0.01395487
1286.51451782,0.01382159
1288.44332520,0.01372680
1290.37213257,0.01342442
1292.30093994,0.01338024
1294.22974731,0.01309073
1296.15855469,0.01286967
1298.08736206,0.01311504
1300.01616943,0.01310787
1301.94497681,0.01311436
1303.87378418,0.01313483
1305.80259155,0.01351160
1307.73139893,0.01370378
1309.66020630,0.01395139
1311.58901367,0.01420457
1313.51782104,0.01425344
1315.44662842,0.01484431
1317.37543579,0.01490725
1319.30424316,0.01548606
1321.23305054,0.01625073
1323.16185791,0.01645355
1325.09066528,0.01695863
1327.01947266,0.01720380
1328.94828003,0.01789685
1330.87708740,0.01845856
1332.80589478,0.01879846
1334.73470215,0.01921349
1336.66350952,0.01922081
1338.59231689,0.01912937
1340.52112427,0.01930841
1342.44993164,0.02019143
1344.37873901,0.02044612
1346.30754639,0.02044925
1348.23635376,0.02048317
1350.16516113,0.02027004
1352.09396851,0.02041995
1354.02277588,0.01998792
1355.95158325,0.01993794
1357.88039062,0.01994466
1359.80919800,0.01938057
1361.73800537,0.01875405
1363.66681274,0.01837968
1365.59562012,0.01916655
1367.52442749,0.01895501
1369.45323486,0.01871715
1371.38204224,0.01906779
1373.31084961,0.01802526
1375.23965698,0.01807643
1377.16846436,0.01865658
1379.09727173,0.01864757
1381.02607910,0.01875512
1382.95488647,0.01857235
1384.88369385,0.01843807
1386.81250122,0.01777761
1388.74130859,0.01805913
1390.67011597,0.01950070
1392.59892334,0.01911947
1394.52773071,0.01791169
1396.45653809,0.01856959
1398.38534546,0.01878424
1400.31415283,0.01871408
1402.24296021,0.02003917
1404.17176758,0.01929029
1406.10057495,0.01909875
1408.02938232,0.01985219
1409.95818970,0.01939414
1411.88699707,0.01954264
1413.81580444,0.01901119
1415.74461182,0.01930197
1417.67341919,0.01731522
1419.60222656,0.01565711
1421.53103394,0.01818093
1423.45984131,0.01747212
1425.38864868,0.01694432
1427.31745605,0.01744081
1429.24626343,0.01587740
1431.17507080,0.01548754
1433.10387817,0.01581366
1435.03268555,0.01425336
1436.96149292,0.01228286
1438.89030029,0.01398636
1440.81910767,0.01418161
1442.74791504,0.01316104
1444.67672241,0.01379281
1446.60552979,0.01266987
1448.53433716,0.01309608
1450.46314453,0.01339644
1452.39195190,0.01362725
1454.32075928,0.01446474
1456.24956665,0.01182697
1458.17837402,0.01209345
1460.10718140,0.01614759
1462.03598877,0.01737757
1463.96479614,0.01719769
1465.89360352,0.01775769
1467.82241089,0.02040106
1469.75121826,0.02199077
1471.68002563,0.01960720
1473.60883301,0.02057284
1475.53764038,0.02330722
1477.46644775,0.02514271
1479.39525513,0.02781138
1481.32406250,0.02803885
1483.25286987,0.02963991
1485.18167725,0.03085837
1487.11048462,0.03033791
1489.03929199,0.02998962
1490.96809937,0.03012814
1492.89690674,0.03504533
1494.82571411,0.03433193
1496.75452148,0.03076143
1498.68332886,0.03470248
1500.61213623,0.03600959
1502.54094360,0.03872126
1504.46975098,0.03671374
1506.39855835,0.02641658
1508.32736572,0.03199895
1510.25617310,0.03806373
1512.18498047,0.03683260
1514.11378784,0.04012591
1516.04259521,0.03606457
1517.97140259,0.03752723
1519.90020996,0.03659248
1521.82901733,0.03108974
1523.75782471,0.03846669
1525.68663208,0.03803879
1527.61543945,0.03742217
1529.54424683,0.04183199
1531.47305420,0.04027147
1533.40186157,0.03672144
1535.33066895,0.03890821
1537.25947632,0.04197367
1539.18828369,0.02992279
1541.11709106,0.03089995
1543.04589844,0.03754199
1544.97470581,0.03590966
1546.90351318,0.04253944
1548.83232056,0.03988358
1550.76112793,0.04099941
1552.68993530,0.04074431
1554.61874268,0.03690486
1556.54755005,0.03953718
1558.47635742,0.02757935
1560.40516479,0.02954193
1562.33397217,0.04295599
1564.26277954,0.04080885
1566.19158691,0.04143783
1568.12039429,0.04129642
1570.04920166,0.03652248
1571.97800903,0.04201785
1573.90681641,0.04293860
1575.83562378,0.03366692
1577.76443115,0.03791431
1579.69323853,0.04298413
1581.62204590,0.04125988
1583.55085327,0.04242563
1585.47966064,0.04143519
1587.40846802,0.04187220
1589.33727539,0.04144856
1591.26608276,0.04122135
1593.19489014,0.04121779
1595.12369751,0.04058611
1597.05250488,0.04118646
1598.98131226,0.04077182
1600.91011963,0.04093457
1602.83892700,0.04003369
1604.76773437,0.04054523
1606.69654175,0.03982095
1608.62534912,0.03970324
1610.55415649,0.03962935
1612.48296387,0.03955878
1614.41177124,0.04015570
1616.34057861,0.03263655
1618.26938599,0.03524080
1620.19819336,0.04110179
1622.12700073,0.03623384
1624.05580811,0.03644633
1625.98461548,0.03810709
1627.91342285,0.03776412
1629.84223022,0.03751861
1631.77103760,0.04019657
1633.69984497,0.03715907
1635.62865234,0.03034556
1637.55745972,0.03536073
1639.48626709,0.03917363
1641.41507446,0.03834805
1643.34388184,0.03960624
1645.27268921,0.03577536
1647.20149658,0.03127029
1649.13030396,0.03924813
1651.05911133,0.03768634
1652.98791870,0.02386796
1654.91672607,0.03248901
1656.84553345,0.04175605
1658.77434082,0.03990605
1660.70314819,0.04124817
1662.63195557,0.03781949
1664.56076294,0.03966446
1666.48957031,0.04321416
1668.41837769,0.03783815
1670.34718506,0.03679552
1672.27599243,0.04217073
1674.20479980,0.03891800
1676.13360718,0.03746748
1678.06241455,0.04343640
1679.99122192,0.04214299
1681.92002930,0.04171304
1683.84883667,0.03403045
1685.77764404,0.03364551
1687.70645142,0.04639675
1689.63525879,0.04061150
1691.56406616,0.04467077
1693.49287354,0.04607860
1695.42168091,0.03325865
1697.35048828,0.04112839
1699.27929565,0.03678831
1701.20810303,0.03263839
1703.13691040,0.04512765
1705.06571777,0.04164509
1706.99452515,0.04183543
1708.92333252,0.04580953
1710.85213989,0.04409739
1712.78094727,0.04509811
1714.70975464,0.04175913
1716.63856201,0.03750821
1718.56736938,0.03694507
1720.49617676,0.04399426
1722.42498413,0.04598789
1724.35379150,0.04259548
1726.28259888,0.04661664
1728.21140625,0.04311794
1730.14021362,0.04335128
1732.06902100,0.04250070
1733.99782837,0.03217289
1735.92663574,0.04003255
1737.85544312,0.04461581
1739.78425049,0.03950103
1741.71305786,0.04316821
1743.64186523,0.04395700
1745.57067261,0.04385015
1747.49947998,0.04439874
1749.42828735,0.04260323
1751.35709473,0.04047771
1753.28590210,0.04496580
1755.21470947,0.04748367
1757.14351685,0.04316162
1759.07232422,0.04751638
1761.00113159,0.04467632
1762.92993896,0.04287779
1764.85874634,0.04951134
1766.78755371,0.04449895
1768.71636108,0.04486962
1770.64516846,0.04484614
1772.57397583,0.04010832
1774.50278320,0.04474965
1776.43159058,0.04747376
1778.36039795,0.04690175
1780.28920532,0.04621848
1782.21801270,0.04676456
1784.14682007,0.04679193
1786.07562744,0.04575923
1788.00443481,0.04826529
1789.93324219,0.04700317
1791.86204956,0.04241070
1793.79085693,0.04430920
1795.71966431,0.04789693
1797.64847168,0.04721261
1799.57727905,0.04627312
1801.50608643,0.04564144
1803.43489380,0.04720708
1805.36370117,0.04824856
1807.29250854,0.04763776
1809.22131592,0.04795700
1811.15012329,0.04646823
1813.07893066,0.04800300
1815.00773804,0.04856473
1816.93654541,0.04791711
1818.86535278,0.04836048
1820.79416016,0.04809431
1822.72296753,0.04894395
1824.65177490,0.04561059
1826.58058228,0.04714444
1828.50938965,0.04739062
1830.43819702,0.04417745
1832.36700439,0.04844893
1834.29581177,0.04823573
1836.22461914,0.04808190
1838.15342651,0.04807419
1840.08223389,0.04833975
1842.01104126,0.04850750
1843.93984863,0.04275607
1845.86865601,0.04567651
1847.79746338,0.04845074
1849.72627075,0.04726057
1851.65507812,0.04878309
1853.58388550,0.04782577
1855.51269287,0.04835041
1857.44150024,0.04821591
1859.37030762,0.04795676
1861.29911499,0.04816765
1863.22792236,0.04768674
1865.15672974,0.04836104
1867.08553711,0.04666401
1869.01434448,0.04466502
1870.94315186,0.04646762
1872.87195923,0.04840451
1874.80076660,0.04762922
1876.72957397,0.04791093
1878.65838135,0.04784872
1880.58718872,0.04743480
1882.51599609,0.04783936
1884.44480347,0.04725466
1886.37361084,0.04801079
1888.30241821,0.04677717
1890.23122559,0.04599860
1892.16003296,0.04784701
1894.08884033,0.04708253
1896.01764771,0.04700623
1897.94645508,0.04756249
1899.87526245,0.04737467
1901.80406982,0.04739808
1903.73287720,0.04699095
1905.66168457,0.04732852
1907.59049194,0.04693884
1909.51929932,0.04673712
1911.44810669,0.04697529
1913.37691406,0.04713908
1915.30572144,0.04765938
1917.23452881,0.04536480
1919.16333618,0.04548231
1921.09214355,0.04728601
1923.02095093,0.04569790
1924.94975830,0.04671326
1926.87856567,0.04715722
1928.80737305,0.04655540
1930.73618042,0.04729088
1932.66498779,0.04674371
1934.59379517,0.04726058
1936.52260254,0.04689022
1938.45140991,0.04699103
1940.38021729,0.04707795
1942.30902466,0.04566244
1944.23783203,0.04639978
1946.16663940,0.04689464
1948.09544678,0.04694273
1950.02425415,0.04695150
1951.95306152,0.04689126
1953.88186890,0.04699083
1955.81067627,0.04672249
1957.73948364,0.04711510
1959.66829102,0.04701687
1961.59709839,0.04679025
1963.52590576,0.04688375
1965.45471313,0.04672858
1967.38352051,0.04621863
1969.31232788,0.04653437
1971.24113525,0.04711430
1973.16994263,0.04676427
1975.09875000,0.04684127
1977.02755737,0.04652296
1978.95636475,0.04675327
1980.88517212,0.04690941
1982.81397949,0.04647234
1984.74278687,0.04672215
1986.67159424,0.04641879
1988.60040161,0.04659616
1990.52920898,0.04610108
1992.45801636,0.04539356
1994.38682373,0.04624549
1996.31563110,0.04642431
1998.24443848,0.04613607
2000.17324585,0.04620496
2002.10205322,0.04616179
2004.03086060,0.04610546
2005.95966797,0.04606371
2007.88847534,0.04586519
2009.81728271,0.04591073
2011.74609009,0.04594657
2013.67489746,0.04588590
2015.60370483,0.04555156
2017.53251221,0.04511558
2019.46131958,0.04559667
2021.39012695,0.04558983
2023.31893433,0.04541981
2025.24774170,0.04550515
2027.17654907,0.04532896
2029.10535645,0.04534658
2031.03416382,0.04500425
2032.96297119,0.04505020
2034.89177856,0.04504820
2036.82058594,0.04493073
2038.74939331,0.04499927
2040.67820068,0.04459924
2042.60700806,0.04463124
2044.53581543,0.04475399
2046.46462280,0.04462115
2048.39343018,0.04461948
2050.32223755,0.04466447
2052.25104492,0.04453934
2054.17985229,0.04442721
2056.10865967,0.04441575
2058.03746704,0.04417682
2059.96627441,0.04413413
2061.89508179,0.04418543
2063.82388916,0.04400207
2065.75269653,0.04386252
2067.68150391,0.04396681
2069.61031128,0.04396620
2071.53911865,0.04384301
2073.46792603,0.04372425
2075.39673340,0.04369745
2077.32554077,0.04374358
2079.25434814,0.04353215
2081.18315552,0.04359547
2083.11196289,0.04345132
2085.04077026,0.04332961
2086.96957764,0.04340998
2088.89838501,0.04313671
2090.82719238,0.04334645
2092.75599976,0.04330141
2094.68480713,0.04316353
2096.61361450,0.04319939
2098.54242187,0.04309731
2100.47122925,0.04314651
2102.40003662,0.04289722
2104.32884399,0.04295564
2106.25765137,0.04292041
2108.18645874,0.04286860
2110.11526611,0.04301991
2112.04407349,0.04274473
2113.97288086,0.04275557
2115.90168823,0.04273617
2117.83049561,0.04263496
2119.75930298,0.04266961
2121.68811035,0.04264815
2123.61691772,0.04275592
2125.54572510,0.04262310
2127.47453247,0.04248770
2129.40333984,0.04255351
2131.33214722,0.04245962
2133.26095459,0.04251994
2135.18976196,0.04258163
2137.11856934,0.04236802
2139.04737671,0.04239233
2140.97618408,0.04233290
2142.90499146,0.04221842
2144.83379883,0.04233379
2146.76260620,0.04221378
2148.69141357,0.04215514
2150.62022095,0.04221401
2152.54902832,0.04211494
2154.47783569,0.04209897
2156.40664307,0.04219326
2158.33545044,0.04209299
2160.26425781,0.04210556
2162.19306519,0.04225841
2164.12187256,0.04209489
2166.05067993,0.04199430
2167.97948730,0.04194254
2169.90829468,0.04190498
2171.83710205,0.04200267
2173.76590942,0.04208647
2175.69471680,0.04209784
2177.62352417,0.04198266
2179.55233154,0.04188422
2181.48113892,0.04174453
2183.40994629,0.04181804
2185.33875366,0.04190842
2187.26756104,0.04174107
2189.19636841,0.04168013
2191.12517578,0.04176371
2193.05398315,0.04185478
2194.98279053,0.04175471
2196.91159790,0.04170541
2198.84040527,0.04160710
2200.76921265,0.04154763
2202.69802002,0.04170479
2204.62682739,0.04157329
2206.55563477,0.04156301
2208.48444214,0.04164253
2210.41324951,0.04145065
2212.34205688,0.04147930
2214.27086426,0.04156054
2216.19967163,0.04144458
2218.12847900,0.04149942
2220.05728638,0.04148308
2221.98609375,0.04131597
2223.91490112,0.04135343
2225.84370850,0.04138476
2227.77251587,0.04137776
2229.70132324,0.04126240
2231.63013062,0.04117991
2233.55893799,0.04124598
2235.48774536,0.04121584
2237.41655273,0.04117412
2239.34536011,0.04103182
2241.27416748,0.04103447
2243.20297485,0.04113533
2245.13178223,0.04104738
2247.06058960,0.04104391
2248.98939697,0.04099624
2250.91820435,0.04088526
2252.84701172,0.04094430
2254.77581909,0.04091202
2256.70462646,0.04081829
2258.63343384,0.04090490
2260.56224121,0.04081186
2262.49104858,0.04065095
2264.41985596,0.04064106
2266.34866333,0.04060991
2268.27747070,0.04061148
2270.20627808,0.04070262
2272.13508545,0.04067331
2274.06389282,0.04048578
2275.99270020,0.04068467
2277.92150757,0.04069580
2279.85031494,0.04049926
2281.77912231,0.04066795
2283.70792969,0.04056136
2285.63673706,0.04045906
2287.56554443,0.04040013
2289.49435181,0.04032027
2291.42315918,0.04022784
2293.35196655,0.04010177
2295.28077393,0.04025812
2297.20958130,0.04004832
2299.13838867,0.03981736
2301.06719604,0.03979903
2302.99600342,0.03957903
2304.92481079,0.03938216
2306.85361816,0.03918802
2308.78242554,0.03902015
2310.71123291,0.03869594
2312.64004028,0.03822665
2314.56884766,0.03791758
2316.49765503,0.03756573
2318.42646240,0.03700838
2320.35526978,0.03661105
2322.28407715,0.03613418
2324.21288452,0.03552518
2326.14169189,0.03523839
2328.07049927,0.03493296
2329.99930664,0.03447191
2331.92811401,0.03409648
2333.85692139,0.03404641
2335.78572876,0.03390979
2337.71453613,0.03383102
2339.64334351,0.03398774
2341.57215088,0.03405444
2343.50095825,0.03458065
2345.42976562,0.03524590
2347.35857300,0.03672149
2349.28738037,0.03794821
2351.21618774,0.03672211
2353.14499512,0.03490584
2355.07380249,0.03356668
2357.00260986,0.03267682
2358.93141724,0.03208334
2360.86022461,0.03153479
2362.78903198,0.03150392
2364.71783936,0.03170422
2366.64664673,0.03221102
2368.57545410,0.03289212
2370.50426147,0.03364423
2372.43306885,0.03456642
2374.36187622,0.03558251
2376.29068359,0.03670945
2378.21949097,0.03760748
2380.14829834,0.03814516
2382.07710571,0.03854549
2384.00591309,0.03894299
2385.93472046,0.03894366
2387.86352783,0.03898696
2389.79233521,0.03924988
2391.72114258,0.03906146
2393.64994995,0.03898841
2395.57875732,0.03913247
2397.50756470,0.03902739
2399.43637207,0.03892764
2401.36517944,0.03898019
2403.29398682,0.03899291
2405.22279419,0.03895169
2407.15160156,0.03895709
2409.08040894,0.03892228
2411.00921631,0.03880093
2412.93802368,0.03874640
2414.86683105,0.03873282
2416.79563843,0.03863872
2418.72444580,0.03868844
2420.65325317,0.03870820
2422.58206055,0.03872921
2424.51086792,0.03874466
2426.43967529,0.03852662
2428.36848267,0.03860340
2430.29729004,0.03862555
2432.22609741,0.03837962
2434.15490479,0.03843765
2436.08371216,0.03846007
2438.01251953,0.03829159
2439.94132690,0.03836061
2441.87013428,0.03840924
2443.79894165,0.03833797
2445.72774902,0.03839079
2447.65655640,0.03823434
2449.58536377,0.03823458
2451.51417114,0.03831944
2453.44297852,0.03815193
2455.37178589,0.03813308
2457.30059326,0.03808204
2459.22940063,0.03813197
2461.15820801,0.03810357
2463.08701538,0.03794827
2465.01582275,0.03809367
2466.94463013,0.03811037
2468.87343750,0.03790706
2470.80224487,0.03793702
2472.73105225,0.03802884
2474.65985962,0.03786002
2476.58866699,0.03780667
2478.51747437,0.03781524
2480.44628174,0.03778354
2482.37508911,0.03779574
2484.30389648,0.03775220
2486.23270386,0.03775817
2488.16151123,0.03768110
2490.09031860,0.03762076
2492.01912598,0.03762214
2493.94793335,0.03765530
2495.87674072,0.03752518
2497.80554810,0.03740150
2499.73435547,0.03750207
2501.66316284,0.03747257
2503.59197021,0.03744797
2505.52077759,0.03734497
2507.44958496,0.03738047
2509.37839233,0.03734870
2511.30719971,0.03722788
2513.23600708,0.03729696
2515.16481445,0.03719535
2517.09362183,0.03726937
2519.02242920,0.03717376
2520.95123657,0.03717542
2522.88004395,0.03717190
2524.80885132,0.03695707
2526.73765869,0.03718756
2528.66646606,0.03709273
2530.59527344,0.03702850
2532.52408081,0.03707357
2534.45288818,0.03698786
2536.38169556,0.03702428
2538.31050293,0.03698554
2540.23931030,0.03705405
2542.16811768,0.03690024
2544.09692505,0.03679084
2546.02573242,0.03679156
2547.95453979,0.03682662
2549.88334717,0.03684006
2551.81215454,0.03673045
2553.74096191,0.03680925
2555.66976929,0.03673281
2557.59857666,0.03668728
2559.52738403,0.03665089
2561.45619141,0.03662330
2563.38499878,0.03657909
2565.31380615,0.03646473
2567.24261353,0.03652173
2569.17142090,0.03641691
2571.10022827,0.03644059
2573.02903564,0.03638124
2574.95784302,0.03627363
2576.88665039,0.03641528
2578.81545776,0.03641362
2580.74426514,0.03635467
2582.67307251,0.03624894
2584.60187988,0.03618282
2586.53068726,0.03613188
2588.45949463,0.03612973
2590.38830200,0.03613374
2592.31710937,0.03610691
2594.24591675,0.03614064
2596.17472412,0.03615874
2598.10353149,0.03613016
2600.03233887,0.03596871
2601.96114624,0.03599387
2603.88995361,0.03600916
2605.81876099,0.03593569
2607.74756836,0.03596707
2609.67637573,0.03591035
2611.60518311,0.03581921
2613.53399048,0.03574461
2615.46279785,0.03575392
2617.39160522,0.03571774
2619.32041260,0.03581080
2621.24921997,0.03576404
2623.17802734,0.03556713
2625.10683472,0.03565785
2627.03564209,0.03566528
2628.96444946,0.03564090
2630.89325684,0.03549868
2632.82206421,0.03544365
2634.75087158,0.03547434
2636.67967895,0.03532683
2638.60848633,0.03532139
2640.53729370,0.03528039
2642.46610107,0.03525712
2644.39490845,0.03527287
2646.32371582,0.03527994
2648.25252319,0.03522939
2650.18133057,0.03514703
2652.11013794,0.03515199
2654.03894531,0.03510650
2655.96775269,0.03505407
2657.89656006,0.03501989
2659.82536743,0.03500260
2661.75417480,0.03491960
2663.68298218,0.03496910
2665.61178955,0.03488319
2667.54059692,0.03481961
2669.46940430,0.03494942
2671.39821167,0.03476310
2673.32701904,0.03477630
2675.25582642,0.03471860
2677.18463379,0.03471762
2679.11344116,0.03478314
2681.04224854,0.03459367
2682.97105591,0.03472690
2684.89986328,0.03459091
2686.82867065,0.03450655
2688.75747803,0.03459220
2690.68628540,0.03449111
2692.61509277,0.03453120
2694.54390015,0.03450643
2696.47270752,0.03446800
2698.40151489,0.03437923
2700.33032227,0.03432525
2702.25912964,0.03429384
2704.18793701,0.03435649
2706.11674438,0.03427131
2708.04555176,0.03409519
2709.97435913,0.03419079
2711.90316650,0.03408932
2713.83197388,0.03407235
2715.76078125,0.03405298
2717.68958862,0.03406483
2719.61839600,0.03402782
2721.54720337,0.03380462
2723.47601074,0.03392405
2725.40481812,0.03386945
2727.33362549,0.03381571
2729.26243286,0.03377939
2731.19124023,0.03366854
2733.12004761,0.03369780
2735.04885498,0.03364770
2736.97766235,0.03369403
2738.90646973,0.03356073
2740.83527710,0.03348326
2742.76408447,0.03346871
2744.69289185,0.03342168
2746.62169922,0.03351264
2748.55050659,0.03341211
2750.47931396,0.03333339
2752.40812134,0.03328516
2754.33692871,0.03330844
2756.26573608,0.03327247
2758.19454346,0.03315081
2760.12335083,0.03313979
2762.05215820,0.03302730
2763.98096558,0.03305074
2765.90977295,0.03304321
2767.83858032,0.03295485
2769.76738770,0.03298140
2771.69619507,0.03287085
2773.62500244,0.03276971
2775.55380981,0.03282850
2777.48261719,0.03280035
2779.41142456,0.03263404
2781.34023193,0.03263436
2783.26903931,0.03267784
2785.19784668,0.03258795
2787.12665405,0.03251720
2789.05546143,0.03245622
2790.98426880,0.03244223
2792.91307617,0.03240268
2794.84188354,0.03231447
2796.77069092,0.03232548
2798.69949829,0.03231999
2800.62830566,0.03215815
2802.55711304,0.03200549
2804.48592041,0.03206761
2806.41472778,0.03213708
2808.34353516,0.03200403
2810.27234253,0.03195617
2812.20114990,0.03201570
2814.12995728,0.03192427
2816.05876465,0.03182232
2817.98757202,0.03177821
2819.91637939,0.03168388
2821.84518677,0.03164769
2823.77399414,0.03167815
2825.70280151,0.03155164
2827.63160889,0.03140214
2829.56041626,0.03146461
2831.48922363,0.03144293
2833.41803101,0.03126022
2835.34683838,0.03125637
2837.27564575,0.03123891
2839.20445312,0.03106453
2841.13326050,0.03105175
2843.06206787,0.03099380
2844.99087524,0.03083523
2846.91968262,0.03069962
2848.84848999,0.03057566
2850.77729736,0.03060995
2852.70610474,0.03049119
2854.63491211,0.03037044
2856.56371948,0.03039140
2858.49252686,0.03033627
2860.42133423,0.03031908
2862.35014160,0.03027641
2864.27894897,0.03029476
2866.20775635,0.03025105
2868.13656372,0.03018571
2870.06537109,0.03011355
2871.99417847,0.02990042
2873.92298584,0.02986714
2875.85179321,0.02992921
2877.78060059,0.03001395
2879.70940796,0.02999472
2881.63821533,0.02984687
2883.56702270,0.02984620
2885.49583008,0.02987161
2887.42463745,0.02974571
2889.35344482,0.02965352
2891.28225220,0.02966766
2893.21105957,0.02953543
2895.13986694,0.02950180
2897.06867432,0.02948041
2898.99748169,0.02938880
2900.92628906,0.02932961
2902.85509644,0.02913421
2904.78390381,0.02911577
2906.71271118,0.02904619
2908.64151855,0.02896896
2910.57032593,0.02896584
2912.49913330,0.02876121
2914.42794067,0.02865849
2916.35674805,0.02854585
2918.28555542,0.02841498
2920.21436279,0.02838062
2922.14317017,0.02836081
2924.07197754,0.02832688
2926.00078491,0.02829457
2927.92959229,0.02822288
2929.85839966,0.02814168
2931.78720703,0.02815713
2933.71601440,0.02805342
2935.64482178,0.02805330
2937.57362915,0.02814808
2939.50243652,0.02808316
2941.43124390,0.02802720
2943.36005127,0.02803939
2945.28885864,0.02804369
2947.21766602,0.02790065
2949.14647339,0.02777578
2951.07528076,0.02778072
2953.00408813,0.02774651
2954.93289551,0.02765210
2956.86170288,0.02766752
2958.79051025,0.02752178
2960.71931763,0.02742503
2962.64812500,0.02748593
2964.57693237,0.02720759
2966.50573975,0.02728900
2968.43454712,0.02731960
2970.36335449,0.02720892
2972.29216187,0.02743857
2974.22096924,0.02733487
2976.14977661,0.02737189
2978.07858398,0.02735759
2980.00739136,0.02723852
2981.93619873,0.02725431
2983.86500610,0.02717092
2985.79381348,0.02713466
2987.72262085,0.02704293
2989.65142822,0.02714596
2991.58023560,0.02707401
2993.50904297,0.02697353
2995.43785034,0.02694403
2997.36665771,0.02679085
2999.29546509,0.02677546
3001.22427246,0.02665072
3003.15307983,0.02666568
3005.08188721,0.02658149
3007.01069458,0.02656999
3008.93950195,0.02648014
3010.86830933,0.02620087
3012.79711670,0.02636650
3014.72592407,0.02623802
3016.65473145,0.02610504
3018.58353882,0.02610237
3020.51234619,0.02599179
3022.44115356,0.02603362
3024.36996094,0.02593841
3026.29876831,0.02588963
3028.22757568,0.02578821
3030.15638306,0.02566426
3032.08519043,0.02557759
3034.01399780,0.02549533
3035.94280518,0.02545827
3037.87161255,0.02540768
3039.80041992,0.02534503
3041.72922729,0.02516637
3043.65803467,0.02517520
3045.58684204,0.02515114
3047.51564941,0.02500208
3049.44445679,0.02496428
3051.37326416,0.02490977
3053.30207153,0.02483996
3055.23087891,0.02471114
3057.15968628,0.02464691
3059.08849365,0.02455130
3061.01730103,0.02445051
3062.94610840,0.02438138
3064.87491577,0.02422247
3066.80372314,0.02416772
3068.73253052,0.02415747
3070.66133789,0.02411336
3072.59014526,0.02404913
3074.51895264,0.02396764
3076.44776001,0.02388024
3078.37656738,0.02374948
3080.30537476,0.02362851
3082.23418213,0.02352832
3084.16298950,0.02345425
3086.09179687,0.02344900
3088.02060425,0.02328536
3089.94941162,0.02319176
3091.87821899,0.02332618
3093.80702637,0.02310525
3095.73583374,0.02292439
3097.66464111,0.02286464
3099.59344849,0.02269676
3101.52225586,0.02275222
3103.45106323,0.02266036
3105.37987061,0.02252597
3107.30867798,0.02249537
3109.23748535,0.02239709
3111.16629272,0.02217749
3113.09510010,0.02205737
3115.02390747,0.02215648
3116.95271484,0.02191074
3118.88152222,0.02172594
3120.81032959,0.02174571
3122.73913696,0.02156213
3124.66794434,0.02151851
3126.59675171,0.02154021
3128.52555908,0.02138802
3130.45436645,0.02125495
3132.38317383,0.02121335
3134.31198120,0.02108761
3136.24078857,0.02095438
3138.16959595,0.02085617
3140.09840332,0.02072470
3142.02721069,0.02056927
3143.95601807,0.02048851
3145.88482544,0.02048541
3147.81363281,0.02037027
3149.74244019,0.02023822
3151.67124756,0.02010455
3153.60005493,0.02002837
3155.52886230,0.01994750
3157.45766968,0.01984417
3159.38647705,0.01977372
3161.31528442,0.01963592
3163.24409180,0.01961811
3165.17289917,0.01945071
3167.10170654,0.01925988
3169.03051392,0.01923442
3170.95932129,0.01913833
3172.88812866,0.01913013
3174.81693604,0.01901204
3176.74574341,0.01885618
3178.67455078,0.01879786
3180.60335815,0.01871079
3182.53216553,0.01863552
3184.46097290,0.01846312
3186.38978027,0.01836235
3188.31858765,0.01834943
3190.24739502,0.01815759
3192.17620239,0.01813465
3194.10500977,0.01820550
3196.03381714,0.01795263
3197.96262451,0.01783026
3199.89143188,0.01787107
3201.82023926,0.01785255
3203.74904663,0.01775450
3205.67785400,0.01764498
3207.60666138,0.01760863
3209.53546875,0.01749778
3211.46427612,0.01749171
3213.39308350,0.01736095
3215.32189087,0.01727209
3217.25069824,0.01729509
3219.17950562,0.01714137
3221.10831299,0.01711993
3223.03712036,0.01710448
3224.96592773,0.01707743
3226.89473511,0.01695198
3228.82354248,0.01697257
3230.75234985,0.01699615
3232.68115723,0.01681104
3234.60996460,0.01688704
3236.53877197,0.01678452
3238.46757935,0.01674597
3240.39638672,0.01680005
3242.32519409,0.01668617
3244.25400146,0.01669068
3246.18280884,0.01664327
3248.11161621,0.01654313
3250.04042358,0.01648425
3251.96923096,0.01655402
3253.89803833,0.01652799
3255.82684570,0.01658033
3257.75565308,0.01658502
3259.68446045,0.01643954
3261.61326782,0.01646080
3263.54207520,0.01635309
3265.47088257,0.01641388
3267.39968994,0.01650613
3269.32849731,0.01641032
3271.25730469,0.01631449
3273.18611206,0.01628117
3275.11491943,0.01631181
3277.04372681,0.01626930
3278.97253418,0.01632334
3280.90134155,0.01630699
3282.83014893,0.01626308
3284.75895630,0.01626397
3286.68776367,0.01631063
3288.61657104,0.01629057
3290.54537842,0.01627684
3292.47418579,0.01625394
3294.40299316,0.01609962
3296.33180054,0.01623028
3298.26060791,0.01605773
3300.18941528,0.01598751
3302.11822266,0.01612794
3304.04703003,0.01603174
3305.97583740,0.01607819
3307.90464478,0.01594766
3309.83345215,0.01601169
3311.76225952,0.01595269
3313.69106689,0.01594650
3315.61987427,0.01602536
3317.54868164,0.01590662
3319.47748901,0.01602605
3321.40629639,0.01591103
3323.33510376,0.01601868
3325.26391113,0.01591388
3327.19271851,0.01585748
3329.12152588,0.01604889
3331.05033325,0.01580906
3332.97914062,0.01591115
3334.90794800,0.01583103
3336.83675537,0.01575696
3338.76556274,0.01585513
3340.69437012,0.01582152
3342.62317749,0.01579941
3344.55198486,0.01572538
3346.48079224,0.01585995
3348.40959961,0.01577668
3350.33840698,0.01572186
3352.26721436,0.01575835
3354.19602173,0.01571657
3356.12482910,0.01570243
3358.05363647,0.01568359
3359.98244385,0.01566230
3361.91125122,0.01557685
3363.84005859,0.01564723
3365.76886597,0.01560496
3367.69767334,0.01556949
3369.62648071,0.01552470
3371.55528809,0.01557313
3373.48409546,0.01571580
3375.41290283,0.01564421
3377.34171020,0.01563702
3379.27051758,0.01560590
3381.19932495,0.01561864
3383.12813232,0.01549617
3385.05693970,0.01553879
3386.98574707,0.01563274
3388.91455444,0.01560912
3390.84336182,0.01565265
3392.77216919,0.01541230
3394.70097656,0.01552578
3396.62978394,0.01563197
3398.55859131,0.01556322
3400.48739868,0.01558733
3402.41620605,0.01564299
3404.34501343,0.01566913
3406.27382080,0.01557456
3408.20262817,0.01575276
3410.13143555,0.01565115
3412.06024292,0.01567264
3413.98905029,0.01576567
3415.91785767,0.01575248
3417.84666504,0.01583855
3419.77547241,0.01567554
3421.70427979,0.01571236
3423.63308716,0.01568205
3425.56189453,0.01579623
3427.49070190,0.01572833
3429.41950928,0.01573642
3431.34831665,0.01592249
3433.27712402,0.01578721
3435.20593140,0.01595870
3437.13473877,0.01584379
3439.06354614,0.01596262
3440.99235352,0.01591231
3442.92116089,0.01584020
3444.84996826,0.01614372
3446.77877563,0.01576446
3448.70758301,0.01584317
3450.63639038,0.01606391
3452.56519775,0.01613475
3454.49400513,0.01609322
3456.42281250,0.01601089
3458.35161987,0.01622090
3460.28042725,0.01603381
3462.20923462,0.01610575
3464.13804199,0.01628771
3466.06684937,0.01621919
3467.99565674,0.01615166
3469.92446411,0.01619029
3471.85327148,0.01623895
3473.78207886,0.01631119
3475.71088623,0.01638676
3477.63969360,0.01630145
3479.56850098,0.01646455
3481.49730835,0.01629902
3483.42611572,0.01626978
3485.35492310,0.01654843
3487.28373047,0.01649934
3489.21253784,0.01646647
3491.14134521,0.01650515
3493.07015259,0.01661959
3494.99895996,0.01654532
3496.92776733,0.01660902
3498.85657471,0.01673592
3500.78538208,0.01677926
3502.71418945,0.01650769
3504.64299683,0.01647851
3506.57180420,0.01697163
3508.50061157,0.01672826
3510.42941895,0.01683009
3512.35822632,0.01701813
3514.28703369,0.01700358
3516.21584106,0.01720160
3518.14464844,0.01706463
3520.07345581,0.01718870
3522.00226318,0.01698368
3523.93107056,0.01680942
3525.85987793,0.01695450
3527.78868530,0.01702431
3529.71749268,0.01711855
3531.64630005,0.01724464
3533.57510742,0.01749337
3535.50391479,0.01729693
3537.43272217,0.01722079
3539.36152954,0.01747524
3541.29033691,0.01758026
3543.21914429,0.01741885
3545.14795166,0.01710283
3547.07675903,0.01700742
3549.00556641,0.01745373
3550.93437378,0.01758194
3552.86318115,0.01714353
3554.79198853,0.01761122
3556.72079590,0.01779048
3558.64960327,0.01768042
3560.57841064,0.01768363
3562.50721802,0.01755195
3564.43602539,0.01779610
3566.36483276,0.01658933
3568.29364014,0.01601330
3570.22244751,0.01748031
3572.15125488,0.01809393
3574.08006226,0.01789677
3576.00886963,0.01790273
3577.93767700,0.01792283
3579.86648437,0.01797682
3581.79529175,0.01797578
3583.72409912,0.01806863
3585.65290649,0.01771874
3587.58171387,0.01620530
3589.51052124,0.01672368
3591.43932861,0.01829506
3593.36813599,0.01778968
3595.29694336,0.01755266
3597.22575073,0.01790541
3599.15455811,0.01815470
3601.08336548,0.01800196
3603.01217285,0.01812503
3604.94098022,0.01852004
3606.86978760,0.01781027
3608.79859497,0.01682295
3610.72740234,0.01718536
3612.65620972,0.01757610
3614.58501709,0.01725992
3616.51382446,0.01850763
3618.44263184,0.01708691
3620.37143921,0.01651480
3622.30024658,0.01871673
3624.22905395,0.01825687
3626.15786133,0.01913241
3628.08666870,0.01623519
3630.01547607,0.01472829
3631.94428345,0.01860960
3633.87309082,0.01820968
3635.80189819,0.01853551
3637.73070557,0.01885109
3639.65951294,0.01871930
3641.58832031,0.01897562
3643.51712769,0.01862291
3645.44593506,0.01893881
3647.37474243,0.01694536
3649.30354980,0.01554256
3651.23235718,0.01575749
3653.16116455,0.01874705
3655.08997192,0.01868780
3657.01877930,0.01670570
3658.94758667,0.01939571
3660.87639404,0.01901542
3662.80520142,0.01923279
3664.73400879,0.01920515
3666.66281616,0.01897391
3668.59162354,0.01866004
3670.52043091,0.01517025
3672.44923828,0.01836322
3674.37804565,0.01761187
3676.30685303,0.01440706
3678.23566040,0.01826050
3680.16446777,0.01876763
3682.09327515,0.01887944
3684.02208252,0.01945300
3685.95088989,0.01911296
3687.87969727,0.01726184
3689.80850464,0.01562453
3691.73731201,0.01803312
3693.66611938,0.01872251
3695.59492676,0.01908934
3697.52373413,0.01915831
3699.45254150,0.01889449
3701.38134888,0.01839072
3703.31015625,0.01763171
3705.23896362,0.01949425
3707.16777100,0.01851154
3709.09657837,0.01802585
3711.02538574,0.01719327
3712.95419312,0.01589550
3714.88300049,0.01867617
3716.81180786,0.01853371
3718.74061523,0.01862266
3720.66942261,0.01833975
3722.59822998,0.01770559
3724.52703735,0.01840717
3726.45584473,0.01695195
3728.38465210,0.01841246
3730.31345947,0.01827459
3732.24226685,0.01669978
3734.17107422,0.01638421
3736.09988159,0.01542810
3738.02868896,0.01643092
3739.95749634,0.01786150
3741.88630371,0.01863744
3743.81511108,0.01457310
3745.74391846,0.01360188
3747.67272583,0.01775160
3749.60153320,0.01528111
3751.53034058,0.01401491
3753.45914795,0.01621639
3755.38795532,0.01738492
3757.31676270,0.01816433
3759.24557007,0.01675220
3761.17437744,0.01732179
3763.10318481,0.01856794
3765.03199219,0.01722842
3766.96079956,0.01762346
3768.88960693,0.01742631
3770.81841431,0.01649619
3772.74722168,0.01804369
3774.67602905,0.01812290
3776.60483643,0.01804784
3778.53364380,0.01758311
3780.46245117,0.01684681
3782.39125854,0.01801955
3784.32006592,0.01767684
3786.24887329,0.01752507
3788.17768066,0.01777903
3790.10648804,0.01774072
3792.03529541,0.01772673
3793.96410278,0.01791385
3795.89291016,0.01690736
3797.82171753,0.01668159
3799.75052490,0.01761140
3801.67933228,0.01394445
3803.60813965,0.01618990
3805.53694702,0.01776410
3807.46575439,0.01445900
3809.39456177,0.01750054
3811.32336914,0.01712546
3813.25217651,0.01770461
3815.18098389,0.01616063
3817.10979126,0.01400152
3819.03859863,0.01771684
3820.96740601,0.01437923
3822.89621338,0.01506805
3824.82502075,0.01769717
3826.75382812,0.01597612
3828.68263550,0.01722091
3830.61144287,0.01653475
3832.54025024,0.01590888
3834.46905762,0.01632910
3836.39786499,0.01567215
3838.32667236,0.01407032
3840.25547974,0.01513186
3842.18428711,0.01639539
3844.11309448,0.01561719
3846.04190186,0.01693133
3847.97070923,0.01664270
3849.89951660,0.01672882
3851.82832397,0.01505575
3853.75713135,0.01112540
3855.68593872,0.01319990
3857.61474609,0.01667844
3859.54355347,0.01638320
3861.47236084,0.01615267
3863.40116821,0.01582771
3865.32997559,0.01467756
3867.25878296,0.01637542
3869.18759033,0.01501975
3871.11639770,0.01376883
3873.04520508,0.01649736
3874.97401245,0.01507658
3876.90281982,0.01628492
3878.83162720,0.01680182
3880.76043457,0.01420501
3882.68924194,0.01639524
3884.61804932,0.01540843
3886.54685669,0.01397321
3888.47566406,0.01633161
3890.40447144,0.01566334
3892.33327881,0.01463595
3894.26208618,0.01582928
3896.19089355,0.01632435
3898.11970093,0.01551962
3900.04850830,0.01463901
3901.97731567,0.01453733
3903.90612305,0.01434436
3905.83493042,0.01465942
3907.76373779,0.01599889
3909.69254517,0.01605691
3911.62135254,0.01593513
3913.55015991,0.01608175
3915.47896728,0.01555549
3917.40777466,0.01517016
3919.33658203,0.01504234
3921.26538940,0.01557530
3923.19419678,0.01550096
3925.12300415,0.01517946
3927.05181152,0.01549739
3928.98061890,0.01561853
3930.90942627,0.01525446
3932.83823364,0.01484678
3934.76704102,0.01545748
3936.69584839,0.01562575
3938.62465576,0.01549538
3940.55346313,0.01558907
3942.48227051,0.01503642
3944.41107788,0.01509142
3946.33988525,0.01540413
3948.26869263,0.01510836
3950.19750000,0.01500886
3952.12630737,0.01531194
3954.05511475,0.01532286
3955.98392212,0.01523602
3957.91272949,0.01519132
3959.84153687,0.01515576
3961.77034424,0.01513047
3963.69915161,0.01500100
3965.62795898,0.01518652
3967.55676636,0.01513716
3969.48557373,0.01504127
3971.41438110,0.01507118
3973.34318848,0.01499601
3975.27199585,0.01496456
3977.20080322,0.01494003
3979.12961060,0.01502277
3981.05841797,0.01484117
3982.98722534,0.01482858
3984.91603271,0.01487668
3986.84484009,0.01489320
3988.77364746,0.01483915
3990.70245483,0.01471460
3992.63126221,0.01487054
3994.56006958,0.01468386
3996.48887695,0.01475140
3998.41768433,0.01480068
4000.34649170,0.01470589
4002.27529907,0.01475426
4004.20410645,0.01458895
4006.13291382,0.01458465
4008.06172119,0.01449192
4009.99052856,0.01459597
4011.91933594,0.01454069
4013.84814331,0.01443021
4015.77695068,0.01449641
4017.70575806,0.01440817
4019.63456543,0.01449842
4021.56337280,0.01439960
4023.49218018,0.01445434
4025.42098755,0.01437189
4027.34979492,0.01421900
4029.27860229,0.01435712
4031.20740967,0.01425995
4033.13621704,0.01422269
4035.06502441,0.01420937
4036.99383179,0.01418952
4038.92263916,0.01412617
4040.85144653,0.01411460
4042.78025391,0.01413866
4044.70906128,0.01411631
4046.63786865,0.01409516
4048.56667603,0.01404770
4050.49548340,0.01411789
4052.42429077,0.01400424
4054.35309814,0.01390685
4056.28190552,0.01391074
4058.21071289,0.01395311
4060.13952026,0.01396361
4062.06832764,0.01386712
4063.99713501,0.01378298
4065.92594238,0.01375466
4067.85474976,0.01390975
4069.78355713,0.01378640
4071.71236450,0.01368271
4073.64117187,0.01366622
4075.56997925,0.01363683
4077.49878662,0.01376598
4079.42759399,0.01363628
4081.35640137,0.01353710
4083.28520874,0.01356869
4085.21401611,0.01361862
4087.14282349,0.01352168
4089.07163086,0.01351187
4091.00043823,0.01348538
4092.92924561,0.01334672
4094.85805298,0.01347906
4096.78686035,0.01339631
4098.71566772,0.01338662
4100.64447510,0.01338351
4102.57328247,0.01339331
4104.50208984,0.01338806
4106.43089722,0.01321652
4108.35970459,0.01332035
4110.28851196,0.01316529
4112.21731934,0.01320332
4114.14612671,0.01328485
4116.07493408,0.01312888
4118.00374145,0.01319138
4119.93254883,0.01309543
4121.86135620,0.01311654
4123.79016357,0.01313462
4125.71897095,0.01304442
4127.64777832,0.01302283
4129.57658569,0.01300692
4131.50539307,0.01298849
4133.43420044,0.01290572
4135.36300781,0.01287248
4137.29181519,0.01290998
4139.22062256,0.01290466
4141.14942993,0.01282791
4143.07823730,0.01280037
4145.00704468,0.01268973
4146.93585205,0.01274714
4148.86465942,0.01282371
4150.79346680,0.01274159
4152.72227417,0.01271487
4154.65108154,0.01263443
4156.57988892,0.01273504
4158.50869629,0.01268057
4160.43750366,0.01266319
4162.36631103,0.01266556
4164.29511841,0.01255789
4166.22392578,0.01267787
4168.15273315,0.01252494
4170.08154053,0.01246705
4172.01034790,0.01250822
4173.93915527,0.01252314
4175.86796265,0.01252506
4177.79677002,0.01237463
4179.72557739,0.01238149
4181.65438477,0.01234684
4183.58319214,0.01238149
4185.51199951,0.01227676
4187.44080688,0.01218248
4189.36961426,0.01226763
4191.29842163,0.01221689
4193.22722900,0.01217395
4195.15603638,0.01206489
4197.08484375,0.01211493
4199.01365112,0.01217640
4200.94245850,0.01213890
4202.87126587,0.01215339
4204.80007324,0.01211198
4206.72888062,0.01209377
4208.65768799,0.01205517
4210.58649536,0.01201156
4212.51530273,0.01199347
4214.44411011,0.01198267
4216.37291748,0.01194515
4218.30172485,0.01192683
4220.23053223,0.01189227
4222.15933960,0.01194108
4224.08814697,0.01190650
4226.01695435,0.01173621
4227.94576172,0.01178719
4229.87456909,0.01174217
4231.80337646,0.01170154
4233.73218384,0.01173430
4235.66099121,0.01173069
4237.58979858,0.01168599
4239.51860596,0.01160895
4241.44741333,0.01167523
4243.37622070,0.01160177
4245.30502808,0.01162806
4247.23383545,0.01163822
4249.16264282,0.01155080
4251.09145020,0.01154855
4253.02025757,0.01145152
4254.94906494,0.01147687
4256.87787231,0.01142447
4258.80667969,0.01140792
4260.73548706,0.01145334
4262.66429443,0.01135762
4264.59310181,0.01129975
4266.52190918,0.01126246
4268.45071655,0.01125442
4270.37952393,0.01131313
4272.30833130,0.01137946
4274.23713867,0.01129819
4276.16594604,0.01128355
4278.09475342,0.01125943
4280.02356079,0.01123220
4281.95236816,0.01127216
4283.88117554,0.01118749
4285.80998291,0.01118278
4287.73879028,0.01111874
4289.66759766,0.01111915
4291.59640503,0.01109998
4293.52521240,0.01100641
4295.45401978,0.01105268
4297.38282715,0.01100285
4299.31163452,0.01098682
4301.24044189,0.01100695
4303.16924927,0.01098637
4305.09805664,0.01087207
4307.02686401,0.01083151
4308.95567139,0.01081347
4310.88447876,0.01074995
4312.81328613,0.01083240
4314.74209351,0.01075825
4316.67090088,0.01078355
4318.59970825,0.01077367
4320.52851562,0.01067009
4322.45732300,0.01078624
4324.38613037,0.01068665
4326.31493774,0.01060317
4328.24374512,0.01066324
4330.17255249,0.01061120
4332.10135986,0.01063401
4334.03016724,0.01062699
4335.95897461,0.01055900
4337.88778198,0.01057603
4339.81658936,0.01045544
4341.74539673,0.01043052
4343.67420410,0.01053253
4345.60301147,0.01050523
4347.53181885,0.01054006
4349.46062622,0.01045925
4351.38943359,0.01040074
4353.31824097,0.01032671
4355.24704834,0.01027456
4357.17585571,0.01036250
4359.10466309,0.01029063
4361.03347046,0.01033488
4362.96227783,0.01031855
4364.89108520,0.01026672
4366.81989258,0.01023473
4368.74869995,0.01019862
4370.67750732,0.01028531
4372.60631470,0.01020265
4374.53512207,0.01018201
4376.46392944,0.01010856
4378.39273682,0.01007097
4380.32154419,0.01010326
4382.25035156,0.00998185
4384.17915894,0.00999490
4386.10796631,0.01005724
4388.03677368,0.01007233
4389.96558105,0.00994464
4391.89438843,0.00992609
4393.82319580,0.00996408
4395.75200317,0.00987346
4397.68081055,0.00989367
4399.60961792,0.00984586
4401.53842529,0.00983915
4403.46723267,0.00986596
4405.39604004,0.00979032
4407.32484741,0.00979199
4409.25365478,0.00983088
4411.18246216,0.00975556
4413.11126953,0.00970984
4415.04007690,0.00970319
4416.96888428,0.00963150
4418.89769165,0.00967473
4420.82649902,0.00968809
4422.75530640,0.00968448
4424.68411377,0.00970615
4426.61292114,0.00968318
4428.54172852,0.00967393
4430.47053589,0.00957779
4432.39934326,0.00950490
4434.32815063,0.00948912
4436.25695801,0.00946647
4438.18576538,0.00948041
4440.11457275,0.00946634
4442.04338013,0.00939713
4443.97218750,0.00946178
4445.90099487,0.00940446
4447.82980225,0.00927380
4449.75860962,0.00935704
4451.68741699,0.00929096
4453.61622437,0.00925628
4455.54503174,0.00927176
4457.47383911,0.00932715
4459.40264648,0.00929428
4461.33145386,0.00915013
4463.26026123,0.00926625
4465.18906860,0.00923936
4467.11787598,0.00926721
4469.04668335,0.00922698
4470.97549072,0.00911419
4472.90429810,0.00914939
4474.83310547,0.00904810
4476.76191284,0.00906979
4478.69072021,0.00897243
4480.61952759,0.00898054
4482.54833496,0.00905547
4484.47714233,0.00900168
4486.40594971,0.00901234
4488.33475708,0.00895765
4490.26356445,0.00901814
4492.19237183,0.00895234
4494.12117920,0.00891795
4496.04998657,0.00891841
4497.97879395,0.00889745
4499.90760132,0.00893008
4501.83640869,0.00887624
4503.76521606,0.00888322
4505.69402344,0.00878113
4507.62283081,0.00880546
4509.55163818,0.00878580
4511.48044556,0.00877950
4513.40925293,0.00882469
4515.33806030,0.00866807
4517.26686768,0.00874006
4519.19567505,0.00874303
4521.12448242,0.00869495
4523.05328979,0.00864643
4524.98209717,0.00859965
4526.91090454,0.00865412
4528.83971191,0.00858964
4530.76851929,0.00858175
4532.69732666,0.00858423
4534.62613403,0.00859452
4536.55494141,0.00856723
4538.48374878,0.00853596
4540.41255615,0.00848241
4542.34136353,0.00846830
4544.27017090,0.00842307
4546.19897827,0.00833133
4548.12778564,0.00850197
4550.05659302,0.00841124
4551.98540039,0.00834336
4553.91420776,0.00840215
4555.84301514,0.00829873
4557.77182251,0.00836826
4559.70062988,0.00834744
4561.62943726,0.00829824
4563.55824463,0.00824350
4565.48705200,0.00821438
4567.41585937,0.00824214
4569.34466675,0.00821015
4571.27347412,0.00816102
4573.20228149,0.00815989
4575.13108887,0.00822163
4577.05989624,0.00812008
4578.98870361,0.00816313
4580.91751099,0.00815810
4582.84631836,0.00803316
4584.77512573,0.00808974
4586.70393311,0.00804354
4588.63274048,0.00802737
4590.56154785,0.00801580
4592.49035522,0.00795807
4594.41916260,0.00796506
4596.34796997,0.00800929
4598.27677734,0.00799220
4600.20558472,0.00796735
4602.13439209,0.00794791
4604.06319946,0.00787481
4605.99200684,0.00792973
4607.92081421,0.00786490
4609.84962158,0.00785561
4611.77842895,0.00788908
4613.70723633,0.00778009
4615.63604370,0.00783485
4617.56485107,0.00780376
4619.49365845,0.00778832
4621.42246582,0.00782035
4623.35127319,0.00773145
4625.28008057,0.00769577
4627.20888794,0.00770217
4629.13769531,0.00773296
4631.06650269,0.00769872
4632.99531006,0.00762679
4634.92411743,0.00764611
4636.85292480,0.00758947
4638.78173218,0.00746022
4640.71053955,0.00754070
4642.63934692,0.00758164
4644.56815430,0.00751971
4646.49696167,0.00754021
4648.42576904,0.00750497
4650.35457642,0.00750454
4652.28338379,0.00754811
4654.21219116,0.00752542
4656.14099853,0.00746288
4658.06980591,0.00749697
4659.99861328,0.00741299
4661.92742065,0.00735964
4663.85622803,0.00748184
4665.78503540,0.00736952
4667.71384277,0.00741214
4669.64265015,0.00743696
4671.57145752,0.00730972
4673.50026489,0.00734663
4675.42907227,0.00730907
4677.35787964,0.00727660
4679.28668701,0.00723099
4681.21549438,0.00729573
4683.14430176,0.00729682
4685.07310913,0.00721593
4687.00191650,0.00725620
4688.93072388,0.00712695
4690.85953125,0.00705937
4692.78833862,0.00708116
4694.71714600,0.00715031
4696.64595337,0.00720310
4698.57476074,0.00711505
4700.50356812,0.00712019
4702.43237549,0.00712296
4704.36118286,0.00711274
4706.28999023,0.00713729
4708.21879761,0.00705706
4710.14760498,0.00697161
4712.07641235,0.00703874
4714.00521973,0.00700441
4715.93402710,0.00689043
4717.86283447,0.00694746
4719.79164185,0.00695509
4721.72044922,0.00691613
4723.64925659,0.00690576
4725.57806396,0.00687185
4727.50687134,0.00685969
4729.43567871,0.00692475
4731.36448608,0.00696392
4733.29329346,0.00686985
4735.22210083,0.00684211
4737.15090820,0.00683419
4739.07971558,0.00679248
4741.00852295,0.00679306
4742.93733032,0.00672992
4744.86613770,0.00671307
4746.79494507,0.00674924
4748.72375244,0.00674267
4750.65255981,0.00676959
4752.58136719,0.00671543
4754.51017456,0.00665499
4756.43898193,0.00663709
4758.36778931,0.00658143
4760.29659668,0.00663969
4762.22540405,0.00667021
4764.15421143,0.00663088
4766.08301880,0.00655685
4768.01182617,0.00656365
4769.94063354,0.00660284
4771.86944092,0.00649827
4773.79824829,0.00657004
4775.72705566,0.00656482
4777.65586304,0.00651455
4779.58467041,0.00651608
4781.51347778,0.00643109
4783.44228516,0.00651555
4785.37109253,0.00646669
4787.29989990,0.00640005
4789.22870728,0.00637727
4791.15751465,0.00636004
4793.08632202,0.00634910
4795.01512939,0.00627565
4796.94393677,0.00639781
4798.87274414,0.00630834
4800.80155151,0.00623237
4802.73035889,0.00631939
4804.65916626,0.00632995
4806.58797363,0.00640760
4808.51678101,0.00634489
4810.44558838,0.00629784
4812.37439575,0.00628190
4814.30320312,0.00627548
4816.23201050,0.00625160
4818.16081787,0.00618837
4820.08962524,0.00623430
4822.01843262,0.00623996
4823.94723999,0.00618891
4825.87604736,0.00612963
4827.80485474,0.00618851
4829.73366211,0.00619622
4831.66246948,0.00610979
4833.59127686,0.00609350
4835.52008423,0.00611450
4837.44889160,0.00606886
4839.37769897,0.00594307
4841.30650635,0.00603035
4843.23531372,0.00604215
4845.16412109,0.00601847
4847.09292847,0.00601423
4849.02173584,0.00590009
4850.95054321,0.00601543
4852.87935059,0.00598657
4854.80815796,0.00591424
4856.73696533,0.00596169
4858.66577270,0.00592373
4860.59458008,0.00588269
4862.52338745,0.00579041
4864.45219482,0.00582755
4866.38100220,0.00581421
4868.30980957,0.00572896
4870.23861694,0.00577970
4872.16742432,0.00584217
4874.09623169,0.00583961
4876.02503906,0.00577286
4877.95384644,0.00573587
4879.88265381,0.00567950
4881.81146118,0.00576584
4883.74026855,0.00585696
4885.66907593,0.00570484
4887.59788330,0.00569780
4889.52669067,0.00575402
4891.45549805,0.00567214
4893.38430542,0.00562770
4895.31311279,0.00563509
4897.24192017,0.00563580
4899.17072754,0.00558302
4901.09953491,0.00560330
4903.02834228,0.00566232
4904.95714966,0.00562084
4906.88595703,0.00561641
4908.81476440,0.00557045
4910.74357178,0.00552866
4912.67237915,0.00561497
4914.60118652,0.00557191
4916.52999390,0.00551738
4918.45880127,0.00560676
4920.38760864,0.00558217
4922.31641602,0.00551654
4924.24522339,0.00551666
4926.17403076,0.00548438
4928.10283813,0.00548960
4930.03164551,0.00543242
4931.96045288,0.00538472
4933.88926025,0.00542838
4935.81806763,0.00542312
4937.74687500,0.00543219
4939.67568237,0.00536309
4941.60448975,0.00538659
4943.53329712,0.00540035
4945.46210449,0.00529317
4947.39091187,0.00533230
4949.31971924,0.00529297
4951.24852661,0.00533994
4953.17733398,0.00533351
4955.10614136,0.00525793
4957.03494873,0.00532703
4958.96375610,0.00524783
4960.89256348,0.00529226
4962.82137085,0.00521676
4964.75017822,0.00510226
4966.67898560,0.00520560
4968.60779297,0.00515472
4970.53660034,0.00519709
4972.46540771,0.00519297
4974.39421509,0.00516953
4976.32302246,0.00520453
4978.25182983,0.00510001
4980.18063721,0.00519561
4982.10944458,0.00516124
4984.03825195,0.00499592
4985.96705933,0.00512181
4987.89586670,0.00507983
4989.82467407,0.00498730
4991.75348145,0.00499166
4993.68228882,0.00494073
4995.61109619,0.00503615
4997.53990356,0.00504521
4999.46871094,0.00503147
5001.39751831,0.00497356
5003.32632568,0.00492862
5005.25513306,0.00503818
5007.18394043,0.00496084
5009.11274780,0.00492121
5011.04155518,0.00490083
5012.97036255,0.00497169
5014.89916992,0.00497907
5016.82797729,0.00485450
5018.75678467,0.00494632
5020.68559204,0.00484137
5022.61439941,0.00488053
5024.54320679,0.00491599
5026.47201416,0.00478594
5028.40082153,0.00486977
5030.32962891,0.00481100
5032.25843628,0.00480741
5034.18724365,0.00484424
5036.11605103,0.00484147
5038.04485840,0.00475539
5039.97366577,0.00470626
5041.90247314,0.00480975
5043.83128052,0.00471728
5045.76008789,0.00469327
5047.68889526,0.00470628
5049.61770264,0.00470422
5051.54651001,0.00476006
5053.47531738,0.00471900
5055.40412476,0.00465934
5057.33293213,0.00463984
5059.26173950,0.00462329
5061.19054687,0.00463460
5063.11935425,0.00464670
5065.04816162,0.00454905
5066.97696899,0.00461437
5068.90577637,0.00462052
5070.83458374,0.00457456
5072.76339111,0.00462355
5074.69219849,0.00455662
5076.62100586,0.00461023
5078.54981323,0.00452167
5080.47862061,0.00449718
5082.40742798,0.00453629
5084.33623535,0.00445048
5086.26504272,0.00449318
5088.19385010,0.00444994
5090.12265747,0.00445738
5092.05146484,0.00447912
5093.98027222,0.00450999
5095.90907959,0.00440508
5097.83788696,0.00431236
5099.76669434,0.00439702
5101.69550171,0.00436580
5103.62430908,0.00446649
5105.55311645,0.00444714
5107.48192383,0.00435437
5109.41073120,0.00431436
5111.33953857,0.00433514
5113.26834595,0.00438343
5115.19715332,0.00429969
5117.12596069,0.00435317
5119.05476807,0.00429635
5120.98357544,0.00429331
5122.91238281,0.00429722
5124.84119019,0.00428671
5126.76999756,0.00437461
5128.69880493,0.00427784
5130.62761230,0.00421741
5132.55641968,0.00416038
5134.48522705,0.00425252
5136.41403442,0.00423502
5138.34284180,0.00417333
5140.27164917,0.00424618
5142.20045654,0.00414309
5144.12926392,0.00420055
5146.05807129,0.00420999
5147.98687866,0.00417936
5149.91568603,0.00414328
5151.84449341,0.00407469
5153.77330078,0.00408535
5155.70210815,0.00409705
5157.63091553,0.00417624
5159.55972290,0.00414365
5161.48853027,0.00417683
5163.41733765,0.00409330
5165.34614502,0.00399094
5167.27495239,0.00403828
5169.20375977,0.00402054
5171.13256714,0.00405713
5173.06137451,0.00403744
5174.99018188,0.00407694
5176.91898926,0.00399350
5178.84779663,0.00396330
5180.77660400,0.00400950
5182.70541138,0.00393144
5184.63421875,0.00397790
5186.56302612,0.00394862
5188.49183350,0.00401798
5190.42064087,0.00399960
5192.34944824,0.00395063
5194.27825562,0.00398593
5196.20706299,0.00389463
5198.13587036,0.00392623
5200.06467773,0.00389720
5201.99348511,0.00391258
5203.92229248,0.00387333
5205.85109985,0.00377763
5207.77990723,0.00379344
5209.70871460,0.00379064
5211.63752197,0.00385653
5213.56632935,0.00380777
5215.49513672,0.00380758
5217.42394409,0.00384866
5219.35275146,0.00382404
5221.28155884,0.00383270
5223.21036621,0.00375222
5225.13917358,0.00370689
5227.06798096,0.00377742
5228.99678833,0.00382244
5230.92559570,0.00378958
5232.85440308,0.00380098
5234.78321045,0.00377993
5236.71201782,0.00376259
5238.64082520,0.00372490
5240.56963257,0.00368871
5242.49843994,0.00370714
5244.42724731,0.00363699
5246.35605469,0.00369288
5248.28486206,0.00361526
5250.21366943,0.00360411
5252.14247681,0.00374887
5254.07128418,0.00356824
5256.00009155,0.00357710
5257.92889893,0.00366372
5259.85770630,0.00359734
5261.78651367,0.00356834
5263.71532104,0.00349708
5265.64412842,0.00352963
5267.57293579,0.00357374
5269.50174316,0.00358386
5271.43055054,0.00364274
5273.35935791,0.00363143
5275.28816528,0.00354943
5277.21697266,0.00358809
5279.14578003,0.00359409
5281.07458740,0.00352857
5283.00339478,0.00355567
5284.93220215,0.00350560
5286.86100952,0.00355535
5288.78981689,0.00354956
5290.71862427,0.00339487
5292.64743164,0.00350932
5294.57623901,0.00354790
5296.50504639,0.00342832
5298.43385376,0.00345610
5300.36266113,0.00347933
5302.29146851,0.00345698
5304.22027588,0.00343581
5306.14908325,0.00339568
5308.07789062,0.00335408
5310.00669800,0.00337132
5311.93550537,0.00340392
5313.86431274,0.00341815
5315.79312012,0.00342975
5317.72192749,0.00338943
5319.65073486,0.00339237
5321.57954224,0.00335592
5323.50834961,0.00335481
5325.43715698,0.00339967
5327.36596436,0.00328149
5329.29477173,0.00331376
5331.22357910,0.00332808
5333.15238647,0.00330084
5335.08119385,0.00341627
5337.01000122,0.00328397
5338.93880859,0.00316693
5340.86761597,0.00328893
5342.79642334,0.00329661
5344.72523071,0.00310214
5346.65403809,0.00318281
5348.58284546,0.00333818
5350.51165283,0.00321702
5352.44046020,0.00319857
5354.36926758,0.00310592
5356.29807495,0.00318248
5358.22688232,0.00326560
5360.15568970,0.00315948
5362.08449707,0.00324362
5364.01330444,0.00316009
5365.94211182,0.00318915
5367.87091919,0.00319513
5369.79972656,0.00316305
5371.72853394,0.00327622
5373.65734131,0.00312569
5375.58614868,0.00306924
5377.51495605,0.00305495
5379.44376343,0.00311691
5381.37257080,0.00320001
5383.30137817,0.00316032
5385.23018555,0.00315458
5387.15899292,0.00306297
5389.08780029,0.00313520
5391.01660767,0.00311586
5392.94541504,0.00300994
5394.87422241,0.00302842
5396.80302978,0.00304460
5398.73183716,0.00308219
5400.66064453,0.00303598
5402.58945190,0.00307014
5404.51825928,0.00302861
5406.44706665,0.00301472
5408.37587402,0.00303997
5410.30468140,0.00292465
5412.23348877,0.00295513
5414.16229614,0.00287166
5416.09110352,0.00288306
5418.01991089,0.00302670
5419.94871826,0.00298770
5421.87752563,0.00303917
5423.80633301,0.00302174
5425.73514038,0.00297368
5427.66394775,0.00293692
5429.59275513,0.00285088
5431.52156250,0.00293249
5433.45036987,0.00292655
5435.37917725,0.00283418
5437.30798462,0.00287595
5439.23679199,0.00289397
5441.16559936,0.00284199
5443.09440674,0.00287136
5445.02321411,0.00287818
5446.95202148,0.00276957
5448.88082886,0.00285616
5450.80963623,0.00284962
5452.73844360,0.00271385
5454.66725098,0.00281390
5456.59605835,0.00279300
5458.52486572,0.00288571
5460.45367310,0.00294324
5462.38248047,0.00273852
5464.31128784,0.00281478
5466.24009521,0.00281890
5468.16890259,0.00274884
5470.09770996,0.00280546
5472.02651733,0.00278801
5473.95532471,0.00274981
5475.88413208,0.00268243
5477.81293945,0.00275750
5479.74174683,0.00282076
5481.67055420,0.00273707
5483.59936157,0.00273680
5485.52816895,0.00274800
5487.45697632,0.00268282
5489.38578369,0.00270169
5491.31459106,0.00268651
5493.24339844,0.00255786
5495.17220581,0.00265206
5497.10101318,0.00270886
5499.02982056,0.00264844
5500.95862793,0.00271235
5502.88743530,0.00265232
5504.81624268,0.00260724
5506.74505005,0.00267219
5508.67385742,0.00268429
5510.60266479,0.00266074
5512.53147217,0.00261426
5514.46027954,0.00258288
5516.38908691,0.00258198
5518.31789429,0.00262427
5520.24670166,0.00267451
5522.17550903,0.00262051
5524.10431641,0.00256126
5526.03312378,0.00259466
5527.96193115,0.00262794
5529.89073853,0.00268867
5531.81954590,0.00259621
5533.74835327,0.00248445
5535.67716064,0.00254339
5537.60596802,0.00249824
5539.53477539,0.00254334
5541.46358276,0.00259453
5543.39239014,0.00256851
5545.32119751,0.00256204
5547.25000488,0.00250930
5549.17881226,0.00261216
5551.10761963,0.00259009
5553.03642700,0.00247629
5554.96523437,0.00251072
5556.89404175,0.00251241
5558.82284912,0.00247523
5560.75165649,0.00246172
5562.68046387,0.00250928
5564.60927124,0.00249339
5566.53807861,0.00248717
5568.46688599,0.00251688
5570.39569336,0.00247425
5572.32450073,0.00241759
5574.25330811,0.00243594
5576.18211548,0.00243471
5578.11092285,0.00235268
5580.03973022,0.00245221
5581.96853760,0.00245493
5583.89734497,0.00237323
5585.82615234,0.00243175
5587.75495972,0.00241965
5589.68376709,0.00242700
5591.61257446,0.00238295
5593.54138184,0.00236871
5595.47018921,0.00239876
5597.39899658,0.00241252
5599.32780395,0.00237363
5601.25661133,0.00236371
5603.18541870,0.00245731
5605.11422607,0.00230471
5607.04303345,0.00236409
5608.97184082,0.00242978
5610.90064819,0.00229684
5612.82945557,0.00239195
5614.75826294,0.00227862
5616.68707031,0.00226938
5618.61587769,0.00231916
5620.54468506,0.00228494
5622.47349243,0.00233904
5624.40229980,0.00227046
5626.33110718,0.00234687
5628.25991455,0.00232750
5630.18872192,0.00228035
5632.11752930,0.00228485
5634.04633667,0.00227559
5635.97514404,0.00236037
5637.90395142,0.00225246
5639.83275879,0.00224978
5641.76156616,0.00222160
5643.69037353,0.00219270
5645.61918091,0.00232709
5647.54798828,0.00226604
5649.47679565,0.00224267
5651.40560303,0.00219424
5653.33441040,0.00217682
5655.26321777,0.00225912
5657.19202515,0.00221005
5659.12083252,0.00219914
5661.04963989,0.00218626
5662.97844727,0.00215389
5664.90725464,0.00217847
5666.83606201,0.00220538
5668.76486938,0.00218819
5670.69367676,0.00210757
5672.62248413,0.00206994
5674.55129150,0.00217680
5676.48009888,0.00224525
5678.40890625,0.00213682
5680.33771362,0.00212768
5682.26652100,0.00217256
5684.19532837,0.00210315
5686.12413574,0.00211089
5688.05294311,0.00212338
5689.98175049,0.00208135
5691.91055786,0.00208082
5693.83936523,0.00201865
5695.76817261,0.00204021
5697.69697998,0.00211580
5699.62578735,0.00205384
5701.55459473,0.00209696
5703.48340210,0.00212234
5705.41220947,0.00208833
5707.34101685,0.00213040
5709.26982422,0.00205968
5711.19863159,0.00199610
5713.12743896,0.00204590
5715.05624634,0.00208498
5716.98505371,0.00202600
5718.91386108,0.00207780
5720.84266846,0.00213029
5722.77147583,0.00199733
5724.70028320,0.00202472
5726.62909058,0.00204332
5728.55789795,0.00199636
5730.48670532,0.00198379
5732.41551270,0.00192129
5734.34432007,0.00195826
5736.27312744,0.00202714
5738.20193481,0.00202724
5740.13074219,0.00197675
5742.05954956,0.00198905
5743.98835693,0.00197676
5745.91716431,0.00196427
5747.84597168,0.00199631
5749.77477905,0.00191865
5751.70358643,0.00188872
5753.63239380,0.00190802
5755.56120117,0.00192334
5757.49000854,0.00188735
5759.41881592,0.00190773
5761.34762329,0.00194148
5763.27643066,0.00190363
5765.20523804,0.00191060
5767.13404541,0.00179427
5769.06285278,0.00185843
5770.99166016,0.00188824
5772.92046753,0.00180421
5774.84927490,0.00194334
5776.77808228,0.00189834
5778.70688965,0.00186177
5780.63569702,0.00185680
5782.56450439,0.00184605
5784.49331177,0.00192349
5786.42211914,0.00189621
5788.35092651,0.00181839
5790.27973389,0.00177302
5792.20854126,0.00192556
5794.13734863,0.00188400
5796.06615601,0.00173098
5797.99496338,0.00178099
5799.92377075,0.00180766
5801.85257812,0.00179825
5803.78138550,0.00170121
5805.71019287,0.00177367
5807.63900024,0.00177931
5809.56780762,0.00169335
5811.49661499,0.00180748
5813.42542236,0.00177693
5815.35422974,0.00177189
5817.28303711,0.00178196
5819.21184448,0.00175796
5821.14065186,0.00180865
5823.06945923,0.00176580
5824.99826660,0.00171881
5826.92707397,0.00170698
5828.85588135,0.00173015
5830.78468872,0.00171297
5832.71349609,0.00167582
5834.64230347,0.00171658
5836.57111084,0.00171370
5838.49991821,0.00171243
5840.42872559,0.00172094
5842.35753296,0.00168126
5844.28634033,0.00174833
5846.21514770,0.00174675
5848.14395508,0.00164792
5850.07276245,0.00170564
5852.00156982,0.00165972
5853.93037720,0.00160742
5855.85918457,0.00165699
5857.78799194,0.00166142
5859.71679932,0.00169466
5861.64560669,0.00165916
5863.57441406,0.00166819
5865.50322144,0.00162046
5867.43202881,0.00157609
5869.36083618,0.00162900
5871.28964355,0.00158508
5873.21845093,0.00161735
5875.14725830,0.00159060
5877.07606567,0.00162112
5879.00487305,0.00167083
5880.93368042,0.00155378
5882.86248779,0.00159306
5884.79129517,0.00163434
5886.72010254,0.00163454
5888.64890991,0.00162040
5890.57771728,0.00158178
5892.50652466,0.00157851
5894.43533203,0.00156882
5896.36413940,0.00164374
5898.29294678,0.00161433
5900.22175415,0.00153473
5902.15056152,0.00157683
5904.07936890,0.00161952
5906.00817627,0.00158519
5907.93698364,0.00155730
5909.86579102,0.00155124
5911.79459839,0.00147225
5913.72340576,0.00153316
5915.65221313,0.00155993
5917.58102051,0.00150730
5919.50982788,0.00158334
5921.43863525,0.00155410
5923.36744263,0.00155281
5925.29625000,0.00154814
5927.22505737,0.00152137
5929.15386475,0.00156098
5931.08267212,0.00151947
5933.01147949,0.00155212
5934.94028686,0.00148650
5936.86909424,0.00140552
5938.79790161,0.00150580
5940.72670898,0.00150405
5942.65551636,0.00148461
5944.58432373,0.00146625
5946.51313110,0.00143035
5948.44193848,0.00145466
5950.37074585,0.00144463
5952.29955322,0.00143931
5954.22836060,0.00145100
5956.15716797,0.00144094
5958.08597534,0.00145112
5960.01478271,0.00146082
5961.94359009,0.00143275
5963.87239746,0.00142270
5965.80120483,0.00140797
5967.73001221,0.00137786
5969.65881958,0.00136508
5971.58762695,0.00138013
5973.51643433,0.00143343
5975.44524170,0.00143335
5977.37404907,0.00141698
5979.30285645,0.00140534
5981.23166382,0.00137112
5983.16047119,0.00131899
5985.08927856,0.00130657
5987.01808594,0.00138393
5988.94689331,0.00134455
5990.87570068,0.00134925
5992.80450806,0.00142221
5994.73331543,0.00133733
5996.66212280,0.00139366
5998.59093018,0.00145299
6000.51973755,0.00132491
