399.26312622,0.00026685
401.19193359,0.00002488
403.12074097,-0.00001638
405.04954834,0.00029132
406.97835571,0.00032462
408.90716309,0.00029361
410.83597046,0.00027664
412.76477783,0.00024020
414.69358521,0.00019282
416.62239258,0.00014109
418.55119995,0.00019159
420.48000732,0.00025053
422.40881470,0.00021053
424.33762207,0.00001614
426.26642944,0.00004044
428.19523682,0.00027414
430.12404419,0.00035461
432.05285156,0.00017989
433.98165894,0.00007728
435.91046631,0.00043667
437.83927368,0.00041830
439.76808105,0.00007677
441.69688843,0.00001776
443.62569580,0.00013108
445.55450317,0.00034627
447.48331055,0.00024572
449.41211792,0.00020531
451.34092529,0.00020486
453.26973267,0.00024379
455.19854004,0.00025699
457.12734741,-0.00007923
459.05615479,0.00013482
460.98496216,0.00031503
462.91376953,0.00022249
464.84257690,0.00023579
466.77138428,0.00010024
468.70019165,0.00021530
470.62899902,0.00018677
472.55780640,0.00011783
474.48661377,0.00017746
476.41542114,0.00006047
478.34422852,0.00012679
480.27303589,0.00020414
482.20184326,0.00000368
484.13065063,0.00004016
486.05945801,0.00033348
487.98826538,0.00021883
489.91707275,0.00007416
491.84588013,0.00027292
493.77468750,0.00031547
495.70349487,0.00011603
497.63230225,0.00014212
499.56110962,0.00026993
501.48991699,0.00019504
503.41872437,0.00021187
505.34753174,0.00020353
507.27633911,0.00027732
509.20514648,0.00033274
511.13395386,0.00011954
513.06276123,0.00019467
514.99156860,0.00032037
516.92037598,0.00015419
518.84918335,0.00026255
520.77799072,0.00036407
522.70679810,-0.00001923
524.63560547,-0.00014637
526.56441284,-0.00002656
528.49322021,0.00003744
530.42202759,0.00018497
532.35083496,0.00015433
534.27964233,0.00007688
536.20844971,0.00020145
538.13725708,0.00016172
540.06606445,-0.00001491
541.99487183,0.00024020
543.92367920,0.00019063
545.85248657,0.00000864
547.78129395,0.00011705
549.71010132,0.00010495
551.63890869,0.00017392
553.56771606,0.00012985
555.49652344,0.00028193
557.42533081,0.00025596
559.35413818,0.00011091
561.28294556,0.00027182
563.21175293,0.00014363
565.14056030,0.00019533
567.06936768,0.00016407
568.99817505,0.00009666
570.92698242,0.00011053
572.85578979,0.00012250
574.78459717,0.00027835
576.71340454,0.00022543
578.64221191,0.00023387
580.57101929,0.00006817
582.49982666,0.00024504
584.42863403,0.00013381
586.35744141,-0.00004150
588.28624878,0.00049373
590.21505615,0.00005064
592.14386353,-0.00012007
594.07267090,0.00009493
596.00147827,0.00000579
597.93028564,0.00010938
599.85909302,0.00005520
601.78790039,0.00024216
603.71670776,0.00017209
605.64551514,0.00021267
607.57432251,0.00020306
609.50312988,0.00004684
611.43193726,0.00016161
613.36074463,0.00004146
615.28955200,0.00013974
617.21835938,0.00014402
619.14716675,0.00027705
621.07597412,0.00047097
623.00478149,0.00031667
624.93358887,0.00023114
626.86239624,0.00015722
628.79120361,0.00023606
630.72001099,0.00026536
632.64881836,0.00013561
634.57762573,0.00001707
636.50643311,0.00011457
638.43524048,0.00015300
640.36404785,0.00010701
642.29285522,0.00011461
644.22166260,0.00017842
646.15046997,0.00016814
648.07927734,-0.00020484
650.00808472,0.00004891
651.93689209,0.00016899
653.86569946,0.00022636
655.79450684,0.00025717
657.72331421,-0.00002112
659.65212158,0.00025936
661.58092896,0.00009929
663.50973633,0.00000773
665.43854370,0.00015957
667.36735107,0.00020791
669.29615845,0.00026605
671.22496582,0.00012537
673.15377319,0.00026907
675.08258057,0.00018593
677.01138794,0.00020573
678.94019531,0.00040354
680.86900269,0.00035481
682.79781006,0.00045420
684.72661743,0.00035822
686.65542480,0.00013477
688.58423218,0.00013802
690.51303955,0.00008859
692.44184692,0.00019924
694.37065430,0.00035069
696.29946167,0.00001299
698.22826904,0.00013020
700.15707642,0.00028815
702.08588379,0.00010147
704.01469116,0.00022456
705.94349854,0.00022441
707.87230591,0.00022770
709.80111328,0.00017751
711.72992065,0.00027359
713.65872803,0.00012830
715.58753540,0.00004923
717.51634277,0.00024008
719.44515015,0.00004216
721.37395752,0.00015635
723.30276489,0.00020251
725.23157227,0.00007684
727.16037964,0.00010694
729.08918701,0.00024430
731.01799438,0.00027842
732.94680176,-0.00000422
734.87560913,0.00013137
736.80441650,0.00017351
738.73322388,0.00007336
740.66203125,0.00036717
742.59083862,0.00012359
744.51964600,0.00002299
746.44845337,0.00029465
748.37726074,0.00009670
750.30606812,0.00009579
752.23487549,0.00026092
754.16368286,0.00010564
756.09249023,0.00000363
758.02129761,0.00021031
759.95010498,0.00018459
761.87891235,0.00005077
763.80771973,0.00027096
765.73652710,0.00029802
767.66533447,0.00012470
769.59414185,0.00029768
771.52294922,0.00038550
773.45175659,0.00016784
775.38056396,0.00014965
777.30937134,0.00006360
779.23817871,0.00028529
781.16698608,0.00043129
783.09579346,-0.00000248
785.02460083,0.00010316
786.95340820,0.00012628
788.88221558,0.00014870
790.81102295,0.00033770
792.73983032,0.00018232
794.66863770,0.00032594
796.59744507,0.00017387
798.52625244,0.00003869
800.45505981,0.00009829
802.38386719,0.00016303
804.31267456,0.00030094
806.24148193,-0.00003480
808.17028931,0.00004761
810.09909668,0.00027528
812.02790405,0.00021405
813.95671143,0.00011754
815.88551880,0.00006142
817.81432617,0.00030602
819.74313354,0.00018464
821.67194092,0.00014790
823.60074829,0.00012965
825.52955566,0.00008697
827.45836304,0.00021331
829.38717041,0.00022405
831.31597778,0.00041360
833.24478516,0.00020497
835.17359253,0.00019928
837.10239990,0.00035671
839.03120728,0.00018436
840.96001465,0.00014949
842.88882202,0.00005445
844.81762939,0.00005817
846.74643677,0.00004919
848.67524414,0.00018758
850.60405151,0.00032011
852.53285889,0.00022175
854.46166626,0.00017305
856.39047363,0.00022009
858.31928101,0.00029178
860.24808838,0.00021082
862.17689575,0.00023323
864.10570313,0.00012340
866.03451050,0.00012886
867.96331787,0.00020900
869.89212524,0.00009058
871.82093262,0.00019387
873.74973999,0.00018269
875.67854736,0.00020613
877.60735474,0.00021979
879.53616211,0.00019509
881.46496948,0.00015458
883.39377686,0.00008191
885.32258423,0.00023810
887.25139160,0.00022043
889.18019897,0.00018444
891.10900635,0.00011990
893.03781372,0.00015924
894.96662109,0.00029184
896.89542847,0.00021510
898.82423584,0.00024737
900.75304321,0.00024837
902.68185059,0.00024442
904.61065796,0.00020287
906.53946533,0.00019016
908.46827271,0.00021098
910.39708008,0.00021595
912.32588745,0.00018410
914.25469482,0.00017000
916.18350220,0.00038139
918.11230957,0.00026307
920.04111694,0.00026257
921.96992432,0.00027621
923.89873169,0.00021741
925.82753906,0.00048441
927.75634644,0.00024770
929.68515381,0.00033456
931.61396118,0.00042047
933.54276855,0.00011000
935.47157593,0.00031985
937.40038330,0.00023027
939.32919067,0.00027728
941.25799805,0.00048956
943.18680542,0.00029711
945.11561279,0.00032399
947.04442017,0.00035868
948.97322754,0.00039055
950.90203491,0.00032896
952.83084229,0.00009218
954.75964966,0.00018658
956.68845703,0.00039636
958.61726440,0.00039077
960.54607178,0.00034575
962.47487915,0.00040097
964.40368652,0.00034531
966.33249390,0.00019494
968.26130127,0.00021848
970.19010864,0.00032420
972.11891602,0.00032288
974.04772339,0.00032102
975.97653076,0.00040044
977.90533813,0.00037333
979.83414551,0.00045604
981.76295288,0.00040141
983.69176025,0.00017483
985.62056763,0.00042946
987.54937500,0.00047836
989.47818237,0.00034354
991.40698975,0.00035785
993.33579712,0.00037591
995.26460449,0.00060161
997.19341187,0.00039264
999.12221924,0.00023733
1001.05102661,0.00045509
1002.97983398,0.00045754
1004.90864136,0.00048037
1006.83744873,0.00047428
1008.76625610,0.00041809
1010.69506348,0.00049222
1012.62387085,0.00053965
1014.55267822,0.00048701
1016.48148560,0.00054605
1018.41029297,0.00040003
1020.33910034,0.00036213
1022.26790771,0.00060325
1024.19671509,0.00052029
1026.12552246,0.00062690
1028.05432983,0.00062635
1029.98313721,0.00060265
1031.91194458,0.00075342
1033.84075195,0.00060419
1035.76955933,0.00075548
1037.69836670,0.00068279
1039.62717407,0.00068548
1041.55598145,0.00094564
1043.48478882,0.00061853
1045.41359619,0.00070207
1047.34240356,0.00086288
1049.27121094,0.00072253
1051.20001831,0.00080744
1053.12882568,0.00070531
1055.05763306,0.00073370
1056.98644043,0.00086734
1058.91524780,0.00069414
1060.84405518,0.00059572
1062.77286255,0.00068189
1064.70166992,0.00061662
1066.63047729,0.00053595
1068.55928467,0.00054608
1070.48809204,0.00055495
1072.41689941,0.00060361
1074.34570679,0.00068103
1076.27451416,0.00076606
1078.20332153,0.00065609
1080.13212891,0.00063176
1082.06093628,0.00060553
1083.98974365,0.00058457
1085.91855103,0.00066650
1087.84735840,0.00041073
1089.77616577,0.00059208
1091.70497314,0.00074664
1093.63378052,0.00047425
1095.56258789,0.00052688
1097.49139526,0.00055871
1099.42020264,0.00062845
1101.34901001,0.00049502
1103.27781738,0.00039208
1105.20662476,0.00057529
1107.13543213,0.00069640
1109.06423950,0.00070362
1110.99304687,0.00049943
1112.92185425,0.00063516
1114.85066162,0.00054623
1116.77946899,0.00035483
1118.70827637,0.00055771
1120.63708374,0.00046776
1122.56589111,0.00063352
1124.49469849,0.00061672
1126.42350586,0.00044381
1128.35231323,0.00068607
1130.28112061,0.00045166
1132.20992798,0.00041975
1134.13873535,0.00076085
1136.06754272,0.00052491
1137.99635010,0.00047617
1139.92515747,0.00085734
1141.85396484,0.00082171
1143.78277222,0.00069602
1145.71157959,0.00068138
1147.64038696,0.00065234
1149.56919434,0.00071595
1151.49800171,0.00068704
1153.42680908,0.00078072
1155.35561646,0.00069961
1157.28442383,0.00068116
1159.21323120,0.00081053
1161.14203857,0.00060009
1163.07084595,0.00065546
1164.99965332,0.00066863
1166.92846069,0.00078596
1168.85726807,0.00095721
1170.78607544,0.00081949
1172.71488281,0.00095614
1174.64369019,0.00094184
1176.57249756,0.00099404
1178.50130493,0.00100227
1180.43011230,0.00095413
1182.35891968,0.00110730
1184.28772705,0.00102987
1186.21653442,0.00119675
1188.14534180,0.00116126
1190.07414917,0.00104395
1192.00295654,0.00124827
1193.93176392,0.00120372
1195.86057129,0.00114832
1197.78937866,0.00131597
1199.71818604,0.00152619
1201.64699341,0.00144339
1203.57580078,0.00142776
1205.50460815,0.00153621
1207.43341553,0.00155719
1209.36222290,0.00165506
1211.29103027,0.00163299
1213.21983765,0.00164632
1215.14864502,0.00167765
1217.07745239,0.00169491
1219.00625977,0.00176212
1220.93506714,0.00182473
1222.86387451,0.00181424
1224.79268188,0.00184486
1226.72148926,0.00190506
1228.65029663,0.00184834
1230.57910400,0.00207877
1232.50791138,0.00199907
1234.43671875,0.00184175
1236.36552612,0.00205063
1238.29433350,0.00178388
1240.22314087,0.00183698
1242.15194824,0.00208233
1244.08075562,0.00179583
1246.00956299,0.00182554
1247.93837036,0.00195186
1249.86717773,0.00174763
1251.79598511,0.00187555
1253.72479248,0.00214246
1255.65359985,0.00196850
1257.58240723,0.00177921
1259.51121460,0.00181767
1261.44002197,0.00193952
1263.36882935,0.00186619
1265.29763672,0.00179089
1267.22644409,0.00186325
1269.15525146,0.00177479
1271.08405884,0.00179681
1273.01286621,0.00184508
1274.94167358,0.00186112
1276.87048096,0.00176693
1278.79928833,0.00169392
1280.72809570,0.00182270
1282.65690308,0.00176493
1284.58571045,0.00175830
1286.51451782,0.00175087
1288.44332520,0.00173522
1290.37213257,0.00164560
1292.30093994,0.00166802
1294.22974731,0.00180007
1296.15855469,0.00152819
1298.08736206,0.00162465
1300.01616943,0.00175924
1301.94497681,0.00168606
1303.87378418,0.00169203
1305.80259155,0.00162875
1307.73139893,0.00179785
1309.66020630,0.00180043
1311.58901367,0.00184072
1313.51782104,0.00176282
1315.44662842,0.00170138
1317.37543579,0.00189766
1319.30424316,0.00183803
1321.23305054,0.00198046
1323.16185791,0.00192323
1325.09066528,0.00193300
1327.01947266,0.00213889
1328.94828003,0.00205222
1330.87708740,0.00219072
1332.80589478,0.00210878
1334.73470215,0.00210067
1336.66350952,0.00222583
1338.59231689,0.00205925
1340.52112427,0.00221125
1342.44993164,0.00235953
1344.37873901,0.00225531
1346.30754639,0.00227473
1348.23635376,0.00241702
1350.16516113,0.00233811
1352.09396851,0.00225626
1354.02277588,0.00240151
1355.95158325,0.00227948
1357.88039062,0.00228750
1359.80919800,0.00245325
1361.73800537,0.00223981
1363.66681274,0.00210234
1365.59562012,0.00217478
1367.52442749,0.00224835
1369.45323486,0.00226970
1371.38204224,0.00222253
1373.31084961,0.00216298
1375.23965698,0.00223898
1377.16846436,0.00236655
1379.09727173,0.00214072
1381.02607910,0.00212516
1382.95488647,0.00243452
1384.88369385,0.00240133
1386.81250122,0.00230487
1388.74130859,0.00231622
1390.67011597,0.00241070
1392.59892334,0.00235159
1394.52773071,0.00217679
1396.45653809,0.00232076
1398.38534546,0.00240278
1400.31415283,0.00245456
1402.24296021,0.00257277
1404.17176758,0.00243811
1406.10057495,0.00233642
1408.02938232,0.00238185
1409.95818970,0.00242355
1411.88699707,0.00240293
1413.81580444,0.00228761
1415.74461182,0.00232657
1417.67341919,0.00230865
1419.60222656,0.00211396
1421.53103394,0.00225073
1423.45984131,0.00230081
1425.38864868,0.00214760
1427.31745605,0.00222461
1429.24626343,0.00214879
1431.17507080,0.00204718
1433.10387817,0.00215528
1435.03268555,0.00199798
1436.96149292,0.00183458
1438.89030029,0.00209203
1440.81910767,0.00195801
1442.74791504,0.00182683
1444.67672241,0.00207978
1446.60552979,0.00195055
1448.53433716,0.00209617
1450.46314453,0.00197396
1452.39195190,0.00181542
1454.32075928,0.00214859
1456.24956665,0.00178955
1458.17837402,0.00189228
1460.10718140,0.00222155
1462.03598877,0.00227570
1463.96479614,0.00256788
1465.89360352,0.00236535
1467.82241089,0.00257950
1469.75121826,0.00278934
1471.68002563,0.00246232
1473.60883301,0.00262098
1475.53764038,0.00282049
1477.46644775,0.00303917
1479.39525513,0.00342539
1481.32406250,0.00356686
1483.25286987,0.00360720
1485.18167725,0.00363868
1487.11048462,0.00359170
1489.03929199,0.00352299
1490.96809937,0.00367626
1492.89690674,0.00410326
1494.82571411,0.00390442
1496.75452148,0.00365415
1498.68332886,0.00412028
1500.61213623,0.00415670
1502.54094360,0.00458299
1504.46975098,0.00444713
1506.39855835,0.00327726
1508.32736572,0.00390558
1510.25617310,0.00444131
1512.18498047,0.00444671
1514.11378784,0.00470900
1516.04259521,0.00412437
1517.97140259,0.00445001
1519.90020996,0.00426368
1521.82901733,0.00374629
1523.75782471,0.00449233
1525.68663208,0.00451110
1527.61543945,0.00457238
1529.54424683,0.00474137
1531.47305420,0.00451559
1533.40186157,0.00420386
1535.33066895,0.00452535
1537.25947632,0.00497995
1539.18828369,0.00377555
1541.11709106,0.00385842
1543.04589844,0.00454724
1544.97470581,0.00439808
1546.90351318,0.00489654
1548.83232056,0.00469704
1550.76112793,0.00497823
1552.68993530,0.00491946
1554.61874268,0.00450297
1556.54755005,0.00466101
1558.47635742,0.00359712
1560.40516479,0.00393705
1562.33397217,0.00510983
1564.26277954,0.00494836
1566.19158691,0.00509471
1568.12039429,0.00499756
1570.04920166,0.00456783
1571.97800903,0.00504367
1573.90681641,0.00508545
1575.83562378,0.00429309
1577.76443115,0.00463617
1579.69323853,0.00514454
1581.62204590,0.00512900
1583.55085327,0.00519510
1585.47966064,0.00511769
1587.40846802,0.00520511
1589.33727539,0.00512930
1591.26608276,0.00513700
1593.19489014,0.00517292
1595.12369751,0.00524245
1597.05250488,0.00529336
1598.98131226,0.00517502
1600.91011963,0.00530546
1602.83892700,0.00530423
1604.76773437,0.00534117
1606.69654175,0.00524492
1608.62534912,0.00529721
1610.55415649,0.00521835
1612.48296387,0.00529860
1614.41177124,0.00544506
1616.34057861,0.00459044
1618.26938599,0.00512684
1620.19819336,0.00567654
1622.12700073,0.00520310
1624.05580811,0.00543810
1625.98461548,0.00547653
1627.91342285,0.00562611
1629.84223022,0.00560833
1631.77103760,0.00589740
1633.69984497,0.00563226
1635.62865234,0.00469779
1637.55745972,0.00552075
1639.48626709,0.00618310
1641.41507446,0.00599582
1643.34388184,0.00616171
1645.27268921,0.00567617
1647.20149658,0.00511401
1649.13030396,0.00621148
1651.05911133,0.00586579
1652.98791870,0.00396155
1654.91672607,0.00512680
1656.84553345,0.00640058
1658.77434082,0.00621092
1660.70314819,0.00624707
1662.63195557,0.00590365
1664.56076294,0.00626570
1666.48957031,0.00653192
1668.41837769,0.00581644
1670.34718506,0.00572348
1672.27599243,0.00643429
1674.20479980,0.00597568
1676.13360718,0.00569018
1678.06241455,0.00643876
1679.99122192,0.00626846
1681.92002930,0.00620411
1683.84883667,0.00521407
1685.77764404,0.00518551
1687.70645142,0.00669028
1689.63525879,0.00590875
1691.56406616,0.00648707
1693.49287354,0.00652054
1695.42168091,0.00488635
1697.35048828,0.00589121
1699.27929565,0.00525100
1701.20810303,0.00489690
1703.13691040,0.00638306
1705.06571777,0.00578080
1706.99452515,0.00599885
1708.92333252,0.00632340
1710.85213989,0.00606575
1712.78094727,0.00626726
1714.70975464,0.00559166
1716.63856201,0.00516471
1718.56736938,0.00514928
1720.49617676,0.00596951
1722.42498413,0.00619729
1724.35379150,0.00565814
1726.28259888,0.00610064
1728.21140625,0.00568496
1730.14021362,0.00579082
1732.06902100,0.00560874
1733.99782837,0.00457565
1735.92663574,0.00556851
1737.85544312,0.00580715
1739.78425049,0.00535403
1741.71305786,0.00584149
1743.64186523,0.00574503
1745.57067261,0.00567225
1747.49947998,0.00580758
1749.42828735,0.00561867
1751.35709473,0.00546104
1753.28590210,0.00591585
1755.21470947,0.00604646
1757.14351685,0.00583107
1759.07232422,0.00618962
1761.00113159,0.00569352
1762.92993896,0.00560653
1764.85874634,0.00626563
1766.78755371,0.00573177
1768.71636108,0.00580662
1770.64516846,0.00595108
1772.57397583,0.00530893
1774.50278320,0.00564373
1776.43159058,0.00613671
1778.36039795,0.00609757
1780.28920532,0.00597889
1782.21801270,0.00601844
1784.14682007,0.00599856
1786.07562744,0.00591451
1788.00443481,0.00617022
1789.93324219,0.00593629
1791.86204956,0.00538267
1793.79085693,0.00564834
1795.71966431,0.00619549
1797.64847168,0.00610420
1799.57727905,0.00581475
1801.50608643,0.00580061
1803.43489380,0.00603272
1805.36370117,0.00613736
1807.29250854,0.00600774
1809.22131592,0.00612471
1811.15012329,0.00608751
1813.07893066,0.00613518
1815.00773804,0.00611485
1816.93654541,0.00596663
1818.86535278,0.00624249
1820.79416016,0.00619370
1822.72296753,0.00609329
1824.65177490,0.00587665
1826.58058228,0.00592041
1828.50938965,0.00606869
1830.43819702,0.00582958
1832.36700439,0.00614077
1834.29581177,0.00607896
1836.22461914,0.00604683
1838.15342651,0.00618928
1840.08223389,0.00631966
1842.01104126,0.00629825
1843.93984863,0.00556645
1845.86865601,0.00587114
1847.79746338,0.00612527
1849.72627075,0.00605393
1851.65507812,0.00628572
1853.58388550,0.00609179
1855.51269287,0.00614973
1857.44150024,0.00601838
1859.37030762,0.00612371
1861.29911499,0.00624688
1863.22792236,0.00615804
1865.15672974,0.00625994
1867.08553711,0.00600178
1869.01434448,0.00578780
1870.94315186,0.00592280
1872.87195923,0.00624965
1874.80076660,0.00610666
1876.72957397,0.00617844
1878.65838135,0.00631537
1880.58718872,0.00612819
1882.51599609,0.00624440
1884.44480347,0.00597815
1886.37361084,0.00610945
1888.30241821,0.00608853
1890.23122559,0.00584638
1892.16003296,0.00616886
1894.08884033,0.00601059
1896.01764771,0.00597957
1897.94645508,0.00603813
1899.87526245,0.00608972
1901.80406982,0.00617781
1903.73287720,0.00603057
1905.66168457,0.00612723
1907.59049194,0.00614343
1909.51929932,0.00606721
1911.44810669,0.00600292
1913.37691406,0.00610483
1915.30572144,0.00608030
1917.23452881,0.00577783
1919.16333618,0.00589680
1921.09214355,0.00595390
1923.02095093,0.00595001
1924.94975830,0.00618106
1926.87856567,0.00602518
1928.80737305,0.00599547
1930.73618042,0.00611098
1932.66498779,0.00591112
1934.59379517,0.00598618
1936.52260254,0.00607661
1938.45140991,0.00618865
1940.38021729,0.00613369
1942.30902466,0.00586947
1944.23783203,0.00609036
1946.16663940,0.00605163
1948.09544678,0.00596952
1950.02425415,0.00601534
1951.95306152,0.00597021
1953.88186890,0.00604675
1955.81067627,0.00598914
1957.73948364,0.00613581
1959.66829102,0.00607254
1961.59709839,0.00603060
1963.52590576,0.00622715
1965.45471313,0.00612820
1967.38352051,0.00597914
1969.31232788,0.00590350
1971.24113525,0.00605389
1973.16994263,0.00606886
1975.09875000,0.00602490
1977.02755737,0.00604741
1978.95636475,0.00605034
1980.88517212,0.00615705
1982.81397949,0.00606828
1984.74278687,0.00591969
1986.67159424,0.00593785
1988.60040161,0.00617172
1990.52920898,0.00606772
1992.45801636,0.00589400
1994.38682373,0.00603105
1996.31563110,0.00599214
1998.24443848,0.00600154
2000.17324585,0.00605636
2002.10205322,0.00614159
2004.03086060,0.00603156
2005.95966797,0.00593362
2007.88847534,0.00603752
2009.81728271,0.00602135
2011.74609009,0.00599979
2013.67489746,0.00597166
2015.60370483,0.00615731
2017.53251221,0.00607955
2019.46131958,0.00586810
2021.39012695,0.00585424
2023.31893433,0.00586054
2025.24774170,0.00593693
2027.17654907,0.00583848
2029.10535645,0.00598649
2031.03416382,0.00601014
2032.96297119,0.00595960
2034.89177856,0.00593864
2036.82058594,0.00581096
2038.74939331,0.00600210
2040.67820068,0.00588396
2042.60700806,0.00592304
2044.53581543,0.00596938
2046.46462280,0.00577912
2048.39343018,0.00584317
2050.32223755,0.00579084
2052.25104492,0.00590529
2054.17985229,0.00591640
2056.10865967,0.00583253
2058.03746704,0.00591832
2059.96627441,0.00596495
2061.89508179,0.00591404
2063.82388916,0.00584138
2065.75269653,0.00587367
2067.68150391,0.00579878
2069.61031128,0.00584140
2071.53911865,0.00589115
2073.46792603,0.00588955
2075.39673340,0.00587540
2077.32554077,0.00586777
2079.25434814,0.00586382
2081.18315552,0.00570370
2083.11196289,0.00583095
2085.04077026,0.00579171
2086.96957764,0.00566660
2088.89838501,0.00578067
2090.82719238,0.00572744
2092.75599976,0.00570651
2094.68480713,0.00578567
2096.61361450,0.00581696
2098.54242187,0.00570192
2100.47122925,0.00585554
2102.40003662,0.00580329
2104.32884399,0.00561420
2106.25765137,0.00586072
2108.18645874,0.00574582
2110.11526611,0.00564483
2112.04407349,0.00564734
2113.97288086,0.00561881
2115.90168823,0.00566180
2117.83049561,0.00557356
2119.75930298,0.00569743
2121.68811035,0.00573121
2123.61691772,0.00564966
2125.54572510,0.00560052
2127.47453247,0.00561795
2129.40333984,0.00570868
2131.33214722,0.00573520
2133.26095459,0.00568920
2135.18976196,0.00562295
2137.11856934,0.00573203
2139.04737671,0.00571378
2140.97618408,0.00568403
2142.90499146,0.00567342
2144.83379883,0.00569927
2146.76260620,0.00572151
2148.69141357,0.00556153
2150.62022095,0.00572209
2152.54902832,0.00573003
2154.47783569,0.00564484
2156.40664307,0.00565237
2158.33545044,0.00565421
2160.26425781,0.00586151
2162.19306519,0.00573986
2164.12187256,0.00566418
2166.05067993,0.00563750
2167.97948730,0.00561773
2169.90829468,0.00572272
2171.83710205,0.00562614
2173.76590942,0.00563280
2175.69471680,0.00555747
2177.62352417,0.00562253
2179.55233154,0.00571022
2181.48113892,0.00560826
2183.40994629,0.00568214
2185.33875366,0.00563304
2187.26756104,0.00553861
2189.19636841,0.00560672
2191.12517578,0.00576086
2193.05398315,0.00568183
2194.98279053,0.00562408
2196.91159790,0.00570572
2198.84040527,0.00557593
2200.76921265,0.00553730
2202.69802002,0.00554761
2204.62682739,0.00565356
2206.55563477,0.00561539
2208.48444214,0.00556002
2210.41324951,0.00567025
2212.34205688,0.00553205
2214.27086426,0.00565675
2216.19967163,0.00567980
2218.12847900,0.00552869
2220.05728638,0.00559307
2221.98609375,0.00560458
2223.91490112,0.00568762
2225.84370850,0.00562476
2227.77251587,0.00565072
2229.70132324,0.00563746
2231.63013062,0.00549419
2233.55893799,0.00557864
2235.48774536,0.00559324
2237.41655273,0.00565123
2239.34536011,0.00558606
2241.27416748,0.00552938
2243.20297485,0.00565670
2245.13178223,0.00556525
2247.06058960,0.00546078
2248.98939697,0.00551856
2250.91820435,0.00556737
2252.84701172,0.00545373
2254.77581909,0.00548839
2256.70462646,0.00560695
2258.63343384,0.00556954
2260.56224121,0.00553822
2262.49104858,0.00550534
2264.41985596,0.00564601
2266.34866333,0.00560297
2268.27747070,0.00543173
2270.20627808,0.00553958
2272.13508545,0.00554075
2274.06389282,0.00552185
2275.99270020,0.00552997
2277.92150757,0.00546975
2279.85031494,0.00552445
2281.77912231,0.00555794
2283.70792969,0.00545888
2285.63673706,0.00548014
2287.56554443,0.00554688
2289.49435181,0.00541816
2291.42315918,0.00544893
2293.35196655,0.00553867
2295.28077393,0.00544784
2297.20958130,0.00538030
2299.13838867,0.00534051
2301.06719604,0.00536820
2302.99600342,0.00538263
2304.92481079,0.00540761
2306.85361816,0.00539027
2308.78242554,0.00525084
2310.71123291,0.00521733
2312.64004028,0.00518244
2314.56884766,0.00510994
2316.49765503,0.00506643
2318.42646240,0.00505178
2320.35526978,0.00503589
2322.28407715,0.00494669
2324.21288452,0.00489627
2326.14169189,0.00477073
2328.07049927,0.00470401
2329.99930664,0.00473722
2331.92811401,0.00468734
2333.85692139,0.00480342
2335.78572876,0.00485931
2337.71453613,0.00478155
2339.64334351,0.00469594
2341.57215088,0.00464222
2343.50095825,0.00484161
2345.42976562,0.00491769
2347.35857300,0.00504215
2349.28738037,0.00515914
2351.21618774,0.00489929
2353.14499512,0.00481981
2355.07380249,0.00468632
2357.00260986,0.00444397
2358.93141724,0.00440044
2360.86022461,0.00436915
2362.78903198,0.00436233
2364.71783936,0.00439350
2366.64664673,0.00458227
2368.57545410,0.00458066
2370.50426147,0.00459685
2372.43306885,0.00488593
2374.36187622,0.00487053
2376.29068359,0.00493008
2378.21949097,0.00510248
2380.14829834,0.00518456
2382.07710571,0.00524170
2384.00591309,0.00515623
2385.93472046,0.00532015
2387.86352783,0.00536472
2389.79233521,0.00515700
2391.72114258,0.00517176
2393.64994995,0.00522504
2395.57875732,0.00530462
2397.50756470,0.00533596
2399.43637207,0.00529575
2401.36517944,0.00522464
2403.29398682,0.00515027
2405.22279419,0.00517721
2407.15160156,0.00517353
2409.08040894,0.00527038
2411.00921631,0.00527314
2412.93802368,0.00523804
2414.86683105,0.00533386
2416.79563843,0.00528425
2418.72444580,0.00532562
2420.65325317,0.00526275
2422.58206055,0.00513445
2424.51086792,0.00516523
2426.43967529,0.00525355
2428.36848267,0.00532633
2430.29729004,0.00509428
2432.22609741,0.00511565
2434.15490479,0.00519370
2436.08371216,0.00504920
2438.01251953,0.00510489
2439.94132690,0.00507407
2441.87013428,0.00515826
2443.79894165,0.00516787
2445.72774902,0.00508339
2447.65655640,0.00516145
2449.58536377,0.00517747
2451.51417114,0.00521425
2453.44297852,0.00509971
2455.37178589,0.00504081
2457.30059326,0.00509934
2459.22940063,0.00508367
2461.15820801,0.00510415
2463.08701538,0.00519307
2465.01582275,0.00516961
2466.94463013,0.00506668
2468.87343750,0.00519559
2470.80224487,0.00516536
2472.73105225,0.00515146
2474.65985962,0.00510630
2476.58866699,0.00499486
2478.51747437,0.00521153
2480.44628174,0.00509331
2482.37508911,0.00503618
2484.30389648,0.00512487
2486.23270386,0.00504975
2488.16151123,0.00506565
2490.09031860,0.00501766
2492.01912598,0.00513402
2493.94793335,0.00513139
2495.87674072,0.00504690
2497.80554810,0.00500103
2499.73435547,0.00499906
2501.66316284,0.00507949
2503.59197021,0.00500234
2505.52077759,0.00510790
2507.44958496,0.00505112
2509.37839233,0.00499213
2511.30719971,0.00506279
2513.23600708,0.00495300
2515.16481445,0.00499986
2517.09362183,0.00491622
2519.02242920,0.00487862
2520.95123657,0.00495796
2522.88004395,0.00500599
2524.80885132,0.00504128
2526.73765869,0.00497598
2528.66646606,0.00504144
2530.59527344,0.00501113
2532.52408081,0.00500257
2534.45288818,0.00502648
2536.38169556,0.00503087
2538.31050293,0.00509119
2540.23931030,0.00492444
2542.16811768,0.00487079
2544.09692505,0.00499119
2546.02573242,0.00503984
2547.95453979,0.00495999
2549.88334717,0.00488912
2551.81215454,0.00487020
2553.74096191,0.00480578
2555.66976929,0.00496587
2557.59857666,0.00496444
2559.52738403,0.00477619
2561.45619141,0.00485392
2563.38499878,0.00489935
2565.31380615,0.00486899
2567.24261353,0.00482621
2569.17142090,0.00484021
2571.10022827,0.00497538
2573.02903564,0.00492952
2574.95784302,0.00487207
2576.88665039,0.00494412
2578.81545776,0.00481928
2580.74426514,0.00476232
2582.67307251,0.00488209
2584.60187988,0.00480431
2586.53068726,0.00474987
2588.45949463,0.00485590
2590.38830200,0.00488752
2592.31710937,0.00486493
2594.24591675,0.00488373
2596.17472412,0.00483447
2598.10353149,0.00481683
2600.03233887,0.00493793
2601.96114624,0.00484718
2603.88995361,0.00475142
2605.81876099,0.00481437
2607.74756836,0.00469738
2609.67637573,0.00472525
2611.60518311,0.00486258
2613.53399048,0.00469342
2615.46279785,0.00463876
2617.39160522,0.00481735
2619.32041260,0.00480346
2621.24921997,0.00475399
2623.17802734,0.00474734
2625.10683472,0.00472967
2627.03564209,0.00481981
2628.96444946,0.00478279
2630.89325684,0.00471443
2632.82206421,0.00472108
2634.75087158,0.00466363
2636.67967895,0.00469805
2638.60848633,0.00476520
2640.53729370,0.00476729
2642.46610107,0.00482390
2644.39490845,0.00489365
2646.32371582,0.00481348
2648.25252319,0.00473031
2650.18133057,0.00468578
2652.11013794,0.00465659
2654.03894531,0.00469593
2655.96775269,0.00464256
2657.89656006,0.00470445
2659.82536743,0.00472587
2661.75417480,0.00469756
2663.68298218,0.00476224
2665.61178955,0.00461824
2667.54059692,0.00466071
2669.46940430,0.00464710
2671.39821167,0.00453264
2673.32701904,0.00464125
2675.25582642,0.00455093
2677.18463379,0.00457253
2679.11344116,0.00468033
2681.04224854,0.00462774
2682.97105591,0.00453888
2684.89986328,0.00450792
2686.82867065,0.00456216
2688.75747803,0.00455487
2690.68628540,0.00462855
2692.61509277,0.00460993
2694.54390015,0.00457397
2696.47270752,0.00455268
2698.40151489,0.00451532
2700.33032227,0.00464620
2702.25912964,0.00458250
2704.18793701,0.00455090
2706.11674438,0.00458079
2708.04555176,0.00455341
2709.97435913,0.00460398
2711.90316650,0.00453134
2713.83197388,0.00455552
2715.76078125,0.00457065
2717.68958862,0.00447485
2719.61839600,0.00450329
2721.54720337,0.00457015
2723.47601074,0.00449043
2725.40481812,0.00441015
2727.33362549,0.00449133
2729.26243286,0.00446789
2731.19124023,0.00448646
2733.12004761,0.00450744
2735.04885498,0.00439604
2736.97766235,0.00444870
2738.90646973,0.00449425
2740.83527710,0.00442826
2742.76408447,0.00439707
2744.69289185,0.00441908
2746.62169922,0.00437350
2748.55050659,0.00432000
2750.47931396,0.00442406
2752.40812134,0.00444095
2754.33692871,0.00438936
2756.26573608,0.00447295
2758.19454346,0.00448398
2760.12335083,0.00440678
2762.05215820,0.00438931
2763.98096558,0.00434652
2765.90977295,0.00431154
2767.83858032,0.00435368
2769.76738770,0.00442261
2771.69619507,0.00437937
2773.62500244,0.00426659
2775.55380981,0.00431484
2777.48261719,0.00434478
2779.41142456,0.00426484
2781.34023193,0.00430142
2783.26903931,0.00438573
2785.19784668,0.00425318
2787.12665405,0.00414516
2789.05546143,0.00424786
2790.98426880,0.00422163
2792.91307617,0.00423530
2794.84188354,0.00427789
2796.77069092,0.00418832
2798.69949829,0.00421809
2800.62830566,0.00429198
2802.55711304,0.00431518
2804.48592041,0.00423520
2806.41472778,0.00412405
2808.34353516,0.00409942
2810.27234253,0.00415093
2812.20114990,0.00420329
2814.12995728,0.00417043
2816.05876465,0.00420779
2817.98757202,0.00430526
2819.91637939,0.00433474
2821.84518677,0.00423208
2823.77399414,0.00413378
2825.70280151,0.00414810
2827.63160889,0.00416698
2829.56041626,0.00425183
2831.48922363,0.00423391
2833.41803101,0.00406232
2835.34683838,0.00405176
2837.27564575,0.00411349
2839.20445312,0.00407364
2841.13326050,0.00410750
2843.06206787,0.00413945
2844.99087524,0.00405002
2846.91968262,0.00406219
2848.84848999,0.00411992
2850.77729736,0.00403625
2852.70610474,0.00400320
2854.63491211,0.00405244
2856.56371948,0.00397431
2858.49252686,0.00399916
2860.42133423,0.00401077
2862.35014160,0.00396448
2864.27894897,0.00408361
2866.20775635,0.00397394
2868.13656372,0.00392199
2870.06537109,0.00402012
2871.99417847,0.00398809
2873.92298584,0.00394523
2875.85179321,0.00396215
2877.78060059,0.00403999
2879.70940796,0.00387111
2881.63821533,0.00390252
2883.56702270,0.00398282
2885.49583008,0.00392318
2887.42463745,0.00408029
2889.35344482,0.00395030
2891.28225220,0.00395763
2893.21105957,0.00402883
2895.13986694,0.00388428
2897.06867432,0.00384854
2898.99748169,0.00375185
2900.92628906,0.00378278
2902.85509644,0.00382177
2904.78390381,0.00379558
2906.71271118,0.00377205
2908.64151855,0.00378931
2910.57032593,0.00380377
2912.49913330,0.00379241
2914.42794067,0.00379133
2916.35674805,0.00371140
2918.28555542,0.00384156
2920.21436279,0.00378608
2922.14317017,0.00364339
2924.07197754,0.00374191
2926.00078491,0.00379611
2927.92959229,0.00385252
2929.85839966,0.00369765
2931.78720703,0.00368087
2933.71601440,0.00384038
2935.64482178,0.00379086
2937.57362915,0.00368513
2939.50243652,0.00367794
2941.43124390,0.00374509
2943.36005127,0.00372538
2945.28885864,0.00376714
2947.21766602,0.00370774
2949.14647339,0.00365846
2951.07528076,0.00377415
2953.00408813,0.00374816
2954.93289551,0.00374650
2956.86170288,0.00376321
2958.79051025,0.00367931
2960.71931763,0.00371503
2962.64812500,0.00376850
2964.57693237,0.00353989
2966.50573975,0.00358772
2968.43454712,0.00382069
2970.36335449,0.00366860
2972.29216187,0.00362338
2974.22096924,0.00371013
2976.14977661,0.00373552
2978.07858398,0.00366945
2980.00739136,0.00363964
2981.93619873,0.00367282
2983.86500610,0.00359357
2985.79381348,0.00361777
2987.72262085,0.00370580
2989.65142822,0.00370480
2991.58023560,0.00363145
2993.50904297,0.00368286
2995.43785034,0.00360391
2997.36665771,0.00354008
2999.29546509,0.00368746
3001.22427246,0.00360388
3003.15307983,0.00364948
3005.08188721,0.00359961
3007.01069458,0.00345941
3008.93950195,0.00356032
3010.86830933,0.00360754
3012.79711670,0.00359158
3014.72592407,0.00346278
3016.65473145,0.00347047
3018.58353882,0.00354641
3020.51234619,0.00365163
3022.44115356,0.00358505
3024.36996094,0.00342327
3026.29876831,0.00357754
3028.22757568,0.00354593
3030.15638306,0.00351704
3032.08519043,0.00347713
3034.01399780,0.00347431
3035.94280518,0.00362103
3037.87161255,0.00349920
3039.80041992,0.00350527
3041.72922729,0.00352568
3043.65803467,0.00351933
3045.58684204,0.00356519
3047.51564941,0.00350399
3049.44445679,0.00352240
3051.37326416,0.00350162
3053.30207153,0.00352030
3055.23087891,0.00354473
3057.15968628,0.00347498
3059.08849365,0.00344762
3061.01730103,0.00342101
3062.94610840,0.00342454
3064.87491577,0.00343075
3066.80372314,0.00336122
3068.73253052,0.00336956
3070.66133789,0.00344330
3072.59014526,0.00347739
3074.51895264,0.00345696
3076.44776001,0.00338728
3078.37656738,0.00341142
3080.30537476,0.00337866
3082.23418213,0.00335441
3084.16298950,0.00340636
3086.09179687,0.00340158
3088.02060425,0.00341847
3089.94941162,0.00334982
3091.87821899,0.00336809
3093.80702637,0.00339769
3095.73583374,0.00337918
3097.66464111,0.00340015
3099.59344849,0.00336189
3101.52225586,0.00337488
3103.45106323,0.00326131
3105.37987061,0.00324134
3107.30867798,0.00339042
3109.23748535,0.00342043
3111.16629272,0.00336168
3113.09510010,0.00334211
3115.02390747,0.00342707
3116.95271484,0.00336782
3118.88152222,0.00333433
3120.81032959,0.00338473
3122.73913696,0.00334658
3124.66794434,0.00334231
3126.59675171,0.00338186
3128.52555908,0.00337863
3130.45436645,0.00335767
3132.38317383,0.00337590
3134.31198120,0.00332256
3136.24078857,0.00337108
3138.16959595,0.00335773
3140.09840332,0.00325705
3142.02721069,0.00329348
3143.95601807,0.00322621
3145.88482544,0.00326407
3147.81363281,0.00335033
3149.74244019,0.00331625
3151.67124756,0.00333454
3153.60005493,0.00329730
3155.52886230,0.00319171
3157.45766968,0.00326920
3159.38647705,0.00329991
3161.31528442,0.00321361
3163.24409180,0.00332859
3165.17289917,0.00329671
3167.10170654,0.00335515
3169.03051392,0.00336558
3170.95932129,0.00320905
3172.88812866,0.00336435
3174.81693604,0.00330424
3176.74574341,0.00326356
3178.67455078,0.00333927
3180.60335815,0.00333004
3182.53216553,0.00336760
3184.46097290,0.00332549
3186.38978027,0.00328016
3188.31858765,0.00322544
3190.24739502,0.00332672
3192.17620239,0.00334248
3194.10500977,0.00334410
3196.03381714,0.00337709
3197.96262451,0.00336625
3199.89143188,0.00336838
3201.82023926,0.00325294
3203.74904663,0.00341527
3205.67785400,0.00337700
3207.60666138,0.00333590
3209.53546875,0.00339684
3211.46427612,0.00327302
3213.39308350,0.00347427
3215.32189087,0.00334869
3217.25069824,0.00323645
3219.17950562,0.00340718
3221.10831299,0.00343897
3223.03712036,0.00347787
3224.96592773,0.00340280
3226.89473511,0.00343029
3228.82354248,0.00343658
3230.75234985,0.00341473
3232.68115723,0.00338706
3234.60996460,0.00340573
3236.53877197,0.00345713
3238.46757935,0.00333702
3240.39638672,0.00341487
3242.32519409,0.00348538
3244.25400146,0.00338112
3246.18280884,0.00338110
3248.11161621,0.00344494
3250.04042358,0.00346960
3251.96923096,0.00352936
3253.89803833,0.00351497
3255.82684570,0.00348157
3257.75565308,0.00352270
3259.68446045,0.00343130
3261.61326782,0.00347375
3263.54207520,0.00348359
3265.47088257,0.00347245
3267.39968994,0.00353653
3269.32849731,0.00349905
3271.25730469,0.00352392
3273.18611206,0.00344952
3275.11491943,0.00350402
3277.04372681,0.00354471
3278.97253418,0.00358486
3280.90134155,0.00367525
3282.83014893,0.00354205
3284.75895630,0.00361394
3286.68776367,0.00364268
3288.61657104,0.00352137
3290.54537842,0.00353432
3292.47418579,0.00371244
3294.40299316,0.00363842
3296.33180054,0.00341377
3298.26060791,0.00353739
3300.18941528,0.00353032
3302.11822266,0.00361739
3304.04703003,0.00360640
3305.97583740,0.00356955
3307.90464478,0.00380622
3309.83345215,0.00362039
3311.76225952,0.00355809
3313.69106689,0.00362165
3315.61987427,0.00360479
3317.54868164,0.00369132
3319.47748901,0.00360825
3321.40629639,0.00364072
3323.33510376,0.00367656
3325.26391113,0.00365604
3327.19271851,0.00370275
3329.12152588,0.00368757
3331.05033325,0.00368940
3332.97914062,0.00367365
3334.90794800,0.00366404
3336.83675537,0.00371717
3338.76556274,0.00370517
3340.69437012,0.00369485
3342.62317749,0.00374600
3344.55198486,0.00372341
3346.48079224,0.00371180
3348.40959961,0.00373650
3350.33840698,0.00373697
3352.26721436,0.00375810
3354.19602173,0.00385358
3356.12482910,0.00384199
3358.05363647,0.00373021
3359.98244385,0.00377125
3361.91125122,0.00375728
3363.84005859,0.00378747
3365.76886597,0.00381081
3367.69767334,0.00379324
3369.62648071,0.00388598
3371.55528809,0.00381179
3373.48409546,0.00390326
3375.41290283,0.00394151
3377.34171020,0.00377021
3379.27051758,0.00389157
3381.19932495,0.00391709
3383.12813232,0.00382601
3385.05693970,0.00391642
3386.98574707,0.00389020
3388.91455444,0.00379056
3390.84336182,0.00391373
3392.77216919,0.00392789
3394.70097656,0.00388941
3396.62978394,0.00396116
3398.55859131,0.00386411
3400.48739868,0.00390111
3402.41620605,0.00397403
3404.34501343,0.00395019
3406.27382080,0.00394608
3408.20262817,0.00394903
3410.13143555,0.00402837
3412.06024292,0.00398678
3413.98905029,0.00401568
3415.91785767,0.00403105
3417.84666504,0.00401791
3419.77547241,0.00405574
3421.70427979,0.00396114
3423.63308716,0.00403230
3425.56189453,0.00398367
3427.49070190,0.00394993
3429.41950928,0.00406691
3431.34831665,0.00398483
3433.27712402,0.00404163
3435.20593140,0.00404395
3437.13473877,0.00405371
3439.06354614,0.00410698
3440.99235352,0.00397790
3442.92116089,0.00400709
3444.84996826,0.00403098
3446.77877563,0.00402401
3448.70758301,0.00407165
3450.63639038,0.00411951
3452.56519775,0.00412506
3454.49400513,0.00401160
3456.42281250,0.00399337
3458.35161987,0.00404078
3460.28042725,0.00406910
3462.20923462,0.00404077
3464.13804199,0.00406248
3466.06684937,0.00407218
3467.99565674,0.00401663
3469.92446411,0.00403609
3471.85327148,0.00402781
3473.78207886,0.00416232
3475.71088623,0.00410682
3477.63969360,0.00400884
3479.56850098,0.00408098
3481.49730835,0.00394652
3483.42611572,0.00403661
3485.35492310,0.00407036
3487.28373047,0.00407638
3489.21253784,0.00409308
3491.14134521,0.00397836
3493.07015259,0.00415595
3494.99895996,0.00405840
3496.92776733,0.00404130
3498.85657471,0.00417095
3500.78538208,0.00404165
3502.71418945,0.00404445
3504.64299683,0.00398579
3506.57180420,0.00408653
3508.50061157,0.00412139
3510.42941895,0.00396649
3512.35822632,0.00400769
3514.28703369,0.00405782
3516.21584106,0.00408884
3518.14464844,0.00401395
3520.07345581,0.00406061
3522.00226318,0.00411468
3523.93107056,0.00396343
3525.85987793,0.00402634
3527.78868530,0.00407330
3529.71749268,0.00401409
3531.64630005,0.00407624
3533.57510742,0.00402976
3535.50391479,0.00395898
3537.43272217,0.00396086
3539.36152954,0.00398876
3541.29033691,0.00408560
3543.21914429,0.00399444
3545.14795166,0.00388387
3547.07675903,0.00392491
3549.00556641,0.00395119
3550.93437378,0.00401439
3552.86318115,0.00397206
3554.79198853,0.00395561
3556.72079590,0.00398053
3558.64960327,0.00390761
3560.57841064,0.00393545
3562.50721802,0.00393153
3564.43602539,0.00388013
3566.36483276,0.00374272
3568.29364014,0.00358303
3570.22244751,0.00383949
3572.15125488,0.00399876
3574.08006226,0.00384882
3576.00886963,0.00390261
3577.93767700,0.00385128
3579.86648437,0.00387096
3581.79529175,0.00399105
3583.72409912,0.00394448
3585.65290649,0.00388954
3587.58171387,0.00353110
3589.51052124,0.00353429
3591.43932861,0.00390020
3593.36813599,0.00379045
3595.29694336,0.00365114
3597.22575073,0.00377738
3599.15455811,0.00384459
3601.08336548,0.00372950
3603.01217285,0.00384604
3604.94098022,0.00387863
3606.86978760,0.00370109
3608.79859497,0.00358482
3610.72740234,0.00353443
3612.65620972,0.00365900
3614.58501709,0.00361071
3616.51382446,0.00373844
3618.44263184,0.00358762
3620.37143921,0.00351280
3622.30024658,0.00382493
3624.22905395,0.00366819
3626.15786133,0.00386834
3628.08666870,0.00334650
3630.01547607,0.00297296
3631.94428345,0.00370358
3633.87309082,0.00361396
3635.80189819,0.00365983
3637.73070557,0.00378322
3639.65951294,0.00371163
3641.58832031,0.00376542
3643.51712769,0.00370578
3645.44593506,0.00367698
3647.37474243,0.00331574
3649.30354980,0.00306773
3651.23235718,0.00313263
3653.16116455,0.00358767
3655.08997192,0.00346222
3657.01877930,0.00321532
3658.94758667,0.00368239
3660.87639404,0.00357124
3662.80520142,0.00366279
3664.73400879,0.00361821
3666.66281616,0.00352019
3668.59162354,0.00340370
3670.52043091,0.00283475
3672.44923828,0.00337792
3674.37804565,0.00321728
3676.30685303,0.00270290
3678.23566040,0.00330012
3680.16446777,0.00341378
3682.09327515,0.00340028
3684.02208252,0.00347898
3685.95088989,0.00347837
3687.87969727,0.00308849
3689.80850464,0.00283410
3691.73731201,0.00319485
3693.66611938,0.00323576
3695.59492676,0.00334781
3697.52373413,0.00335936
3699.45254150,0.00330048
3701.38134888,0.00325291
3703.31015625,0.00309221
3705.23896362,0.00326223
3707.16777100,0.00320808
3709.09657837,0.00318210
3711.02538574,0.00291435
3712.95419312,0.00280766
3714.88300049,0.00330303
3716.81180786,0.00319943
3718.74061523,0.00322676
3720.66942261,0.00318591
3722.59822998,0.00296245
3724.52703735,0.00302303
3726.45584473,0.00286167
3728.38465210,0.00307931
3730.31345947,0.00306248
3732.24226685,0.00279530
3734.17107422,0.00278708
3736.09988159,0.00263525
3738.02868896,0.00271220
3739.95749634,0.00305634
3741.88630371,0.00311136
3743.81511108,0.00241188
3745.74391846,0.00240497
3747.67272583,0.00296238
3749.60153320,0.00247396
3751.53034058,0.00235551
3753.45914795,0.00277127
3755.38795532,0.00293277
3757.31676270,0.00302674
3759.24557007,0.00281844
3761.17437744,0.00284984
3763.10318481,0.00298526
3765.03199219,0.00289335
3766.96079956,0.00299313
3768.88960693,0.00281840
3770.81841431,0.00274608
3772.74722168,0.00298413
3774.67602905,0.00282255
3776.60483643,0.00289852
3778.53364380,0.00295487
3780.46245117,0.00282027
3782.39125854,0.00297470
3784.32006592,0.00293435
3786.24887329,0.00286194
3788.17768066,0.00291075
3790.10648804,0.00292006
3792.03529541,0.00283086
3793.96410278,0.00288205
3795.89291016,0.00272104
3797.82171753,0.00269088
3799.75052490,0.00282338
3801.67933228,0.00225111
3803.60813965,0.00263897
3805.53694702,0.00282187
3807.46575439,0.00238363
3809.39456177,0.00280880
3811.32336914,0.00273390
3813.25217651,0.00288404
3815.18098389,0.00254820
3817.10979126,0.00226918
3819.03859863,0.00278261
3820.96740601,0.00229645
3822.89621338,0.00248561
3824.82502075,0.00282929
3826.75382812,0.00260455
3828.68263550,0.00273835
3830.61144287,0.00268406
3832.54025024,0.00261837
3834.46905762,0.00264487
3836.39786499,0.00254736
3838.32667236,0.00227594
3840.25547974,0.00248322
3842.18428711,0.00260544
3844.11309448,0.00251517
3846.04190186,0.00271336
3847.97070923,0.00260144
3849.89951660,0.00266269
3851.82832397,0.00239019
3853.75713135,0.00185462
3855.68593872,0.00213896
3857.61474609,0.00258134
3859.54355347,0.00255058
3861.47236084,0.00254631
3863.40116821,0.00251822
3865.32997559,0.00234589
3867.25878296,0.00260194
3869.18759033,0.00235610
3871.11639770,0.00223686
3873.04520508,0.00262737
3874.97401245,0.00237156
3876.90281982,0.00257590
3878.83162720,0.00258755
3880.76043457,0.00223618
3882.68924194,0.00253505
3884.61804932,0.00238753
3886.54685669,0.00225141
3888.47566406,0.00258801
3890.40447144,0.00239447
3892.33327881,0.00225124
3894.26208618,0.00255438
3896.19089355,0.00249648
3898.11970093,0.00235746
3900.04850830,0.00228805
3901.97731567,0.00225279
3903.90612305,0.00229354
3905.83493042,0.00224658
3907.76373779,0.00246122
3909.69254517,0.00250076
3911.62135254,0.00243853
3913.55015991,0.00251325
3915.47896728,0.00238967
3917.40777466,0.00237403
3919.33658203,0.00240446
3921.26538940,0.00241209
3923.19419678,0.00241785
3925.12300415,0.00239239
3927.05181152,0.00245844
3928.98061890,0.00247044
3930.90942627,0.00233173
3932.83823364,0.00229739
3934.76704102,0.00233415
3936.69584839,0.00234311
3938.62465576,0.00241769
3940.55346313,0.00235476
3942.48227051,0.00237042
3944.41107788,0.00242537
3946.33988525,0.00242204
3948.26869263,0.00237026
3950.19750000,0.00228438
3952.12630737,0.00242572
3954.05511475,0.00237080
3955.98392212,0.00234765
3957.91272949,0.00236972
3959.84153687,0.00232675
3961.77034424,0.00241271
3963.69915161,0.00229490
3965.62795898,0.00236725
3967.55676636,0.00241431
3969.48557373,0.00230789
3971.41438110,0.00232477
3973.34318848,0.00233015
3975.27199585,0.00232502
3977.20080322,0.00225221
3979.12961060,0.00226072
3981.05841797,0.00223097
3982.98722534,0.00228946
3984.91603271,0.00229862
3986.84484009,0.00227433
3988.77364746,0.00234796
3990.70245483,0.00218863
3992.63126221,0.00221749
3994.56006958,0.00224620
3996.48887695,0.00221781
3998.41768433,0.00224329
4000.34649170,0.00217485
4002.27529907,0.00222531
4004.20410645,0.00220082
4006.13291382,0.00223811
4008.06172119,0.00225133
4009.99052856,0.00223422
4011.91933594,0.00226167
4013.84814331,0.00219038
4015.77695068,0.00216263
4017.70575806,0.00212532
4019.63456543,0.00225184
4021.56337280,0.00226862
4023.49218018,0.00213713
4025.42098755,0.00220918
4027.34979492,0.00219984
4029.27860229,0.00215265
4031.20740967,0.00214876
4033.13621704,0.00212895
4035.06502441,0.00213199
4036.99383179,0.00215808
4038.92263916,0.00220975
4040.85144653,0.00215076
4042.78025391,0.00209875
4044.70906128,0.00214971
4046.63786865,0.00209481
4048.56667603,0.00206833
4050.49548340,0.00211756
4052.42429077,0.00210531
4054.35309814,0.00211744
4056.28190552,0.00212571
4058.21071289,0.00208451
4060.13952026,0.00197423
4062.06832764,0.00205406
4063.99713501,0.00213636
4065.92594238,0.00198448
4067.85474976,0.00205295
4069.78355713,0.00205260
4071.71236450,0.00202228
4073.64117187,0.00211260
4075.56997925,0.00202550
4077.49878662,0.00207505
4079.42759399,0.00207363
4081.35640137,0.00200249
4083.28520874,0.00209285
4085.21401611,0.00204086
4087.14282349,0.00201013
4089.07163086,0.00207701
4091.00043823,0.00200669
4092.92924561,0.00199428
4094.85805298,0.00202831
4096.78686035,0.00198158
4098.71566772,0.00198160
4100.64447510,0.00199948
4102.57328247,0.00199749
4104.50208984,0.00199990
4106.43089722,0.00209256
4108.35970459,0.00204022
4110.28851196,0.00196280
4112.21731934,0.00202979
4114.14612671,0.00188187
4116.07493408,0.00192106
4118.00374145,0.00201391
4119.93254883,0.00194472
4121.86135620,0.00196806
4123.79016357,0.00193240
4125.71897095,0.00194759
4127.64777832,0.00193510
4129.57658569,0.00194883
4131.50539307,0.00190397
4133.43420044,0.00189937
4135.36300781,0.00197116
4137.29181519,0.00190764
4139.22062256,0.00195689
4141.14942993,0.00193318
4143.07823730,0.00197856
4145.00704468,0.00192614
4146.93585205,0.00185690
4148.86465942,0.00193896
4150.79346680,0.00180519
4152.72227417,0.00188531
4154.65108154,0.00185720
4156.57988892,0.00182438
4158.50869629,0.00189937
4160.43750366,0.00182206
4162.36631103,0.00191745
4164.29511841,0.00186537
4166.22392578,0.00187740
4168.15273315,0.00186977
4170.08154053,0.00182069
4172.01034790,0.00189537
4173.93915527,0.00181840
4175.86796265,0.00187250
4177.79677002,0.00185122
4179.72557739,0.00177808
4181.65438477,0.00179703
4183.58319214,0.00185147
4185.51199951,0.00189126
4187.44080688,0.00177189
4189.36961426,0.00182432
4191.29842163,0.00182517
4193.22722900,0.00173505
4195.15603638,0.00183459
4197.08484375,0.00183071
4199.01365112,0.00177047
4200.94245850,0.00176916
4202.87126587,0.00172610
4204.80007324,0.00172773
4206.72888062,0.00174838
4208.65768799,0.00173525
4210.58649536,0.00176129
4212.51530273,0.00176440
4214.44411011,0.00170041
4216.37291748,0.00168711
4218.30172485,0.00177692
4220.23053223,0.00171583
4222.15933960,0.00162633
4224.08814697,0.00170400
4226.01695435,0.00175363
4227.94576172,0.00184851
4229.87456909,0.00176806
4231.80337646,0.00161118
4233.73218384,0.00167828
4235.66099121,0.00172779
4237.58979858,0.00169025
4239.51860596,0.00164171
4241.44741333,0.00169786
4243.37622070,0.00165955
4245.30502808,0.00166525
4247.23383545,0.00175984
4249.16264282,0.00163728
4251.09145020,0.00168056
4253.02025757,0.00178761
4254.94906494,0.00169533
4256.87787231,0.00163159
4258.80667969,0.00165434
4260.73548706,0.00168423
4262.66429443,0.00169791
4264.59310181,0.00167549
4266.52190918,0.00164361
4268.45071655,0.00167666
4270.37952393,0.00162579
4272.30833130,0.00164095
4274.23713867,0.00168772
4276.16594604,0.00159278
4278.09475342,0.00159385
4280.02356079,0.00163248
4281.95236816,0.00162621
4283.88117554,0.00160737
4285.80998291,0.00163067
4287.73879028,0.00164056
4289.66759766,0.00160788
4291.59640503,0.00161911
4293.52521240,0.00156778
4295.45401978,0.00154544
4297.38282715,0.00164282
4299.31163452,0.00161565
4301.24044189,0.00149223
4303.16924927,0.00155061
4305.09805664,0.00157078
4307.02686401,0.00155420
4308.95567139,0.00158296
4310.88447876,0.00152184
4312.81328613,0.00154407
4314.74209351,0.00153654
4316.67090088,0.00154952
4318.59970825,0.00155755
4320.52851562,0.00154101
4322.45732300,0.00157152
4324.38613037,0.00148391
4326.31493774,0.00146817
4328.24374512,0.00148452
4330.17255249,0.00156552
4332.10135986,0.00154646
4334.03016724,0.00145516
4335.95897461,0.00156092
4337.88778198,0.00154541
4339.81658936,0.00155789
4341.74539673,0.00154630
4343.67420410,0.00147685
4345.60301147,0.00149722
4347.53181885,0.00146911
4349.46062622,0.00142661
4351.38943359,0.00141705
4353.31824097,0.00146660
4355.24704834,0.00141476
4357.17585571,0.00145338
4359.10466309,0.00147275
4361.03347046,0.00139767
4362.96227783,0.00150160
4364.89108520,0.00149844
4366.81989258,0.00145093
4368.74869995,0.00141991
4370.67750732,0.00143511
4372.60631470,0.00145950
4374.53512207,0.00141529
4376.46392944,0.00145626
4378.39273682,0.00141548
4380.32154419,0.00139986
4382.25035156,0.00144299
4384.17915894,0.00141984
4386.10796631,0.00138956
4388.03677368,0.00138957
4389.96558105,0.00139844
4391.89438843,0.00138758
4393.82319580,0.00138011
4395.75200317,0.00141043
4397.68081055,0.00149752
4399.60961792,0.00142495
4401.53842529,0.00139090
4403.46723267,0.00138735
4405.39604004,0.00129910
4407.32484741,0.00142142
4409.25365478,0.00143738
4411.18246216,0.00138388
4413.11126953,0.00143808
4415.04007690,0.00141466
4416.96888428,0.00134343
4418.89769165,0.00131824
4420.82649902,0.00133885
4422.75530640,0.00135063
4424.68411377,0.00140995
4426.61292114,0.00136197
4428.54172852,0.00134928
4430.47053589,0.00138217
4432.39934326,0.00131747
4434.32815063,0.00131938
4436.25695801,0.00134592
4438.18576538,0.00143428
4440.11457275,0.00136440
4442.04338013,0.00128462
4443.97218750,0.00133720
4445.90099487,0.00132170
4447.82980225,0.00139788
4449.75860962,0.00136881
4451.68741699,0.00130442
4453.61622437,0.00129871
4455.54503174,0.00126521
4457.47383911,0.00132438
4459.40264648,0.00133933
4461.33145386,0.00124495
4463.26026123,0.00121863
4465.18906860,0.00131520
4467.11787598,0.00128815
4469.04668335,0.00130315
4470.97549072,0.00135790
4472.90429810,0.00127339
4474.83310547,0.00132566
4476.76191284,0.00131432
4478.69072021,0.00121201
4480.61952759,0.00125164
4482.54833496,0.00129318
4484.47714233,0.00127053
4486.40594971,0.00126841
4488.33475708,0.00127593
4490.26356445,0.00128769
4492.19237183,0.00128293
4494.12117920,0.00117418
4496.04998657,0.00125170
4497.97879395,0.00130985
4499.90760132,0.00117606
4501.83640869,0.00125578
4503.76521606,0.00127228
4505.69402344,0.00122753
4507.62283081,0.00127735
4509.55163818,0.00125358
4511.48044556,0.00123783
4513.40925293,0.00120110
4515.33806030,0.00120377
4517.26686768,0.00121405
4519.19567505,0.00118450
4521.12448242,0.00122564
4523.05328979,0.00122714
4524.98209717,0.00117672
4526.91090454,0.00117103
4528.83971191,0.00115138
4530.76851929,0.00117991
4532.69732666,0.00127926
4534.62613403,0.00125204
4536.55494141,0.00120530
4538.48374878,0.00119122
4540.41255615,0.00113738
4542.34136353,0.00120833
4544.27017090,0.00123652
4546.19897827,0.00115661
4548.12778564,0.00120657
4550.05659302,0.00121549
4551.98540039,0.00114538
4553.91420776,0.00118888
4555.84301514,0.00118317
4557.77182251,0.00116624
4559.70062988,0.00118201
4561.62943726,0.00110651
4563.55824463,0.00115297
4565.48705200,0.00119597
4567.41585937,0.00112766
4569.34466675,0.00112889
4571.27347412,0.00112558
4573.20228149,0.00113395
4575.13108887,0.00114424
4577.05989624,0.00114275
4578.98870361,0.00115352
4580.91751099,0.00113879
4582.84631836,0.00108743
4584.77512573,0.00110387
4586.70393311,0.00120545
4588.63274048,0.00118294
4590.56154785,0.00114386
4592.49035522,0.00111839
4594.41916260,0.00109134
4596.34796997,0.00109629
4598.27677734,0.00107941
4600.20558472,0.00112018
4602.13439209,0.00108043
4604.06319946,0.00108041
4605.99200684,0.00110293
4607.92081421,0.00110862
4609.84962158,0.00114503
4611.77842895,0.00104839
4613.70723633,0.00112290
4615.63604370,0.00113106
4617.56485107,0.00101726
4619.49365845,0.00107172
4621.42246582,0.00106385
4623.35127319,0.00104876
4625.28008057,0.00105510
4627.20888794,0.00106715
4629.13769531,0.00102809
4631.06650269,0.00109192
4632.99531006,0.00112018
4634.92411743,0.00097991
4636.85292480,0.00101749
4638.78173218,0.00098386
4640.71053955,0.00096444
4642.63934692,0.00101032
4644.56815430,0.00103995
4646.49696167,0.00106641
4648.42576904,0.00102558
4650.35457642,0.00109398
4652.28338379,0.00100437
4654.21219116,0.00098715
4656.14099853,0.00108783
4658.06980591,0.00110192
4659.99861328,0.00108322
4661.92742065,0.00096398
4663.85622803,0.00103748
4665.78503540,0.00102226
4667.71384277,0.00099976
4669.64265015,0.00107436
4671.57145752,0.00103266
4673.50026489,0.00109506
4675.42907227,0.00104998
4677.35787964,0.00096501
4679.28668701,0.00095475
4681.21549438,0.00099245
4683.14430176,0.00094985
4685.07310913,0.00088763
4687.00191650,0.00101272
4688.93072388,0.00098320
4690.85953125,0.00091013
4692.78833862,0.00091043
4694.71714600,0.00094882
4696.64595337,0.00104943
4698.57476074,0.00104973
4700.50356812,0.00097601
4702.43237549,0.00094980
4704.36118286,0.00096570
4706.28999023,0.00094611
4708.21879761,0.00099159
4710.14760498,0.00098536
4712.07641235,0.00096439
4714.00521973,0.00094136
4715.93402710,0.00089254
4717.86283447,0.00092329
4719.79164185,0.00089887
4721.72044922,0.00101135
4723.64925659,0.00096928
4725.57806396,0.00082908
4727.50687134,0.00095897
4729.43567871,0.00097555
4731.36448608,0.00089545
4733.29329346,0.00086489
4735.22210083,0.00093193
4737.15090820,0.00093544
4739.07971558,0.00094004
4741.00852295,0.00097296
4742.93733032,0.00087986
4744.86613770,0.00092775
4746.79494507,0.00093231
4748.72375244,0.00088511
4750.65255981,0.00090435
4752.58136719,0.00091876
4754.51017456,0.00090660
4756.43898193,0.00083349
4758.36778931,0.00083782
4760.29659668,0.00088891
4762.22540405,0.00092861
4764.15421143,0.00089054
4766.08301880,0.00091105
4768.01182617,0.00086437
4769.94063354,0.00079407
4771.86944092,0.00090515
4773.79824829,0.00085248
4775.72705566,0.00085062
4777.65586304,0.00086945
4779.58467041,0.00083629
4781.51347778,0.00086634
4783.44228516,0.00082284
4785.37109253,0.00086945
4787.29989990,0.00088564
4789.22870728,0.00090834
4791.15751465,0.00086542
4793.08632202,0.00079017
4795.01512939,0.00085866
4796.94393677,0.00080807
4798.87274414,0.00084514
4800.80155151,0.00093582
4802.73035889,0.00087490
4804.65916626,0.00084490
4806.58797363,0.00085072
4808.51678101,0.00082223
4810.44558838,0.00079957
4812.37439575,0.00085447
4814.30320312,0.00083760
4816.23201050,0.00079513
4818.16081787,0.00085110
4820.08962524,0.00075776
4822.01843262,0.00071373
4823.94723999,0.00084924
4825.87604736,0.00080145
4827.80485474,0.00079622
4829.73366211,0.00081952
4831.66246948,0.00072478
4833.59127686,0.00076330
4835.52008423,0.00079490
4837.44889160,0.00081775
4839.37769897,0.00080178
4841.30650635,0.00080650
4843.23531372,0.00083201
4845.16412109,0.00076525
4847.09292847,0.00079460
4849.02173584,0.00074142
4850.95054321,0.00075022
4852.87935059,0.00081223
4854.80815796,0.00079910
4856.73696533,0.00083429
4858.66577270,0.00074127
4860.59458008,0.00073492
4862.52338745,0.00073629
4864.45219482,0.00073708
4866.38100220,0.00082345
4868.30980957,0.00075621
4870.23861694,0.00076927
4872.16742432,0.00081410
4874.09623169,0.00077824
4876.02503906,0.00080149
4877.95384644,0.00080138
4879.88265381,0.00077184
4881.81146118,0.00080335
4883.74026855,0.00080728
4885.66907593,0.00077255
4887.59788330,0.00079630
4889.52669067,0.00081721
4891.45549805,0.00079166
4893.38430542,0.00072338
4895.31311279,0.00073406
4897.24192017,0.00073370
4899.17072754,0.00071990
4901.09953491,0.00077807
4903.02834228,0.00075949
4904.95714966,0.00077364
4906.88595703,0.00070172
4908.81476440,0.00066531
4910.74357178,0.00076614
4912.67237915,0.00073397
4914.60118652,0.00074708
4916.52999390,0.00075236
4918.45880127,0.00071153
4920.38760864,0.00074884
4922.31641602,0.00075643
4924.24522339,0.00070126
4926.17403076,0.00072523
4928.10283813,0.00080701
4930.03164551,0.00077628
4931.96045288,0.00075765
4933.88926025,0.00070597
4935.81806763,0.00072230
4937.74687500,0.00082673
4939.67568237,0.00074570
4941.60448975,0.00071260
4943.53329712,0.00070728
4945.46210449,0.00065611
4947.39091187,0.00071552
4949.31971924,0.00073465
4951.24852661,0.00066557
4953.17733398,0.00064232
4955.10614136,0.00071652
4957.03494873,0.00073174
4958.96375610,0.00066501
4960.89256348,0.00067880
4962.82137085,0.00071620
4964.75017822,0.00070114
4966.67898560,0.00068199
4968.60779297,0.00066108
4970.53660034,0.00065230
4972.46540771,0.00068294
4974.39421509,0.00069315
4976.32302246,0.00067379
4978.25182983,0.00067372
4980.18063721,0.00069624
4982.10944458,0.00068111
4984.03825195,0.00065449
4985.96705933,0.00071209
4987.89586670,0.00067165
4989.82467407,0.00056571
4991.75348145,0.00066791
4993.68228882,0.00070151
4995.61109619,0.00060104
4997.53990356,0.00065423
4999.46871094,0.00068514
5001.39751831,0.00065404
5003.32632568,0.00067517
5005.25513306,0.00063175
5007.18394043,0.00061107
5009.11274780,0.00070258
5011.04155518,0.00067107
5012.97036255,0.00057795
5014.89916992,0.00063568
5016.82797729,0.00062463
5018.75678467,0.00061656
5020.68559204,0.00070012
5022.61439941,0.00063452
5024.54320679,0.00053570
5026.47201416,0.00056750
5028.40082153,0.00063125
5030.32962891,0.00060721
5032.25843628,0.00057717
5034.18724365,0.00054776
5036.11605103,0.00056798
5038.04485840,0.00065602
5039.97366577,0.00059639
5041.90247314,0.00058331
5043.83128052,0.00064097
5045.76008789,0.00055773
5047.68889526,0.00053511
5049.61770264,0.00067268
5051.54651001,0.00066372
5053.47531738,0.00058367
5055.40412476,0.00067542
5057.33293213,0.00061949
5059.26173950,0.00059567
5061.19054687,0.00064311
5063.11935425,0.00053517
5065.04816162,0.00054774
5066.97696899,0.00055542
5068.90577637,0.00056362
5070.83458374,0.00062341
5072.76339111,0.00060910
5074.69219849,0.00056732
5076.62100586,0.00058170
5078.54981323,0.00064552
5080.47862061,0.00062845
5082.40742798,0.00059356
5084.33623535,0.00053066
5086.26504272,0.00057510
5088.19385010,0.00062926
5090.12265747,0.00055933
5092.05146484,0.00056557
5093.98027222,0.00056748
5095.90907959,0.00057791
5097.83788696,0.00054944
5099.76669434,0.00060953
5101.69550171,0.00063684
5103.62430908,0.00051576
5105.55311645,0.00058694
5107.48192383,0.00058953
5109.41073120,0.00052926
5111.33953857,0.00050126
5113.26834595,0.00051027
5115.19715332,0.00059808
5117.12596069,0.00053296
5119.05476807,0.00053623
5120.98357544,0.00054546
5122.91238281,0.00050210
5124.84119019,0.00057668
5126.76999756,0.00057625
5128.69880493,0.00056681
5130.62761230,0.00059488
5132.55641968,0.00059107
5134.48522705,0.00052904
5136.41403442,0.00044467
5138.34284180,0.00054850
5140.27164917,0.00061276
5142.20045654,0.00054064
5144.12926392,0.00055882
5146.05807129,0.00054041
5147.98687866,0.00054869
5149.91568603,0.00051897
5151.84449341,0.00053351
5153.77330078,0.00058529
5155.70210815,0.00042322
5157.63091553,0.00055646
5159.55972290,0.00063629
5161.48853027,0.00049501
5163.41733765,0.00052728
5165.34614502,0.00046719
5167.27495239,0.00056250
5169.20375977,0.00052043
5171.13256714,0.00041767
5173.06137451,0.00058818
5174.99018188,0.00053017
5176.91898926,0.00045533
5178.84779663,0.00050677
5180.77660400,0.00055561
5182.70541138,0.00051251
5184.63421875,0.00046621
5186.56302612,0.00051750
5188.49183350,0.00048635
5190.42064087,0.00052198
5192.34944824,0.00053926
5194.27825562,0.00050519
5196.20706299,0.00052992
5198.13587036,0.00051654
5200.06467773,0.00050763
5201.99348511,0.00051330
5203.92229248,0.00047575
5205.85109985,0.00042838
5207.77990723,0.00046583
5209.70871460,0.00049459
5211.63752197,0.00050537
5213.56632935,0.00050959
5215.49513672,0.00044213
5217.42394409,0.00047033
5219.35275146,0.00053999
5221.28155884,0.00048676
5223.21036621,0.00049789
5225.13917358,0.00048936
5227.06798096,0.00039079
5228.99678833,0.00048740
5230.92559570,0.00046316
5232.85440308,0.00042010
5234.78321045,0.00056378
5236.71201782,0.00047407
5238.64082520,0.00045848
5240.56963257,0.00052304
5242.49843994,0.00048288
5244.42724731,0.00046101
5246.35605469,0.00041778
5248.28486206,0.00044907
5250.21366943,0.00043372
5252.14247681,0.00041956
5254.07128418,0.00045009
5256.00009155,0.00047860
5257.92889893,0.00048599
5259.85770630,0.00045957
5261.78651367,0.00048961
5263.71532104,0.00039839
5265.64412842,0.00042092
5267.57293579,0.00057097
5269.50174316,0.00047154
5271.43055054,0.00043383
5273.35935791,0.00050335
5275.28816528,0.00044789
5277.21697266,0.00044975
5279.14578003,0.00045103
5281.07458740,0.00039693
5283.00339478,0.00043356
5284.93220215,0.00039862
5286.86100952,0.00038130
5288.78981689,0.00047085
5290.71862427,0.00045242
5292.64743164,0.00037505
5294.57623901,0.00033888
5296.50504639,0.00038470
5298.43385376,0.00044862
5300.36266113,0.00044785
5302.29146851,0.00043290
5304.22027588,0.00046486
5306.14908325,0.00043654
5308.07789062,0.00036663
5310.00669800,0.00040085
5311.93550537,0.00041952
5313.86431274,0.00041997
5315.79312012,0.00039850
5317.72192749,0.00042737
5319.65073486,0.00045330
5321.57954224,0.00035417
5323.50834961,0.00035654
5325.43715698,0.00039706
5327.36596436,0.00042743
5329.29477173,0.00042710
5331.22357910,0.00045737
5333.15238647,0.00048886
5335.08119385,0.00042001
5337.01000122,0.00042965
5338.93880859,0.00036324
5340.86761597,0.00040438
5342.79642334,0.00041952
5344.72523071,0.00032486
5346.65403809,0.00046279
5348.58284546,0.00040813
5350.51165283,0.00038875
5352.44046020,0.00044650
5354.36926758,0.00036635
5356.29807495,0.00042915
5358.22688232,0.00034348
5360.15568970,0.00034195
5362.08449707,0.00048606
5364.01330444,0.00038213
5365.94211182,0.00034053
5367.87091919,0.00040181
5369.79972656,0.00039145
5371.72853394,0.00042517
5373.65734131,0.00042200
5375.58614868,0.00036373
5377.51495605,0.00038760
5379.44376343,0.00034496
5381.37257080,0.00030563
5383.30137817,0.00036930
5385.23018555,0.00033062
5387.15899292,0.00034460
5389.08780029,0.00040623
5391.01660767,0.00036662
5392.94541504,0.00036557
5394.87422241,0.00035413
5396.80302978,0.00036406
5398.73183716,0.00040096
5400.66064453,0.00036273
5402.58945190,0.00035254
5404.51825928,0.00036722
5406.44706665,0.00037883
5408.37587402,0.00037428
5410.30468140,0.00038627
5412.23348877,0.00042011
5414.16229614,0.00037842
5416.09110352,0.00037278
5418.01991089,0.00035261
5419.94871826,0.00030149
5421.87752563,0.00033381
5423.80633301,0.00034106
5425.73514038,0.00033708
5427.66394775,0.00034385
5429.59275513,0.00038673
5431.52156250,0.00045221
5433.45036987,0.00042859
5435.37917725,0.00036863
5437.30798462,0.00033354
5439.23679199,0.00029674
5441.16559936,0.00029442
5443.09440674,0.00032081
5445.02321411,0.00032214
5446.95202148,0.00038179
5448.88082886,0.00035427
5450.80963623,0.00028511
5452.73844360,0.00035144
5454.66725098,0.00036815
5456.59605835,0.00038549
5458.52486572,0.00034052
5460.45367310,0.00032535
5462.38248047,0.00037970
5464.31128784,0.00026711
5466.24009521,0.00030278
5468.16890259,0.00037878
5470.09770996,0.00030520
5472.02651733,0.00030070
5473.95532471,0.00031737
5475.88413208,0.00033406
5477.81293945,0.00031904
5479.74174683,0.00031341
5481.67055420,0.00031456
5483.59936157,0.00029550
5485.52816895,0.00033995
5487.45697632,0.00034163
5489.38578369,0.00031417
5491.31459106,0.00032829
5493.24339844,0.00031209
5495.17220581,0.00029453
5497.10101318,0.00028690
5499.02982056,0.00031767
5500.95862793,0.00040967
5502.88743530,0.00039421
5504.81624268,0.00032954
5506.74505005,0.00034302
5508.67385742,0.00032200
5510.60266479,0.00028192
5512.53147217,0.00029081
5514.46027954,0.00031720
5516.38908691,0.00028715
5518.31789429,0.00025519
5520.24670166,0.00026091
5522.17550903,0.00027136
5524.10431641,0.00030935
5526.03312378,0.00028096
5527.96193115,0.00026221
5529.89073853,0.00029471
5531.81954590,0.00030228
5533.74835327,0.00033001
5535.67716064,0.00031966
5537.60596802,0.00030252
5539.53477539,0.00028252
5541.46358276,0.00027317
5543.39239014,0.00031421
5545.32119751,0.00028897
5547.25000488,0.00027190
5549.17881226,0.00029998
5551.10761963,0.00032523
5553.03642700,0.00032503
5554.96523437,0.00026930
5556.89404175,0.00026511
5558.82284912,0.00026031
5560.75165649,0.00024544
5562.68046387,0.00026542
5564.60927124,0.00026227
5566.53807861,0.00028473
5568.46688599,0.00029149
5570.39569336,0.00026354
5572.32450073,0.00026541
5574.25330811,0.00031282
5576.18211548,0.00031795
5578.11092285,0.00029769
5580.03973022,0.00031130
5581.96853760,0.00024802
5583.89734497,0.00024401
5585.82615234,0.00029358
5587.75495972,0.00028332
5589.68376709,0.00028119
5591.61257446,0.00027206
5593.54138184,0.00032199
5595.47018921,0.00028653
5597.39899658,0.00018794
5599.32780395,0.00024777
5601.25661133,0.00032206
5603.18541870,0.00029312
5605.11422607,0.00022719
5607.04303345,0.00022058
5608.97184082,0.00024820
5610.90064819,0.00029790
5612.82945557,0.00029597
5614.75826294,0.00021872
5616.68707031,0.00022102
5618.61587769,0.00025376
5620.54468506,0.00026932
5622.47349243,0.00027682
5624.40229980,0.00026083
5626.33110718,0.00021392
5628.25991455,0.00022641
5630.18872192,0.00028020
5632.11752930,0.00026010
5634.04633667,0.00026936
5635.97514404,0.00025305
5637.90395142,0.00023455
5639.83275879,0.00025285
5641.76156616,0.00026121
5643.69037353,0.00026055
5645.61918091,0.00019801
5647.54798828,0.00021507
5649.47679565,0.00023652
5651.40560303,0.00023410
5653.33441040,0.00027064
5655.26321777,0.00026503
5657.19202515,0.00025005
5659.12083252,0.00019752
5661.04963989,0.00022743
5662.97844727,0.00028244
5664.90725464,0.00018966
5666.83606201,0.00017048
5668.76486938,0.00026297
5670.69367676,0.00019336
5672.62248413,0.00015933
5674.55129150,0.00022662
5676.48009888,0.00020635
5678.40890625,0.00027966
5680.33771362,0.00023469
5682.26652100,0.00020404
5684.19532837,0.00024649
5686.12413574,0.00017258
5688.05294311,0.00027111
5689.98175049,0.00025827
5691.91055786,0.00018858
5693.83936523,0.00019592
5695.76817261,0.00023386
5697.69697998,0.00025376
5699.62578735,0.00015015
5701.55459473,0.00027848
5703.48340210,0.00026083
5705.41220947,0.00018807
5707.34101685,0.00027083
5709.26982422,0.00016908
5711.19863159,0.00019456
5713.12743896,0.00023884
5715.05624634,0.00024915
5716.98505371,0.00023326
5718.91386108,0.00018887
5720.84266846,0.00022164
5722.77147583,0.00018395
5724.70028320,0.00021490
5726.62909058,0.00020444
5728.55789795,0.00018657
5730.48670532,0.00026251
5732.41551270,0.00025252
5734.34432007,0.00022857
5736.27312744,0.00025453
5738.20193481,0.00021790
5740.13074219,0.00018304
5742.05954956,0.00025019
5743.98835693,0.00018299
5745.91716431,0.00018780
5747.84597168,0.00029190
5749.77477905,0.00024040
5751.70358643,0.00024017
5753.63239380,0.00021222
5755.56120117,0.00020150
5757.49000854,0.00021956
5759.41881592,0.00017296
5761.34762329,0.00017900
5763.27643066,0.00017162
5765.20523804,0.00021433
5767.13404541,0.00027818
5769.06285278,0.00021737
5770.99166016,0.00016060
5772.92046753,0.00019343
5774.84927490,0.00019373
5776.77808228,0.00022429
5778.70688965,0.00027090
5780.63569702,0.00019660
5782.56450439,0.00016816
5784.49331177,0.00020138
5786.42211914,0.00021867
5788.35092651,0.00020886
5790.27973389,0.00015958
5792.20854126,0.00019758
5794.13734863,0.00027481
5796.06615601,0.00023184
5797.99496338,0.00018141
5799.92377075,0.00019390
5801.85257812,0.00019479
5803.78138550,0.00021287
5805.71019287,0.00022845
5807.63900024,0.00024445
5809.56780762,0.00017899
5811.49661499,0.00015562
5813.42542236,0.00020978
5815.35422974,0.00016401
5817.28303711,0.00022787
5819.21184448,0.00020102
5821.14065186,0.00015618
5823.06945923,0.00019876
5824.99826660,0.00009896
5826.92707397,0.00016226
5828.85588135,0.00018743
5830.78468872,0.00015238
5832.71349609,0.00019719
5834.64230347,0.00016902
5836.57111084,0.00014670
5838.49991821,0.00010958
5840.42872559,0.00014503
5842.35753296,0.00016159
5844.28634033,0.00021005
5846.21514770,0.00024049
5848.14395508,0.00016100
5850.07276245,0.00019184
5852.00156982,0.00022817
5853.93037720,0.00019377
5855.85918457,0.00012999
5857.78799194,0.00021458
5859.71679932,0.00022842
5861.64560669,0.00015096
5863.57441406,0.00020117
5865.50322144,0.00015285
5867.43202881,0.00019615
5869.36083618,0.00020301
5871.28964355,0.00020398
5873.21845093,0.00023077
5875.14725830,0.00013364
5877.07606567,0.00020104
5879.00487305,0.00017158
5880.93368042,0.00013409
5882.86248779,0.00014498
5884.79129517,0.00010321
5886.72010254,0.00015715
5888.64890991,0.00017169
5890.57771728,0.00019275
5892.50652466,0.00015264
5894.43533203,0.00018598
5896.36413940,0.00021595
5898.29294678,0.00013030
5900.22175415,0.00016659
5902.15056152,0.00019685
5904.07936890,0.00017430
5906.00817627,0.00013129
5907.93698364,0.00018831
5909.86579102,0.00020384
5911.79459839,0.00014478
5913.72340576,0.00020432
5915.65221313,0.00020645
5917.58102051,0.00018432
5919.50982788,0.00013841
5921.43863525,0.00012781
5923.36744263,0.00016981
5925.29625000,0.00014165
5927.22505737,0.00012364
5929.15386475,0.00015269
5931.08267212,0.00014642
5933.01147949,0.00009635
5934.94028686,0.00017832
5936.86909424,0.00017587
5938.79790161,0.00011584
5940.72670898,0.00018540
5942.65551636,0.00017972
5944.58432373,0.00014071
5946.51313110,0.00012248
5948.44193848,0.00014227
5950.37074585,0.00008261
5952.29955322,0.00008078
5954.22836060,0.00013228
5956.15716797,0.00013202
5958.08597534,0.00024938
5960.01478271,0.00015344
5961.94359009,0.00013602
5963.87239746,0.00022886
5965.80120483,0.00012544
5967.73001221,0.00017437
5969.65881958,0.00019672
5971.58762695,0.00017472
5973.51643433,0.00015244
5975.44524170,0.00011969
5977.37404907,0.00014908
5979.30285645,0.00013721
5981.23166382,0.00012571
5983.16047119,0.00012141
5985.08927856,0.00018829
5987.01808594,0.00013325
5988.94689331,0.00009690
5990.87570068,0.00017136
5992.80450806,0.00014980
5994.73331543,0.00019200
5996.66212280,0.00013818
5998.59093018,0.00013705
6000.51973755,0.00017299
