399.26312622,0.00003949
401.19193359,0.00090863
403.12074097,0.00018391
405.04954834,-0.00004138
406.97835571,0.00006165
408.90716309,0.00043614
410.83597046,0.00070836
412.76477783,-0.00014820
414.69358521,-0.00023634
416.62239258,0.00024301
418.55119995,0.00017581
420.48000732,0.00031612
422.40881470,0.00034321
424.33762207,0.00016018
426.26642944,0.00030615
428.19523682,0.00015266
430.12404419,0.00012148
432.05285156,0.00006003
433.98165894,0.00013939
435.91046631,0.00073415
437.83927368,0.00024161
439.76808105,-0.00004690
441.69688843,0.00015538
443.62569580,0.00000023
445.55450317,0.00006816
447.48331055,0.00000608
449.41211792,0.00026510
451.34092529,-0.00021575
453.26973267,0.00005978
455.19854004,0.00061300
457.12734741,-0.00014430
459.05615479,0.00021749
460.98496216,0.00036948
462.91376953,0.00051006
464.84257690,0.00029690
466.77138428,0.00025867
468.70019165,0.00076110
470.62899902,0.00037127
472.55780640,0.00059862
474.48661377,0.00010546
476.41542114,-0.00001969
478.34422852,0.00057315
480.27303589,0.00016530
482.20184326,0.00026469
484.13065063,0.00056644
486.05945801,0.00082146
487.98826538,0.00015300
489.91707275,-0.00000110
491.84588013,0.00041738
493.77468750,0.00000090
495.70349487,0.00058918
497.63230225,0.00044427
499.56110962,-0.00013202
501.48991699,0.00017665
503.41872437,0.00007399
505.34753174,-0.00003988
507.27633911,0.00019725
509.20514648,0.00012132
511.13395386,-0.00015752
513.06276123,0.00047083
514.99156860,0.00076371
516.92037598,0.00023946
518.84918335,-0.00007688
520.77799072,-0.00009803
522.70679810,0.00022212
524.63560547,0.00033616
526.56441284,0.00035217
528.49322021,0.00026375
530.42202759,0.00014592
532.35083496,0.00013081
534.27964233,0.00006128
536.20844971,0.00027508
538.13725708,0.00049272
540.06606445,0.00006485
541.99487183,-0.00043337
543.92367920,0.00026727
545.85248657,0.00040052
547.78129395,0.00023742
549.71010132,0.00047378
551.63890869,-0.00002054
553.56771606,0.00045856
555.49652344,0.00023143
557.42533081,-0.00031816
559.35413818,0.00016947
561.28294556,-0.00010270
563.21175293,0.00005080
565.14056030,0.00017756
567.06936768,0.00036528
568.99817505,0.00059283
570.92698242,0.00011244
572.85578979,-0.00002605
574.78459717,0.00007376
576.71340454,0.00034744
578.64221191,0.00029561
580.57101929,0.00035817
582.49982666,0.00028701
584.42863403,0.00008406
586.35744141,0.00055382
588.28624878,0.00023665
590.21505615,-0.00011894
592.14386353,-0.00000792
594.07267090,0.00024362
596.00147827,0.00040845
597.93028564,0.00005498
599.85909302,0.00047043
601.78790039,0.00068246
603.71670776,0.00033548
605.64551514,0.00030181
607.57432251,0.00009890
609.50312988,0.00003322
611.43193726,0.00012546
613.36074463,0.00023581
615.28955200,0.00032982
617.21835938,0.00027094
619.14716675,0.00017518
621.07597412,0.00036150
623.00478149,0.00018094
624.93358887,-0.00012648
626.86239624,0.00020172
628.79120361,0.00023117
630.72001099,0.00007398
632.64881836,-0.00004896
634.57762573,0.00003233
636.50643311,0.00049218
638.43524048,0.00015981
640.36404785,0.00015607
642.29285522,0.00048000
644.22166260,0.00011768
646.15046997,0.00034726
648.07927734,0.00051485
650.00808472,0.00027648
651.93689209,0.00011538
653.86569946,0.00015388
655.79450684,0.00022768
657.72331421,0.00012884
659.65212158,0.00035163
661.58092896,0.00034812
663.50973633,0.00017133
665.43854370,0.00043812
667.36735107,0.00060936
669.29615845,0.00049111
671.22496582,0.00062781
673.15377319,0.00088063
675.08258057,0.00070649
677.01138794,0.00067733
678.94019531,0.00072441
680.86900269,0.00042616
682.79781006,0.00038520
684.72661743,0.00045001
686.65542480,0.00036389
688.58423218,0.00058388
690.51303955,0.00066366
692.44184692,0.00056354
694.37065430,0.00095189
696.29946167,0.00102074
698.22826904,0.00093029
700.15707642,0.00094703
702.08588379,0.00056724
704.01469116,0.00075518
705.94349854,0.00093045
707.87230591,0.00048195
709.80111328,0.00047681
711.72992065,0.00062721
713.65872803,0.00034849
715.58753540,0.00042826
717.51634277,0.00029806
719.44515015,0.00001431
721.37395752,0.00040358
723.30276489,-0.00002580
725.23157227,0.00022700
727.16037964,0.00030622
729.08918701,0.00010082
731.01799438,0.00044307
732.94680176,0.00036052
734.87560913,0.00028482
736.80441650,0.00003013
738.73322388,0.00037984
740.66203125,0.00045613
742.59083862,0.00015581
744.51964600,0.00045676
746.44845337,0.00022991
748.37726074,0.00035937
750.30606812,0.00021246
752.23487549,-0.00008277
754.16368286,0.00052210
756.09249023,0.00028049
758.02129761,0.00009366
759.95010498,0.00038559
761.87891235,0.00028372
763.80771973,0.00029884
765.73652710,0.00035988
767.66533447,0.00036634
769.59414185,0.00030935
771.52294922,0.00018222
773.45175659,0.00008101
775.38056396,0.00022309
777.30937134,0.00021107
779.23817871,0.00008652
781.16698608,0.00036240
783.09579346,0.00029618
785.02460083,0.00017262
786.95340820,0.00032310
788.88221558,0.00022864
790.81102295,0.00021902
792.73983032,0.00032816
794.66863770,0.00031332
796.59744507,0.00026080
798.52625244,0.00044028
800.45505981,0.00035243
802.38386719,0.00015020
804.31267456,0.00034651
806.24148193,0.00034567
808.17028931,0.00022060
810.09909668,0.00019987
812.02790405,0.00021040
813.95671143,0.00010753
815.88551880,0.00019048
817.81432617,0.00030552
819.74313354,-0.00016379
821.67194092,0.00010077
823.60074829,0.00047739
825.52955566,-0.00007638
827.45836304,-0.00001267
829.38717041,0.00020337
831.31597778,0.00027217
833.24478516,0.00051232
835.17359253,0.00028594
837.10239990,0.00036596
839.03120728,0.00042165
840.96001465,0.00026400
842.88882202,0.00047017
844.81762939,0.00027343
846.74643677,0.00036687
848.67524414,0.00042784
850.60405151,0.00013166
852.53285889,0.00022950
854.46166626,0.00033827
856.39047363,0.00034085
858.31928101,0.00047186
860.24808838,0.00049852
862.17689575,0.00018006
864.10570313,0.00039526
866.03451050,0.00045966
867.96331787,0.00021608
869.89212524,0.00042115
871.82093262,0.00044709
873.74973999,0.00036109
875.67854736,0.00040207
877.60735474,0.00054072
879.53616211,0.00017540
881.46496948,0.00006461
883.39377686,0.00039699
885.32258423,0.00019420
887.25139160,0.00033997
889.18019897,0.00035831
891.10900635,0.00033963
893.03781372,0.00043137
894.96662109,0.00036977
896.89542847,0.00049453
898.82423584,0.00026665
900.75304321,0.00049266
902.68185059,0.00046055
904.61065796,0.00009562
906.53946533,0.00019828
908.46827271,0.00010315
910.39708008,0.00018183
912.32588745,0.00003667
914.25469482,0.00021997
916.18350220,0.00048215
918.11230957,0.00054580
920.04111694,0.00067277
921.96992432,0.00033286
923.89873169,0.00044169
925.82753906,0.00041356
927.75634644,0.00042080
929.68515381,0.00054211
931.61396118,0.00050960
933.54276855,0.00078569
935.47157593,0.00060351
937.40038330,0.00046816
939.32919067,0.00057715
941.25799805,0.00067100
943.18680542,0.00070574
945.11561279,0.00077219
947.04442017,0.00091158
948.97322754,0.00073732
950.90203491,0.00093934
952.83084229,0.00075556
954.75964966,0.00029300
956.68845703,0.00057652
958.61726440,0.00071372
960.54607178,0.00074730
962.47487915,0.00062912
964.40368652,0.00065376
966.33249390,0.00085885
968.26130127,0.00075902
970.19010864,0.00100207
972.11891602,0.00104404
974.04772339,0.00085936
975.97653076,0.00086604
977.90533813,0.00097920
979.83414551,0.00135593
981.76295288,0.00111872
983.69176025,0.00079233
985.62056763,0.00124156
987.54937500,0.00144685
989.47818237,0.00127757
991.40698975,0.00151444
993.33579712,0.00209666
995.26460449,0.00227343
997.19341187,0.00207187
999.12221924,0.00226047
1001.05102661,0.00258488
1002.97983398,0.00259310
1004.90864136,0.00289744
1006.83744873,0.00315417
1008.76625610,0.00317693
1010.69506348,0.00356073
1012.62387085,0.00368648
1014.55267822,0.00389680
1016.48148560,0.00408727
1018.41029297,0.00409486
1020.33910034,0.00453007
1022.26790771,0.00439881
1024.19671509,0.00461005
1026.12552246,0.00525185
1028.05432983,0.00514715
1029.98313721,0.00525463
1031.91194458,0.00530867
1033.84075195,0.00542633
1035.76955933,0.00566416
1037.69836670,0.00559541
1039.62717407,0.00579093
1041.55598145,0.00573994
1043.48478882,0.00562562
1045.41359619,0.00563018
1047.34240356,0.00541681
1049.27121094,0.00541684
1051.20001831,0.00536150
1053.12882568,0.00520858
1055.05763306,0.00506176
1056.98644043,0.00486491
1058.91524780,0.00488926
1060.84405518,0.00487756
1062.77286255,0.00450430
1064.70166992,0.00422498
1066.63047729,0.00440095
1068.55928467,0.00435077
1070.48809204,0.00414131
1072.41689941,0.00398258
1074.34570679,0.00376792
1076.27451416,0.00372944
1078.20332153,0.00336520
1080.13212891,0.00327088
1082.06093628,0.00321786
1083.98974365,0.00277525
1085.91855103,0.00284492
1087.84735840,0.00279015
1089.77616577,0.00263360
1091.70497314,0.00234226
1093.63378052,0.00234500
1095.56258789,0.00266374
1097.49139526,0.00219152
1099.42020264,0.00213947
1101.34901001,0.00222316
1103.27781738,0.00210673
1105.20662476,0.00205245
1107.13543213,0.00192183
1109.06423950,0.00229330
1110.99304687,0.00209597
1112.92185425,0.00178470
1114.85066162,0.00200202
1116.77946899,0.00207150
1118.70827637,0.00195201
1120.63708374,0.00191932
1122.56589111,0.00211503
1124.49469849,0.00190259
1126.42350586,0.00195799
1128.35231323,0.00221984
1130.28112061,0.00218887
1132.20992798,0.00210997
1134.13873535,0.00195821
1136.06754272,0.00231125
1137.99635010,0.00248475
1139.92515747,0.00253546
1141.85396484,0.00276973
1143.78277222,0.00292097
1145.71157959,0.00330330
1147.64038696,0.00343064
1149.56919434,0.00362270
1151.49800171,0.00370450
1153.42680908,0.00363781
1155.35561646,0.00410665
1157.28442383,0.00432944
1159.21323120,0.00430957
1161.14203857,0.00451178
1163.07084595,0.00474291
1164.99965332,0.00491508
1166.92846069,0.00495353
1168.85726807,0.00520291
1170.78607544,0.00546038
1172.71488281,0.00558645
1174.64369019,0.00597898
1176.57249756,0.00601288
1178.50130493,0.00628146
1180.43011230,0.00686402
1182.35891968,0.00683346
1184.28772705,0.00721679
1186.21653442,0.00760378
1188.14534180,0.00777757
1190.07414917,0.00827181
1192.00295654,0.00858738
1193.93176392,0.00896025
1195.86057129,0.00954887
1197.78937866,0.01024008
1199.71818604,0.01059624
1201.64699341,0.01105091
1203.57580078,0.01152281
1205.50460815,0.01182822
1207.43341553,0.01241688
1209.36222290,0.01265976
1211.29103027,0.01293320
1213.21983765,0.01311432
1215.14864502,0.01362584
1217.07745239,0.01427439
1219.00625977,0.01416392
1220.93506714,0.01451840
1222.86387451,0.01467383
1224.79268188,0.01459502
1226.72148926,0.01495645
1228.65029663,0.01522028
1230.57910400,0.01531941
1232.50791138,0.01516597
1234.43671875,0.01509622
1236.36552612,0.01502379
1238.29433350,0.01502684
1240.22314087,0.01506716
1242.15194824,0.01504567
1244.08075562,0.01507674
1246.00956299,0.01510882
1247.93837036,0.01519980
1249.86717773,0.01504731
1251.79598511,0.01490456
1253.72479248,0.01476588
1255.65359985,0.01461693
1257.58240723,0.01443064
1259.51121460,0.01410546
1261.44002197,0.01389659
1263.36882935,0.01371925
1265.29763672,0.01369100
1267.22644409,0.01351120
1269.15525146,0.01329226
1271.08405884,0.01311277
1273.01286621,0.01290580
1274.94167358,0.01286718
1276.87048096,0.01255615
1278.79928833,0.01224260
1280.72809570,0.01210132
1282.65690308,0.01184954
1284.58571045,0.01156728
1286.51451782,0.01131144
1288.44332520,0.01116170
1290.37213257,0.01128370
1292.30093994,0.01113099
1294.22974731,0.01094821
1296.15855469,0.01108973
1298.08736206,0.01068454
1300.01616943,0.01087596
1301.94497681,0.01128960
1303.87378418,0.01102979
1305.80259155,0.01118209
1307.73139893,0.01136555
1309.66020630,0.01162279
1311.58901367,0.01163027
1313.51782104,0.01172862
1315.44662842,0.01233252
1317.37543579,0.01268664
1319.30424316,0.01298924
1321.23305054,0.01315381
1323.16185791,0.01366635
1325.09066528,0.01425178
1327.01947266,0.01450372
1328.94828003,0.01489395
1330.87708740,0.01537691
1332.80589478,0.01582377
1334.73470215,0.01605435
1336.66350952,0.01620459
1338.59231689,0.01598959
1340.52112427,0.01621421
1342.44993164,0.01689624
1344.37873901,0.01693092
1346.30754639,0.01695594
1348.23635376,0.01693880
1350.16516113,0.01689135
1352.09396851,0.01686249
1354.02277588,0.01672987
1355.95158325,0.01668932
1357.88039062,0.01648407
1359.80919800,0.01623289
1361.73800537,0.01556374
1363.66681274,0.01545714
1365.59562012,0.01618549
1367.52442749,0.01583508
1369.45323486,0.01560887
1371.38204224,0.01582547
1373.31084961,0.01528860
1375.23965698,0.01524087
1377.16846436,0.01563439
1379.09727173,0.01570166
1381.02607910,0.01539941
1382.95488647,0.01546299
1384.88369385,0.01562024
1386.81250122,0.01495084
1388.74130859,0.01520500
1390.67011597,0.01629937
1392.59892334,0.01593268
1394.52773071,0.01496429
1396.45653809,0.01559077
1398.38534546,0.01553585
1400.31415283,0.01564363
1402.24296021,0.01704486
1404.17176758,0.01576822
1406.10057495,0.01591438
1408.02938232,0.01676914
1409.95818970,0.01595308
1411.88699707,0.01654743
1413.81580444,0.01597836
1415.74461182,0.01603049
1417.67341919,0.01461141
1419.60222656,0.01306077
1421.53103394,0.01511564
1423.45984131,0.01475136
1425.38864868,0.01416297
1427.31745605,0.01426496
1429.24626343,0.01332771
1431.17507080,0.01288543
1433.10387817,0.01307054
1435.03268555,0.01216129
1436.96149292,0.01030560
1438.89030029,0.01186105
1440.81910767,0.01197950
1442.74791504,0.01093407
1444.67672241,0.01184271
1446.60552979,0.01068506
1448.53433716,0.01074173
1450.46314453,0.01123969
1452.39195190,0.01137100
1454.32075928,0.01186506
1456.24956665,0.00984492
1458.17837402,0.01028264
1460.10718140,0.01360527
1462.03598877,0.01460015
1463.96479614,0.01455809
1465.89360352,0.01502756
1467.82241089,0.01719283
1469.75121826,0.01837113
1471.68002563,0.01635246
1473.60883301,0.01723617
1475.53764038,0.01949001
1477.46644775,0.02118278
1479.39525513,0.02332333
1481.32406250,0.02353889
1483.25286987,0.02490968
1485.18167725,0.02568756
1487.11048462,0.02549555
1489.03929199,0.02518326
1490.96809937,0.02530633
1492.89690674,0.02957884
1494.82571411,0.02870998
1496.75452148,0.02582980
1498.68332886,0.02922988
1500.61213623,0.03017138
1502.54094360,0.03241749
1504.46975098,0.03069715
1506.39855835,0.02231312
1508.32736572,0.02699884
1510.25617310,0.03174777
1512.18498047,0.03081568
1514.11378784,0.03350082
1516.04259521,0.03020491
1517.97140259,0.03152726
1519.90020996,0.03043447
1521.82901733,0.02610720
1523.75782471,0.03208223
1525.68663208,0.03165602
1527.61543945,0.03155387
1529.54424683,0.03492995
1531.47305420,0.03337276
1533.40186157,0.03052832
1535.33066895,0.03257793
1537.25947632,0.03481824
1539.18828369,0.02486480
1541.11709106,0.02602853
1543.04589844,0.03117660
1544.97470581,0.02980464
1546.90351318,0.03527678
1548.83232056,0.03292317
1550.76112793,0.03386181
1552.68993530,0.03379687
1554.61874268,0.03050579
1556.54755005,0.03244137
1558.47635742,0.02291881
1560.40516479,0.02469732
1562.33397217,0.03520086
1564.26277954,0.03295328
1566.19158691,0.03396086
1568.12039429,0.03373152
1570.04920166,0.02967338
1571.97800903,0.03432640
1573.90681641,0.03432116
1575.83562378,0.02705599
1577.76443115,0.03070373
1579.69323853,0.03467547
1581.62204590,0.03310832
1583.55085327,0.03354067
1585.47966064,0.03296028
1587.40846802,0.03300738
1589.33727539,0.03266712
1591.26608276,0.03253173
1593.19489014,0.03223720
1595.12369751,0.03178278
1597.05250488,0.03199216
1598.98131226,0.03159992
1600.91011963,0.03159893
1602.83892700,0.03062074
1604.76773437,0.03072975
1606.69654175,0.03017279
1608.62534912,0.02987385
1610.55415649,0.02952537
1612.48296387,0.02957033
1614.41177124,0.02971312
1616.34057861,0.02413812
1618.26938599,0.02580327
1620.19819336,0.02971256
1622.12700073,0.02627136
1624.05580811,0.02631638
1625.98461548,0.02758352
1627.91342285,0.02721470
1629.84223022,0.02693300
1631.77103760,0.02892343
1633.69984497,0.02660552
1635.62865234,0.02181790
1637.55745972,0.02559293
1639.48626709,0.02840891
1641.41507446,0.02774794
1643.34388184,0.02869922
1645.27268921,0.02600612
1647.20149658,0.02292696
1649.13030396,0.02899949
1651.05911133,0.02763624
1652.98791870,0.01778832
1654.91672607,0.02439836
1656.84553345,0.03092891
1658.77434082,0.02996073
1660.70314819,0.03116604
1662.63195557,0.02861400
1664.56076294,0.03043538
1666.48957031,0.03292602
1668.41837769,0.02886099
1670.34718506,0.02838726
1672.27599243,0.03255383
1674.20479980,0.03034000
1676.13360718,0.02939192
1678.06241455,0.03411596
1679.99122192,0.03315737
1681.92002930,0.03292749
1683.84883667,0.02696595
1685.77764404,0.02684428
1687.70645142,0.03732689
1689.63525879,0.03276338
1691.56406616,0.03614953
1693.49287354,0.03710109
1695.42168091,0.02707363
1697.35048828,0.03379461
1699.27929565,0.02993281
1701.20810303,0.02703575
1703.13691040,0.03719726
1705.06571777,0.03424500
1706.99452515,0.03475830
1708.92333252,0.03814542
1710.85213989,0.03691454
1712.78094727,0.03758026
1714.70975464,0.03505548
1716.63856201,0.03149818
1718.56736938,0.03114451
1720.49617676,0.03726697
1722.42498413,0.03870095
1724.35379150,0.03619315
1726.28259888,0.03932933
1728.21140625,0.03635412
1730.14021362,0.03705599
1732.06902100,0.03627270
1733.99782837,0.02752773
1735.92663574,0.03430706
1737.85544312,0.03832718
1739.78425049,0.03405758
1741.71305786,0.03711515
1743.64186523,0.03774723
1745.57067261,0.03796791
1747.49947998,0.03824475
1749.42828735,0.03649657
1751.35709473,0.03513158
1753.28590210,0.03899068
1755.21470947,0.04112273
1757.14351685,0.03739006
1759.07232422,0.04130394
1761.00113159,0.03905721
1762.92993896,0.03733254
1764.85874634,0.04302151
1766.78755371,0.03862619
1768.71636108,0.03911407
1770.64516846,0.03905727
1772.57397583,0.03496702
1774.50278320,0.03927215
1776.43159058,0.04136099
1778.36039795,0.04088249
1780.28920532,0.04053826
1782.21801270,0.04088712
1784.14682007,0.04097056
1786.07562744,0.04025402
1788.00443481,0.04246466
1789.93324219,0.04132409
1791.86204956,0.03730462
1793.79085693,0.03899797
1795.71966431,0.04193872
1797.64847168,0.04140821
1799.57727905,0.04091600
1801.50608643,0.04018457
1803.43489380,0.04155914
1805.36370117,0.04258012
1807.29250854,0.04186379
1809.22131592,0.04213056
1811.15012329,0.04096694
1813.07893066,0.04238990
1815.00773804,0.04269764
1816.93654541,0.04200061
1818.86535278,0.04255234
1820.79416016,0.04245214
1822.72296753,0.04298896
1824.65177490,0.04021454
1826.58058228,0.04181954
1828.50938965,0.04186385
1830.43819702,0.03926595
1832.36700439,0.04291832
1834.29581177,0.04257105
1836.22461914,0.04263596
1838.15342651,0.04253833
1840.08223389,0.04291756
1842.01104126,0.04318922
1843.93984863,0.03810515
1845.86865601,0.04060215
1847.79746338,0.04293095
1849.72627075,0.04196564
1851.65507812,0.04341549
1853.58388550,0.04254916
1855.51269287,0.04284113
1857.44150024,0.04255391
1859.37030762,0.04235940
1861.29911499,0.04280799
1863.22792236,0.04230603
1865.15672974,0.04278998
1867.08553711,0.04143073
1869.01434448,0.03972129
1870.94315186,0.04131365
1872.87195923,0.04293210
1874.80076660,0.04239962
1876.72957397,0.04267884
1878.65838135,0.04257457
1880.58718872,0.04223981
1882.51599609,0.04260369
1884.44480347,0.04212207
1886.37361084,0.04259659
1888.30241821,0.04164377
1890.23122559,0.04101655
1892.16003296,0.04264746
1894.08884033,0.04203477
1896.01764771,0.04186025
1897.94645508,0.04241779
1899.87526245,0.04208000
1901.80406982,0.04229960
1903.73287720,0.04202771
1905.66168457,0.04204336
1907.59049194,0.04179405
1909.51929932,0.04163766
1911.44810669,0.04188727
1913.37691406,0.04189999
1915.30572144,0.04240140
1917.23452881,0.04048873
1919.16333618,0.04048894
1921.09214355,0.04219884
1923.02095093,0.04082871
1924.94975830,0.04181152
1926.87856567,0.04222069
1928.80737305,0.04167199
1930.73618042,0.04216230
1932.66498779,0.04143506
1934.59379517,0.04208850
1936.52260254,0.04178480
1938.45140991,0.04182731
1940.38021729,0.04189955
1942.30902466,0.04057664
1944.23783203,0.04135168
1946.16663940,0.04173399
1948.09544678,0.04177111
1950.02425415,0.04187165
1951.95306152,0.04179418
1953.88186890,0.04194141
1955.81067627,0.04164030
1957.73948364,0.04191610
1959.66829102,0.04185287
1961.59709839,0.04174855
1963.52590576,0.04182379
1965.45471313,0.04146940
1967.38352051,0.04121372
1969.31232788,0.04160637
1971.24113525,0.04190826
1973.16994263,0.04164796
1975.09875000,0.04188189
1977.02755737,0.04163482
1978.95636475,0.04149280
1980.88517212,0.04162530
1982.81397949,0.04154484
1984.74278687,0.04166714
1986.67159424,0.04118561
1988.60040161,0.04123224
1990.52920898,0.04112108
1992.45801636,0.04067015
1994.38682373,0.04114455
1996.31563110,0.04121611
1998.24443848,0.04100633
2000.17324585,0.04111382
2002.10205322,0.04108891
2004.03086060,0.04097569
2005.95966797,0.04095142
2007.88847534,0.04091332
2009.81728271,0.04081567
2011.74609009,0.04070532
2013.67489746,0.04069472
2015.60370483,0.04046707
2017.53251221,0.04015531
2019.46131958,0.04034477
2021.39012695,0.04043432
2023.31893433,0.04039354
2025.24774170,0.04024156
2027.17654907,0.04011848
2029.10535645,0.04016644
2031.03416382,0.03996250
2032.96297119,0.04003504
2034.89177856,0.04002820
2036.82058594,0.03981054
2038.74939331,0.03963349
2040.67820068,0.03947260
2042.60700806,0.03971137
2044.53581543,0.03974549
2046.46462280,0.03957420
2048.39343018,0.03951453
2050.32223755,0.03932326
2052.25104492,0.03928091
2054.17985229,0.03930897
2056.10865967,0.03917684
2058.03746704,0.03915548
2059.96627441,0.03919264
2061.89508179,0.03911866
2063.82388916,0.03888299
2065.75269653,0.03870017
2067.68150391,0.03884329
2069.61031128,0.03879701
2071.53911865,0.03864924
2073.46792603,0.03862899
2075.39673340,0.03857256
2077.32554077,0.03858308
2079.25434814,0.03851876
2081.18315552,0.03852973
2083.11196289,0.03845697
2085.04077026,0.03829845
2086.96957764,0.03826907
2088.89838501,0.03818061
2090.82719238,0.03814802
2092.75599976,0.03814176
2094.68480713,0.03815070
2096.61361450,0.03819981
2098.54242187,0.03807322
2100.47122925,0.03780664
2102.40003662,0.03784953
2104.32884399,0.03792553
2106.25765137,0.03779247
2108.18645874,0.03784548
2110.11526611,0.03778622
2112.04407349,0.03777101
2113.97288086,0.03784306
2115.90168823,0.03772819
2117.83049561,0.03764734
2119.75930298,0.03754000
2121.68811035,0.03754430
2123.61691772,0.03760807
2125.54572510,0.03754142
2127.47453247,0.03744135
2129.40333984,0.03740453
2131.33214722,0.03743802
2133.26095459,0.03740796
2135.18976196,0.03739156
2137.11856934,0.03733265
2139.04737671,0.03717515
2140.97618408,0.03721511
2142.90499146,0.03729820
2144.83379883,0.03723823
2146.76260620,0.03725247
2148.69141357,0.03735120
2150.62022095,0.03744471
2152.54902832,0.03724060
2154.47783569,0.03710062
2156.40664307,0.03724331
2158.33545044,0.03722589
2160.26425781,0.03723896
2162.19306519,0.03713568
2164.12187256,0.03714449
2166.05067993,0.03710893
2167.97948730,0.03697945
2169.90829468,0.03720657
2171.83710205,0.03700549
2173.76590942,0.03692552
2175.69471680,0.03713979
2177.62352417,0.03714354
2179.55233154,0.03709485
2181.48113892,0.03693137
2183.40994629,0.03708048
2185.33875366,0.03706188
2187.26756104,0.03699269
2189.19636841,0.03704744
2191.12517578,0.03693228
2193.05398315,0.03703225
2194.98279053,0.03693173
2196.91159790,0.03682078
2198.84040527,0.03692202
2200.76921265,0.03694313
2202.69802002,0.03692020
2204.62682739,0.03691016
2206.55563477,0.03691088
2208.48444214,0.03683638
2210.41324951,0.03697109
2212.34205688,0.03704993
2214.27086426,0.03689541
2216.19967163,0.03689276
2218.12847900,0.03685711
2220.05728638,0.03677600
2221.98609375,0.03675307
2223.91490112,0.03673741
2225.84370850,0.03687461
2227.77251587,0.03678302
2229.70132324,0.03659815
2231.63013062,0.03670092
2233.55893799,0.03663572
2235.48774536,0.03668220
2237.41655273,0.03679405
2239.34536011,0.03671931
2241.27416748,0.03659157
2243.20297485,0.03651642
2245.13178223,0.03671292
2247.06058960,0.03670660
2248.98939697,0.03666934
2250.91820435,0.03653520
2252.84701172,0.03638580
2254.77581909,0.03647473
2256.70462646,0.03643993
2258.63343384,0.03661111
2260.56224121,0.03652154
2262.49104858,0.03645075
2264.41985596,0.03648379
2266.34866333,0.03633910
2268.27747070,0.03642724
2270.20627808,0.03626881
2272.13508545,0.03629613
2274.06389282,0.03636093
2275.99270020,0.03634864
2277.92150757,0.03640538
2279.85031494,0.03627123
2281.77912231,0.03640334
2283.70792969,0.03637241
2285.63673706,0.03631267
2287.56554443,0.03626863
2289.49435181,0.03606203
2291.42315918,0.03608823
2293.35196655,0.03615407
2295.28077393,0.03605971
2297.20958130,0.03581934
2299.13838867,0.03577543
2301.06719604,0.03567151
2302.99600342,0.03553975
2304.92481079,0.03556603
2306.85361816,0.03529447
2308.78242554,0.03496891
2310.71123291,0.03469308
2312.64004028,0.03443682
2314.56884766,0.03423434
2316.49765503,0.03379672
2318.42646240,0.03335759
2320.35526978,0.03299816
2322.28407715,0.03240172
2324.21288452,0.03207570
2326.14169189,0.03183107
2328.07049927,0.03135102
2329.99930664,0.03102680
2331.92811401,0.03075449
2333.85692139,0.03080901
2335.78572876,0.03073139
2337.71453613,0.03061013
2339.64334351,0.03064102
2341.57215088,0.03062877
2343.50095825,0.03114976
2345.42976562,0.03170936
2347.35857300,0.03314181
2349.28738037,0.03433500
2351.21618774,0.03319082
2353.14499512,0.03156984
2355.07380249,0.03034865
2357.00260986,0.02944385
2358.93141724,0.02886950
2360.86022461,0.02857521
2362.78903198,0.02863114
2364.71783936,0.02875545
2366.64664673,0.02912765
2368.57545410,0.02976849
2370.50426147,0.03057725
2372.43306885,0.03134756
2374.36187622,0.03233084
2376.29068359,0.03325194
2378.21949097,0.03386102
2380.14829834,0.03447889
2382.07710571,0.03495214
2384.00591309,0.03541762
2385.93472046,0.03548793
2387.86352783,0.03546300
2389.79233521,0.03557889
2391.72114258,0.03548374
2393.64994995,0.03542706
2395.57875732,0.03536892
2397.50756470,0.03546164
2399.43637207,0.03537177
2401.36517944,0.03528467
2403.29398682,0.03539278
2405.22279419,0.03532795
2407.15160156,0.03537890
2409.08040894,0.03536472
2411.00921631,0.03529181
2412.93802368,0.03519964
2414.86683105,0.03520259
2416.79563843,0.03531383
2418.72444580,0.03526166
2420.65325317,0.03523681
2422.58206055,0.03517405
2424.51086792,0.03519380
2426.43967529,0.03517894
2428.36848267,0.03508928
2430.29729004,0.03510404
2432.22609741,0.03507894
2434.15490479,0.03515570
2436.08371216,0.03511765
2438.01251953,0.03500002
2439.94132690,0.03500883
2441.87013428,0.03493645
2443.79894165,0.03484481
2445.72774902,0.03494095
2447.65655640,0.03506870
2449.58536377,0.03486868
2451.51417114,0.03479725
2453.44297852,0.03488303
2455.37178589,0.03484293
2457.30059326,0.03495107
2459.22940063,0.03479176
2461.15820801,0.03471857
2463.08701538,0.03483554
2465.01582275,0.03466397
2466.94463013,0.03476726
2468.87343750,0.03477830
2470.80224487,0.03466103
2472.73105225,0.03475254
2474.65985962,0.03465804
2476.58866699,0.03461875
2478.51747437,0.03471437
2480.44628174,0.03469195
2482.37508911,0.03454496
2484.30389648,0.03460093
2486.23270386,0.03460089
2488.16151123,0.03447922
2490.09031860,0.03453000
2492.01912598,0.03442878
2493.94793335,0.03446841
2495.87674072,0.03441345
2497.80554810,0.03438824
2499.73435547,0.03453480
2501.66316284,0.03428311
2503.59197021,0.03436289
2505.52077759,0.03444319
2507.44958496,0.03426693
2509.37839233,0.03439303
2511.30719971,0.03425721
2513.23600708,0.03411346
2515.16481445,0.03433426
2517.09362183,0.03427550
2519.02242920,0.03418255
2520.95123657,0.03437295
2522.88004395,0.03418770
2524.80885132,0.03406949
2526.73765869,0.03421414
2528.66646606,0.03410861
2530.59527344,0.03406830
2532.52408081,0.03410611
2534.45288818,0.03409460
2536.38169556,0.03400592
2538.31050293,0.03400391
2540.23931030,0.03399862
2542.16811768,0.03398155
2544.09692505,0.03401010
2546.02573242,0.03392471
2547.95453979,0.03396817
2549.88334717,0.03384779
2551.81215454,0.03387647
2553.74096191,0.03390526
2555.66976929,0.03369361
2557.59857666,0.03385914
2559.52738403,0.03383581
2561.45619141,0.03376762
2563.38499878,0.03377963
2565.31380615,0.03367690
2567.24261353,0.03363369
2569.17142090,0.03356896
2571.10022827,0.03362769
2573.02903564,0.03359967
2574.95784302,0.03361138
2576.88665039,0.03359771
2578.81545776,0.03358766
2580.74426514,0.03362808
2582.67307251,0.03350562
2584.60187988,0.03350936
2586.53068726,0.03346255
2588.45949463,0.03348317
2590.38830200,0.03350519
2592.31710937,0.03332545
2594.24591675,0.03327050
2596.17472412,0.03331940
2598.10353149,0.03323114
2600.03233887,0.03321047
2601.96114624,0.03337893
2603.88995361,0.03321626
2605.81876099,0.03324177
2607.74756836,0.03329768
2609.67637573,0.03305823
2611.60518311,0.03315103
2613.53399048,0.03307673
2615.46279785,0.03307988
2617.39160522,0.03311697
2619.32041260,0.03299832
2621.24921997,0.03302690
2623.17802734,0.03288014
2625.10683472,0.03296241
2627.03564209,0.03301070
2628.96444946,0.03293142
2630.89325684,0.03302345
2632.82206421,0.03294211
2634.75087158,0.03288628
2636.67967895,0.03280362
2638.60848633,0.03263172
2640.53729370,0.03267688
2642.46610107,0.03279434
2644.39490845,0.03268077
2646.32371582,0.03265540
2648.25252319,0.03269744
2650.18133057,0.03260275
2652.11013794,0.03260846
2654.03894531,0.03245360
2655.96775269,0.03247850
2657.89656006,0.03267226
2659.82536743,0.03255584
2661.75417480,0.03252712
2663.68298218,0.03245890
2665.61178955,0.03236025
2667.54059692,0.03244252
2669.46940430,0.03243200
2671.39821167,0.03222733
2673.32701904,0.03215997
2675.25582642,0.03225885
2677.18463379,0.03213481
2679.11344116,0.03219330
2681.04224854,0.03223121
2682.97105591,0.03198410
2684.89986328,0.03210566
2686.82867065,0.03223041
2688.75747803,0.03202005
2690.68628540,0.03192743
2692.61509277,0.03215493
2694.54390015,0.03209455
2696.47270752,0.03179845
2698.40151489,0.03186546
2700.33032227,0.03174353
2702.25912964,0.03179555
2704.18793701,0.03196444
2706.11674438,0.03169914
2708.04555176,0.03172956
2709.97435913,0.03168944
2711.90316650,0.03159801
2713.83197388,0.03163599
2715.76078125,0.03146264
2717.68958862,0.03157016
2719.61839600,0.03160902
2721.54720337,0.03152059
2723.47601074,0.03154384
2725.40481812,0.03141639
2727.33362549,0.03136411
2729.26243286,0.03133411
2731.19124023,0.03130458
2733.12004761,0.03123726
2735.04885498,0.03114620
2736.97766235,0.03123818
2738.90646973,0.03120518
2740.83527710,0.03113208
2742.76408447,0.03112030
2744.69289185,0.03100794
2746.62169922,0.03103192
2748.55050659,0.03104400
2750.47931396,0.03096494
2752.40812134,0.03095082
2754.33692871,0.03091691
2756.26573608,0.03089704
2758.19454346,0.03076648
2760.12335083,0.03073110
2762.05215820,0.03084157
2763.98096558,0.03064422
2765.90977295,0.03053422
2767.83858032,0.03063861
2769.76738770,0.03056229
2771.69619507,0.03049585
2773.62500244,0.03041904
2775.55380981,0.03032909
2777.48261719,0.03033333
2779.41142456,0.03026136
2781.34023193,0.03023252
2783.26903931,0.03020646
2785.19784668,0.03008547
2787.12665405,0.02998872
2789.05546143,0.02991160
2790.98426880,0.02992133
2792.91307617,0.02987735
2794.84188354,0.02988560
2796.77069092,0.02986227
2798.69949829,0.02963826
2800.62830566,0.02971374
2802.55711304,0.02974816
2804.48592041,0.02957939
2806.41472778,0.02947449
2808.34353516,0.02936620
2810.27234253,0.02942435
2812.20114990,0.02934333
2814.12995728,0.02929678
2816.05876465,0.02930355
2817.98757202,0.02907366
2819.91637939,0.02904576
2821.84518677,0.02904207
2823.77399414,0.02897985
2825.70280151,0.02895297
2827.63160889,0.02880893
2829.56041626,0.02874085
2831.48922363,0.02872808
2833.41803101,0.02864893
2835.34683838,0.02859471
2837.27564575,0.02858922
2839.20445312,0.02851324
2841.13326050,0.02841315
2843.06206787,0.02832020
2844.99087524,0.02816413
2846.91968262,0.02800356
2848.84848999,0.02786817
2850.77729736,0.02777766
2852.70610474,0.02775330
2854.63491211,0.02768219
2856.56371948,0.02757482
2858.49252686,0.02759922
2860.42133423,0.02756082
2862.35014160,0.02748976
2864.27894897,0.02744638
2866.20775635,0.02729212
2868.13656372,0.02727819
2870.06537109,0.02723931
2871.99417847,0.02711653
2873.92298584,0.02705950
2875.85179321,0.02705848
2877.78060059,0.02707277
2879.70940796,0.02692004
2881.63821533,0.02696200
2883.56702270,0.02702583
2885.49583008,0.02680739
2887.42463745,0.02673159
2889.35344482,0.02666489
2891.28225220,0.02651071
2893.21105957,0.02652379
2895.13986694,0.02647291
2897.06867432,0.02624572
2898.99748169,0.02615327
2900.92628906,0.02611952
2902.85509644,0.02607632
2904.78390381,0.02594108
2906.71271118,0.02580846
2908.64151855,0.02581105
2910.57032593,0.02555183
2912.49913330,0.02546046
2914.42794067,0.02543288
2916.35674805,0.02520377
2918.28555542,0.02522057
2920.21436279,0.02507670
2922.14317017,0.02499131
2924.07197754,0.02503559
2926.00078491,0.02482237
2927.92959229,0.02469416
2929.85839966,0.02477090
2931.78720703,0.02475893
2933.71601440,0.02458890
2935.64482178,0.02452172
2937.57362915,0.02445439
2939.50243652,0.02454598
2941.43124390,0.02447869
2943.36005127,0.02425447
2945.28885864,0.02437032
2947.21766602,0.02412271
2949.14647339,0.02404381
2951.07528076,0.02409396
2953.00408813,0.02380926
2954.93289551,0.02383828
2956.86170288,0.02367699
2958.79051025,0.02356483
2960.71931763,0.02345179
2962.64812500,0.02323871
2964.57693237,0.02333702
2966.50573975,0.02311096
2968.43454712,0.02309458
2970.36335449,0.02324175
2972.29216187,0.02307708
2974.22096924,0.02305317
2976.14977661,0.02292203
2978.07858398,0.02284141
2980.00739136,0.02281183
2981.93619873,0.02267909
2983.86500610,0.02271598
2985.79381348,0.02262868
2987.72262085,0.02247652
2989.65142822,0.02249252
2991.58023560,0.02235321
2993.50904297,0.02216482
2995.43785034,0.02219487
2997.36665771,0.02215030
2999.29546509,0.02200492
3001.22427246,0.02191672
3003.15307983,0.02175747
3005.08188721,0.02155669
3007.01069458,0.02149345
3008.93950195,0.02150606
3010.86830933,0.02130273
3012.79711670,0.02117139
3014.72592407,0.02120900
3016.65473145,0.02099892
3018.58353882,0.02081991
3020.51234619,0.02076091
3022.44115356,0.02066675
3024.36996094,0.02051533
3026.29876831,0.02036716
3028.22757568,0.02038881
3030.15638306,0.02021387
3032.08519043,0.01996024
3034.01399780,0.01989269
3035.94280518,0.01980137
3037.87161255,0.01971253
3039.80041992,0.01961593
3041.72922729,0.01953819
3043.65803467,0.01941330
3045.58684204,0.01926529
3047.51564941,0.01911879
3049.44445679,0.01898360
3051.37326416,0.01894106
3053.30207153,0.01879231
3055.23087891,0.01867657
3057.15968628,0.01855138
3059.08849365,0.01835190
3061.01730103,0.01827224
3062.94610840,0.01816415
3064.87491577,0.01805960
3066.80372314,0.01794304
3068.73253052,0.01779955
3070.66133789,0.01769056
3072.59014526,0.01762065
3074.51895264,0.01758407
3076.44776001,0.01740582
3078.37656738,0.01718888
3080.30537476,0.01707186
3082.23418213,0.01697093
3084.16298950,0.01680987
3086.09179687,0.01666133
3088.02060425,0.01660358
3089.94941162,0.01652249
3091.87821899,0.01645223
3093.80702637,0.01637721
3095.73583374,0.01621396
3097.66464111,0.01608538
3099.59344849,0.01591744
3101.52225586,0.01576481
3103.45106323,0.01573079
3105.37987061,0.01557311
3107.30867798,0.01548947
3109.23748535,0.01540250
3111.16629272,0.01515983
3113.09510010,0.01513119
3115.02390747,0.01500921
3116.95271484,0.01477621
3118.88152222,0.01474804
3120.81032959,0.01472951
3122.73913696,0.01453588
3124.66794434,0.01433897
3126.59675171,0.01426421
3128.52555908,0.01413260
3130.45436645,0.01412386
3132.38317383,0.01395414
3134.31198120,0.01374635
3136.24078857,0.01381852
3138.16959595,0.01365542
3140.09840332,0.01348848
3142.02721069,0.01336462
3143.95601807,0.01327049
3145.88482544,0.01318621
3147.81363281,0.01302138
3149.74244019,0.01300280
3151.67124756,0.01288402
3153.60005493,0.01279005
3155.52886230,0.01270251
3157.45766968,0.01258763
3159.38647705,0.01244633
3161.31528442,0.01233683
3163.24409180,0.01232356
3165.17289917,0.01210398
3167.10170654,0.01209734
3169.03051392,0.01210757
3170.95932129,0.01195871
3172.88812866,0.01183755
3174.81693604,0.01172934
3176.74574341,0.01178060
3178.67455078,0.01165086
3180.60335815,0.01158437
3182.53216553,0.01152801
3184.46097290,0.01137868
3186.38978027,0.01138051
3188.31858765,0.01131393
3190.24739502,0.01120130
3192.17620239,0.01107377
3194.10500977,0.01109061
3196.03381714,0.01107526
3197.96262451,0.01101840
3199.89143188,0.01096547
3201.82023926,0.01075751
3203.74904663,0.01072438
3205.67785400,0.01083765
3207.60666138,0.01081486
3209.53546875,0.01065808
3211.46427612,0.01069998
3213.39308350,0.01066984
3215.32189087,0.01059671
3217.25069824,0.01068315
3219.17950562,0.01048702
3221.10831299,0.01043387
3223.03712036,0.01046653
3224.96592773,0.01043068
3226.89473511,0.01049800
3228.82354248,0.01043630
3230.75234985,0.01044191
3232.68115723,0.01042281
3234.60996460,0.01030204
3236.53877197,0.01031428
3238.46757935,0.01032280
3240.39638672,0.01027574
3242.32519409,0.01035975
3244.25400146,0.01025058
3246.18280884,0.01020852
3248.11161621,0.01038714
3250.04042358,0.01030099
3251.96923096,0.01037831
3253.89803833,0.01034677
3255.82684570,0.01021652
3257.75565308,0.01025910
3259.68446045,0.01021666
3261.61326782,0.01031892
3263.54207520,0.01030114
3265.47088257,0.01031175
3267.39968994,0.01038982
3269.32849731,0.01039596
3271.25730469,0.01033034
3273.18611206,0.01021660
3275.11491943,0.01030529
3277.04372681,0.01031682
3278.97253418,0.01036882
3280.90134155,0.01031961
3282.83014893,0.01029634
3284.75895630,0.01041338
3286.68776367,0.01031486
3288.61657104,0.01036690
3290.54537842,0.01035704
3292.47418579,0.01028371
3294.40299316,0.01035975
3296.33180054,0.01037002
3298.26060791,0.01028701
3300.18941528,0.01028936
3302.11822266,0.01039250
3304.04703003,0.01036529
3305.97583740,0.01039236
3307.90464478,0.01040581
3309.83345215,0.01037044
3311.76225952,0.01032971
3313.69106689,0.01028246
3315.61987427,0.01027319
3317.54868164,0.01026994
3319.47748901,0.01036472
3321.40629639,0.01033837
3323.33510376,0.01030865
3325.26391113,0.01033860
3327.19271851,0.01042962
3329.12152588,0.01046206
3331.05033325,0.01036626
3332.97914062,0.01039515
3334.90794800,0.01027968
3336.83675537,0.01031625
3338.76556274,0.01047678
3340.69437012,0.01049291
3342.62317749,0.01047268
3344.55198486,0.01033997
3346.48079224,0.01034639
3348.40959961,0.01041368
3350.33840698,0.01042289
3352.26721436,0.01034097
3354.19602173,0.01041393
3356.12482910,0.01055834
3358.05363647,0.01049293
3359.98244385,0.01047928
3361.91125122,0.01040603
3363.84005859,0.01047480
3365.76886597,0.01051001
3367.69767334,0.01038245
3369.62648071,0.01050619
3371.55528809,0.01056155
3373.48409546,0.01058566
3375.41290283,0.01070491
3377.34171020,0.01067050
3379.27051758,0.01072584
3381.19932495,0.01078039
3383.12813232,0.01062422
3385.05693970,0.01071715
3386.98574707,0.01081223
3388.91455444,0.01074159
3390.84336182,0.01076517
3392.77216919,0.01075700
3394.70097656,0.01084763
3396.62978394,0.01086034
3398.55859131,0.01087072
3400.48739868,0.01088894
3402.41620605,0.01078437
3404.34501343,0.01089734
3406.27382080,0.01106939
3408.20262817,0.01106767
3410.13143555,0.01102586
3412.06024292,0.01106068
3413.98905029,0.01107499
3415.91785767,0.01119507
3417.84666504,0.01124950
3419.77547241,0.01124079
3421.70427979,0.01125855
3423.63308716,0.01121277
3425.56189453,0.01147282
3427.49070190,0.01147037
3429.41950928,0.01136050
3431.34831665,0.01144705
3433.27712402,0.01145259
3435.20593140,0.01155386
3437.13473877,0.01153659
3439.06354614,0.01161822
3440.99235352,0.01158296
3442.92116089,0.01167995
3444.84996826,0.01178850
3446.77877563,0.01156026
3448.70758301,0.01174033
3450.63639038,0.01183249
3452.56519775,0.01179737
3454.49400513,0.01189346
3456.42281250,0.01198967
3458.35161987,0.01196424
3460.28042725,0.01190203
3462.20923462,0.01206177
3464.13804199,0.01206733
3466.06684937,0.01213340
3467.99565674,0.01215305
3469.92446411,0.01219591
3471.85327148,0.01230985
3473.78207886,0.01222480
3475.71088623,0.01228498
3477.63969360,0.01236103
3479.56850098,0.01236749
3481.49730835,0.01231318
3483.42611572,0.01243400
3485.35492310,0.01262816
3487.28373047,0.01258566
3489.21253784,0.01256530
3491.14134521,0.01268973
3493.07015259,0.01275951
3494.99895996,0.01277240
3496.92776733,0.01281516
3498.85657471,0.01272824
3500.78538208,0.01286794
3502.71418945,0.01275510
3504.64299683,0.01266288
3506.57180420,0.01301835
3508.50061157,0.01299523
3510.42941895,0.01305879
3512.35822632,0.01308980
3514.28703369,0.01322318
3516.21584106,0.01333664
3518.14464844,0.01325170
3520.07345581,0.01347703
3522.00226318,0.01335968
3523.93107056,0.01326779
3525.85987793,0.01326163
3527.78868530,0.01333212
3529.71749268,0.01354209
3531.64630005,0.01355999
3533.57510742,0.01367372
3535.50391479,0.01368068
3537.43272217,0.01366259
3539.36152954,0.01374847
3541.29033691,0.01394043
3543.21914429,0.01390349
3545.14795166,0.01360188
3547.07675903,0.01355496
3549.00556641,0.01401433
3550.93437378,0.01411490
3552.86318115,0.01373922
3554.79198853,0.01418046
3556.72079590,0.01430028
3558.64960327,0.01418173
3560.57841064,0.01427656
3562.50721802,0.01415948
3564.43602539,0.01419766
3566.36483276,0.01331922
3568.29364014,0.01305557
3570.22244751,0.01417960
3572.15125488,0.01464240
3574.08006226,0.01450237
3576.00886963,0.01455469
3577.93767700,0.01469113
3579.86648437,0.01469929
3581.79529175,0.01466077
3583.72409912,0.01478461
3585.65290649,0.01453125
3587.58171387,0.01334048
3589.51052124,0.01378859
3591.43932861,0.01508824
3593.36813599,0.01463938
3595.29694336,0.01447852
3597.22575073,0.01471063
3599.15455811,0.01475778
3601.08336548,0.01486091
3603.01217285,0.01503625
3604.94098022,0.01521575
3606.86978760,0.01475797
3608.79859497,0.01400926
3610.72740234,0.01440764
3612.65620972,0.01471814
3614.58501709,0.01425728
3616.51382446,0.01535866
3618.44263184,0.01427925
3620.37143921,0.01374174
3622.30024658,0.01561778
3624.22905395,0.01525672
3626.15786133,0.01593941
3628.08666870,0.01360060
3630.01547607,0.01233805
3631.94428345,0.01568763
3633.87309082,0.01531508
3635.80189819,0.01553202
3637.73070557,0.01609495
3639.65951294,0.01577132
3641.58832031,0.01596998
3643.51712769,0.01592736
3645.44593506,0.01606720
3647.37474243,0.01446595
3649.30354980,0.01328027
3651.23235718,0.01359529
3653.16116455,0.01617837
3655.08997192,0.01593892
3657.01877930,0.01429382
3658.94758667,0.01651810
3660.87639404,0.01627699
3662.80520142,0.01659168
3664.73400879,0.01666554
3666.66281616,0.01650580
3668.59162354,0.01607161
3670.52043091,0.01306750
3672.44923828,0.01588724
3674.37804565,0.01535984
3676.30685303,0.01258198
3678.23566040,0.01590024
3680.16446777,0.01638228
3682.09327515,0.01639928
3684.02208252,0.01700505
3685.95088989,0.01667427
3687.87969727,0.01505378
3689.80850464,0.01384005
3691.73731201,0.01582209
3693.66611938,0.01631126
3695.59492676,0.01670868
3697.52373413,0.01674893
3699.45254150,0.01653629
3701.38134888,0.01624289
3703.31015625,0.01568176
3705.23896362,0.01717524
3707.16777100,0.01627993
3709.09657837,0.01590182
3711.02538574,0.01494974
3712.95419312,0.01391463
3714.88300049,0.01657857
3716.81180786,0.01640594
3718.74061523,0.01653835
3720.66942261,0.01620882
3722.59822998,0.01552708
3724.52703735,0.01616316
3726.45584473,0.01493539
3728.38465210,0.01622459
3730.31345947,0.01610120
3732.24226685,0.01474949
3734.17107422,0.01443686
3736.09988159,0.01370357
3738.02868896,0.01453365
3739.95749634,0.01566331
3741.88630371,0.01644030
3743.81511108,0.01286228
3745.74391846,0.01202823
3747.67272583,0.01565519
3749.60153320,0.01347158
3751.53034058,0.01237075
3753.45914795,0.01428689
3755.38795532,0.01537691
3757.31676270,0.01604504
3759.24557007,0.01481088
3761.17437744,0.01524802
3763.10318481,0.01637626
3765.03199219,0.01530601
3766.96079956,0.01553766
3768.88960693,0.01540774
3770.81841431,0.01471897
3772.74722168,0.01600841
3774.67602905,0.01592827
3776.60483643,0.01589428
3778.53364380,0.01555951
3780.46245117,0.01488431
3782.39125854,0.01590472
3784.32006592,0.01548690
3786.24887329,0.01540515
3788.17768066,0.01577155
3790.10648804,0.01564306
3792.03529541,0.01561407
3793.96410278,0.01586817
3795.89291016,0.01491022
3797.82171753,0.01470661
3799.75052490,0.01561234
3801.67933228,0.01232584
3803.60813965,0.01437401
3805.53694702,0.01570399
3807.46575439,0.01265872
3809.39456177,0.01547584
3811.32336914,0.01519990
3813.25217651,0.01569290
3815.18098389,0.01417454
3817.10979126,0.01231645
3819.03859863,0.01575680
3820.96740601,0.01270772
3822.89621338,0.01340775
3824.82502075,0.01568937
3826.75382812,0.01412498
3828.68263550,0.01527791
3830.61144287,0.01458112
3832.54025024,0.01414843
3834.46905762,0.01444475
3836.39786499,0.01373437
3838.32667236,0.01241014
3840.25547974,0.01337947
3842.18428711,0.01456542
3844.11309448,0.01382090
3846.04190186,0.01488770
3847.97070923,0.01467471
3849.89951660,0.01476841
3851.82832397,0.01330232
3853.75713135,0.00994355
3855.68593872,0.01184891
3857.61474609,0.01477118
3859.54355347,0.01443405
3861.47236084,0.01424182
3863.40116821,0.01394471
3865.32997559,0.01300517
3867.25878296,0.01445148
3869.18759033,0.01329678
3871.11639770,0.01225539
3873.04520508,0.01452018
3874.97401245,0.01330823
3876.90281982,0.01433316
3878.83162720,0.01472153
3880.76043457,0.01253510
3882.68924194,0.01445162
3884.61804932,0.01355571
3886.54685669,0.01236088
3888.47566406,0.01452764
3890.40447144,0.01370809
3892.33327881,0.01285649
3894.26208618,0.01424401
3896.19089355,0.01443563
3898.11970093,0.01365915
3900.04850830,0.01294420
3901.97731567,0.01275735
3903.90612305,0.01261436
3905.83493042,0.01288322
3907.76373779,0.01412242
3909.69254517,0.01409055
3911.62135254,0.01396365
3913.55015991,0.01418447
3915.47896728,0.01377776
3917.40777466,0.01344264
3919.33658203,0.01323880
3921.26538940,0.01379246
3923.19419678,0.01371652
3925.12300415,0.01341282
3927.05181152,0.01362728
3928.98061890,0.01370596
3930.90942627,0.01353906
3932.83823364,0.01310553
3934.76704102,0.01363691
3936.69584839,0.01373352
3938.62465576,0.01365184
3940.55346313,0.01382287
3942.48227051,0.01320856
3944.41107788,0.01336794
3946.33988525,0.01357557
3948.26869263,0.01324955
3950.19750000,0.01330361
3952.12630737,0.01348619
3954.05511475,0.01350905
3955.98392212,0.01348014
3957.91272949,0.01344093
3959.84153687,0.01341533
3961.77034424,0.01332591
3963.69915161,0.01323930
3965.62795898,0.01337955
3967.55676636,0.01326250
3969.48557373,0.01323499
3971.41438110,0.01326904
3973.34318848,0.01320977
3975.27199585,0.01323933
3977.20080322,0.01320730
3979.12961060,0.01323351
3981.05841797,0.01312817
3982.98722534,0.01327981
3984.91603271,0.01315784
3986.84484009,0.01302907
3988.77364746,0.01316467
3990.70245483,0.01298155
3992.63126221,0.01308172
3994.56006958,0.01302184
3996.48887695,0.01295978
3998.41768433,0.01292701
4000.34649170,0.01291568
4002.27529907,0.01297077
4004.20410645,0.01285102
4006.13291382,0.01293445
4008.06172119,0.01279151
4009.99052856,0.01282002
4011.91933594,0.01283305
4013.84814331,0.01279799
4015.77695068,0.01284160
4017.70575806,0.01265261
4019.63456543,0.01273076
4021.56337280,0.01270412
4023.49218018,0.01265303
4025.42098755,0.01262465
4027.34979492,0.01265533
4029.27860229,0.01263643
4031.20740967,0.01255969
4033.13621704,0.01257099
4035.06502441,0.01238175
4036.99383179,0.01248873
4038.92263916,0.01247736
4040.85144653,0.01244550
4042.78025391,0.01242246
4044.70906128,0.01225634
4046.63786865,0.01234200
4048.56667603,0.01227289
4050.49548340,0.01232427
4052.42429077,0.01231831
4054.35309814,0.01226400
4056.28190552,0.01225776
4058.21071289,0.01216814
4060.13952026,0.01218453
4062.06832764,0.01218532
4063.99713501,0.01223744
4065.92594238,0.01210177
4067.85474976,0.01207781
4069.78355713,0.01212510
4071.71236450,0.01209091
4073.64117187,0.01211110
4075.56997925,0.01199006
4077.49878662,0.01204495
4079.42759399,0.01205391
4081.35640137,0.01193110
4083.28520874,0.01198630
4085.21401611,0.01199580
4087.14282349,0.01184998
4089.07163086,0.01188940
4091.00043823,0.01190992
4092.92924561,0.01177515
4094.85805298,0.01181826
4096.78686035,0.01181783
4098.71566772,0.01176968
4100.64447510,0.01175611
4102.57328247,0.01179798
4104.50208984,0.01172007
4106.43089722,0.01167924
4108.35970459,0.01167821
4110.28851196,0.01155643
4112.21731934,0.01168597
4114.14612671,0.01160150
4116.07493408,0.01155910
4118.00374145,0.01161991
4119.93254883,0.01148483
4121.86135620,0.01144940
4123.79016357,0.01146735
4125.71897095,0.01154827
4127.64777832,0.01141086
4129.57658569,0.01142792
4131.50539307,0.01139748
4133.43420044,0.01129044
4135.36300781,0.01138545
4137.29181519,0.01130246
4139.22062256,0.01133266
4141.14942993,0.01122639
4143.07823730,0.01120907
4145.00704468,0.01126943
4146.93585205,0.01123747
4148.86465942,0.01124186
4150.79346680,0.01117620
4152.72227417,0.01124568
4154.65108154,0.01112308
4156.57988892,0.01108734
4158.50869629,0.01100997
4160.43750366,0.01101637
4162.36631103,0.01116661
4164.29511841,0.01098584
4166.22392578,0.01097744
4168.15273315,0.01096086
4170.08154053,0.01100321
4172.01034790,0.01099294
4173.93915527,0.01092033
4175.86796265,0.01091207
4177.79677002,0.01082548
4179.72557739,0.01087070
4181.65438477,0.01076688
4183.58319214,0.01081482
4185.51199951,0.01078341
4187.44080688,0.01074602
4189.36961426,0.01082505
4191.29842163,0.01066748
4193.22722900,0.01071138
4195.15603638,0.01064486
4197.08484375,0.01065383
4199.01365112,0.01071442
4200.94245850,0.01059544
4202.87126587,0.01063672
4204.80007324,0.01063341
4206.72888062,0.01057925
4208.65768799,0.01051538
4210.58649536,0.01048011
4212.51530273,0.01044372
4214.44411011,0.01051869
4216.37291748,0.01050767
4218.30172485,0.01032973
4220.23053223,0.01035048
4222.15933960,0.01035903
4224.08814697,0.01035703
4226.01695435,0.01037572
4227.94576172,0.01041490
4229.87456909,0.01040998
4231.80337646,0.01031356
4233.73218384,0.01031848
4235.66099121,0.01022157
4237.58979858,0.01013325
4239.51860596,0.01023215
4241.44741333,0.01023164
4243.37622070,0.01016341
4245.30502808,0.01015159
4247.23383545,0.01012078
4249.16264282,0.01014091
4251.09145020,0.01010510
4253.02025757,0.01007666
4254.94906494,0.01008247
4256.87787231,0.00998780
4258.80667969,0.01000668
4260.73548706,0.01002490
4262.66429443,0.00999704
4264.59310181,0.00997334
4266.52190918,0.00991485
4268.45071655,0.00984588
4270.37952393,0.00985208
4272.30833130,0.00991577
4274.23713867,0.00986662
4276.16594604,0.00988567
4278.09475342,0.00986046
4280.02356079,0.00982136
4281.95236816,0.00973772
4283.88117554,0.00966887
4285.80998291,0.00975887
4287.73879028,0.00966106
4289.66759766,0.00964317
4291.59640503,0.00962965
4293.52521240,0.00966400
4295.45401978,0.00968581
4297.38282715,0.00956446
4299.31163452,0.00962433
4301.24044189,0.00951894
4303.16924927,0.00951566
4305.09805664,0.00952786
4307.02686401,0.00945858
4308.95567139,0.00953310
4310.88447876,0.00944983
4312.81328613,0.00942743
4314.74209351,0.00944546
4316.67090088,0.00943237
4318.59970825,0.00937853
4320.52851562,0.00935822
4322.45732300,0.00937710
4324.38613037,0.00937295
4326.31493774,0.00941956
4328.24374512,0.00935067
4330.17255249,0.00932467
4332.10135986,0.00926079
4334.03016724,0.00915930
4335.95897461,0.00919125
4337.88778198,0.00920155
4339.81658936,0.00917125
4341.74539673,0.00917588
4343.67420410,0.00916577
4345.60301147,0.00914306
4347.53181885,0.00914575
4349.46062622,0.00908685
4351.38943359,0.00909743
4353.31824097,0.00903584
4355.24704834,0.00907328
4357.17585571,0.00908253
4359.10466309,0.00894380
4361.03347046,0.00907222
4362.96227783,0.00893339
4364.89108520,0.00889524
4366.81989258,0.00896980
4368.74869995,0.00885523
4370.67750732,0.00892319
4372.60631470,0.00886566
4374.53512207,0.00887070
4376.46392944,0.00884876
4378.39273682,0.00884803
4380.32154419,0.00881070
4382.25035156,0.00874201
4384.17915894,0.00882807
4386.10796631,0.00868726
4388.03677368,0.00868369
4389.96558105,0.00869561
4391.89438843,0.00868869
4393.82319580,0.00872263
4395.75200317,0.00865912
4397.68081055,0.00867595
4399.60961792,0.00861995
4401.53842529,0.00858046
4403.46723267,0.00852618
4405.39604004,0.00855543
4407.32484741,0.00853495
4409.25365478,0.00851077
4411.18246216,0.00858406
4413.11126953,0.00850150
4415.04007690,0.00845256
4416.96888428,0.00839210
4418.89769165,0.00840235
4420.82649902,0.00841299
4422.75530640,0.00840607
4424.68411377,0.00839361
4426.61292114,0.00839693
4428.54172852,0.00839287
4430.47053589,0.00821859
4432.39934326,0.00824878
4434.32815063,0.00823701
4436.25695801,0.00827672
4438.18576538,0.00828382
4440.11457275,0.00816781
4442.04338013,0.00830171
4443.97218750,0.00818807
4445.90099487,0.00811339
4447.82980225,0.00818504
4449.75860962,0.00818678
4451.68741699,0.00817870
4453.61622437,0.00815823
4455.54503174,0.00811335
4457.47383911,0.00798054
4459.40264648,0.00804300
4461.33145386,0.00798039
4463.26026123,0.00801053
4465.18906860,0.00810294
4467.11787598,0.00795412
4469.04668335,0.00804298
4470.97549072,0.00797430
4472.90429810,0.00782479
4474.83310547,0.00792537
4476.76191284,0.00795897
4478.69072021,0.00790726
4480.61952759,0.00788963
4482.54833496,0.00781767
4484.47714233,0.00779367
4486.40594971,0.00788644
4488.33475708,0.00778038
4490.26356445,0.00768471
4492.19237183,0.00773498
4494.12117920,0.00777049
4496.04998657,0.00768782
4497.97879395,0.00767264
4499.90760132,0.00775375
4501.83640869,0.00761042
4503.76521606,0.00766683
4505.69402344,0.00771135
4507.62283081,0.00753487
4509.55163818,0.00759181
4511.48044556,0.00758682
4513.40925293,0.00754688
4515.33806030,0.00759080
4517.26686768,0.00747428
4519.19567505,0.00750390
4521.12448242,0.00760040
4523.05328979,0.00740904
4524.98209717,0.00739926
4526.91090454,0.00747782
4528.83971191,0.00740648
4530.76851929,0.00743116
4532.69732666,0.00740596
4534.62613403,0.00734978
4536.55494141,0.00731050
4538.48374878,0.00738042
4540.41255615,0.00738947
4542.34136353,0.00726505
4544.27017090,0.00732072
4546.19897827,0.00734945
4548.12778564,0.00727813
4550.05659302,0.00727157
4551.98540039,0.00726873
4553.91420776,0.00719397
4555.84301514,0.00720080
4557.77182251,0.00714307
4559.70062988,0.00709751
4561.62943726,0.00726565
4563.55824463,0.00720945
4565.48705200,0.00711672
4567.41585937,0.00712040
4569.34466675,0.00706724
4571.27347412,0.00708715
4573.20228149,0.00712260
4575.13108887,0.00704381
4577.05989624,0.00696964
4578.98870361,0.00701288
4580.91751099,0.00695765
4582.84631836,0.00700543
4584.77512573,0.00695365
4586.70393311,0.00684679
4588.63274048,0.00696310
4590.56154785,0.00688214
4592.49035522,0.00688499
4594.41916260,0.00693369
4596.34796997,0.00695653
4598.27677734,0.00696561
4600.20558472,0.00684834
4602.13439209,0.00688198
4604.06319946,0.00683767
4605.99200684,0.00681654
4607.92081421,0.00681467
4609.84962158,0.00674462
4611.77842895,0.00675015
4613.70723633,0.00666027
4615.63604370,0.00663945
4617.56485107,0.00674228
4619.49365845,0.00671213
4621.42246582,0.00660184
4623.35127319,0.00664224
4625.28008057,0.00663341
4627.20888794,0.00657209
4629.13769531,0.00662357
4631.06650269,0.00658079
4632.99531006,0.00651779
4634.92411743,0.00652588
4636.85292480,0.00652195
4638.78173218,0.00654540
4640.71053955,0.00655994
4642.63934692,0.00648796
4644.56815430,0.00646818
4646.49696167,0.00641741
4648.42576904,0.00643099
4650.35457642,0.00651562
4652.28338379,0.00642304
4654.21219116,0.00649090
4656.14099853,0.00644099
4658.06980591,0.00633077
4659.99861328,0.00644368
4661.92742065,0.00638761
4663.85622803,0.00633866
4665.78503540,0.00632171
4667.71384277,0.00636391
4669.64265015,0.00631346
4671.57145752,0.00621935
4673.50026489,0.00636298
4675.42907227,0.00634381
4677.35787964,0.00623439
4679.28668701,0.00622744
4681.21549438,0.00626246
4683.14430176,0.00622582
4685.07310913,0.00618661
4687.00191650,0.00619355
4688.93072388,0.00607533
4690.85953125,0.00609554
4692.78833862,0.00618377
4694.71714600,0.00610705
4696.64595337,0.00606321
4698.57476074,0.00611898
4700.50356812,0.00610266
4702.43237549,0.00603320
4704.36118286,0.00605440
4706.28999023,0.00614215
4708.21879761,0.00614602
4710.14760498,0.00602958
4712.07641235,0.00602474
4714.00521973,0.00603250
4715.93402710,0.00599387
4717.86283447,0.00604656
4719.79164185,0.00602063
4721.72044922,0.00592378
4723.64925659,0.00593706
4725.57806396,0.00591241
4727.50687134,0.00587631
4729.43567871,0.00595394
4731.36448608,0.00584230
4733.29329346,0.00585253
4735.22210083,0.00587976
4737.15090820,0.00574634
4739.07971558,0.00584780
4741.00852295,0.00575947
4742.93733032,0.00577875
4744.86613770,0.00584960
4746.79494507,0.00572313
4748.72375244,0.00577556
4750.65255981,0.00569148
4752.58136719,0.00571232
4754.51017456,0.00575692
4756.43898193,0.00567481
4758.36778931,0.00568917
4760.29659668,0.00567843
4762.22540405,0.00567339
4764.15421143,0.00563888
4766.08301880,0.00563265
4768.01182617,0.00555324
4769.94063354,0.00553752
4771.86944092,0.00565853
4773.79824829,0.00566774
4775.72705566,0.00556401
4777.65586304,0.00548720
4779.58467041,0.00551675
4781.51347778,0.00551510
4783.44228516,0.00554383
4785.37109253,0.00543062
4787.29989990,0.00539682
4789.22870728,0.00553986
4791.15751465,0.00544392
4793.08632202,0.00546413
4795.01512939,0.00553541
4796.94393677,0.00544401
4798.87274414,0.00531638
4800.80155151,0.00532418
4802.73035889,0.00544621
4804.65916626,0.00541790
4806.58797363,0.00541993
4808.51678101,0.00537969
4810.44558838,0.00532118
4812.37439575,0.00536112
4814.30320312,0.00531062
4816.23201050,0.00525164
4818.16081787,0.00529393
4820.08962524,0.00529115
4822.01843262,0.00520653
4823.94723999,0.00524350
4825.87604736,0.00526591
4827.80485474,0.00523936
4829.73366211,0.00518538
4831.66246948,0.00510765
4833.59127686,0.00519053
4835.52008423,0.00522417
4837.44889160,0.00519900
4839.37769897,0.00519546
4841.30650635,0.00513197
4843.23531372,0.00508854
4845.16412109,0.00505699
4847.09292847,0.00503159
4849.02173584,0.00509189
4850.95054321,0.00511488
4852.87935059,0.00503102
4854.80815796,0.00508067
4856.73696533,0.00509240
4858.66577270,0.00497465
4860.59458008,0.00498193
4862.52338745,0.00503401
4864.45219482,0.00505506
4866.38100220,0.00502389
4868.30980957,0.00496939
4870.23861694,0.00495270
4872.16742432,0.00496395
4874.09623169,0.00493008
4876.02503906,0.00485560
4877.95384644,0.00487502
4879.88265381,0.00489629
4881.81146118,0.00485513
4883.74026855,0.00486595
4885.66907593,0.00492582
4887.59788330,0.00490121
4889.52669067,0.00483874
4891.45549805,0.00484616
4893.38430542,0.00480161
4895.31311279,0.00472735
4897.24192017,0.00473851
4899.17072754,0.00477315
4901.09953491,0.00479096
4903.02834228,0.00477240
4904.95714966,0.00476170
4906.88595703,0.00483632
4908.81476440,0.00478541
4910.74357178,0.00468801
4912.67237915,0.00474809
4914.60118652,0.00472432
4916.52999390,0.00468726
4918.45880127,0.00465764
4920.38760864,0.00460310
4922.31641602,0.00465359
4924.24522339,0.00463150
4926.17403076,0.00460239
4928.10283813,0.00462922
4930.03164551,0.00464301
4931.96045288,0.00463141
4933.88926025,0.00457313
4935.81806763,0.00457191
4937.74687500,0.00454916
4939.67568237,0.00453899
4941.60448975,0.00456168
4943.53329712,0.00452638
4945.46210449,0.00453008
4947.39091187,0.00448894
4949.31971924,0.00443260
4951.24852661,0.00445700
4953.17733398,0.00447038
4955.10614136,0.00448042
4957.03494873,0.00449919
4958.96375610,0.00448228
4960.89256348,0.00442137
4962.82137085,0.00440165
4964.75017822,0.00438825
4966.67898560,0.00436331
4968.60779297,0.00438533
4970.53660034,0.00441069
4972.46540771,0.00438591
4974.39421509,0.00432050
4976.32302246,0.00437321
4978.25182983,0.00432823
4980.18063721,0.00425658
4982.10944458,0.00432049
4984.03825195,0.00425359
4985.96705933,0.00434628
4987.89586670,0.00433247
4989.82467407,0.00425086
4991.75348145,0.00437453
4993.68228882,0.00425945
4995.61109619,0.00429597
4997.53990356,0.00429762
4999.46871094,0.00412096
5001.39751831,0.00417846
5003.32632568,0.00420770
5005.25513306,0.00421649
5007.18394043,0.00422042
5009.11274780,0.00418480
5011.04155518,0.00412707
5012.97036255,0.00411310
5014.89916992,0.00410728
5016.82797729,0.00410991
5018.75678467,0.00415454
5020.68559204,0.00410608
5022.61439941,0.00412893
5024.54320679,0.00404292
5026.47201416,0.00400570
5028.40082153,0.00409230
5030.32962891,0.00400066
5032.25843628,0.00401827
5034.18724365,0.00403460
5036.11605103,0.00400471
5038.04485840,0.00401072
5039.97366577,0.00403647
5041.90247314,0.00407744
5043.83128052,0.00398377
5045.76008789,0.00396085
5047.68889526,0.00396540
5049.61770264,0.00391450
5051.54651001,0.00399290
5053.47531738,0.00397935
5055.40412476,0.00385803
5057.33293213,0.00390952
5059.26173950,0.00391832
5061.19054687,0.00392306
5063.11935425,0.00394102
5065.04816162,0.00386978
5066.97696899,0.00391146
5068.90577637,0.00385183
5070.83458374,0.00384696
5072.76339111,0.00385851
5074.69219849,0.00379812
5076.62100586,0.00382330
5078.54981323,0.00375050
5080.47862061,0.00380042
5082.40742798,0.00377072
5084.33623535,0.00370725
5086.26504272,0.00375751
5088.19385010,0.00377214
5090.12265747,0.00378813
5092.05146484,0.00367605
5093.98027222,0.00371041
5095.90907959,0.00376713
5097.83788696,0.00378926
5099.76669434,0.00375742
5101.69550171,0.00364754
5103.62430908,0.00367958
5105.55311645,0.00363506
5107.48192383,0.00369418
5109.41073120,0.00368598
5111.33953857,0.00360501
5113.26834595,0.00365564
5115.19715332,0.00358985
5117.12596069,0.00358717
5119.05476807,0.00361831
5120.98357544,0.00350039
5122.91238281,0.00348412
5124.84119019,0.00363048
5126.76999756,0.00354091
5128.69880493,0.00351336
5130.62761230,0.00351261
5132.55641968,0.00342794
5134.48522705,0.00359177
5136.41403442,0.00351000
5138.34284180,0.00352243
5140.27164917,0.00358400
5142.20045654,0.00342947
5144.12926392,0.00350157
5146.05807129,0.00351256
5147.98687866,0.00345365
5149.91568603,0.00342353
5151.84449341,0.00347019
5153.77330078,0.00341751
5155.70210815,0.00337828
5157.63091553,0.00346604
5159.55972290,0.00338526
5161.48853027,0.00341958
5163.41733765,0.00339478
5165.34614502,0.00335829
5167.27495239,0.00342969
5169.20375977,0.00337203
5171.13256714,0.00332360
5173.06137451,0.00332464
5174.99018188,0.00336032
5176.91898926,0.00331988
5178.84779663,0.00327585
5180.77660400,0.00334529
5182.70541138,0.00341241
5184.63421875,0.00329481
5186.56302612,0.00324916
5188.49183350,0.00332206
5190.42064087,0.00324289
5192.34944824,0.00327798
5194.27825562,0.00328630
5196.20706299,0.00323252
5198.13587036,0.00323865
5200.06467773,0.00325095
5201.99348511,0.00325212
5203.92229248,0.00323388
5205.85109985,0.00322338
5207.77990723,0.00304731
5209.70871460,0.00309418
5211.63752197,0.00322099
5213.56632935,0.00315787
5215.49513672,0.00316480
5217.42394409,0.00313654
5219.35275146,0.00314733
5221.28155884,0.00313090
5223.21036621,0.00312607
5225.13917358,0.00306071
5227.06798096,0.00305817
5228.99678833,0.00319435
5230.92559570,0.00310863
5232.85440308,0.00307594
5234.78321045,0.00308137
5236.71201782,0.00306296
5238.64082520,0.00308063
5240.56963257,0.00309361
5242.49843994,0.00305728
5244.42724731,0.00295402
5246.35605469,0.00304291
5248.28486206,0.00301232
5250.21366943,0.00296890
5252.14247681,0.00307894
5254.07128418,0.00297182
5256.00009155,0.00293060
5257.92889893,0.00302060
5259.85770630,0.00306262
5261.78651367,0.00305185
5263.71532104,0.00291628
5265.64412842,0.00290482
5267.57293579,0.00300716
5269.50174316,0.00294534
5271.43055054,0.00294394
5273.35935791,0.00302737
5275.28816528,0.00302006
5277.21697266,0.00300039
5279.14578003,0.00296488
5281.07458740,0.00290507
5283.00339478,0.00287785
5284.93220215,0.00291277
5286.86100952,0.00293401
5288.78981689,0.00294412
5290.71862427,0.00290443
5292.64743164,0.00288997
5294.57623901,0.00288838
5296.50504639,0.00282003
5298.43385376,0.00291006
5300.36266113,0.00293154
5302.29146851,0.00288557
5304.22027588,0.00287988
5306.14908325,0.00283797
5308.07789062,0.00283123
5310.00669800,0.00279668
5311.93550537,0.00286935
5313.86431274,0.00284426
5315.79312012,0.00277488
5317.72192749,0.00278958
5319.65073486,0.00279623
5321.57954224,0.00281995
5323.50834961,0.00270807
5325.43715698,0.00272791
5327.36596436,0.00274249
5329.29477173,0.00271432
5331.22357910,0.00278551
5333.15238647,0.00272453
5335.08119385,0.00271374
5337.01000122,0.00272288
5338.93880859,0.00269412
5340.86761597,0.00273103
5342.79642334,0.00269540
5344.72523071,0.00258589
5346.65403809,0.00262007
5348.58284546,0.00262088
5350.51165283,0.00267126
5352.44046020,0.00269490
5354.36926758,0.00250167
5356.29807495,0.00265750
5358.22688232,0.00265083
5360.15568970,0.00258888
5362.08449707,0.00273049
5364.01330444,0.00257659
5365.94211182,0.00263351
5367.87091919,0.00260855
5369.79972656,0.00258056
5371.72853394,0.00268167
5373.65734131,0.00258510
5375.58614868,0.00259476
5377.51495605,0.00254712
5379.44376343,0.00252070
5381.37257080,0.00255391
5383.30137817,0.00252676
5385.23018555,0.00248154
5387.15899292,0.00255400
5389.08780029,0.00262490
5391.01660767,0.00255245
5392.94541504,0.00254231
5394.87422241,0.00250014
5396.80302978,0.00257822
5398.73183716,0.00257678
5400.66064453,0.00250016
5402.58945190,0.00252711
5404.51825928,0.00246683
5406.44706665,0.00251281
5408.37587402,0.00250010
5410.30468140,0.00249807
5412.23348877,0.00247308
5414.16229614,0.00232879
5416.09110352,0.00239582
5418.01991089,0.00246554
5419.94871826,0.00239569
5421.87752563,0.00245988
5423.80633301,0.00252220
5425.73514038,0.00242699
5427.66394775,0.00246333
5429.59275513,0.00239261
5431.52156250,0.00240289
5433.45036987,0.00249662
5435.37917725,0.00230025
5437.30798462,0.00236098
5439.23679199,0.00238874
5441.16559936,0.00233972
5443.09440674,0.00242217
5445.02321411,0.00230857
5446.95202148,0.00227241
5448.88082886,0.00232530
5450.80963623,0.00231467
5452.73844360,0.00235465
5454.66725098,0.00239944
5456.59605835,0.00229778
5458.52486572,0.00232796
5460.45367310,0.00232995
5462.38248047,0.00225707
5464.31128784,0.00233757
5466.24009521,0.00223789
5468.16890259,0.00227646
5470.09770996,0.00229264
5472.02651733,0.00226033
5473.95532471,0.00233290
5475.88413208,0.00220292
5477.81293945,0.00221573
5479.74174683,0.00222166
5481.67055420,0.00223308
5483.59936157,0.00227291
5485.52816895,0.00228484
5487.45697632,0.00231563
5489.38578369,0.00216215
5491.31459106,0.00212881
5493.24339844,0.00221138
5495.17220581,0.00227191
5497.10101318,0.00218998
5499.02982056,0.00216222
5500.95862793,0.00222055
5502.88743530,0.00216037
5504.81624268,0.00222264
5506.74505005,0.00214690
5508.67385742,0.00211093
5510.60266479,0.00220458
5512.53147217,0.00219708
5514.46027954,0.00215880
5516.38908691,0.00207169
5518.31789429,0.00209948
5520.24670166,0.00210215
5522.17550903,0.00212929
5524.10431641,0.00215261
5526.03312378,0.00212373
5527.96193115,0.00212011
5529.89073853,0.00205819
5531.81954590,0.00213725
5533.74835327,0.00212141
5535.67716064,0.00205103
5537.60596802,0.00209669
5539.53477539,0.00208511
5541.46358276,0.00205953
5543.39239014,0.00198196
5545.32119751,0.00199977
5547.25000488,0.00206760
5549.17881226,0.00206383
5551.10761963,0.00207349
5553.03642700,0.00205995
5554.96523437,0.00202907
5556.89404175,0.00203617
5558.82284912,0.00207122
5560.75165649,0.00204025
5562.68046387,0.00205049
5564.60927124,0.00205004
5566.53807861,0.00199629
5568.46688599,0.00204678
5570.39569336,0.00201390
5572.32450073,0.00199941
5574.25330811,0.00204331
5576.18211548,0.00195831
5578.11092285,0.00200582
5580.03973022,0.00204995
5581.96853760,0.00194239
5583.89734497,0.00192797
5585.82615234,0.00193351
5587.75495972,0.00193342
5589.68376709,0.00193861
5591.61257446,0.00193146
5593.54138184,0.00191475
5595.47018921,0.00190105
5597.39899658,0.00194095
5599.32780395,0.00193063
5601.25661133,0.00193487
5603.18541870,0.00191883
5605.11422607,0.00188943
5607.04303345,0.00191942
5608.97184082,0.00189513
5610.90064819,0.00190476
5612.82945557,0.00187866
5614.75826294,0.00187692
5616.68707031,0.00185241
5618.61587769,0.00178445
5620.54468506,0.00191374
5622.47349243,0.00188365
5624.40229980,0.00179184
5626.33110718,0.00186239
5628.25991455,0.00187831
5630.18872192,0.00188804
5632.11752930,0.00188237
5634.04633667,0.00188686
5635.97514404,0.00188952
5637.90395142,0.00191129
5639.83275879,0.00184944
5641.76156616,0.00177853
5643.69037353,0.00184727
5645.61918091,0.00176723
5647.54798828,0.00175113
5649.47679565,0.00181340
5651.40560303,0.00183826
5653.33441040,0.00186108
5655.26321777,0.00173602
5657.19202515,0.00178902
5659.12083252,0.00182408
5661.04963989,0.00173528
5662.97844727,0.00179422
5664.90725464,0.00180431
5666.83606201,0.00179531
5668.76486938,0.00175918
5670.69367676,0.00172017
5672.62248413,0.00174624
5674.55129150,0.00175062
5676.48009888,0.00169288
5678.40890625,0.00168531
5680.33771362,0.00177914
5682.26652100,0.00175919
5684.19532837,0.00172228
5686.12413574,0.00172054
5688.05294311,0.00172427
5689.98175049,0.00172847
5691.91055786,0.00172334
5693.83936523,0.00173832
5695.76817261,0.00165142
5697.69697998,0.00165954
5699.62578735,0.00170308
5701.55459473,0.00167046
5703.48340210,0.00165270
5705.41220947,0.00164532
5707.34101685,0.00169332
5709.26982422,0.00166691
5711.19863159,0.00164023
5713.12743896,0.00163340
5715.05624634,0.00167214
5716.98505371,0.00165586
5718.91386108,0.00164084
5720.84266846,0.00170761
5722.77147583,0.00158700
5724.70028320,0.00166354
5726.62909058,0.00166316
5728.55789795,0.00154332
5730.48670532,0.00163046
5732.41551270,0.00153501
5734.34432007,0.00157684
5736.27312744,0.00162268
5738.20193481,0.00159187
5740.13074219,0.00163741
5742.05954956,0.00157167
5743.98835693,0.00155963
5745.91716431,0.00155134
5747.84597168,0.00158965
5749.77477905,0.00157369
5751.70358643,0.00156748
5753.63239380,0.00160073
5755.56120117,0.00152603
5757.49000854,0.00155194
5759.41881592,0.00156105
5761.34762329,0.00155507
5763.27643066,0.00158174
5765.20523804,0.00154883
5767.13404541,0.00150006
5769.06285278,0.00151822
5770.99166016,0.00153432
5772.92046753,0.00151576
5774.84927490,0.00154561
5776.77808228,0.00150695
5778.70688965,0.00149326
5780.63569702,0.00145015
5782.56450439,0.00143122
5784.49331177,0.00150680
5786.42211914,0.00151167
5788.35092651,0.00150997
5790.27973389,0.00146153
5792.20854126,0.00147332
5794.13734863,0.00143715
5796.06615601,0.00142214
5797.99496338,0.00147125
5799.92377075,0.00138915
5801.85257812,0.00142207
5803.78138550,0.00138002
5805.71019287,0.00136492
5807.63900024,0.00146861
5809.56780762,0.00143244
5811.49661499,0.00144068
5813.42542236,0.00146133
5815.35422974,0.00144290
5817.28303711,0.00137421
5819.21184448,0.00134769
5821.14065186,0.00139953
5823.06945923,0.00139769
5824.99826660,0.00141560
5826.92707397,0.00141081
5828.85588135,0.00135513
5830.78468872,0.00136411
5832.71349609,0.00142808
5834.64230347,0.00142523
5836.57111084,0.00139477
5838.49991821,0.00133193
5840.42872559,0.00129708
5842.35753296,0.00137620
5844.28634033,0.00137473
5846.21514770,0.00136694
5848.14395508,0.00137388
5850.07276245,0.00134385
5852.00156982,0.00133894
5853.93037720,0.00127270
5855.85918457,0.00132165
5857.78799194,0.00138706
5859.71679932,0.00127884
5861.64560669,0.00131044
5863.57441406,0.00131558
5865.50322144,0.00125607
5867.43202881,0.00136810
5869.36083618,0.00131351
5871.28964355,0.00125376
5873.21845093,0.00131199
5875.14725830,0.00127816
5877.07606567,0.00126433
5879.00487305,0.00124680
5880.93368042,0.00130718
5882.86248779,0.00131989
5884.79129517,0.00126210
5886.72010254,0.00126257
5888.64890991,0.00126189
5890.57771728,0.00130302
5892.50652466,0.00125985
5894.43533203,0.00121648
5896.36413940,0.00124605
5898.29294678,0.00130262
5900.22175415,0.00127179
5902.15056152,0.00124965
5904.07936890,0.00133323
5906.00817627,0.00118930
5907.93698364,0.00115091
5909.86579102,0.00122696
5911.79459839,0.00119734
5913.72340576,0.00121094
5915.65221313,0.00117407
5917.58102051,0.00123031
5919.50982788,0.00123313
5921.43863525,0.00119940
5923.36744263,0.00120775
5925.29625000,0.00119679
5927.22505737,0.00122819
5929.15386475,0.00115706
5931.08267212,0.00118281
5933.01147949,0.00119699
5934.94028686,0.00115236
5936.86909424,0.00122043
5938.79790161,0.00121815
5940.72670898,0.00117305
5942.65551636,0.00117846
5944.58432373,0.00123800
5946.51313110,0.00116442
5948.44193848,0.00114587
5950.37074585,0.00121124
5952.29955322,0.00112470
5954.22836060,0.00115226
5956.15716797,0.00113589
5958.08597534,0.00110108
5960.01478271,0.00113543
5961.94359009,0.00107592
5963.87239746,0.00109577
5965.80120483,0.00112373
5967.73001221,0.00114830
5969.65881958,0.00108529
5971.58762695,0.00105407
5973.51643433,0.00118335
5975.44524170,0.00110147
5977.37404907,0.00103250
5979.30285645,0.00108151
5981.23166382,0.00108166
5983.16047119,0.00109791
5985.08927856,0.00107418
5987.01808594,0.00107123
5988.94689331,0.00104541
5990.87570068,0.00109114
5992.80450806,0.00115696
5994.73331543,0.00109168
5996.66212280,0.00108924
5998.59093018,0.00106766
6000.51973755,0.00107442
