399.26312622,0.00017515
401.19193359,0.00030410
403.12074097,0.00048710
405.04954834,0.00048854
406.97835571,0.00036648
408.90716309,0.00014093
410.83597046,0.00007222
412.76477783,0.00006802
414.69358521,0.00012734
416.62239258,0.00034664
418.55119995,-0.00008289
420.48000732,-0.00011622
422.40881470,0.00039507
424.33762207,0.00001572
426.26642944,0.00009049
428.19523682,0.00028414
430.12404419,-0.00011541
432.05285156,0.00042056
433.98165894,0.00049800
435.91046631,0.00033720
437.83927368,0.00065707
439.76808105,0.00027336
441.69688843,0.00010658
443.62569580,0.00008394
445.55450317,0.00021347
447.48331055,0.00017582
449.41211792,0.00006085
451.34092529,0.00018511
453.26973267,0.00003049
455.19854004,0.00055293
457.12734741,0.00031488
459.05615479,0.00009419
460.98496216,0.00034545
462.91376953,-0.00023093
464.84257690,0.00028956
466.77138428,0.00030773
468.70019165,0.00012379
470.62899902,0.00033706
472.55780640,0.00032368
474.48661377,0.00056093
476.41542114,0.00040370
478.34422852,0.00041487
480.27303589,0.00006896
482.20184326,0.00005383
484.13065063,0.00025435
486.05945801,0.00031637
487.98826538,0.00061828
489.91707275,0.00010358
491.84588013,-0.00010249
493.77468750,0.00017244
495.70349487,0.00012556
497.63230225,0.00002267
499.56110962,0.00002598
501.48991699,0.00019334
503.41872437,0.00023861
505.34753174,0.00029237
507.27633911,0.00057223
509.20514648,0.00000502
511.13395386,-0.00011434
513.06276123,0.00014999
514.99156860,0.00021006
516.92037598,0.00030162
518.84918335,-0.00010276
520.77799072,0.00016228
522.70679810,0.00018191
524.63560547,0.00030103
526.56441284,0.00027029
528.49322021,-0.00001232
530.42202759,0.00035769
532.35083496,0.00021831
534.27964233,0.00015904
536.20844971,0.00026996
538.13725708,0.00029963
540.06606445,0.00024755
541.99487183,0.00026064
543.92367920,0.00031138
545.85248657,0.00005388
547.78129395,0.00038526
549.71010132,0.00056399
551.63890869,0.00017183
553.56771606,0.00021427
555.49652344,0.00037234
557.42533081,-0.00001946
559.35413818,-0.00007121
561.28294556,0.00030996
563.21175293,0.00007368
565.14056030,0.00004733
567.06936768,0.00017790
568.99817505,0.00011509
570.92698242,0.00019362
572.85578979,0.00006370
574.78459717,0.00027576
576.71340454,0.00038020
578.64221191,0.00012636
580.57101929,0.00014998
582.49982666,0.00020136
584.42863403,0.00029322
586.35744141,0.00039296
588.28624878,0.00021749
590.21505615,0.00015084
592.14386353,0.00034286
594.07267090,0.00011312
596.00147827,-0.00003458
597.93028564,0.00017662
599.85909302,0.00004139
601.78790039,-0.00005877
603.71670776,0.00005653
605.64551514,0.00017483
607.57432251,0.00015203
609.50312988,-0.00004739
611.43193726,0.00007087
613.36074463,0.00011042
615.28955200,0.00008339
617.21835938,0.00036030
619.14716675,0.00008370
621.07597412,0.00005652
623.00478149,0.00028001
624.93358887,0.00008802
626.86239624,0.00031997
628.79120361,0.00031153
630.72001099,-0.00001302
632.64881836,0.00014509
634.57762573,0.00044121
636.50643311,0.00035124
638.43524048,0.00014497
640.36404785,0.00026649
642.29285522,0.00029703
644.22166260,0.00013761
646.15046997,0.00023210
648.07927734,0.00042054
650.00808472,0.00035182
651.93689209,0.00051098
653.86569946,0.00041209
655.79450684,0.00020886
657.72331421,0.00045010
659.65212158,0.00026300
661.58092896,0.00028277
663.50973633,0.00045427
665.43854370,0.00034526
667.36735107,0.00016872
669.29615845,-0.00003790
671.22496582,0.00004754
673.15377319,0.00014265
675.08258057,0.00035473
677.01138794,0.00023232
678.94019531,0.00023116
680.86900269,0.00031445
682.79781006,-0.00006041
684.72661743,0.00037518
686.65542480,0.00045536
688.58423218,0.00028453
690.51303955,0.00033336
692.44184692,0.00008536
694.37065430,0.00045377
696.29946167,0.00043280
698.22826904,0.00041019
700.15707642,0.00058507
702.08588379,0.00048355
704.01469116,0.00053864
705.94349854,0.00038929
707.87230591,0.00031140
709.80111328,0.00020910
711.72992065,0.00040773
713.65872803,0.00018176
715.58753540,0.00015836
717.51634277,0.00068250
719.44515015,0.00031115
721.37395752,0.00025544
723.30276489,0.00014406
725.23157227,0.00000404
727.16037964,0.00021935
729.08918701,0.00016037
731.01799438,0.00038561
732.94680176,0.00038378
734.87560913,0.00031222
736.80441650,0.00016472
738.73322388,-0.00021153
740.66203125,0.00032095
742.59083862,0.00052403
744.51964600,0.00006453
746.44845337,0.00025559
748.37726074,0.00031886
750.30606812,-0.00000641
752.23487549,0.00021534
754.16368286,0.00027016
756.09249023,0.00006802
758.02129761,0.00056376
759.95010498,0.00040337
761.87891235,-0.00000127
763.80771973,0.00027776
765.73652710,0.00017377
767.66533447,0.00020540
769.59414185,0.00016998
771.52294922,0.00008646
773.45175659,0.00040990
775.38056396,0.00042936
777.30937134,0.00029647
779.23817871,0.00022167
781.16698608,0.00030177
783.09579346,0.00027990
785.02460083,0.00019430
786.95340820,0.00033367
788.88221558,0.00025845
790.81102295,0.00030920
792.73983032,0.00046863
794.66863770,0.00035604
796.59744507,0.00025235
798.52625244,0.00030401
800.45505981,0.00027487
802.38386719,0.00014133
804.31267456,0.00025866
806.24148193,0.00033906
808.17028931,0.00026701
810.09909668,0.00010797
812.02790405,0.00020872
813.95671143,0.00042800
815.88551880,0.00030434
817.81432617,0.00043153
819.74313354,0.00042763
821.67194092,0.00053519
823.60074829,0.00034611
825.52955566,-0.00002926
827.45836304,0.00035771
829.38717041,0.00023722
831.31597778,0.00037766
833.24478516,0.00052867
835.17359253,0.00034468
837.10239990,0.00056435
839.03120728,0.00020573
840.96001465,0.00010748
842.88882202,0.00044403
844.81762939,0.00071414
846.74643677,0.00048575
848.67524414,0.00007303
850.60405151,0.00010454
852.53285889,0.00005598
854.46166626,0.00041656
856.39047363,0.00051160
858.31928101,0.00049283
860.24808838,0.00051969
862.17689575,0.00029011
864.10570313,0.00038014
866.03451050,0.00027125
867.96331787,0.00044040
869.89212524,0.00039891
871.82093262,0.00027539
873.74973999,0.00049738
875.67854736,0.00045284
877.60735474,0.00047872
879.53616211,0.00020335
881.46496948,0.00024418
883.39377686,0.00038603
885.32258423,0.00025480
887.25139160,0.00023779
889.18019897,0.00019715
891.10900635,0.00046560
893.03781372,0.00036954
894.96662109,0.00035146
896.89542847,0.00042872
898.82423584,0.00008533
900.75304321,0.00013708
902.68185059,0.00030962
904.61065796,0.00033310
906.53946533,0.00032487
908.46827271,0.00027914
910.39708008,0.00020857
912.32588745,0.00030042
914.25469482,0.00038243
916.18350220,0.00029404
918.11230957,0.00042620
920.04111694,0.00063971
921.96992432,0.00065571
923.89873169,0.00032737
925.82753906,0.00031672
927.75634644,0.00044951
929.68515381,0.00031155
931.61396118,0.00052131
933.54276855,0.00052688
935.47157593,0.00052604
937.40038330,0.00075094
939.32919067,0.00048404
941.25799805,0.00042505
943.18680542,0.00070820
945.11561279,0.00042297
947.04442017,0.00041817
948.97322754,0.00074196
950.90203491,0.00044043
952.83084229,0.00056968
954.75964966,0.00066186
956.68845703,0.00057930
958.61726440,0.00079517
960.54607178,0.00049958
962.47487915,0.00043737
964.40368652,0.00041689
966.33249390,0.00047272
968.26130127,0.00056229
970.19010864,0.00048219
972.11891602,0.00072281
974.04772339,0.00053132
975.97653076,0.00057571
977.90533813,0.00060544
979.83414551,0.00047073
981.76295288,0.00075609
983.69176025,0.00092775
985.62056763,0.00118711
987.54937500,0.00110713
989.47818237,0.00113709
991.40698975,0.00123212
993.33579712,0.00132985
995.26460449,0.00164907
997.19341187,0.00165945
999.12221924,0.00189954
1001.05102661,0.00162199
1002.97983398,0.00172458
1004.90864136,0.00216953
1006.83744873,0.00194046
1008.76625610,0.00236046
1010.69506348,0.00243096
1012.62387085,0.00255617
1014.55267822,0.00285133
1016.48148560,0.00257740
1018.41029297,0.00282803
1020.33910034,0.00310380
1022.26790771,0.00333977
1024.19671509,0.00323716
1026.12552246,0.00319699
1028.05432983,0.00357730
1029.98313721,0.00344909
1031.91194458,0.00370350
1033.84075195,0.00387976
1035.76955933,0.00369723
1037.69836670,0.00394352
1039.62717407,0.00391698
1041.55598145,0.00384804
1043.48478882,0.00388304
1045.41359619,0.00370836
1047.34240356,0.00380785
1049.27121094,0.00391896
1051.20001831,0.00364524
1053.12882568,0.00353049
1055.05763306,0.00360014
1056.98644043,0.00360689
1058.91524780,0.00352056
1060.84405518,0.00325305
1062.77286255,0.00330131
1064.70166992,0.00322608
1066.63047729,0.00279131
1068.55928467,0.00276962
1070.48809204,0.00280195
1072.41689941,0.00281329
1074.34570679,0.00280933
1076.27451416,0.00264723
1078.20332153,0.00245581
1080.13212891,0.00218606
1082.06093628,0.00201103
1083.98974365,0.00188484
1085.91855103,0.00204101
1087.84735840,0.00194012
1089.77616577,0.00163645
1091.70497314,0.00176818
1093.63378052,0.00163196
1095.56258789,0.00164906
1097.49139526,0.00172785
1099.42020264,0.00163632
1101.34901001,0.00163844
1103.27781738,0.00153144
1105.20662476,0.00170535
1107.13543213,0.00162091
1109.06423950,0.00154500
1110.99304687,0.00170751
1112.92185425,0.00154603
1114.85066162,0.00148550
1116.77946899,0.00152417
1118.70827637,0.00148441
1120.63708374,0.00139789
1122.56589111,0.00149082
1124.49469849,0.00161537
1126.42350586,0.00157025
1128.35231323,0.00145968
1130.28112061,0.00158066
1132.20992798,0.00166490
1134.13873535,0.00143109
1136.06754272,0.00166225
1137.99635010,0.00177710
1139.92515747,0.00191470
1141.85396484,0.00196063
1143.78277222,0.00188499
1145.71157959,0.00248504
1147.64038696,0.00229015
1149.56919434,0.00236751
1151.49800171,0.00285571
1153.42680908,0.00267112
1155.35561646,0.00281640
1157.28442383,0.00284430
1159.21323120,0.00299200
1161.14203857,0.00313635
1163.07084595,0.00321497
1164.99965332,0.00331696
1166.92846069,0.00329737
1168.85726807,0.00355001
1170.78607544,0.00367467
1172.71488281,0.00386955
1174.64369019,0.00383183
1176.57249756,0.00390237
1178.50130493,0.00426434
1180.43011230,0.00431131
1182.35891968,0.00459310
1184.28772705,0.00495527
1186.21653442,0.00504508
1188.14534180,0.00511480
1190.07414917,0.00546650
1192.00295654,0.00559266
1193.93176392,0.00572184
1195.86057129,0.00623659
1197.78937866,0.00650846
1199.71818604,0.00663913
1201.64699341,0.00697027
1203.57580078,0.00745930
1205.50460815,0.00741264
1207.43341553,0.00769862
1209.36222290,0.00826200
1211.29103027,0.00825542
1213.21983765,0.00856692
1215.14864502,0.00865480
1217.07745239,0.00890486
1219.00625977,0.00916145
1220.93506714,0.00908690
1222.86387451,0.00949605
1224.79268188,0.00957885
1226.72148926,0.00950786
1228.65029663,0.00961120
1230.57910400,0.00973550
1232.50791138,0.00965031
1234.43671875,0.00948126
1236.36552612,0.00969026
1238.29433350,0.00985079
1240.22314087,0.00973145
1242.15194824,0.00952006
1244.08075562,0.00963026
1246.00956299,0.00948987
1247.93837036,0.00944400
1249.86717773,0.00966070
1251.79598511,0.00939429
1253.72479248,0.00942193
1255.65359985,0.00932798
1257.58240723,0.00919315
1259.51121460,0.00910256
1261.44002197,0.00882329
1263.36882935,0.00907930
1265.29763672,0.00894772
1267.22644409,0.00856708
1269.15525146,0.00848061
1271.08405884,0.00831126
1273.01286621,0.00827429
1274.94167358,0.00828961
1276.87048096,0.00811983
1278.79928833,0.00782364
1280.72809570,0.00783705
1282.65690308,0.00773633
1284.58571045,0.00742629
1286.51451782,0.00742480
1288.44332520,0.00723434
1290.37213257,0.00704091
1292.30093994,0.00706134
1294.22974731,0.00695947
1296.15855469,0.00686986
1298.08736206,0.00690110
1300.01616943,0.00703520
1301.94497681,0.00702898
1303.87378418,0.00712712
1305.80259155,0.00730735
1307.73139893,0.00720038
1309.66020630,0.00737052
1311.58901367,0.00749578
1313.51782104,0.00748395
1315.44662842,0.00779184
1317.37543579,0.00799185
1319.30424316,0.00821964
1321.23305054,0.00841039
1323.16185791,0.00868103
1325.09066528,0.00908823
1327.01947266,0.00927624
1328.94828003,0.00934149
1330.87708740,0.00945101
1332.80589478,0.00994660
1334.73470215,0.01008343
1336.66350952,0.01000140
1338.59231689,0.01008388
1340.52112427,0.01016779
1342.44993164,0.01069180
1344.37873901,0.01062408
1346.30754639,0.01059474
1348.23635376,0.01088032
1350.16516113,0.01070224
1352.09396851,0.01068823
1354.02277588,0.01048719
1355.95158325,0.01042648
1357.88039062,0.01033042
1359.80919800,0.01020967
1361.73800537,0.00988623
1363.66681274,0.00959817
1365.59562012,0.01019113
1367.52442749,0.00981494
1369.45323486,0.00969262
1371.38204224,0.00990772
1373.31084961,0.00936755
1375.23965698,0.00970929
1377.16846436,0.00978409
1379.09727173,0.00960840
1381.02607910,0.00970336
1382.95488647,0.00992822
1384.88369385,0.00985483
1386.81250122,0.00929062
1388.74130859,0.00952763
1390.67011597,0.01004434
1392.59892334,0.00997042
1394.52773071,0.00929659
1396.45653809,0.00973197
1398.38534546,0.00988900
1400.31415283,0.00954136
1402.24296021,0.01050559
1404.17176758,0.01000426
1406.10057495,0.00988821
1408.02938232,0.01020589
1409.95818970,0.00997599
1411.88699707,0.01026970
1413.81580444,0.00978338
1415.74461182,0.01015592
1417.67341919,0.00909850
1419.60222656,0.00819455
1421.53103394,0.00947233
1423.45984131,0.00899561
1425.38864868,0.00877925
1427.31745605,0.00887844
1429.24626343,0.00832499
1431.17507080,0.00823826
1433.10387817,0.00826947
1435.03268555,0.00747002
1436.96149292,0.00655204
1438.89030029,0.00732826
1440.81910767,0.00740041
1442.74791504,0.00701264
1444.67672241,0.00711522
1446.60552979,0.00667081
1448.53433716,0.00687368
1450.46314453,0.00706713
1452.39195190,0.00730466
1454.32075928,0.00738798
1456.24956665,0.00613706
1458.17837402,0.00646430
1460.10718140,0.00842241
1462.03598877,0.00883799
1463.96479614,0.00896723
1465.89360352,0.00927592
1467.82241089,0.01033195
1469.75121826,0.01120835
1471.68002563,0.00981906
1473.60883301,0.01029510
1475.53764038,0.01178105
1477.46644775,0.01273732
1479.39525513,0.01411909
1481.32406250,0.01442432
1483.25286987,0.01530167
1485.18167725,0.01551241
1487.11048462,0.01529704
1489.03929199,0.01525136
1490.96809937,0.01531297
1492.89690674,0.01766020
1494.82571411,0.01717916
1496.75452148,0.01540406
1498.68332886,0.01718601
1500.61213623,0.01792261
1502.54094360,0.01920998
1504.46975098,0.01809783
1506.39855835,0.01340774
1508.32736572,0.01629637
1510.25617310,0.01885833
1512.18498047,0.01816192
1514.11378784,0.01969177
1516.04259521,0.01767636
1517.97140259,0.01855465
1519.90020996,0.01780756
1521.82901733,0.01545387
1523.75782471,0.01887194
1525.68663208,0.01840174
1527.61543945,0.01861677
1529.54424683,0.02031059
1531.47305420,0.01942731
1533.40186157,0.01783456
1535.33066895,0.01867206
1537.25947632,0.02006648
1539.18828369,0.01454035
1541.11709106,0.01517680
1543.04589844,0.01794970
1544.97470581,0.01718932
1546.90351318,0.02018036
1548.83232056,0.01882212
1550.76112793,0.01939812
1552.68993530,0.01911529
1554.61874268,0.01720839
1556.54755005,0.01837898
1558.47635742,0.01322368
1560.40516479,0.01404615
1562.33397217,0.01963598
1564.26277954,0.01840705
1566.19158691,0.01883163
1568.12039429,0.01845770
1570.04920166,0.01635718
1571.97800903,0.01903624
1573.90681641,0.01871905
1575.83562378,0.01493693
1577.76443115,0.01678562
1579.69323853,0.01860308
1581.62204590,0.01790588
1583.55085327,0.01806938
1585.47966064,0.01778496
1587.40846802,0.01766276
1589.33727539,0.01737298
1591.26608276,0.01712769
1593.19489014,0.01693748
1595.12369751,0.01684725
1597.05250488,0.01678383
1598.98131226,0.01659781
1600.91011963,0.01639391
1602.83892700,0.01598172
1604.76773437,0.01593843
1606.69654175,0.01535627
1608.62534912,0.01541122
1610.55415649,0.01517300
1612.48296387,0.01526836
1614.41177124,0.01510254
1616.34057861,0.01237077
1618.26938599,0.01345675
1620.19819336,0.01520040
1622.12700073,0.01364782
1624.05580811,0.01353701
1625.98461548,0.01419094
1627.91342285,0.01411635
1629.84223022,0.01393897
1631.77103760,0.01501931
1633.69984497,0.01378074
1635.62865234,0.01155001
1637.55745972,0.01366549
1639.48626709,0.01518699
1641.41507446,0.01476226
1643.34388184,0.01529368
1645.27268921,0.01385881
1647.20149658,0.01235655
1649.13030396,0.01590268
1651.05911133,0.01503771
1652.98791870,0.01008074
1654.91672607,0.01372585
1656.84553345,0.01712642
1658.77434082,0.01679213
1660.70314819,0.01735261
1662.63195557,0.01608000
1664.56076294,0.01719445
1666.48957031,0.01869202
1668.41837769,0.01652070
1670.34718506,0.01631143
1672.27599243,0.01887565
1674.20479980,0.01757705
1676.13360718,0.01702434
1678.06241455,0.01985785
1679.99122192,0.01941884
1681.92002930,0.01938881
1683.84883667,0.01612304
1685.77764404,0.01621533
1687.70645142,0.02229407
1689.63525879,0.01964901
1691.56406616,0.02194189
1693.49287354,0.02272910
1695.42168091,0.01693861
1697.35048828,0.02102347
1699.27929565,0.01854098
1701.20810303,0.01708031
1703.13691040,0.02349554
1705.06571777,0.02167503
1706.99452515,0.02210939
1708.92333252,0.02420659
1710.85213989,0.02358345
1712.78094727,0.02412354
1714.70975464,0.02270098
1716.63856201,0.02059656
1718.56736938,0.02038118
1720.49617676,0.02441506
1722.42498413,0.02545127
1724.35379150,0.02404099
1726.28259888,0.02619342
1728.21140625,0.02430234
1730.14021362,0.02472404
1732.06902100,0.02417227
1733.99782837,0.01868650
1735.92663574,0.02326620
1737.85544312,0.02571026
1739.78425049,0.02286821
1741.71305786,0.02521270
1743.64186523,0.02569823
1745.57067261,0.02574065
1747.49947998,0.02609983
1749.42828735,0.02509562
1751.35709473,0.02410822
1753.28590210,0.02661716
1755.21470947,0.02805834
1757.14351685,0.02564093
1759.07232422,0.02833552
1761.00113159,0.02678166
1762.92993896,0.02587247
1764.85874634,0.02986066
1766.78755371,0.02688971
1768.71636108,0.02724387
1770.64516846,0.02702209
1772.57397583,0.02439347
1774.50278320,0.02737297
1776.43159058,0.02880172
1778.36039795,0.02846686
1780.28920532,0.02808361
1782.21801270,0.02856840
1784.14682007,0.02846021
1786.07562744,0.02779983
1788.00443481,0.02947381
1789.93324219,0.02866737
1791.86204956,0.02607804
1793.79085693,0.02729735
1795.71966431,0.02925151
1797.64847168,0.02891013
1799.57727905,0.02854725
1801.50608643,0.02800270
1803.43489380,0.02893627
1805.36370117,0.02964300
1807.29250854,0.02917609
1809.22131592,0.02942142
1811.15012329,0.02860225
1813.07893066,0.02951783
1815.00773804,0.02971778
1816.93654541,0.02936617
1818.86535278,0.02978329
1820.79416016,0.02964837
1822.72296753,0.03010295
1824.65177490,0.02820984
1826.58058228,0.02919737
1828.50938965,0.02922945
1830.43819702,0.02750448
1832.36700439,0.02992534
1834.29581177,0.02967573
1836.22461914,0.02971136
1838.15342651,0.02969658
1840.08223389,0.02991898
1842.01104126,0.02981145
1843.93984863,0.02656582
1845.86865601,0.02828582
1847.79746338,0.02969046
1849.72627075,0.02934792
1851.65507812,0.03014473
1853.58388550,0.02936463
1855.51269287,0.02978458
1857.44150024,0.02960246
1859.37030762,0.02935759
1861.29911499,0.02965122
1863.22792236,0.02942425
1865.15672974,0.02972355
1867.08553711,0.02876431
1869.01434448,0.02759437
1870.94315186,0.02862157
1872.87195923,0.02970414
1874.80076660,0.02927343
1876.72957397,0.02931852
1878.65838135,0.02927858
1880.58718872,0.02926657
1882.51599609,0.02938193
1884.44480347,0.02897054
1886.37361084,0.02937697
1888.30241821,0.02863731
1890.23122559,0.02824153
1892.16003296,0.02926363
1894.08884033,0.02878172
1896.01764771,0.02866170
1897.94645508,0.02898331
1899.87526245,0.02886447
1901.80406982,0.02899298
1903.73287720,0.02885639
1905.66168457,0.02891816
1907.59049194,0.02862437
1909.51929932,0.02848766
1911.44810669,0.02857472
1913.37691406,0.02854022
1915.30572144,0.02888195
1917.23452881,0.02765350
1919.16333618,0.02759981
1921.09214355,0.02859952
1923.02095093,0.02781046
1924.94975830,0.02832218
1926.87856567,0.02846302
1928.80737305,0.02833303
1930.73618042,0.02864987
1932.66498779,0.02815181
1934.59379517,0.02854848
1936.52260254,0.02822793
1938.45140991,0.02833393
1940.38021729,0.02832281
1942.30902466,0.02735530
1944.23783203,0.02796191
1946.16663940,0.02808308
1948.09544678,0.02799552
1950.02425415,0.02818310
1951.95306152,0.02796063
1953.88186890,0.02801339
1955.81067627,0.02793605
1957.73948364,0.02798062
1959.66829102,0.02790558
1961.59709839,0.02787940
1963.52590576,0.02809113
1965.45471313,0.02784700
1967.38352051,0.02747168
1969.31232788,0.02774133
1971.24113525,0.02788940
1973.16994263,0.02772554
1975.09875000,0.02782779
1977.02755737,0.02759302
1978.95636475,0.02762808
1980.88517212,0.02770626
1982.81397949,0.02750938
1984.74278687,0.02747226
1986.67159424,0.02726290
1988.60040161,0.02733453
1990.52920898,0.02711330
1992.45801636,0.02682964
1994.38682373,0.02716621
1996.31563110,0.02714145
1998.24443848,0.02704030
2000.17324585,0.02714037
2002.10205322,0.02696915
2004.03086060,0.02695460
2005.95966797,0.02692602
2007.88847534,0.02669149
2009.81728271,0.02662835
2011.74609009,0.02657546
2013.67489746,0.02670676
2015.60370483,0.02652093
2017.53251221,0.02611202
2019.46131958,0.02615540
2021.39012695,0.02618667
2023.31893433,0.02621694
2025.24774170,0.02616308
2027.17654907,0.02621839
2029.10535645,0.02610069
2031.03416382,0.02586686
2032.96297119,0.02591822
2034.89177856,0.02573695
2036.82058594,0.02577237
2038.74939331,0.02567057
2040.67820068,0.02546351
2042.60700806,0.02544872
2044.53581543,0.02542608
2046.46462280,0.02547200
2048.39343018,0.02524591
2050.32223755,0.02532550
2052.25104492,0.02532599
2054.17985229,0.02519648
2056.10865967,0.02522537
2058.03746704,0.02512040
2059.96627441,0.02522062
2061.89508179,0.02500740
2063.82388916,0.02471788
2065.75269653,0.02471911
2067.68150391,0.02485285
2069.61031128,0.02477849
2071.53911865,0.02459031
2073.46792603,0.02476418
2075.39673340,0.02460068
2077.32554077,0.02443932
2079.25434814,0.02457842
2081.18315552,0.02448272
2083.11196289,0.02432355
2085.04077026,0.02442609
2086.96957764,0.02442155
2088.89838501,0.02422163
2090.82719238,0.02435074
2092.75599976,0.02429596
2094.68480713,0.02421193
2096.61361450,0.02421283
2098.54242187,0.02408571
2100.47122925,0.02411174
2102.40003662,0.02403002
2104.32884399,0.02407577
2106.25765137,0.02408215
2108.18645874,0.02392197
2110.11526611,0.02395875
2112.04407349,0.02414413
2113.97288086,0.02407175
2115.90168823,0.02386444
2117.83049561,0.02395191
2119.75930298,0.02384862
2121.68811035,0.02382901
2123.61691772,0.02388290
2125.54572510,0.02375928
2127.47453247,0.02371880
2129.40333984,0.02369191
2131.33214722,0.02378789
2133.26095459,0.02362056
2135.18976196,0.02357449
2137.11856934,0.02371049
2139.04737671,0.02368366
2140.97618408,0.02378155
2142.90499146,0.02365191
2144.83379883,0.02361125
2146.76260620,0.02368338
2148.69141357,0.02366883
2150.62022095,0.02374130
2152.54902832,0.02372616
2154.47783569,0.02375359
2156.40664307,0.02365025
2158.33545044,0.02359936
2160.26425781,0.02372922
2162.19306519,0.02359886
2164.12187256,0.02362164
2166.05067993,0.02376566
2167.97948730,0.02365317
2169.90829468,0.02366332
2171.83710205,0.02352055
2173.76590942,0.02345929
2175.69471680,0.02372315
2177.62352417,0.02360842
2179.55233154,0.02358909
2181.48113892,0.02376835
2183.40994629,0.02378694
2185.33875366,0.02370945
2187.26756104,0.02355823
2189.19636841,0.02357671
2191.12517578,0.02363692
2193.05398315,0.02371117
2194.98279053,0.02364488
2196.91159790,0.02363078
2198.84040527,0.02375187
2200.76921265,0.02369872
2202.69802002,0.02368857
2204.62682739,0.02361852
2206.55563477,0.02362117
2208.48444214,0.02363534
2210.41324951,0.02362433
2212.34205688,0.02364670
2214.27086426,0.02360468
2216.19967163,0.02366943
2218.12847900,0.02363419
2220.05728638,0.02361496
2221.98609375,0.02358020
2223.91490112,0.02365233
2225.84370850,0.02362583
2227.77251587,0.02349500
2229.70132324,0.02365518
2231.63013062,0.02356980
2233.55893799,0.02370973
2235.48774536,0.02366483
2237.41655273,0.02352006
2239.34536011,0.02377990
2241.27416748,0.02350866
2243.20297485,0.02353511
2245.13178223,0.02358437
2247.06058960,0.02344290
2248.98939697,0.02359902
2250.91820435,0.02346579
2252.84701172,0.02357626
2254.77581909,0.02371385
2256.70462646,0.02361864
2258.63343384,0.02356192
2260.56224121,0.02349624
2262.49104858,0.02345084
2264.41985596,0.02344365
2266.34866333,0.02348570
2268.27747070,0.02346067
2270.20627808,0.02363302
2272.13508545,0.02353650
2274.06389282,0.02338370
2275.99270020,0.02358792
2277.92150757,0.02343189
2279.85031494,0.02340980
2281.77912231,0.02362330
2283.70792969,0.02360321
2285.63673706,0.02353764
2287.56554443,0.02346803
2289.49435181,0.02335998
2291.42315918,0.02333697
2293.35196655,0.02344336
2295.28077393,0.02344409
2297.20958130,0.02340732
2299.13838867,0.02329353
2301.06719604,0.02316325
2302.99600342,0.02313067
2304.92481079,0.02296264
2306.85361816,0.02283767
2308.78242554,0.02283122
2310.71123291,0.02261825
2312.64004028,0.02228597
2314.56884766,0.02223643
2316.49765503,0.02204568
2318.42646240,0.02167552
2320.35526978,0.02147969
2322.28407715,0.02109941
2324.21288452,0.02082561
2326.14169189,0.02069947
2328.07049927,0.02052794
2329.99930664,0.02032413
2331.92811401,0.02007819
2333.85692139,0.02008875
2335.78572876,0.02008973
2337.71453613,0.02002039
2339.64334351,0.01989745
2341.57215088,0.02002231
2343.50095825,0.02052180
2345.42976562,0.02078521
2347.35857300,0.02157669
2349.28738037,0.02234420
2351.21618774,0.02157603
2353.14499512,0.02049740
2355.07380249,0.01984041
2357.00260986,0.01922412
2358.93141724,0.01891683
2360.86022461,0.01870575
2362.78903198,0.01868236
2364.71783936,0.01889846
2366.64664673,0.01903003
2368.57545410,0.01947754
2370.50426147,0.01998369
2372.43306885,0.02043042
2374.36187622,0.02114658
2376.29068359,0.02162356
2378.21949097,0.02212159
2380.14829834,0.02267639
2382.07710571,0.02279647
2384.00591309,0.02292568
2385.93472046,0.02305551
2387.86352783,0.02311132
2389.79233521,0.02318371
2391.72114258,0.02303609
2393.64994995,0.02305451
2395.57875732,0.02315051
2397.50756470,0.02294713
2399.43637207,0.02288631
2401.36517944,0.02301419
2403.29398682,0.02303426
2405.22279419,0.02290010
2407.15160156,0.02286093
2409.08040894,0.02288120
2411.00921631,0.02284027
2412.93802368,0.02298240
2414.86683105,0.02290970
2416.79563843,0.02281434
2418.72444580,0.02284919
2420.65325317,0.02274745
2422.58206055,0.02290225
2424.51086792,0.02288643
2426.43967529,0.02283257
2428.36848267,0.02283224
2430.29729004,0.02268026
2432.22609741,0.02277280
2434.15490479,0.02263401
2436.08371216,0.02263590
2438.01251953,0.02278489
2439.94132690,0.02266025
2441.87013428,0.02265594
2443.79894165,0.02259313
2445.72774902,0.02267439
2447.65655640,0.02268626
2449.58536377,0.02261295
2451.51417114,0.02268657
2453.44297852,0.02262860
2455.37178589,0.02267965
2457.30059326,0.02257109
2459.22940063,0.02248365
2461.15820801,0.02262460
2463.08701538,0.02251390
2465.01582275,0.02238314
2466.94463013,0.02241785
2468.87343750,0.02244299
2470.80224487,0.02238885
2472.73105225,0.02238502
2474.65985962,0.02242010
2476.58866699,0.02242193
2478.51747437,0.02236311
2480.44628174,0.02237617
2482.37508911,0.02246238
2484.30389648,0.02232185
2486.23270386,0.02230594
2488.16151123,0.02233871
2490.09031860,0.02223165
2492.01912598,0.02220673
2493.94793335,0.02214440
2495.87674072,0.02220560
2497.80554810,0.02213939
2499.73435547,0.02200672
2501.66316284,0.02216529
2503.59197021,0.02221508
2505.52077759,0.02211076
2507.44958496,0.02201770
2509.37839233,0.02201925
2511.30719971,0.02204094
2513.23600708,0.02198095
2515.16481445,0.02200719
2517.09362183,0.02201921
2519.02242920,0.02189203
2520.95123657,0.02189269
2522.88004395,0.02208266
2524.80885132,0.02206215
2526.73765869,0.02187999
2528.66646606,0.02185094
2530.59527344,0.02195063
2532.52408081,0.02194918
2534.45288818,0.02180059
2536.38169556,0.02189085
2538.31050293,0.02197483
2540.23931030,0.02180304
2542.16811768,0.02173143
2544.09692505,0.02168153
2546.02573242,0.02167861
2547.95453979,0.02165654
2549.88334717,0.02157414
2551.81215454,0.02163111
2553.74096191,0.02164349
2555.66976929,0.02164533
2557.59857666,0.02152784
2559.52738403,0.02148835
2561.45619141,0.02159227
2563.38499878,0.02138361
2565.31380615,0.02144729
2567.24261353,0.02161208
2569.17142090,0.02151472
2571.10022827,0.02150706
2573.02903564,0.02139915
2574.95784302,0.02140416
2576.88665039,0.02134578
2578.81545776,0.02128557
2580.74426514,0.02137452
2582.67307251,0.02128494
2584.60187988,0.02129901
2586.53068726,0.02118858
2588.45949463,0.02109851
2590.38830200,0.02113593
2592.31710937,0.02107355
2594.24591675,0.02112933
2596.17472412,0.02108021
2598.10353149,0.02108770
2600.03233887,0.02108458
2601.96114624,0.02101471
2603.88995361,0.02101463
2605.81876099,0.02088815
2607.74756836,0.02098117
2609.67637573,0.02102517
2611.60518311,0.02084009
2613.53399048,0.02083001
2615.46279785,0.02076994
2617.39160522,0.02072938
2619.32041260,0.02084442
2621.24921997,0.02079973
2623.17802734,0.02071849
2625.10683472,0.02072860
2627.03564209,0.02067586
2628.96444946,0.02062370
2630.89325684,0.02062931
2632.82206421,0.02069928
2634.75087158,0.02061367
2636.67967895,0.02046271
2638.60848633,0.02048171
2640.53729370,0.02044326
2642.46610107,0.02043161
2644.39490845,0.02036963
2646.32371582,0.02023545
2648.25252319,0.02028067
2650.18133057,0.02037180
2652.11013794,0.02028960
2654.03894531,0.02008042
2655.96775269,0.02007435
2657.89656006,0.02017009
2659.82536743,0.02017048
2661.75417480,0.02012303
2663.68298218,0.02009637
2665.61178955,0.02006066
2667.54059692,0.01997438
2669.46940430,0.01998960
2671.39821167,0.01990453
2673.32701904,0.01988325
2675.25582642,0.01995022
2677.18463379,0.01982818
2679.11344116,0.01980383
2681.04224854,0.01974076
2682.97105591,0.01965166
2684.89986328,0.01966937
2686.82867065,0.01965731
2688.75747803,0.01968628
2690.68628540,0.01966076
2692.61509277,0.01959379
2694.54390015,0.01952416
2696.47270752,0.01944257
2698.40151489,0.01942340
2700.33032227,0.01938164
2702.25912964,0.01937836
2704.18793701,0.01935216
2706.11674438,0.01919253
2708.04555176,0.01924279
2709.97435913,0.01929899
2711.90316650,0.01918586
2713.83197388,0.01910250
2715.76078125,0.01897381
2717.68958862,0.01905153
2719.61839600,0.01903031
2721.54720337,0.01891632
2723.47601074,0.01894923
2725.40481812,0.01887015
2727.33362549,0.01891014
2729.26243286,0.01875079
2731.19124023,0.01864760
2733.12004761,0.01877273
2735.04885498,0.01870736
2736.97766235,0.01871118
2738.90646973,0.01860362
2740.83527710,0.01857703
2742.76408447,0.01858805
2744.69289185,0.01846685
2746.62169922,0.01839622
2748.55050659,0.01830101
2750.47931396,0.01835770
2752.40812134,0.01828014
2754.33692871,0.01824846
2756.26573608,0.01825192
2758.19454346,0.01807949
2760.12335083,0.01819323
2762.05215820,0.01812690
2763.98096558,0.01791807
2765.90977295,0.01801763
2767.83858032,0.01801636
2769.76738770,0.01783769
2771.69619507,0.01774085
2773.62500244,0.01776733
2775.55380981,0.01778231
2777.48261719,0.01773134
2779.41142456,0.01760723
2781.34023193,0.01750204
2783.26903931,0.01752046
2785.19784668,0.01754492
2787.12665405,0.01750148
2789.05546143,0.01739281
2790.98426880,0.01728800
2792.91307617,0.01728854
2794.84188354,0.01729341
2796.77069092,0.01722695
2798.69949829,0.01712344
2800.62830566,0.01701447
2802.55711304,0.01700748
2804.48592041,0.01701175
2806.41472778,0.01692124
2808.34353516,0.01687626
2810.27234253,0.01685662
2812.20114990,0.01675720
2814.12995728,0.01672180
2816.05876465,0.01673834
2817.98757202,0.01662275
2819.91637939,0.01651076
2821.84518677,0.01646144
2823.77399414,0.01637761
2825.70280151,0.01631121
2827.63160889,0.01626000
2829.56041626,0.01615533
2831.48922363,0.01614048
2833.41803101,0.01612212
2835.34683838,0.01598056
2837.27564575,0.01600447
2839.20445312,0.01589207
2841.13326050,0.01578046
2843.06206787,0.01578882
2844.99087524,0.01551398
2846.91968262,0.01547359
2848.84848999,0.01544604
2850.77729736,0.01532667
2852.70610474,0.01533144
2854.63491211,0.01515913
2856.56371948,0.01519352
2858.49252686,0.01525063
2860.42133423,0.01503086
2862.35014160,0.01486660
2864.27894897,0.01489287
2866.20775635,0.01485048
2868.13656372,0.01482712
2870.06537109,0.01487320
2871.99417847,0.01470474
2873.92298584,0.01470302
2875.85179321,0.01462145
2877.78060059,0.01446089
2879.70940796,0.01450330
2881.63821533,0.01442007
2883.56702270,0.01439186
2885.49583008,0.01435127
2887.42463745,0.01425283
2889.35344482,0.01413452
2891.28225220,0.01414410
2893.21105957,0.01416709
2895.13986694,0.01394699
2897.06867432,0.01387657
2898.99748169,0.01386305
2900.92628906,0.01376765
2902.85509644,0.01366777
2904.78390381,0.01362454
2906.71271118,0.01351648
2908.64151855,0.01340655
2910.57032593,0.01339572
2912.49913330,0.01323222
2914.42794067,0.01309128
2916.35674805,0.01291838
2918.28555542,0.01291037
2920.21436279,0.01289686
2922.14317017,0.01270030
2924.07197754,0.01276187
2926.00078491,0.01275892
2927.92959229,0.01265047
2929.85839966,0.01248899
2931.78720703,0.01246591
2933.71601440,0.01247285
2935.64482178,0.01237158
2937.57362915,0.01236477
2939.50243652,0.01219681
2941.43124390,0.01229358
2943.36005127,0.01226004
2945.28885864,0.01207595
2947.21766602,0.01213827
2949.14647339,0.01188910
2951.07528076,0.01181236
2953.00408813,0.01178847
2954.93289551,0.01174150
2956.86170288,0.01179980
2958.79051025,0.01160516
2960.71931763,0.01151741
2962.64812500,0.01136808
2964.57693237,0.01136534
2966.50573975,0.01146182
2968.43454712,0.01119497
2970.36335449,0.01117658
2972.29216187,0.01120078
2974.22096924,0.01110145
2976.14977661,0.01114745
2978.07858398,0.01100185
2980.00739136,0.01093890
2981.93619873,0.01097439
2983.86500610,0.01081695
2985.79381348,0.01068958
2987.72262085,0.01068747
2989.65142822,0.01071583
2991.58023560,0.01058746
2993.50904297,0.01041836
2995.43785034,0.01036218
2997.36665771,0.01038326
2999.29546509,0.01028533
3001.22427246,0.01014741
3003.15307983,0.01015728
3005.08188721,0.01002015
3007.01069458,0.00996778
3008.93950195,0.00989249
3010.86830933,0.00974800
3012.79711670,0.00979847
3014.72592407,0.00967064
3016.65473145,0.00958982
3018.58353882,0.00954584
3020.51234619,0.00942107
3022.44115356,0.00934320
3024.36996094,0.00930592
3026.29876831,0.00929295
3028.22757568,0.00915686
3030.15638306,0.00913741
3032.08519043,0.00902737
3034.01399780,0.00889254
3035.94280518,0.00893077
3037.87161255,0.00883256
3039.80041992,0.00870370
3041.72922729,0.00863685
3043.65803467,0.00862005
3045.58684204,0.00845950
3047.51564941,0.00836734
3049.44445679,0.00841874
3051.37326416,0.00831914
3053.30207153,0.00825095
3055.23087891,0.00826788
3057.15968628,0.00825866
3059.08849365,0.00805770
3061.01730103,0.00792168
3062.94610840,0.00795668
3064.87491577,0.00792921
3066.80372314,0.00789049
3068.73253052,0.00782468
3070.66133789,0.00771137
3072.59014526,0.00762296
3074.51895264,0.00769981
3076.44776001,0.00756218
3078.37656738,0.00733233
3080.30537476,0.00740323
3082.23418213,0.00739796
3084.16298950,0.00735033
3086.09179687,0.00726404
3088.02060425,0.00721401
3089.94941162,0.00724660
3091.87821899,0.00712911
3093.80702637,0.00706554
3095.73583374,0.00708834
3097.66464111,0.00694425
3099.59344849,0.00676606
3101.52225586,0.00684110
3103.45106323,0.00681872
3105.37987061,0.00667359
3107.30867798,0.00668325
3109.23748535,0.00667077
3111.16629272,0.00664083
3113.09510010,0.00657699
3115.02390747,0.00654989
3116.95271484,0.00650155
3118.88152222,0.00642972
3120.81032959,0.00645330
3122.73913696,0.00631726
3124.66794434,0.00629887
3126.59675171,0.00639386
3128.52555908,0.00627032
3130.45436645,0.00629315
3132.38317383,0.00624630
3134.31198120,0.00609517
3136.24078857,0.00616519
3138.16959595,0.00600002
3140.09840332,0.00587928
3142.02721069,0.00602249
3143.95601807,0.00597669
3145.88482544,0.00586679
3147.81363281,0.00580535
3149.74244019,0.00579783
3151.67124756,0.00577763
3153.60005493,0.00572640
3155.52886230,0.00569591
3157.45766968,0.00572884
3159.38647705,0.00576828
3161.31528442,0.00571612
3163.24409180,0.00571427
3165.17289917,0.00557689
3167.10170654,0.00555684
3169.03051392,0.00568561
3170.95932129,0.00554402
3172.88812866,0.00551896
3174.81693604,0.00554052
3176.74574341,0.00546310
3178.67455078,0.00547405
3180.60335815,0.00545067
3182.53216553,0.00542996
3184.46097290,0.00540415
3186.38978027,0.00536769
3188.31858765,0.00543389
3190.24739502,0.00543818
3192.17620239,0.00538381
3194.10500977,0.00545698
3196.03381714,0.00539108
3197.96262451,0.00527355
3199.89143188,0.00534332
3201.82023926,0.00537059
3203.74904663,0.00534534
3205.67785400,0.00531919
3207.60666138,0.00523840
3209.53546875,0.00522111
3211.46427612,0.00534632
3213.39308350,0.00537176
3215.32189087,0.00531746
3217.25069824,0.00533846
3219.17950562,0.00537374
3221.10831299,0.00538827
3223.03712036,0.00532036
3224.96592773,0.00527320
3226.89473511,0.00528617
3228.82354248,0.00536986
3230.75234985,0.00531070
3232.68115723,0.00521924
3234.60996460,0.00541380
3236.53877197,0.00544447
3238.46757935,0.00539828
3240.39638672,0.00545134
3242.32519409,0.00535167
3244.25400146,0.00534962
3246.18280884,0.00546775
3248.11161621,0.00538934
3250.04042358,0.00539823
3251.96923096,0.00545910
3253.89803833,0.00533695
3255.82684570,0.00546249
3257.75565308,0.00546924
3259.68446045,0.00540181
3261.61326782,0.00551855
3263.54207520,0.00551407
3265.47088257,0.00554313
3267.39968994,0.00547233
3269.32849731,0.00558750
3271.25730469,0.00565998
3273.18611206,0.00555464
3275.11491943,0.00562990
3277.04372681,0.00555289
3278.97253418,0.00557167
3280.90134155,0.00559971
3282.83014893,0.00556784
3284.75895630,0.00561090
3286.68776367,0.00562672
3288.61657104,0.00568143
3290.54537842,0.00569497
3292.47418579,0.00571467
3294.40299316,0.00568114
3296.33180054,0.00565080
3298.26060791,0.00562557
3300.18941528,0.00566958
3302.11822266,0.00577870
3304.04703003,0.00581572
3305.97583740,0.00574604
3307.90464478,0.00568473
3309.83345215,0.00581460
3311.76225952,0.00578782
3313.69106689,0.00576185
3315.61987427,0.00575816
3317.54868164,0.00577202
3319.47748901,0.00591200
3321.40629639,0.00588313
3323.33510376,0.00582212
3325.26391113,0.00579714
3327.19271851,0.00596761
3329.12152588,0.00593926
3331.05033325,0.00587120
3332.97914062,0.00593665
3334.90794800,0.00583228
3336.83675537,0.00596869
3338.76556274,0.00594951
3340.69437012,0.00595014
3342.62317749,0.00597220
3344.55198486,0.00596756
3346.48079224,0.00607907
3348.40959961,0.00594950
3350.33840698,0.00604874
3352.26721436,0.00607533
3354.19602173,0.00605513
3356.12482910,0.00612110
3358.05363647,0.00607434
3359.98244385,0.00605408
3361.91125122,0.00607499
3363.84005859,0.00623523
3365.76886597,0.00613411
3367.69767334,0.00613532
3369.62648071,0.00631430
3371.55528809,0.00634857
3373.48409546,0.00633616
3375.41290283,0.00627407
3377.34171020,0.00623590
3379.27051758,0.00626685
3381.19932495,0.00652428
3383.12813232,0.00647626
3385.05693970,0.00636270
3386.98574707,0.00641416
3388.91455444,0.00635712
3390.84336182,0.00644487
3392.77216919,0.00653304
3394.70097656,0.00659489
3396.62978394,0.00653514
3398.55859131,0.00663213
3400.48739868,0.00665275
3402.41620605,0.00658551
3404.34501343,0.00666071
3406.27382080,0.00659439
3408.20262817,0.00679922
3410.13143555,0.00687439
3412.06024292,0.00685054
3413.98905029,0.00688694
3415.91785767,0.00689333
3417.84666504,0.00691737
3419.77547241,0.00679436
3421.70427979,0.00690124
3423.63308716,0.00696184
3425.56189453,0.00706771
3427.49070190,0.00708194
3429.41950928,0.00694966
3431.34831665,0.00705759
3433.27712402,0.00713417
3435.20593140,0.00711045
3437.13473877,0.00706330
3439.06354614,0.00727297
3440.99235352,0.00725309
3442.92116089,0.00720755
3444.84996826,0.00726345
3446.77877563,0.00708652
3448.70758301,0.00728414
3450.63639038,0.00744533
3452.56519775,0.00748928
3454.49400513,0.00751169
3456.42281250,0.00750854
3458.35161987,0.00755063
3460.28042725,0.00751551
3462.20923462,0.00762050
3464.13804199,0.00760165
3466.06684937,0.00760778
3467.99565674,0.00769577
3469.92446411,0.00770359
3471.85327148,0.00774081
3473.78207886,0.00774850
3475.71088623,0.00769806
3477.63969360,0.00780161
3479.56850098,0.00789383
3481.49730835,0.00781380
3483.42611572,0.00799599
3485.35492310,0.00801298
3487.28373047,0.00791247
3489.21253784,0.00798376
3491.14134521,0.00807478
3493.07015259,0.00817323
3494.99895996,0.00815403
3496.92776733,0.00822047
3498.85657471,0.00824853
3500.78538208,0.00831029
3502.71418945,0.00818105
3504.64299683,0.00821703
3506.57180420,0.00844139
3508.50061157,0.00828625
3510.42941895,0.00838048
3512.35822632,0.00845394
3514.28703369,0.00860064
3516.21584106,0.00862010
3518.14464844,0.00850061
3520.07345581,0.00861351
3522.00226318,0.00846089
3523.93107056,0.00854483
3525.85987793,0.00856716
3527.78868530,0.00856491
3529.71749268,0.00874585
3531.64630005,0.00880318
3533.57510742,0.00898702
3535.50391479,0.00896923
3537.43272217,0.00884408
3539.36152954,0.00901203
3541.29033691,0.00920243
3543.21914429,0.00909030
3545.14795166,0.00889113
3547.07675903,0.00878714
3549.00556641,0.00919872
3550.93437378,0.00928636
3552.86318115,0.00898981
3554.79198853,0.00934173
3556.72079590,0.00933452
3558.64960327,0.00938521
3560.57841064,0.00932677
3562.50721802,0.00926827
3564.43602539,0.00950089
3566.36483276,0.00879534
3568.29364014,0.00868820
3570.22244751,0.00942584
3572.15125488,0.00975710
3574.08006226,0.00969208
3576.00886963,0.00969668
3577.93767700,0.00968002
3579.86648437,0.00968095
3581.79529175,0.00981270
3583.72409912,0.00973282
3585.65290649,0.00966928
3587.58171387,0.00892772
3589.51052124,0.00919867
3591.43932861,0.01017489
3593.36813599,0.00985016
3595.29694336,0.00973917
3597.22575073,0.00987139
3599.15455811,0.01004484
3601.08336548,0.00996688
3603.01217285,0.01009706
3604.94098022,0.01036832
3606.86978760,0.00999480
3608.79859497,0.00961966
3610.72740234,0.00978213
3612.65620972,0.00995447
3614.58501709,0.00962444
3616.51382446,0.01040536
3618.44263184,0.00980308
3620.37143921,0.00949446
3622.30024658,0.01079548
3624.22905395,0.01042901
3626.15786133,0.01096987
3628.08666870,0.00936521
3630.01547607,0.00854267
3631.94428345,0.01077035
3633.87309082,0.01053314
3635.80189819,0.01082500
3637.73070557,0.01105273
3639.65951294,0.01100243
3641.58832031,0.01116234
3643.51712769,0.01119624
3645.44593506,0.01134068
3647.37474243,0.01016925
3649.30354980,0.00942375
3651.23235718,0.00945141
3653.16116455,0.01149019
3655.08997192,0.01136049
3657.01877930,0.01012905
3658.94758667,0.01192352
3660.87639404,0.01168040
3662.80520142,0.01188005
3664.73400879,0.01202179
3666.66281616,0.01201401
3668.59162354,0.01164708
3670.52043091,0.00957432
3672.44923828,0.01166010
3674.37804565,0.01120899
3676.30685303,0.00934600
3678.23566040,0.01178887
3680.16446777,0.01212168
3682.09327515,0.01214571
3684.02208252,0.01268275
3685.95088989,0.01244286
3687.87969727,0.01133330
3689.80850464,0.01045603
3691.73731201,0.01181284
3693.66611938,0.01234027
3695.59492676,0.01260717
3697.52373413,0.01272001
3699.45254150,0.01262079
3701.38134888,0.01228658
3703.31015625,0.01188009
3705.23896362,0.01300366
3707.16777100,0.01243725
3709.09657837,0.01213088
3711.02538574,0.01154719
3712.95419312,0.01083047
3714.88300049,0.01264044
3716.81180786,0.01246134
3718.74061523,0.01256006
3720.66942261,0.01237888
3722.59822998,0.01182141
3724.52703735,0.01232096
3726.45584473,0.01149055
3728.38465210,0.01243933
3730.31345947,0.01233082
3732.24226685,0.01130263
3734.17107422,0.01106991
3736.09988159,0.01049861
3738.02868896,0.01110990
3739.95749634,0.01196470
3741.88630371,0.01257199
3743.81511108,0.00981942
3745.74391846,0.00921994
3747.67272583,0.01197618
3749.60153320,0.01026894
3751.53034058,0.00947214
3753.45914795,0.01087499
3755.38795532,0.01172836
3757.31676270,0.01212013
3759.24557007,0.01121268
3761.17437744,0.01174276
3763.10318481,0.01241928
3765.03199219,0.01162541
3766.96079956,0.01182023
3768.88960693,0.01166682
3770.81841431,0.01116631
3772.74722168,0.01201221
3774.67602905,0.01209107
3776.60483643,0.01213360
3778.53364380,0.01174464
3780.46245117,0.01124796
3782.39125854,0.01201637
3784.32006592,0.01172711
3786.24887329,0.01166629
3788.17768066,0.01191070
3790.10648804,0.01189478
3792.03529541,0.01179635
3793.96410278,0.01190739
3795.89291016,0.01140091
3797.82171753,0.01119406
3799.75052490,0.01164713
3801.67933228,0.00924421
3803.60813965,0.01078365
3805.53694702,0.01180973
3807.46575439,0.00957898
3809.39456177,0.01158321
3811.32336914,0.01145511
3813.25217651,0.01187576
3815.18098389,0.01076278
3817.10979126,0.00944208
3819.03859863,0.01184691
3820.96740601,0.00948366
3822.89621338,0.01000185
3824.82502075,0.01176060
3826.75382812,0.01061987
3828.68263550,0.01135701
3830.61144287,0.01090882
3832.54025024,0.01062028
3834.46905762,0.01082982
3836.39786499,0.01028566
3838.32667236,0.00921676
3840.25547974,0.00992245
3842.18428711,0.01077077
3844.11309448,0.01025815
3846.04190186,0.01105583
3847.97070923,0.01091880
3849.89951660,0.01101382
3851.82832397,0.00984807
3853.75713135,0.00738461
3855.68593872,0.00883695
3857.61474609,0.01094417
3859.54355347,0.01067701
3861.47236084,0.01059406
3863.40116821,0.01030634
3865.32997559,0.00962943
3867.25878296,0.01070417
3869.18759033,0.00977343
3871.11639770,0.00911170
3873.04520508,0.01072802
3874.97401245,0.00990175
3876.90281982,0.01065467
3878.83162720,0.01076733
3880.76043457,0.00930517
3882.68924194,0.01065442
3884.61804932,0.01004654
3886.54685669,0.00930828
3888.47566406,0.01071758
3890.40447144,0.01016784
3892.33327881,0.00950084
3894.26208618,0.01037393
3896.19089355,0.01066455
3898.11970093,0.01013014
3900.04850830,0.00953126
3901.97731567,0.00940955
3903.90612305,0.00932732
3905.83493042,0.00949524
3907.76373779,0.01033915
3909.69254517,0.01030133
3911.62135254,0.01020867
3913.55015991,0.01039473
3915.47896728,0.01006889
3917.40777466,0.00985749
3919.33658203,0.00976329
3921.26538940,0.01006429
3923.19419678,0.01006151
3925.12300415,0.00981102
3927.05181152,0.00991552
3928.98061890,0.00999288
3930.90942627,0.00979184
3932.83823364,0.00958468
3934.76704102,0.00993218
3936.69584839,0.01000673
3938.62465576,0.00998657
3940.55346313,0.00999885
3942.48227051,0.00967075
3944.41107788,0.00975635
3946.33988525,0.00989667
3948.26869263,0.00970424
3950.19750000,0.00959742
3952.12630737,0.00976109
3954.05511475,0.00985321
3955.98392212,0.00978559
3957.91272949,0.00976788
3959.84153687,0.00973849
3961.77034424,0.00967122
3963.69915161,0.00970419
3965.62795898,0.00967589
3967.55676636,0.00957044
3969.48557373,0.00964854
3971.41438110,0.00960113
3973.34318848,0.00962318
3975.27199585,0.00958483
3977.20080322,0.00954053
3979.12961060,0.00962486
3981.05841797,0.00943681
3982.98722534,0.00946013
3984.91603271,0.00947495
3986.84484009,0.00947018
3988.77364746,0.00943917
3990.70245483,0.00940992
3992.63126221,0.00947700
3994.56006958,0.00933156
3996.48887695,0.00938738
3998.41768433,0.00934452
4000.34649170,0.00935820
4002.27529907,0.00929712
4004.20410645,0.00920840
4006.13291382,0.00927217
4008.06172119,0.00913334
4009.99052856,0.00931255
4011.91933594,0.00920832
4013.84814331,0.00914712
4015.77695068,0.00923941
4017.70575806,0.00910418
4019.63456543,0.00917675
4021.56337280,0.00905036
4023.49218018,0.00905555
4025.42098755,0.00906943
4027.34979492,0.00905491
4029.27860229,0.00909198
4031.20740967,0.00896438
4033.13621704,0.00901539
4035.06502441,0.00907260
4036.99383179,0.00895420
4038.92263916,0.00886510
4040.85144653,0.00895967
4042.78025391,0.00887713
4044.70906128,0.00884576
4046.63786865,0.00886126
4048.56667603,0.00883891
4050.49548340,0.00888976
4052.42429077,0.00874245
4054.35309814,0.00875161
4056.28190552,0.00872363
4058.21071289,0.00879170
4060.13952026,0.00878272
4062.06832764,0.00869370
4063.99713501,0.00879003
4065.92594238,0.00862637
4067.85474976,0.00866141
4069.78355713,0.00865919
4071.71236450,0.00871186
4073.64117187,0.00873855
4075.56997925,0.00853468
4077.49878662,0.00859205
4079.42759399,0.00856455
4081.35640137,0.00856781
4083.28520874,0.00855063
4085.21401611,0.00855021
4087.14282349,0.00852135
4089.07163086,0.00849347
4091.00043823,0.00853992
4092.92924561,0.00840897
4094.85805298,0.00840618
4096.78686035,0.00837707
4098.71566772,0.00843452
4100.64447510,0.00839881
4102.57328247,0.00833062
4104.50208984,0.00842859
4106.43089722,0.00832431
4108.35970459,0.00824169
4110.28851196,0.00820498
4112.21731934,0.00828676
4114.14612671,0.00822503
4116.07493408,0.00820571
4118.00374145,0.00830479
4119.93254883,0.00819584
4121.86135620,0.00818362
4123.79016357,0.00815965
4125.71897095,0.00818558
4127.64777832,0.00814233
4129.57658569,0.00811323
4131.50539307,0.00809460
4133.43420044,0.00803701
4135.36300781,0.00808614
4137.29181519,0.00798926
4139.22062256,0.00806148
4141.14942993,0.00810820
4143.07823730,0.00798316
4145.00704468,0.00792481
4146.93585205,0.00795412
4148.86465942,0.00795024
4150.79346680,0.00789069
4152.72227417,0.00791721
4154.65108154,0.00786961
4156.57988892,0.00794452
4158.50869629,0.00785246
4160.43750366,0.00777321
4162.36631103,0.00788199
4164.29511841,0.00782899
4166.22392578,0.00782856
4168.15273315,0.00774389
4170.08154053,0.00780205
4172.01034790,0.00775468
4173.93915527,0.00769279
4175.86796265,0.00779674
4177.79677002,0.00764159
4179.72557739,0.00765473
4181.65438477,0.00767091
4183.58319214,0.00765697
4185.51199951,0.00766409
4187.44080688,0.00760466
4189.36961426,0.00763820
4191.29842163,0.00759111
4193.22722900,0.00752166
4195.15603638,0.00745297
4197.08484375,0.00746028
4199.01365112,0.00748799
4200.94245850,0.00749591
4202.87126587,0.00748196
4204.80007324,0.00743449
4206.72888062,0.00744817
4208.65768799,0.00741517
4210.58649536,0.00732931
4212.51530273,0.00733622
4214.44411011,0.00744178
4216.37291748,0.00738115
4218.30172485,0.00737462
4220.23053223,0.00738283
4222.15933960,0.00723832
4224.08814697,0.00722574
4226.01695435,0.00727032
4227.94576172,0.00729985
4229.87456909,0.00719666
4231.80337646,0.00719039
4233.73218384,0.00721859
4235.66099121,0.00718527
4237.58979858,0.00723960
4239.51860596,0.00717769
4241.44741333,0.00716573
4243.37622070,0.00707950
4245.30502808,0.00705486
4247.23383545,0.00712512
4249.16264282,0.00707656
4251.09145020,0.00706079
4253.02025757,0.00710445
4254.94906494,0.00718707
4256.87787231,0.00702314
4258.80667969,0.00696258
4260.73548706,0.00702711
4262.66429443,0.00694592
4264.59310181,0.00697879
4266.52190918,0.00702254
4268.45071655,0.00699058
4270.37952393,0.00690028
4272.30833130,0.00691048
4274.23713867,0.00687387
4276.16594604,0.00686463
4278.09475342,0.00688790
4280.02356079,0.00679405
4281.95236816,0.00681171
4283.88117554,0.00677161
4285.80998291,0.00684231
4287.73879028,0.00686370
4289.66759766,0.00677246
4291.59640503,0.00671476
4293.52521240,0.00660090
4295.45401978,0.00671075
4297.38282715,0.00669277
4299.31163452,0.00663427
4301.24044189,0.00669992
4303.16924927,0.00664394
4305.09805664,0.00661238
4307.02686401,0.00661922
4308.95567139,0.00665471
4310.88447876,0.00658634
4312.81328613,0.00651073
4314.74209351,0.00656260
4316.67090088,0.00661029
4318.59970825,0.00653424
4320.52851562,0.00647533
4322.45732300,0.00653291
4324.38613037,0.00650201
4326.31493774,0.00650674
4328.24374512,0.00651926
4330.17255249,0.00646072
4332.10135986,0.00639749
4334.03016724,0.00636520
4335.95897461,0.00646391
4337.88778198,0.00645605
4339.81658936,0.00634223
4341.74539673,0.00633821
4343.67420410,0.00630178
4345.60301147,0.00628115
4347.53181885,0.00633112
4349.46062622,0.00629206
4351.38943359,0.00629256
4353.31824097,0.00622221
4355.24704834,0.00616450
4357.17585571,0.00631149
4359.10466309,0.00627191
4361.03347046,0.00618364
4362.96227783,0.00622283
4364.89108520,0.00624032
4366.81989258,0.00620414
4368.74869995,0.00618239
4370.67750732,0.00615488
4372.60631470,0.00610215
4374.53512207,0.00617563
4376.46392944,0.00608549
4378.39273682,0.00606286
4380.32154419,0.00615477
4382.25035156,0.00608451
4384.17915894,0.00609949
4386.10796631,0.00601043
4388.03677368,0.00599697
4389.96558105,0.00602892
4391.89438843,0.00599187
4393.82319580,0.00600116
4395.75200317,0.00593919
4397.68081055,0.00596162
4399.60961792,0.00585968
4401.53842529,0.00587830
4403.46723267,0.00596569
4405.39604004,0.00586646
4407.32484741,0.00592034
4409.25365478,0.00582229
4411.18246216,0.00577528
4413.11126953,0.00585174
4415.04007690,0.00579242
4416.96888428,0.00582894
4418.89769165,0.00576045
4420.82649902,0.00574966
4422.75530640,0.00582726
4424.68411377,0.00571276
4426.61292114,0.00572163
4428.54172852,0.00575549
4430.47053589,0.00566753
4432.39934326,0.00568584
4434.32815063,0.00573485
4436.25695801,0.00571693
4438.18576538,0.00564728
4440.11457275,0.00564861
4442.04338013,0.00572052
4443.97218750,0.00570697
4445.90099487,0.00564378
4447.82980225,0.00558962
4449.75860962,0.00559678
4451.68741699,0.00562579
4453.61622437,0.00558651
4455.54503174,0.00557597
4457.47383911,0.00561903
4459.40264648,0.00550592
4461.33145386,0.00540485
4463.26026123,0.00554603
4465.18906860,0.00557995
4467.11787598,0.00549954
4469.04668335,0.00550074
4470.97549072,0.00549608
4472.90429810,0.00545744
4474.83310547,0.00538929
4476.76191284,0.00536616
4478.69072021,0.00538216
4480.61952759,0.00535414
4482.54833496,0.00533248
4484.47714233,0.00536569
4486.40594971,0.00530756
4488.33475708,0.00527565
4490.26356445,0.00532863
4492.19237183,0.00528939
4494.12117920,0.00530107
4496.04998657,0.00526977
4497.97879395,0.00525090
4499.90760132,0.00530567
4501.83640869,0.00523277
4503.76521606,0.00523973
4505.69402344,0.00531808
4507.62283081,0.00526200
4509.55163818,0.00515175
4511.48044556,0.00512773
4513.40925293,0.00512049
4515.33806030,0.00514135
4517.26686768,0.00517091
4519.19567505,0.00513215
4521.12448242,0.00511626
4523.05328979,0.00507795
4524.98209717,0.00513797
4526.91090454,0.00513934
4528.83971191,0.00506558
4530.76851929,0.00511330
4532.69732666,0.00503481
4534.62613403,0.00506816
4536.55494141,0.00514256
4538.48374878,0.00499323
4540.41255615,0.00498595
4542.34136353,0.00505186
4544.27017090,0.00497553
4546.19897827,0.00494423
4548.12778564,0.00494453
4550.05659302,0.00490674
4551.98540039,0.00494754
4553.91420776,0.00495076
4555.84301514,0.00489346
4557.77182251,0.00487783
4559.70062988,0.00491026
4561.62943726,0.00488962
4563.55824463,0.00482323
4565.48705200,0.00486128
4567.41585937,0.00479991
4569.34466675,0.00473815
4571.27347412,0.00479537
4573.20228149,0.00478076
4575.13108887,0.00474963
4577.05989624,0.00474597
4578.98870361,0.00473104
4580.91751099,0.00466627
4582.84631836,0.00471273
4584.77512573,0.00474260
4586.70393311,0.00466238
4588.63274048,0.00471518
4590.56154785,0.00470803
4592.49035522,0.00464218
4594.41916260,0.00469075
4596.34796997,0.00466551
4598.27677734,0.00456719
4600.20558472,0.00459791
4602.13439209,0.00462962
4604.06319946,0.00459809
4605.99200684,0.00462002
4607.92081421,0.00459544
4609.84962158,0.00456549
4611.77842895,0.00460650
4613.70723633,0.00460513
4615.63604370,0.00455868
4617.56485107,0.00453349
4619.49365845,0.00443511
4621.42246582,0.00446118
4623.35127319,0.00456067
4625.28008057,0.00440365
4627.20888794,0.00437303
4629.13769531,0.00449134
4631.06650269,0.00450699
4632.99531006,0.00445156
4634.92411743,0.00444304
4636.85292480,0.00449796
4638.78173218,0.00443271
4640.71053955,0.00439535
4642.63934692,0.00437786
4644.56815430,0.00440851
4646.49696167,0.00436006
4648.42576904,0.00426070
4650.35457642,0.00436871
4652.28338379,0.00436381
4654.21219116,0.00429288
4656.14099853,0.00423880
4658.06980591,0.00428946
4659.99861328,0.00434202
4661.92742065,0.00428024
4663.85622803,0.00433090
4665.78503540,0.00428224
4667.71384277,0.00421582
4669.64265015,0.00419002
4671.57145752,0.00419846
4673.50026489,0.00419538
4675.42907227,0.00416603
4677.35787964,0.00417623
4679.28668701,0.00412018
4681.21549438,0.00418335
4683.14430176,0.00415185
4685.07310913,0.00413075
4687.00191650,0.00415836
4688.93072388,0.00411534
4690.85953125,0.00418078
4692.78833862,0.00410532
4694.71714600,0.00408645
4696.64595337,0.00409882
4698.57476074,0.00405410
4700.50356812,0.00403245
4702.43237549,0.00402304
4704.36118286,0.00403791
4706.28999023,0.00396376
4708.21879761,0.00401188
4710.14760498,0.00397765
4712.07641235,0.00395049
4714.00521973,0.00401471
4715.93402710,0.00398913
4717.86283447,0.00397023
4719.79164185,0.00389775
4721.72044922,0.00396938
4723.64925659,0.00396231
4725.57806396,0.00392041
4727.50687134,0.00394029
4729.43567871,0.00385470
4731.36448608,0.00390039
4733.29329346,0.00392592
4735.22210083,0.00386377
4737.15090820,0.00384961
4739.07971558,0.00397770
4741.00852295,0.00391041
4742.93733032,0.00375435
4744.86613770,0.00389056
4746.79494507,0.00391527
4748.72375244,0.00386713
4750.65255981,0.00377364
4752.58136719,0.00377312
4754.51017456,0.00383211
4756.43898193,0.00372841
4758.36778931,0.00379612
4760.29659668,0.00376114
4762.22540405,0.00367653
4764.15421143,0.00377775
4766.08301880,0.00374647
4768.01182617,0.00370277
4769.94063354,0.00369034
4771.86944092,0.00363489
4773.79824829,0.00369450
4775.72705566,0.00369544
4777.65586304,0.00362920
4779.58467041,0.00366805
4781.51347778,0.00363909
4783.44228516,0.00362148
4785.37109253,0.00362745
4787.29989990,0.00365358
4789.22870728,0.00367182
4791.15751465,0.00360712
4793.08632202,0.00362708
4795.01512939,0.00358790
4796.94393677,0.00360883
4798.87274414,0.00363585
4800.80155151,0.00361366
4802.73035889,0.00365894
4804.65916626,0.00356686
4806.58797363,0.00358182
4808.51678101,0.00354744
4810.44558838,0.00346098
4812.37439575,0.00351195
4814.30320312,0.00346335
4816.23201050,0.00345998
4818.16081787,0.00344233
4820.08962524,0.00345892
4822.01843262,0.00354390
4823.94723999,0.00350440
4825.87604736,0.00341770
4827.80485474,0.00336866
4829.73366211,0.00344202
4831.66246948,0.00353281
4833.59127686,0.00350436
4835.52008423,0.00340393
4837.44889160,0.00337466
4839.37769897,0.00345826
4841.30650635,0.00343921
4843.23531372,0.00330338
4845.16412109,0.00333843
4847.09292847,0.00339513
4849.02173584,0.00330627
4850.95054321,0.00334027
4852.87935059,0.00338641
4854.80815796,0.00334304
4856.73696533,0.00330002
4858.66577270,0.00329122
4860.59458008,0.00326995
4862.52338745,0.00321597
4864.45219482,0.00326317
4866.38100220,0.00328368
4868.30980957,0.00333871
4870.23861694,0.00329953
4872.16742432,0.00318168
4874.09623169,0.00324246
4876.02503906,0.00321931
4877.95384644,0.00320679
4879.88265381,0.00317374
4881.81146118,0.00319377
4883.74026855,0.00324185
4885.66907593,0.00312516
4887.59788330,0.00319543
4889.52669067,0.00317169
4891.45549805,0.00313243
4893.38430542,0.00321414
4895.31311279,0.00314540
4897.24192017,0.00312314
4899.17072754,0.00308809
4901.09953491,0.00311479
4903.02834228,0.00312120
4904.95714966,0.00308004
4906.88595703,0.00312242
4908.81476440,0.00308020
4910.74357178,0.00303893
4912.67237915,0.00302743
4914.60118652,0.00307613
4916.52999390,0.00305817
4918.45880127,0.00303051
4920.38760864,0.00307467
4922.31641602,0.00299896
4924.24522339,0.00300120
4926.17403076,0.00300260
4928.10283813,0.00301368
4930.03164551,0.00299565
4931.96045288,0.00291546
4933.88926025,0.00303778
4935.81806763,0.00301696
4937.74687500,0.00293797
4939.67568237,0.00294261
4941.60448975,0.00290001
4943.53329712,0.00296300
4945.46210449,0.00296612
4947.39091187,0.00293203
4949.31971924,0.00290028
4951.24852661,0.00291686
4953.17733398,0.00298292
4955.10614136,0.00287625
4957.03494873,0.00283519
4958.96375610,0.00293087
4960.89256348,0.00291123
4962.82137085,0.00281820
4964.75017822,0.00281819
4966.67898560,0.00285111
4968.60779297,0.00288014
4970.53660034,0.00286623
4972.46540771,0.00272432
4974.39421509,0.00278239
4976.32302246,0.00291465
4978.25182983,0.00283626
4980.18063721,0.00283020
4982.10944458,0.00281592
4984.03825195,0.00273024
4985.96705933,0.00274775
4987.89586670,0.00279396
4989.82467407,0.00278093
4991.75348145,0.00275894
4993.68228882,0.00278482
4995.61109619,0.00276429
4997.53990356,0.00272763
4999.46871094,0.00272864
5001.39751831,0.00268757
5003.32632568,0.00267747
5005.25513306,0.00272889
5007.18394043,0.00276769
5009.11274780,0.00274171
5011.04155518,0.00264379
5012.97036255,0.00259552
5014.89916992,0.00264219
5016.82797729,0.00264795
5018.75678467,0.00264040
5020.68559204,0.00267487
5022.61439941,0.00259781
5024.54320679,0.00256207
5026.47201416,0.00264033
5028.40082153,0.00266119
5030.32962891,0.00268548
5032.25843628,0.00263276
5034.18724365,0.00260354
5036.11605103,0.00263035
5038.04485840,0.00260041
5039.97366577,0.00262075
5041.90247314,0.00259473
5043.83128052,0.00258902
5045.76008789,0.00248823
5047.68889526,0.00241958
5049.61770264,0.00256503
5051.54651001,0.00250075
5053.47531738,0.00246129
5055.40412476,0.00249377
5057.33293213,0.00248198
5059.26173950,0.00252077
5061.19054687,0.00246309
5063.11935425,0.00253659
5065.04816162,0.00256580
5066.97696899,0.00244095
5068.90577637,0.00243499
5070.83458374,0.00247308
5072.76339111,0.00246031
5074.69219849,0.00243582
5076.62100586,0.00244743
5078.54981323,0.00240312
5080.47862061,0.00240028
5082.40742798,0.00242331
5084.33623535,0.00238490
5086.26504272,0.00236703
5088.19385010,0.00236289
5090.12265747,0.00240723
5092.05146484,0.00240928
5093.98027222,0.00237877
5095.90907959,0.00238813
5097.83788696,0.00242766
5099.76669434,0.00238788
5101.69550171,0.00233105
5103.62430908,0.00240746
5105.55311645,0.00238209
5107.48192383,0.00232015
5109.41073120,0.00232993
5111.33953857,0.00236292
5113.26834595,0.00235658
5115.19715332,0.00228242
5117.12596069,0.00232425
5119.05476807,0.00236970
5120.98357544,0.00232462
5122.91238281,0.00226545
5124.84119019,0.00226726
5126.76999756,0.00228311
5128.69880493,0.00230961
5130.62761230,0.00226956
5132.55641968,0.00219923
5134.48522705,0.00233723
5136.41403442,0.00225093
5138.34284180,0.00217608
5140.27164917,0.00230494
5142.20045654,0.00223863
5144.12926392,0.00224015
5146.05807129,0.00221525
5147.98687866,0.00226201
5149.91568603,0.00226704
5151.84449341,0.00214135
5153.77330078,0.00220328
5155.70210815,0.00215117
5157.63091553,0.00215894
5159.55972290,0.00219172
5161.48853027,0.00211088
5163.41733765,0.00214352
5165.34614502,0.00214825
5167.27495239,0.00214836
5169.20375977,0.00211799
5171.13256714,0.00204367
5173.06137451,0.00206428
5174.99018188,0.00218410
5176.91898926,0.00218267
5178.84779663,0.00211126
5180.77660400,0.00215501
5182.70541138,0.00210200
5184.63421875,0.00206758
5186.56302612,0.00212706
5188.49183350,0.00208537
5190.42064087,0.00202728
5192.34944824,0.00209083
5194.27825562,0.00213872
5196.20706299,0.00204007
5198.13587036,0.00198706
5200.06467773,0.00203499
5201.99348511,0.00209890
5203.92229248,0.00208431
5205.85109985,0.00200568
5207.77990723,0.00196404
5209.70871460,0.00196170
5211.63752197,0.00203172
5213.56632935,0.00206572
5215.49513672,0.00201805
5217.42394409,0.00197907
5219.35275146,0.00199071
5221.28155884,0.00202189
5223.21036621,0.00200512
5225.13917358,0.00191338
5227.06798096,0.00185047
5228.99678833,0.00192608
5230.92559570,0.00194827
5232.85440308,0.00192713
5234.78321045,0.00194084
5236.71201782,0.00191174
5238.64082520,0.00189728
5240.56963257,0.00194346
5242.49843994,0.00197322
5244.42724731,0.00189661
5246.35605469,0.00188917
5248.28486206,0.00184129
5250.21366943,0.00187534
5252.14247681,0.00203232
5254.07128418,0.00187996
5256.00009155,0.00187388
5257.92889893,0.00196267
5259.85770630,0.00191306
5261.78651367,0.00190558
5263.71532104,0.00179344
5265.64412842,0.00187587
5267.57293579,0.00190050
5269.50174316,0.00181461
5271.43055054,0.00192801
5273.35935791,0.00188463
5275.28816528,0.00182592
5277.21697266,0.00192454
5279.14578003,0.00194748
5281.07458740,0.00190285
5283.00339478,0.00188491
5284.93220215,0.00177294
5286.86100952,0.00175695
5288.78981689,0.00184148
5290.71862427,0.00179450
5292.64743164,0.00185806
5294.57623901,0.00183614
5296.50504639,0.00179099
5298.43385376,0.00183154
5300.36266113,0.00176534
5302.29146851,0.00183687
5304.22027588,0.00185866
5306.14908325,0.00180789
5308.07789062,0.00182572
5310.00669800,0.00179731
5311.93550537,0.00179212
5313.86431274,0.00184543
5315.79312012,0.00181305
5317.72192749,0.00174807
5319.65073486,0.00182137
5321.57954224,0.00174348
5323.50834961,0.00176580
5325.43715698,0.00184982
5327.36596436,0.00169888
5329.29477173,0.00177777
5331.22357910,0.00175239
5333.15238647,0.00167562
5335.08119385,0.00181417
5337.01000122,0.00176199
5338.93880859,0.00168782
5340.86761597,0.00171859
5342.79642334,0.00170209
5344.72523071,0.00162919
5346.65403809,0.00166070
5348.58284546,0.00166077
5350.51165283,0.00163611
5352.44046020,0.00169680
5354.36926758,0.00164698
5356.29807495,0.00167530
5358.22688232,0.00168531
5360.15568970,0.00164925
5362.08449707,0.00168349
5364.01330444,0.00165795
5365.94211182,0.00170055
5367.87091919,0.00170018
5369.79972656,0.00164518
5371.72853394,0.00165880
5373.65734131,0.00164744
5375.58614868,0.00159460
5377.51495605,0.00155780
5379.44376343,0.00159976
5381.37257080,0.00165240
5383.30137817,0.00161012
5385.23018555,0.00161091
5387.15899292,0.00162277
5389.08780029,0.00152078
5391.01660767,0.00164555
5392.94541504,0.00171350
5394.87422241,0.00156400
5396.80302978,0.00160885
5398.73183716,0.00156816
5400.66064453,0.00153721
5402.58945190,0.00153009
5404.51825928,0.00146455
5406.44706665,0.00154385
5408.37587402,0.00151134
5410.30468140,0.00152629
5412.23348877,0.00158036
5414.16229614,0.00149671
5416.09110352,0.00148937
5418.01991089,0.00153934
5419.94871826,0.00154627
5421.87752563,0.00150375
5423.80633301,0.00151567
5425.73514038,0.00154900
5427.66394775,0.00151425
5429.59275513,0.00149339
5431.52156250,0.00156982
5433.45036987,0.00157610
5435.37917725,0.00145538
5437.30798462,0.00146089
5439.23679199,0.00151883
5441.16559936,0.00149487
5443.09440674,0.00145208
5445.02321411,0.00149919
5446.95202148,0.00154265
5448.88082886,0.00146539
5450.80963623,0.00145712
5452.73844360,0.00143939
5454.66725098,0.00143736
5456.59605835,0.00151863
5458.52486572,0.00147049
5460.45367310,0.00150817
5462.38248047,0.00155784
5464.31128784,0.00143567
5466.24009521,0.00146916
5468.16890259,0.00140572
5470.09770996,0.00134191
5472.02651733,0.00150446
5473.95532471,0.00138934
5475.88413208,0.00135638
5477.81293945,0.00143925
5479.74174683,0.00138510
5481.67055420,0.00143374
5483.59936157,0.00137713
5485.52816895,0.00139625
5487.45697632,0.00138209
5489.38578369,0.00132235
5491.31459106,0.00139859
5493.24339844,0.00132682
5495.17220581,0.00133477
5497.10101318,0.00133626
5499.02982056,0.00138442
5500.95862793,0.00149374
5502.88743530,0.00138420
5504.81624268,0.00136965
5506.74505005,0.00135280
5508.67385742,0.00129762
5510.60266479,0.00138931
5512.53147217,0.00141385
5514.46027954,0.00130457
5516.38908691,0.00131225
5518.31789429,0.00139298
5520.24670166,0.00133761
5522.17550903,0.00132158
5524.10431641,0.00133898
5526.03312378,0.00135477
5527.96193115,0.00134547
5529.89073853,0.00130832
5531.81954590,0.00132383
5533.74835327,0.00130363
5535.67716064,0.00129824
5537.60596802,0.00131207
5539.53477539,0.00137368
5541.46358276,0.00132189
5543.39239014,0.00123128
5545.32119751,0.00131798
5547.25000488,0.00129400
5549.17881226,0.00125556
5551.10761963,0.00125263
5553.03642700,0.00124118
5554.96523437,0.00124201
5556.89404175,0.00120699
5558.82284912,0.00125172
5560.75165649,0.00128159
5562.68046387,0.00130665
5564.60927124,0.00124624
5566.53807861,0.00124081
5568.46688599,0.00129961
5570.39569336,0.00115681
5572.32450073,0.00124846
5574.25330811,0.00133942
5576.18211548,0.00118233
5578.11092285,0.00126557
5580.03973022,0.00133832
5581.96853760,0.00124845
5583.89734497,0.00123099
5585.82615234,0.00122152
5587.75495972,0.00121049
5589.68376709,0.00121215
5591.61257446,0.00121833
5593.54138184,0.00125949
5595.47018921,0.00123512
5597.39899658,0.00121052
5599.32780395,0.00126182
5601.25661133,0.00121093
5603.18541870,0.00114397
5605.11422607,0.00117916
5607.04303345,0.00121927
5608.97184082,0.00122847
5610.90064819,0.00116041
5612.82945557,0.00112131
5614.75826294,0.00115241
5616.68707031,0.00112596
5618.61587769,0.00114613
5620.54468506,0.00115393
5622.47349243,0.00117132
5624.40229980,0.00123148
5626.33110718,0.00109932
5628.25991455,0.00108855
5630.18872192,0.00115640
5632.11752930,0.00109550
5634.04633667,0.00112178
5635.97514404,0.00112148
5637.90395142,0.00119285
5639.83275879,0.00118439
5641.76156616,0.00109430
5643.69037353,0.00111932
5645.61918091,0.00108590
5647.54798828,0.00116128
5649.47679565,0.00113120
5651.40560303,0.00102238
5653.33441040,0.00107951
5655.26321777,0.00106610
5657.19202515,0.00102277
5659.12083252,0.00105956
5661.04963989,0.00113360
5662.97844727,0.00107101
5664.90725464,0.00104582
5666.83606201,0.00105494
5668.76486938,0.00100794
5670.69367676,0.00102782
5672.62248413,0.00097101
5674.55129150,0.00106882
5676.48009888,0.00110427
5678.40890625,0.00103444
5680.33771362,0.00112060
5682.26652100,0.00103133
5684.19532837,0.00099248
5686.12413574,0.00102543
5688.05294311,0.00099863
5689.98175049,0.00106072
5691.91055786,0.00105724
5693.83936523,0.00099616
5695.76817261,0.00098106
5697.69697998,0.00097525
5699.62578735,0.00099528
5701.55459473,0.00104330
5703.48340210,0.00101285
5705.41220947,0.00101483
5707.34101685,0.00099169
5709.26982422,0.00094643
5711.19863159,0.00102192
5713.12743896,0.00105083
5715.05624634,0.00103955
5716.98505371,0.00097232
5718.91386108,0.00099521
5720.84266846,0.00102209
5722.77147583,0.00097974
5724.70028320,0.00103778
5726.62909058,0.00094493
5728.55789795,0.00089472
5730.48670532,0.00091608
5732.41551270,0.00096221
5734.34432007,0.00100037
5736.27312744,0.00088896
5738.20193481,0.00095955
5740.13074219,0.00098878
5742.05954956,0.00097113
5743.98835693,0.00097657
5745.91716431,0.00090598
5747.84597168,0.00099816
5749.77477905,0.00100336
5751.70358643,0.00095185
5753.63239380,0.00095871
5755.56120117,0.00093678
5757.49000854,0.00096600
5759.41881592,0.00093995
5761.34762329,0.00089900
5763.27643066,0.00093338
5765.20523804,0.00094965
5767.13404541,0.00093572
5769.06285278,0.00089870
5770.99166016,0.00084047
5772.92046753,0.00089601
5774.84927490,0.00091449
5776.77808228,0.00087084
5778.70688965,0.00092527
5780.63569702,0.00087825
5782.56450439,0.00087318
5784.49331177,0.00097345
5786.42211914,0.00092052
5788.35092651,0.00086181
5790.27973389,0.00092338
5792.20854126,0.00089421
5794.13734863,0.00082462
5796.06615601,0.00084116
5797.99496338,0.00084147
5799.92377075,0.00087692
5801.85257812,0.00083400
5803.78138550,0.00081144
5805.71019287,0.00087157
5807.63900024,0.00084852
5809.56780762,0.00088452
5811.49661499,0.00087634
5813.42542236,0.00089238
5815.35422974,0.00087808
5817.28303711,0.00078476
5819.21184448,0.00082088
5821.14065186,0.00082298
5823.06945923,0.00084168
5824.99826660,0.00082244
5826.92707397,0.00079560
5828.85588135,0.00082992
5830.78468872,0.00082633
5832.71349609,0.00087936
5834.64230347,0.00086569
5836.57111084,0.00081800
5838.49991821,0.00079239
5840.42872559,0.00085593
5842.35753296,0.00092212
5844.28634033,0.00082762
5846.21514770,0.00081118
5848.14395508,0.00080428
5850.07276245,0.00080511
5852.00156982,0.00084109
5853.93037720,0.00081778
5855.85918457,0.00082202
5857.78799194,0.00081129
5859.71679932,0.00084454
5861.64560669,0.00085673
5863.57441406,0.00079411
5865.50322144,0.00076854
5867.43202881,0.00077526
5869.36083618,0.00079503
5871.28964355,0.00073807
5873.21845093,0.00073474
5875.14725830,0.00082071
5877.07606567,0.00079554
5879.00487305,0.00080426
5880.93368042,0.00082338
5882.86248779,0.00073041
5884.79129517,0.00068857
5886.72010254,0.00073707
5888.64890991,0.00079533
5890.57771728,0.00072026
5892.50652466,0.00067878
5894.43533203,0.00073236
5896.36413940,0.00070648
5898.29294678,0.00076429
5900.22175415,0.00071142
5902.15056152,0.00065452
5904.07936890,0.00078059
5906.00817627,0.00076010
5907.93698364,0.00076507
5909.86579102,0.00076574
5911.79459839,0.00074341
5913.72340576,0.00077945
5915.65221313,0.00071649
5917.58102051,0.00073350
5919.50982788,0.00072761
5921.43863525,0.00068277
5923.36744263,0.00070863
5925.29625000,0.00068759
5927.22505737,0.00068629
5929.15386475,0.00070198
5931.08267212,0.00072371
5933.01147949,0.00070894
5934.94028686,0.00068201
5936.86909424,0.00071183
5938.79790161,0.00071981
5940.72670898,0.00071223
5942.65551636,0.00070052
5944.58432373,0.00070498
5946.51313110,0.00069227
5948.44193848,0.00069140
5950.37074585,0.00073599
5952.29955322,0.00069273
5954.22836060,0.00065127
5956.15716797,0.00070998
5958.08597534,0.00073863
5960.01478271,0.00067509
5961.94359009,0.00065961
5963.87239746,0.00067607
5965.80120483,0.00060873
5967.73001221,0.00065608
5969.65881958,0.00073132
5971.58762695,0.00068834
5973.51643433,0.00066825
5975.44524170,0.00063799
5977.37404907,0.00065081
5979.30285645,0.00064053
5981.23166382,0.00061937
5983.16047119,0.00068376
5985.08927856,0.00065869
5987.01808594,0.00066565
5988.94689331,0.00067343
5990.87570068,0.00065476
5992.80450806,0.00072319
5994.73331543,0.00066188
5996.66212280,0.00063039
5998.59093018,0.00062522
6000.51973755,0.00055272
