399.26312622,-0.00009982
401.19193359,0.00032696
403.12074097,0.00003585
405.04954834,0.00005068
406.97835571,0.00045663
408.90716309,0.00030347
410.83597046,0.00019059
412.76477783,0.00021738
414.69358521,0.00005604
416.62239258,0.00030427
418.55119995,0.00024579
420.48000732,0.00045223
422.40881470,0.00070323
424.33762207,0.00027236
426.26642944,0.00028504
428.19523682,0.00028655
430.12404419,0.00014994
432.05285156,0.00033134
433.98165894,0.00030486
435.91046631,-0.00017324
437.83927368,0.00005085
439.76808105,0.00026952
441.69688843,-0.00029776
443.62569580,0.00007232
445.55450317,0.00046237
447.48331055,0.00023368
449.41211792,0.00024756
451.34092529,0.00032854
453.26973267,0.00030078
455.19854004,-0.00000584
457.12734741,0.00037648
459.05615479,0.00036964
460.98496216,0.00023392
462.91376953,0.00027165
464.84257690,0.00028371
466.77138428,0.00018130
468.70019165,0.00044434
470.62899902,0.00050217
472.55780640,0.00061522
474.48661377,0.00049675
476.41542114,0.00016050
478.34422852,0.00036000
480.27303589,0.00024378
482.20184326,0.00078604
484.13065063,0.00071008
486.05945801,0.00016163
487.98826538,0.00020672
489.91707275,0.00009236
491.84588013,0.00046481
493.77468750,0.00012631
495.70349487,-0.00008944
497.63230225,0.00005565
499.56110962,0.00001118
501.48991699,0.00045929
503.41872437,0.00038285
505.34753174,0.00003599
507.27633911,0.00003791
509.20514648,0.00038241
511.13395386,0.00022320
513.06276123,0.00012664
514.99156860,0.00075442
516.92037598,0.00051022
518.84918335,0.00016042
520.77799072,0.00045511
522.70679810,0.00014274
524.63560547,0.00003143
526.56441284,0.00030358
528.49322021,0.00003569
530.42202759,0.00030936
532.35083496,0.00022655
534.27964233,0.00003051
536.20844971,0.00026068
538.13725708,-0.00011179
540.06606445,0.00024465
541.99487183,0.00011982
543.92367920,0.00000662
545.85248657,0.00036490
547.78129395,0.00004659
549.71010132,0.00058325
551.63890869,0.00047725
553.56771606,-0.00005241
555.49652344,0.00024331
557.42533081,0.00014692
559.35413818,-0.00001678
561.28294556,0.00034188
563.21175293,0.00049270
565.14056030,0.00006783
567.06936768,0.00017447
568.99817505,0.00022831
570.92698242,0.00003714
572.85578979,0.00004402
574.78459717,-0.00003208
576.71340454,0.00017491
578.64221191,0.00012640
580.57101929,0.00015432
582.49982666,0.00015262
584.42863403,0.00030485
586.35744141,0.00071155
588.28624878,0.00049239
590.21505615,0.00053157
592.14386353,0.00025309
594.07267090,-0.00013427
596.00147827,0.00002056
597.93028564,-0.00002518
599.85909302,0.00031058
601.78790039,0.00041356
603.71670776,0.00028819
605.64551514,0.00041084
607.57432251,0.00028226
609.50312988,0.00041351
611.43193726,0.00052368
613.36074463,0.00025988
615.28955200,0.00004245
617.21835938,0.00018294
619.14716675,0.00017552
621.07597412,0.00030141
623.00478149,0.00056475
624.93358887,0.00002835
626.86239624,0.00050022
628.79120361,0.00046863
630.72001099,0.00007015
632.64881836,0.00020865
634.57762573,0.00017033
636.50643311,0.00024373
638.43524048,0.00018472
640.36404785,0.00042357
642.29285522,0.00067360
644.22166260,0.00037412
646.15046997,0.00028703
648.07927734,0.00052631
650.00808472,0.00050872
651.93689209,0.00075297
653.86569946,0.00090486
655.79450684,0.00062368
657.72331421,0.00059272
659.65212158,0.00062952
661.58092896,0.00056938
663.50973633,0.00051029
665.43854370,0.00060387
667.36735107,0.00065068
669.29615845,0.00069281
671.22496582,0.00087713
673.15377319,0.00089349
675.08258057,0.00065687
677.01138794,0.00063621
678.94019531,0.00066543
680.86900269,0.00041665
682.79781006,0.00091672
684.72661743,0.00098658
686.65542480,0.00061446
688.58423218,0.00094244
690.51303955,0.00067789
692.44184692,0.00068738
694.37065430,0.00092157
696.29946167,0.00093154
698.22826904,0.00140235
700.15707642,0.00153540
702.08588379,0.00135406
704.01469116,0.00135579
705.94349854,0.00126780
707.87230591,0.00083994
709.80111328,0.00064736
711.72992065,0.00058923
713.65872803,0.00064544
715.58753540,0.00034005
717.51634277,-0.00013644
719.44515015,0.00017925
721.37395752,0.00014598
723.30276489,0.00016894
725.23157227,0.00023912
727.16037964,0.00010684
729.08918701,0.00035599
731.01799438,0.00042979
732.94680176,0.00024844
734.87560913,0.00006125
736.80441650,0.00024655
738.73322388,0.00005499
740.66203125,0.00014575
742.59083862,0.00040856
744.51964600,0.00025870
746.44845337,0.00041898
748.37726074,0.00041816
750.30606812,0.00024233
752.23487549,0.00010676
754.16368286,0.00034085
756.09249023,0.00037698
758.02129761,0.00009914
759.95010498,0.00022342
761.87891235,0.00036381
763.80771973,0.00033193
765.73652710,-0.00000692
767.66533447,0.00038065
769.59414185,0.00054516
771.52294922,0.00017369
773.45175659,0.00045092
775.38056396,0.00014446
777.30937134,0.00011590
779.23817871,0.00020363
781.16698608,0.00014312
783.09579346,0.00039372
785.02460083,0.00003788
786.95340820,0.00015219
788.88221558,0.00030485
790.81102295,0.00027560
792.73983032,0.00042701
794.66863770,0.00019460
796.59744507,0.00028021
798.52625244,0.00019435
800.45505981,0.00007705
802.38386719,0.00042943
804.31267456,0.00035552
806.24148193,0.00016223
808.17028931,0.00017897
810.09909668,-0.00000077
812.02790405,0.00016872
813.95671143,0.00039014
815.88551880,0.00026904
817.81432617,0.00042605
819.74313354,0.00042868
821.67194092,0.00025212
823.60074829,0.00036814
825.52955566,0.00021418
827.45836304,-0.00013543
829.38717041,0.00041020
831.31597778,0.00053118
833.24478516,0.00000010
835.17359253,0.00029587
837.10239990,0.00037396
839.03120728,0.00061985
840.96001465,0.00052110
842.88882202,0.00016474
844.81762939,0.00044405
846.74643677,0.00009214
848.67524414,0.00008697
850.60405151,0.00050184
852.53285889,0.00045932
854.46166626,0.00035014
856.39047363,0.00042563
858.31928101,0.00040620
860.24808838,0.00017729
862.17689575,0.00019511
864.10570313,0.00032846
866.03451050,0.00035276
867.96331787,0.00021288
869.89212524,0.00040204
871.82093262,0.00049109
873.74973999,0.00039979
875.67854736,0.00041445
877.60735474,0.00028225
879.53616211,0.00046160
881.46496948,0.00036673
883.39377686,0.00013119
885.32258423,0.00030384
887.25139160,0.00045833
889.18019897,0.00048663
891.10900635,0.00033011
893.03781372,0.00031313
894.96662109,0.00045800
896.89542847,0.00047047
898.82423584,0.00028806
900.75304321,0.00016267
902.68185059,0.00025499
904.61065796,0.00030663
906.53946533,0.00038220
908.46827271,0.00033231
910.39708008,0.00037082
912.32588745,0.00032887
914.25469482,0.00033119
916.18350220,0.00060704
918.11230957,0.00037697
920.04111694,0.00035535
921.96992432,0.00046752
923.89873169,0.00037229
925.82753906,0.00064670
927.75634644,0.00065081
929.68515381,0.00050815
931.61396118,0.00064862
933.54276855,0.00069623
935.47157593,0.00064042
937.40038330,0.00077278
939.32919067,0.00077832
941.25799805,0.00080460
943.18680542,0.00073121
945.11561279,0.00067870
947.04442017,0.00087744
948.97322754,0.00079184
950.90203491,0.00064363
952.83084229,0.00064632
954.75964966,0.00098794
956.68845703,0.00095902
958.61726440,0.00074530
960.54607178,0.00088009
962.47487915,0.00079996
964.40368652,0.00083893
966.33249390,0.00069153
968.26130127,0.00080274
970.19010864,0.00093964
972.11891602,0.00075073
974.04772339,0.00105151
975.97653076,0.00116840
977.90533813,0.00104642
979.83414551,0.00099324
981.76295288,0.00118106
983.69176025,0.00138653
985.62056763,0.00150519
987.54937500,0.00172335
989.47818237,0.00198034
991.40698975,0.00229222
993.33579712,0.00232444
995.26460449,0.00261138
997.19341187,0.00277239
999.12221924,0.00282845
1001.05102661,0.00317616
1002.97983398,0.00327798
1004.90864136,0.00340415
1006.83744873,0.00375997
1008.76625610,0.00427849
1010.69506348,0.00429974
1012.62387085,0.00446648
1014.55267822,0.00478905
1016.48148560,0.00487864
1018.41029297,0.00535808
1020.33910034,0.00557664
1022.26790771,0.00570729
1024.19671509,0.00566718
1026.12552246,0.00592555
1028.05432983,0.00633439
1029.98313721,0.00637140
1031.91194458,0.00671553
1033.84075195,0.00667127
1035.76955933,0.00672709
1037.69836670,0.00702750
1039.62717407,0.00717495
1041.55598145,0.00707003
1043.48478882,0.00686493
1045.41359619,0.00692948
1047.34240356,0.00666897
1049.27121094,0.00659861
1051.20001831,0.00661037
1053.12882568,0.00653398
1055.05763306,0.00634727
1056.98644043,0.00617626
1058.91524780,0.00618532
1060.84405518,0.00586107
1062.77286255,0.00586109
1064.70166992,0.00577191
1066.63047729,0.00558909
1068.55928467,0.00533621
1070.48809204,0.00481662
1072.41689941,0.00463416
1074.34570679,0.00440646
1076.27451416,0.00435956
1078.20332153,0.00429017
1080.13212891,0.00405328
1082.06093628,0.00382006
1083.98974365,0.00361460
1085.91855103,0.00350759
1087.84735840,0.00337440
1089.77616577,0.00317128
1091.70497314,0.00295066
1093.63378052,0.00324482
1095.56258789,0.00302163
1097.49139526,0.00259040
1099.42020264,0.00275700
1101.34901001,0.00262948
1103.27781738,0.00247952
1105.20662476,0.00245339
1107.13543213,0.00268353
1109.06423950,0.00252624
1110.99304687,0.00224639
1112.92185425,0.00245244
1114.85066162,0.00248009
1116.77946899,0.00259898
1118.70827637,0.00240579
1120.63708374,0.00224625
1122.56589111,0.00224655
1124.49469849,0.00228639
1126.42350586,0.00265385
1128.35231323,0.00249703
1130.28112061,0.00268881
1132.20992798,0.00297999
1134.13873535,0.00263467
1136.06754272,0.00284793
1137.99635010,0.00300950
1139.92515747,0.00309337
1141.85396484,0.00365273
1143.78277222,0.00380607
1145.71157959,0.00399621
1147.64038696,0.00433110
1149.56919434,0.00430136
1151.49800171,0.00449921
1153.42680908,0.00464325
1155.35561646,0.00483126
1157.28442383,0.00522684
1159.21323120,0.00524000
1161.14203857,0.00548630
1163.07084595,0.00582191
1164.99965332,0.00599639
1166.92846069,0.00626973
1168.85726807,0.00625229
1170.78607544,0.00654365
1172.71488281,0.00688495
1174.64369019,0.00695715
1176.57249756,0.00737510
1178.50130493,0.00764530
1180.43011230,0.00797658
1182.35891968,0.00824286
1184.28772705,0.00853074
1186.21653442,0.00916349
1188.14534180,0.00940587
1190.07414917,0.00994671
1192.00295654,0.01048378
1193.93176392,0.01085880
1195.86057129,0.01139896
1197.78937866,0.01175860
1199.71818604,0.01257611
1201.64699341,0.01305997
1203.57580078,0.01342302
1205.50460815,0.01402744
1207.43341553,0.01447675
1209.36222290,0.01512128
1211.29103027,0.01548460
1213.21983765,0.01599825
1215.14864502,0.01642425
1217.07745239,0.01662836
1219.00625977,0.01687549
1220.93506714,0.01711039
1222.86387451,0.01760184
1224.79268188,0.01771586
1226.72148926,0.01782890
1228.65029663,0.01801147
1230.57910400,0.01810197
1232.50791138,0.01815531
1234.43671875,0.01815299
1236.36552612,0.01817611
1238.29433350,0.01793998
1240.22314087,0.01817591
1242.15194824,0.01808625
1244.08075562,0.01774611
1246.00956299,0.01795420
1247.93837036,0.01765505
1249.86717773,0.01750143
1251.79598511,0.01765000
1253.72479248,0.01740935
1255.65359985,0.01715406
1257.58240723,0.01706463
1259.51121460,0.01679261
1261.44002197,0.01650766
1263.36882935,0.01633368
1265.29763672,0.01602361
1267.22644409,0.01592202
1269.15525146,0.01576463
1271.08405884,0.01573361
1273.01286621,0.01561056
1274.94167358,0.01502403
1276.87048096,0.01478004
1278.79928833,0.01455127
1280.72809570,0.01423089
1282.65690308,0.01405306
1284.58571045,0.01377120
1286.51451782,0.01341551
1288.44332520,0.01329910
1290.37213257,0.01325535
1292.30093994,0.01291152
1294.22974731,0.01281239
1296.15855469,0.01282994
1298.08736206,0.01277413
1300.01616943,0.01292382
1301.94497681,0.01311753
1303.87378418,0.01318234
1305.80259155,0.01314595
1307.73139893,0.01340871
1309.66020630,0.01381005
1311.58901367,0.01395634
1313.51782104,0.01411080
1315.44662842,0.01451534
1317.37543579,0.01488230
1319.30424316,0.01522539
1321.23305054,0.01573286
1323.16185791,0.01620594
1325.09066528,0.01670112
1327.01947266,0.01712985
1328.94828003,0.01750021
1330.87708740,0.01805028
1332.80589478,0.01860256
1334.73470215,0.01880565
1336.66350952,0.01890877
1338.59231689,0.01889246
1340.52112427,0.01900311
1342.44993164,0.01986187
1344.37873901,0.02009966
1346.30754639,0.01994956
1348.23635376,0.02011945
1350.16516113,0.01995500
1352.09396851,0.01997045
1354.02277588,0.01974328
1355.95158325,0.01945825
1357.88039062,0.01938698
1359.80919800,0.01920084
1361.73800537,0.01835275
1363.66681274,0.01804918
1365.59562012,0.01920272
1367.52442749,0.01852849
1369.45323486,0.01820472
1371.38204224,0.01877886
1373.31084961,0.01776508
1375.23965698,0.01796406
1377.16846436,0.01826026
1379.09727173,0.01825160
1381.02607910,0.01837718
1382.95488647,0.01823879
1384.88369385,0.01833366
1386.81250122,0.01744945
1388.74130859,0.01768565
1390.67011597,0.01928326
1392.59892334,0.01904631
1394.52773071,0.01755238
1396.45653809,0.01818935
1398.38534546,0.01840001
1400.31415283,0.01817540
1402.24296021,0.01979870
1404.17176758,0.01866370
1406.10057495,0.01883205
1408.02938232,0.01966466
1409.95818970,0.01873836
1411.88699707,0.01949935
1413.81580444,0.01853597
1415.74461182,0.01876414
1417.67341919,0.01725779
1419.60222656,0.01529521
1421.53103394,0.01772022
1423.45984131,0.01694871
1425.38864868,0.01649716
1427.31745605,0.01694687
1429.24626343,0.01559737
1431.17507080,0.01531837
1433.10387817,0.01536908
1435.03268555,0.01409795
1436.96149292,0.01206800
1438.89030029,0.01353307
1440.81910767,0.01401113
1442.74791504,0.01303568
1444.67672241,0.01363319
1446.60552979,0.01254452
1448.53433716,0.01274667
1450.46314453,0.01326253
1452.39195190,0.01359460
1454.32075928,0.01400012
1456.24956665,0.01153720
1458.17837402,0.01192830
1460.10718140,0.01602891
1462.03598877,0.01738037
1463.96479614,0.01692515
1465.89360352,0.01755317
1467.82241089,0.02001938
1469.75121826,0.02149224
1471.68002563,0.01945289
1473.60883301,0.02016849
1475.53764038,0.02280580
1477.46644775,0.02479647
1479.39525513,0.02745606
1481.32406250,0.02771237
1483.25286987,0.02911244
1485.18167725,0.03034994
1487.11048462,0.02994595
1489.03929199,0.02945247
1490.96809937,0.02954953
1492.89690674,0.03447226
1494.82571411,0.03370158
1496.75452148,0.03024374
1498.68332886,0.03439927
1500.61213623,0.03558718
1502.54094360,0.03808935
1504.46975098,0.03613125
1506.39855835,0.02605759
1508.32736572,0.03162513
1510.25617310,0.03755097
1512.18498047,0.03643321
1514.11378784,0.03958432
1516.04259521,0.03546283
1517.97140259,0.03679826
1519.90020996,0.03584760
1521.82901733,0.03078857
1523.75782471,0.03778166
1525.68663208,0.03736785
1527.61543945,0.03728330
1529.54424683,0.04116054
1531.47305420,0.03940643
1533.40186157,0.03632027
1535.33066895,0.03842975
1537.25947632,0.04125500
1539.18828369,0.02939824
1541.11709106,0.03046336
1543.04589844,0.03691030
1544.97470581,0.03522991
1546.90351318,0.04197907
1548.83232056,0.03917514
1550.76112793,0.04023264
1552.68993530,0.04028904
1554.61874268,0.03619983
1556.54755005,0.03886837
1558.47635742,0.02747989
1560.40516479,0.02935398
1562.33397217,0.04227484
1564.26277954,0.04004141
1566.19158691,0.04108566
1568.12039429,0.04070254
1570.04920166,0.03573582
1571.97800903,0.04132006
1573.90681641,0.04197185
1575.83562378,0.03304196
1577.76443115,0.03728113
1579.69323853,0.04204151
1581.62204590,0.04033458
1583.55085327,0.04136685
1585.47966064,0.04052669
1587.40846802,0.04100882
1589.33727539,0.04055278
1591.26608276,0.04047199
1593.19489014,0.04047279
1595.12369751,0.03977060
1597.05250488,0.04035542
1598.98131226,0.03997234
1600.91011963,0.04009027
1602.83892700,0.03920519
1604.76773437,0.03982648
1606.69654175,0.03913794
1608.62534912,0.03889035
1610.55415649,0.03877173
1612.48296387,0.03881037
1614.41177124,0.03937861
1616.34057861,0.03175912
1618.26938599,0.03422459
1620.19819336,0.04012865
1622.12700073,0.03536680
1624.05580811,0.03538767
1625.98461548,0.03720745
1627.91342285,0.03714756
1629.84223022,0.03663699
1631.77103760,0.03920604
1633.69984497,0.03627653
1635.62865234,0.02953550
1637.55745972,0.03464302
1639.48626709,0.03842025
1641.41507446,0.03754582
1643.34388184,0.03861970
1645.27268921,0.03494546
1647.20149658,0.03080935
1649.13030396,0.03851863
1651.05911133,0.03683230
1652.98791870,0.02344495
1654.91672607,0.03193137
1656.84553345,0.04071285
1658.77434082,0.03910582
1660.70314819,0.04046569
1662.63195557,0.03691022
1664.56076294,0.03895567
1666.48957031,0.04227199
1668.41837769,0.03704388
1670.34718506,0.03605103
1672.27599243,0.04122063
1674.20479980,0.03824377
1676.13360718,0.03672230
1678.06241455,0.04253250
1679.99122192,0.04133609
1681.92002930,0.04109763
1683.84883667,0.03340571
1685.77764404,0.03289189
1687.70645142,0.04575574
1689.63525879,0.03998996
1691.56406616,0.04389490
1693.49287354,0.04524157
1695.42168091,0.03280129
1697.35048828,0.04075140
1699.27929565,0.03624097
1701.20810303,0.03224786
1703.13691040,0.04453526
1705.06571777,0.04088589
1706.99452515,0.04122470
1708.92333252,0.04520819
1710.85213989,0.04322715
1712.78094727,0.04426686
1714.70975464,0.04129482
1716.63856201,0.03692902
1718.56736938,0.03632211
1720.49617676,0.04343903
1722.42498413,0.04539718
1724.35379150,0.04184950
1726.28259888,0.04563662
1728.21140625,0.04243396
1730.14021362,0.04273447
1732.06902100,0.04179420
1733.99782837,0.03163198
1735.92663574,0.03938844
1737.85544312,0.04404368
1739.78425049,0.03903253
1741.71305786,0.04258520
1743.64186523,0.04340765
1745.57067261,0.04338842
1747.49947998,0.04367479
1749.42828735,0.04184111
1751.35709473,0.04021170
1753.28590210,0.04444766
1755.21470947,0.04665000
1757.14351685,0.04243144
1759.07232422,0.04679840
1761.00113159,0.04437080
1762.92993896,0.04247967
1764.85874634,0.04892170
1766.78755371,0.04401799
1768.71636108,0.04426177
1770.64516846,0.04426344
1772.57397583,0.03945822
1774.50278320,0.04431058
1776.43159058,0.04696095
1778.36039795,0.04624536
1780.28920532,0.04582345
1782.21801270,0.04612402
1784.14682007,0.04617873
1786.07562744,0.04520388
1788.00443481,0.04773253
1789.93324219,0.04662510
1791.86204956,0.04191978
1793.79085693,0.04372978
1795.71966431,0.04703790
1797.64847168,0.04651216
1799.57727905,0.04567825
1801.50608643,0.04488935
1803.43489380,0.04658100
1805.36370117,0.04757860
1807.29250854,0.04703482
1809.22131592,0.04736035
1811.15012329,0.04596832
1813.07893066,0.04743049
1815.00773804,0.04764418
1816.93654541,0.04705515
1818.86535278,0.04758863
1820.79416016,0.04742650
1822.72296753,0.04824065
1824.65177490,0.04481763
1826.58058228,0.04645855
1828.50938965,0.04683716
1830.43819702,0.04370282
1832.36700439,0.04783913
1834.29581177,0.04755746
1836.22461914,0.04746393
1838.15342651,0.04754126
1840.08223389,0.04779936
1842.01104126,0.04801496
1843.93984863,0.04236310
1845.86865601,0.04511730
1847.79746338,0.04785868
1849.72627075,0.04681653
1851.65507812,0.04832644
1853.58388550,0.04729486
1855.51269287,0.04782669
1857.44150024,0.04745137
1859.37030762,0.04717173
1861.29911499,0.04773438
1863.22792236,0.04698597
1865.15672974,0.04758461
1867.08553711,0.04623998
1869.01434448,0.04411076
1870.94315186,0.04571610
1872.87195923,0.04767648
1874.80076660,0.04706984
1876.72957397,0.04737254
1878.65838135,0.04712865
1880.58718872,0.04696751
1882.51599609,0.04760152
1884.44480347,0.04653896
1886.37361084,0.04729105
1888.30241821,0.04641793
1890.23122559,0.04538462
1892.16003296,0.04716764
1894.08884033,0.04644426
1896.01764771,0.04639736
1897.94645508,0.04707461
1899.87526245,0.04681211
1901.80406982,0.04696745
1903.73287720,0.04664296
1905.66168457,0.04687651
1907.59049194,0.04639089
1909.51929932,0.04620801
1911.44810669,0.04649243
1913.37691406,0.04647647
1915.30572144,0.04700752
1917.23452881,0.04482307
1919.16333618,0.04490789
1921.09214355,0.04677497
1923.02095093,0.04522937
1924.94975830,0.04622350
1926.87856567,0.04678230
1928.80737305,0.04615124
1930.73618042,0.04662038
1932.66498779,0.04602722
1934.59379517,0.04667363
1936.52260254,0.04636363
1938.45140991,0.04636944
1940.38021729,0.04642041
1942.30902466,0.04504509
1944.23783203,0.04576607
1946.16663940,0.04632285
1948.09544678,0.04624957
1950.02425415,0.04622788
1951.95306152,0.04633067
1953.88186890,0.04643736
1955.81067627,0.04616149
1957.73948364,0.04642788
1959.66829102,0.04621276
1961.59709839,0.04611938
1963.52590576,0.04635340
1965.45471313,0.04615307
1967.38352051,0.04572943
1969.31232788,0.04609597
1971.24113525,0.04641036
1973.16994263,0.04600742
1975.09875000,0.04628721
1977.02755737,0.04616444
1978.95636475,0.04614392
1980.88517212,0.04603919
1982.81397949,0.04597747
1984.74278687,0.04631201
1986.67159424,0.04578928
1988.60040161,0.04590625
1990.52920898,0.04553789
1992.45801636,0.04511574
1994.38682373,0.04588902
1996.31563110,0.04590636
1998.24443848,0.04572182
2000.17324585,0.04577351
2002.10205322,0.04559764
2004.03086060,0.04552609
2005.95966797,0.04546276
2007.88847534,0.04530241
2009.81728271,0.04536444
2011.74609009,0.04523181
2013.67489746,0.04523113
2015.60370483,0.04502872
2017.53251221,0.04457748
2019.46131958,0.04499322
2021.39012695,0.04488721
2023.31893433,0.04486530
2025.24774170,0.04502949
2027.17654907,0.04466778
2029.10535645,0.04474134
2031.03416382,0.04456218
2032.96297119,0.04458001
2034.89177856,0.04459754
2036.82058594,0.04439261
2038.74939331,0.04438296
2040.67820068,0.04415868
2042.60700806,0.04406630
2044.53581543,0.04413406
2046.46462280,0.04418333
2048.39343018,0.04393425
2050.32223755,0.04387375
2052.25104492,0.04394322
2054.17985229,0.04377110
2056.10865967,0.04379095
2058.03746704,0.04371334
2059.96627441,0.04358941
2061.89508179,0.04354088
2063.82388916,0.04338980
2065.75269653,0.04330245
2067.68150391,0.04341485
2069.61031128,0.04338766
2071.53911865,0.04328847
2073.46792603,0.04319192
2075.39673340,0.04315626
2077.32554077,0.04320551
2079.25434814,0.04293498
2081.18315552,0.04296942
2083.11196289,0.04303030
2085.04077026,0.04292215
2086.96957764,0.04291659
2088.89838501,0.04274230
2090.82719238,0.04271761
2092.75599976,0.04261597
2094.68480713,0.04267425
2096.61361450,0.04272575
2098.54242187,0.04255439
2100.47122925,0.04248971
2102.40003662,0.04248340
2104.32884399,0.04247721
2106.25765137,0.04221230
2108.18645874,0.04221328
2110.11526611,0.04233294
2112.04407349,0.04235643
2113.97288086,0.04234993
2115.90168823,0.04221047
2117.83049561,0.04227204
2119.75930298,0.04219362
2121.68811035,0.04211363
2123.61691772,0.04210177
2125.54572510,0.04203228
2127.47453247,0.04201928
2129.40333984,0.04198281
2131.33214722,0.04191252
2133.26095459,0.04182734
2135.18976196,0.04179074
2137.11856934,0.04169274
2139.04737671,0.04170591
2140.97618408,0.04173785
2142.90499146,0.04184981
2144.83379883,0.04179309
2146.76260620,0.04158618
2148.69141357,0.04171872
2150.62022095,0.04159763
2152.54902832,0.04161427
2154.47783569,0.04174864
2156.40664307,0.04160208
2158.33545044,0.04155192
2160.26425781,0.04149580
2162.19306519,0.04161057
2164.12187256,0.04164527
2166.05067993,0.04150439
2167.97948730,0.04150746
2169.90829468,0.04153107
2171.83710205,0.04145434
2173.76590942,0.04144466
2175.69471680,0.04143138
2177.62352417,0.04135129
2179.55233154,0.04138936
2181.48113892,0.04139123
2183.40994629,0.04150667
2185.33875366,0.04143855
2187.26756104,0.04126849
2189.19636841,0.04142601
2191.12517578,0.04133257
2193.05398315,0.04110439
2194.98279053,0.04112256
2196.91159790,0.04117878
2198.84040527,0.04115060
2200.76921265,0.04113803
2202.69802002,0.04106326
2204.62682739,0.04106515
2206.55563477,0.04116601
2208.48444214,0.04114832
2210.41324951,0.04108422
2212.34205688,0.04098567
2214.27086426,0.04109852
2216.19967163,0.04101357
2218.12847900,0.04090380
2220.05728638,0.04103211
2221.98609375,0.04087195
2223.91490112,0.04090980
2225.84370850,0.04088770
2227.77251587,0.04073664
2229.70132324,0.04087922
2231.63013062,0.04085090
2233.55893799,0.04067892
2235.48774536,0.04071884
2237.41655273,0.04077213
2239.34536011,0.04066227
2241.27416748,0.04059064
2243.20297485,0.04045509
2245.13178223,0.04045124
2247.06058960,0.04040808
2248.98939697,0.04032557
2250.91820435,0.04045194
2252.84701172,0.04035748
2254.77581909,0.04041526
2256.70462646,0.04049927
2258.63343384,0.04038666
2260.56224121,0.04023780
2262.49104858,0.04008374
2264.41985596,0.04016511
2266.34866333,0.04019468
2268.27747070,0.04015523
2270.20627808,0.04007049
2272.13508545,0.04005165
2274.06389282,0.04012727
2275.99270020,0.04011707
2277.92150757,0.04012600
2279.85031494,0.04010908
2281.77912231,0.04004253
2283.70792969,0.04000854
2285.63673706,0.04004455
2287.56554443,0.03994671
2289.49435181,0.03988742
2291.42315918,0.03980963
2293.35196655,0.03969126
2295.28077393,0.03968622
2297.20958130,0.03948908
2299.13838867,0.03933474
2301.06719604,0.03924760
2302.99600342,0.03917483
2304.92481079,0.03901433
2306.85361816,0.03874334
2308.78242554,0.03844296
2310.71123291,0.03812506
2312.64004028,0.03795538
2314.56884766,0.03757127
2316.49765503,0.03712852
2318.42646240,0.03662895
2320.35526978,0.03610297
2322.28407715,0.03560742
2324.21288452,0.03515943
2326.14169189,0.03488600
2328.07049927,0.03433815
2329.99930664,0.03409931
2331.92811401,0.03390720
2333.85692139,0.03354433
2335.78572876,0.03355118
2337.71453613,0.03361239
2339.64334351,0.03351530
2341.57215088,0.03357316
2343.50095825,0.03421021
2345.42976562,0.03476157
2347.35857300,0.03624988
2349.28738037,0.03752180
2351.21618774,0.03615314
2353.14499512,0.03436374
2355.07380249,0.03306644
2357.00260986,0.03220430
2358.93141724,0.03164152
2360.86022461,0.03122334
2362.78903198,0.03126267
2364.71783936,0.03125060
2366.64664673,0.03178053
2368.57545410,0.03248365
2370.50426147,0.03327212
2372.43306885,0.03423198
2374.36187622,0.03513458
2376.29068359,0.03624389
2378.21949097,0.03703147
2380.14829834,0.03770074
2382.07710571,0.03814889
2384.00591309,0.03846554
2385.93472046,0.03866955
2387.86352783,0.03858165
2389.79233521,0.03858938
2391.72114258,0.03856023
2393.64994995,0.03867538
2395.57875732,0.03862613
2397.50756470,0.03853997
2399.43637207,0.03863969
2401.36517944,0.03852977
2403.29398682,0.03846796
2405.22279419,0.03844388
2407.15160156,0.03840806
2409.08040894,0.03843018
2411.00921631,0.03847343
2412.93802368,0.03831954
2414.86683105,0.03819422
2416.79563843,0.03828902
2418.72444580,0.03821861
2420.65325317,0.03821976
2422.58206055,0.03821925
2424.51086792,0.03809289
2426.43967529,0.03811012
2428.36848267,0.03813376
2430.29729004,0.03814845
2432.22609741,0.03806506
2434.15490479,0.03794147
2436.08371216,0.03806163
2438.01251953,0.03804037
2439.94132690,0.03795292
2441.87013428,0.03798585
2443.79894165,0.03783306
2445.72774902,0.03789976
2447.65655640,0.03790798
2449.58536377,0.03774913
2451.51417114,0.03782444
2453.44297852,0.03776385
2455.37178589,0.03771123
2457.30059326,0.03764275
2459.22940063,0.03761892
2461.15820801,0.03774323
2463.08701538,0.03771516
2465.01582275,0.03762659
2466.94463013,0.03751464
2468.87343750,0.03750256
2470.80224487,0.03750248
2472.73105225,0.03752944
2474.65985962,0.03756799
2476.58866699,0.03745065
2478.51747437,0.03742734
2480.44628174,0.03735356
2482.37508911,0.03728136
2484.30389648,0.03737021
2486.23270386,0.03728154
2488.16151123,0.03715578
2490.09031860,0.03719585
2492.01912598,0.03717427
2493.94793335,0.03715135
2495.87674072,0.03717576
2497.80554810,0.03721405
2499.73435547,0.03723329
2501.66316284,0.03707971
2503.59197021,0.03704438
2505.52077759,0.03708946
2507.44958496,0.03699726
2509.37839233,0.03695487
2511.30719971,0.03695619
2513.23600708,0.03695837
2515.16481445,0.03690138
2517.09362183,0.03682654
2519.02242920,0.03680053
2520.95123657,0.03682870
2522.88004395,0.03681424
2524.80885132,0.03671725
2526.73765869,0.03671523
2528.66646606,0.03670458
2530.59527344,0.03668085
2532.52408081,0.03665925
2534.45288818,0.03657407
2536.38169556,0.03660379
2538.31050293,0.03656101
2540.23931030,0.03638211
2542.16811768,0.03645322
2544.09692505,0.03647407
2546.02573242,0.03630866
2547.95453979,0.03639517
2549.88334717,0.03648019
2551.81215454,0.03638876
2553.74096191,0.03632811
2555.66976929,0.03631492
2557.59857666,0.03625256
2559.52738403,0.03623056
2561.45619141,0.03619414
2563.38499878,0.03603022
2565.31380615,0.03613494
2567.24261353,0.03619742
2569.17142090,0.03611632
2571.10022827,0.03618243
2573.02903564,0.03605401
2574.95784302,0.03591749
2576.88665039,0.03595438
2578.81545776,0.03599275
2580.74426514,0.03589909
2582.67307251,0.03585079
2584.60187988,0.03592733
2586.53068726,0.03587881
2588.45949463,0.03574245
2590.38830200,0.03571003
2592.31710937,0.03575980
2594.24591675,0.03564416
2596.17472412,0.03567434
2598.10353149,0.03562740
2600.03233887,0.03548627
2601.96114624,0.03553164
2603.88995361,0.03540434
2605.81876099,0.03559420
2607.74756836,0.03553073
2609.67637573,0.03534211
2611.60518311,0.03560428
2613.53399048,0.03542918
2615.46279785,0.03543348
2617.39160522,0.03543079
2619.32041260,0.03518011
2621.24921997,0.03529651
2623.17802734,0.03522042
2625.10683472,0.03520148
2627.03564209,0.03535439
2628.96444946,0.03517435
2630.89325684,0.03501302
2632.82206421,0.03507817
2634.75087158,0.03505442
2636.67967895,0.03498707
2638.60848633,0.03492150
2640.53729370,0.03489548
2642.46610107,0.03500034
2644.39490845,0.03493950
2646.32371582,0.03490713
2648.25252319,0.03500493
2650.18133057,0.03487328
2652.11013794,0.03473002
2654.03894531,0.03475739
2655.96775269,0.03472407
2657.89656006,0.03468143
2659.82536743,0.03466291
2661.75417480,0.03459957
2663.68298218,0.03458192
2665.61178955,0.03452133
2667.54059692,0.03446016
2669.46940430,0.03447264
2671.39821167,0.03450208
2673.32701904,0.03440590
2675.25582642,0.03434218
2677.18463379,0.03437486
2679.11344116,0.03424383
2681.04224854,0.03426539
2682.97105591,0.03424592
2684.89986328,0.03420070
2686.82867065,0.03424542
2688.75747803,0.03410791
2690.68628540,0.03407770
2692.61509277,0.03397547
2694.54390015,0.03399774
2696.47270752,0.03403302
2698.40151489,0.03387708
2700.33032227,0.03389733
2702.25912964,0.03385174
2704.18793701,0.03381035
2706.11674438,0.03379981
2708.04555176,0.03388152
2709.97435913,0.03388464
2711.90316650,0.03376225
2713.83197388,0.03368650
2715.76078125,0.03356402
2717.68958862,0.03368578
2719.61839600,0.03367320
2721.54720337,0.03361274
2723.47601074,0.03361678
2725.40481812,0.03351130
2727.33362549,0.03356778
2729.26243286,0.03345314
2731.19124023,0.03339826
2733.12004761,0.03338153
2735.04885498,0.03317475
2736.97766235,0.03320494
2738.90646973,0.03332033
2740.83527710,0.03317554
2742.76408447,0.03304132
2744.69289185,0.03311820
2746.62169922,0.03306051
2748.55050659,0.03301226
2750.47931396,0.03305560
2752.40812134,0.03298343
2754.33692871,0.03281657
2756.26573608,0.03273949
2758.19454346,0.03286594
2760.12335083,0.03281705
2762.05215820,0.03268439
2763.98096558,0.03271031
2765.90977295,0.03275600
2767.83858032,0.03265863
2769.76738770,0.03256457
2771.69619507,0.03256668
2773.62500244,0.03247025
2775.55380981,0.03248829
2777.48261719,0.03243837
2779.41142456,0.03233254
2781.34023193,0.03236511
2783.26903931,0.03223997
2785.19784668,0.03210934
2787.12665405,0.03210699
2789.05546143,0.03216461
2790.98426880,0.03212462
2792.91307617,0.03196329
2794.84188354,0.03190350
2796.77069092,0.03193829
2798.69949829,0.03191964
2800.62830566,0.03181861
2802.55711304,0.03173680
2804.48592041,0.03176459
2806.41472778,0.03177464
2808.34353516,0.03166988
2810.27234253,0.03166182
2812.20114990,0.03157137
2814.12995728,0.03149514
2816.05876465,0.03152900
2817.98757202,0.03139834
2819.91637939,0.03137581
2821.84518677,0.03131744
2823.77399414,0.03126378
2825.70280151,0.03121056
2827.63160889,0.03103681
2829.56041626,0.03109384
2831.48922363,0.03106042
2833.41803101,0.03094056
2835.34683838,0.03090059
2837.27564575,0.03086015
2839.20445312,0.03082184
2841.13326050,0.03065751
2843.06206787,0.03056887
2844.99087524,0.03055625
2846.91968262,0.03036889
2848.84848999,0.03014939
2850.77729736,0.03011528
2852.70610474,0.03008340
2854.63491211,0.03002965
2856.56371948,0.02998997
2858.49252686,0.02998354
2860.42133423,0.02998894
2862.35014160,0.02984801
2864.27894897,0.02984050
2866.20775635,0.02981801
2868.13656372,0.02977255
2870.06537109,0.02979953
2871.99417847,0.02969112
2873.92298584,0.02977371
2875.85179321,0.02979049
2877.78060059,0.02957084
2879.70940796,0.02950708
2881.63821533,0.02951388
2883.56702270,0.02943356
2885.49583008,0.02944855
2887.42463745,0.02949471
2889.35344482,0.02936941
2891.28225220,0.02927104
2893.21105957,0.02916747
2895.13986694,0.02910602
2897.06867432,0.02909636
2898.99748169,0.02900631
2900.92628906,0.02894127
2902.85509644,0.02890155
2904.78390381,0.02883566
2906.71271118,0.02866812
2908.64151855,0.02856845
2910.57032593,0.02851752
2912.49913330,0.02842361
2914.42794067,0.02829605
2916.35674805,0.02815038
2918.28555542,0.02811668
2920.21436279,0.02812105
2922.14317017,0.02810654
2924.07197754,0.02791992
2926.00078491,0.02785520
2927.92959229,0.02787931
2929.85839966,0.02780145
2931.78720703,0.02785683
2933.71601440,0.02775329
2935.64482178,0.02769018
2937.57362915,0.02766537
2939.50243652,0.02772120
2941.43124390,0.02785413
2943.36005127,0.02772667
2945.28885864,0.02769152
2947.21766602,0.02753077
2949.14647339,0.02751631
2951.07528076,0.02759660
2953.00408813,0.02736244
2954.93289551,0.02740138
2956.86170288,0.02735776
2958.79051025,0.02718766
2960.71931763,0.02714470
2962.64812500,0.02698319
2964.57693237,0.02698705
2966.50573975,0.02697949
2968.43454712,0.02681354
2970.36335449,0.02688934
2972.29216187,0.02694756
2974.22096924,0.02682715
2976.14977661,0.02683550
2978.07858398,0.02690631
2980.00739136,0.02688028
2981.93619873,0.02675707
2983.86500610,0.02684415
2985.79381348,0.02686644
2987.72262085,0.02668395
2989.65142822,0.02674784
2991.58023560,0.02667760
2993.50904297,0.02657953
2995.43785034,0.02652506
2997.36665771,0.02636682
2999.29546509,0.02640818
3001.22427246,0.02637287
3003.15307983,0.02629649
3005.08188721,0.02628412
3007.01069458,0.02622796
3008.93950195,0.02615685
3010.86830933,0.02606986
3012.79711670,0.02597787
3014.72592407,0.02580992
3016.65473145,0.02570606
3018.58353882,0.02572633
3020.51234619,0.02567358
3022.44115356,0.02554596
3024.36996094,0.02549965
3026.29876831,0.02540678
3028.22757568,0.02535805
3030.15638306,0.02526733
3032.08519043,0.02506420
3034.01399780,0.02509742
3035.94280518,0.02502881
3037.87161255,0.02498414
3039.80041992,0.02489733
3041.72922729,0.02466017
3043.65803467,0.02478812
3045.58684204,0.02475610
3047.51564941,0.02455310
3049.44445679,0.02448564
3051.37326416,0.02447964
3053.30207153,0.02442993
3055.23087891,0.02421350
3057.15968628,0.02412809
3059.08849365,0.02401291
3061.01730103,0.02396714
3062.94610840,0.02394441
3064.87491577,0.02373937
3066.80372314,0.02380485
3068.73253052,0.02382159
3070.66133789,0.02358963
3072.59014526,0.02352879
3074.51895264,0.02348691
3076.44776001,0.02334034
3078.37656738,0.02327310
3080.30537476,0.02319258
3082.23418213,0.02306219
3084.16298950,0.02299261
3086.09179687,0.02298360
3088.02060425,0.02296244
3089.94941162,0.02288185
3091.87821899,0.02280301
3093.80702637,0.02260759
3095.73583374,0.02247088
3097.66464111,0.02250340
3099.59344849,0.02230470
3101.52225586,0.02209012
3103.45106323,0.02214149
3105.37987061,0.02212648
3107.30867798,0.02199523
3109.23748535,0.02191224
3111.16629272,0.02174859
3113.09510010,0.02161265
3115.02390747,0.02165026
3116.95271484,0.02155662
3118.88152222,0.02136819
3120.81032959,0.02127249
3122.73913696,0.02107445
3124.66794434,0.02096303
3126.59675171,0.02097212
3128.52555908,0.02084396
3130.45436645,0.02083049
3132.38317383,0.02064591
3134.31198120,0.02041542
3136.24078857,0.02054497
3138.16959595,0.02042909
3140.09840332,0.02025483
3142.02721069,0.02019114
3143.95601807,0.02007379
3145.88482544,0.02000826
3147.81363281,0.01981122
3149.74244019,0.01965987
3151.67124756,0.01959456
3153.60005493,0.01955565
3155.52886230,0.01945191
3157.45766968,0.01927919
3159.38647705,0.01924066
3161.31528442,0.01916146
3163.24409180,0.01898024
3165.17289917,0.01883752
3167.10170654,0.01875428
3169.03051392,0.01860262
3170.95932129,0.01850519
3172.88812866,0.01844453
3174.81693604,0.01833330
3176.74574341,0.01834105
3178.67455078,0.01820749
3180.60335815,0.01796276
3182.53216553,0.01792867
3184.46097290,0.01793939
3186.38978027,0.01788567
3188.31858765,0.01787752
3190.24739502,0.01770554
3192.17620239,0.01754475
3194.10500977,0.01756235
3196.03381714,0.01742854
3197.96262451,0.01735299
3199.89143188,0.01728609
3201.82023926,0.01717773
3203.74904663,0.01712845
3205.67785400,0.01711248
3207.60666138,0.01705527
3209.53546875,0.01687170
3211.46427612,0.01688190
3213.39308350,0.01678190
3215.32189087,0.01675467
3217.25069824,0.01679971
3219.17950562,0.01658303
3221.10831299,0.01656922
3223.03712036,0.01654152
3224.96592773,0.01656953
3226.89473511,0.01652295
3228.82354248,0.01637805
3230.75234985,0.01644277
3232.68115723,0.01641638
3234.60996460,0.01630336
3236.53877197,0.01620609
3238.46757935,0.01626564
3240.39638672,0.01617134
3242.32519409,0.01614401
3244.25400146,0.01614070
3246.18280884,0.01594942
3248.11161621,0.01610183
3250.04042358,0.01603154
3251.96923096,0.01602050
3253.89803833,0.01611578
3255.82684570,0.01589125
3257.75565308,0.01595693
3259.68446045,0.01598515
3261.61326782,0.01591181
3263.54207520,0.01585648
3265.47088257,0.01574692
3267.39968994,0.01586849
3269.32849731,0.01588743
3271.25730469,0.01576733
3273.18611206,0.01581380
3275.11491943,0.01577780
3277.04372681,0.01578631
3278.97253418,0.01584348
3280.90134155,0.01572844
3282.83014893,0.01573844
3284.75895630,0.01571427
3286.68776367,0.01567077
3288.61657104,0.01569995
3290.54537842,0.01570450
3292.47418579,0.01568330
3294.40299316,0.01559898
3296.33180054,0.01559176
3298.26060791,0.01558906
3300.18941528,0.01572727
3302.11822266,0.01566995
3304.04703003,0.01553523
3305.97583740,0.01560147
3307.90464478,0.01553156
3309.83345215,0.01555370
3311.76225952,0.01541304
3313.69106689,0.01541001
3315.61987427,0.01546806
3317.54868164,0.01529375
3319.47748901,0.01539502
3321.40629639,0.01551632
3323.33510376,0.01550116
3325.26391113,0.01534186
3327.19271851,0.01536615
3329.12152588,0.01536079
3331.05033325,0.01530724
3332.97914062,0.01545725
3334.90794800,0.01532017
3336.83675537,0.01527362
3338.76556274,0.01532510
3340.69437012,0.01531774
3342.62317749,0.01533085
3344.55198486,0.01533957
3346.48079224,0.01524232
3348.40959961,0.01514388
3350.33840698,0.01527488
3352.26721436,0.01517183
3354.19602173,0.01514428
3356.12482910,0.01524717
3358.05363647,0.01525365
3359.98244385,0.01514705
3361.91125122,0.01502049
3363.84005859,0.01513491
3365.76886597,0.01509676
3367.69767334,0.01508403
3369.62648071,0.01508336
3371.55528809,0.01513352
3373.48409546,0.01520884
3375.41290283,0.01508986
3377.34171020,0.01509096
3379.27051758,0.01513532
3381.19932495,0.01516124
3383.12813232,0.01505903
3385.05693970,0.01509371
3386.98574707,0.01517810
3388.91455444,0.01512932
3390.84336182,0.01510374
3392.77216919,0.01514393
3394.70097656,0.01520479
3396.62978394,0.01508881
3398.55859131,0.01521516
3400.48739868,0.01518916
3402.41620605,0.01512272
3404.34501343,0.01520356
3406.27382080,0.01519387
3408.20262817,0.01532256
3410.13143555,0.01521085
3412.06024292,0.01529241
3413.98905029,0.01529106
3415.91785767,0.01529621
3417.84666504,0.01539909
3419.77547241,0.01520553
3421.70427979,0.01531827
3423.63308716,0.01537294
3425.56189453,0.01545639
3427.49070190,0.01542218
3429.41950928,0.01540936
3431.34831665,0.01551610
3433.27712402,0.01542955
3435.20593140,0.01550783
3437.13473877,0.01548712
3439.06354614,0.01558015
3440.99235352,0.01546723
3442.92116089,0.01545203
3444.84996826,0.01559214
3446.77877563,0.01542139
3448.70758301,0.01553671
3450.63639038,0.01566795
3452.56519775,0.01577448
3454.49400513,0.01575300
3456.42281250,0.01573041
3458.35161987,0.01569456
3460.28042725,0.01569068
3462.20923462,0.01585514
3464.13804199,0.01585580
3466.06684937,0.01589511
3467.99565674,0.01578648
3469.92446411,0.01598793
3471.85327148,0.01605136
3473.78207886,0.01584398
3475.71088623,0.01596965
3477.63969360,0.01602552
3479.56850098,0.01604625
3481.49730835,0.01591215
3483.42611572,0.01612334
3485.35492310,0.01623305
3487.28373047,0.01611376
3489.21253784,0.01622755
3491.14134521,0.01627552
3493.07015259,0.01636121
3494.99895996,0.01623335
3496.92776733,0.01630815
3498.85657471,0.01636112
3500.78538208,0.01638007
3502.71418945,0.01624452
3504.64299683,0.01614722
3506.57180420,0.01664761
3508.50061157,0.01648423
3510.42941895,0.01635303
3512.35822632,0.01664263
3514.28703369,0.01677721
3516.21584106,0.01680761
3518.14464844,0.01671718
3520.07345581,0.01683998
3522.00226318,0.01670904
3523.93107056,0.01657010
3525.85987793,0.01666855
3527.78868530,0.01671112
3529.71749268,0.01669904
3531.64630005,0.01693084
3533.57510742,0.01718348
3535.50391479,0.01705761
3537.43272217,0.01702040
3539.36152954,0.01712967
3541.29033691,0.01721402
3543.21914429,0.01708620
3545.14795166,0.01682939
3547.07675903,0.01662448
3549.00556641,0.01709107
3550.93437378,0.01728028
3552.86318115,0.01688434
3554.79198853,0.01737499
3556.72079590,0.01747024
3558.64960327,0.01735519
3560.57841064,0.01720238
3562.50721802,0.01719160
3564.43602539,0.01748518
3566.36483276,0.01625241
3568.29364014,0.01592119
3570.22244751,0.01727791
3572.15125488,0.01775467
3574.08006226,0.01758000
3576.00886963,0.01764727
3577.93767700,0.01758212
3579.86648437,0.01758160
3581.79529175,0.01764110
3583.72409912,0.01775157
3585.65290649,0.01756081
3587.58171387,0.01601918
3589.51052124,0.01650697
3591.43932861,0.01802842
3593.36813599,0.01743241
3595.29694336,0.01722690
3597.22575073,0.01761598
3599.15455811,0.01780567
3601.08336548,0.01753835
3603.01217285,0.01793868
3604.94098022,0.01836111
3606.86978760,0.01750945
3608.79859497,0.01663157
3610.72740234,0.01700441
3612.65620972,0.01741120
3614.58501709,0.01697187
3616.51382446,0.01823545
3618.44263184,0.01686706
3620.37143921,0.01623770
3622.30024658,0.01840327
3624.22905395,0.01788491
3626.15786133,0.01886671
3628.08666870,0.01599824
3630.01547607,0.01445780
3631.94428345,0.01842208
3633.87309082,0.01804413
3635.80189819,0.01829605
3637.73070557,0.01869575
3639.65951294,0.01844969
3641.58832031,0.01865147
3643.51712769,0.01846383
3645.44593506,0.01864303
3647.37474243,0.01683098
3649.30354980,0.01544341
3651.23235718,0.01557565
3653.16116455,0.01863014
3655.08997192,0.01840441
3657.01877930,0.01649918
3658.94758667,0.01909911
3660.87639404,0.01873563
3662.80520142,0.01897225
3664.73400879,0.01900094
3666.66281616,0.01882333
3668.59162354,0.01826252
3670.52043091,0.01491332
3672.44923828,0.01805136
3674.37804565,0.01737237
3676.30685303,0.01419149
3678.23566040,0.01798681
3680.16446777,0.01860643
3682.09327515,0.01846291
3684.02208252,0.01924068
3685.95088989,0.01877314
3687.87969727,0.01694706
3689.80850464,0.01569739
3691.73731201,0.01774466
3693.66611938,0.01838127
3695.59492676,0.01880930
3697.52373413,0.01889453
3699.45254150,0.01866876
3701.38134888,0.01817618
3703.31015625,0.01742304
3705.23896362,0.01920769
3707.16777100,0.01840107
3709.09657837,0.01780792
3711.02538574,0.01694683
3712.95419312,0.01576903
3714.88300049,0.01854851
3716.81180786,0.01844914
3718.74061523,0.01838021
3720.66942261,0.01811863
3722.59822998,0.01748449
3724.52703735,0.01811516
3726.45584473,0.01675870
3728.38465210,0.01821460
3730.31345947,0.01809281
3732.24226685,0.01653520
3734.17107422,0.01618147
3736.09988159,0.01526676
3738.02868896,0.01622557
3739.95749634,0.01758935
3741.88630371,0.01844590
3743.81511108,0.01440889
3745.74391846,0.01345408
3747.67272583,0.01755610
3749.60153320,0.01505578
3751.53034058,0.01379362
3753.45914795,0.01597752
3755.38795532,0.01725562
3757.31676270,0.01789069
3759.24557007,0.01647322
3761.17437744,0.01716488
3763.10318481,0.01832291
3765.03199219,0.01702961
3766.96079956,0.01735243
3768.88960693,0.01718976
3770.81841431,0.01633446
3772.74722168,0.01782307
3774.67602905,0.01787231
3776.60483643,0.01779015
3778.53364380,0.01747213
3780.46245117,0.01667210
3782.39125854,0.01773591
3784.32006592,0.01736170
3786.24887329,0.01722443
3788.17768066,0.01767469
3790.10648804,0.01762297
3792.03529541,0.01754119
3793.96410278,0.01773125
3795.89291016,0.01667871
3797.82171753,0.01643249
3799.75052490,0.01739339
3801.67933228,0.01382347
3803.60813965,0.01600176
3805.53694702,0.01747078
3807.46575439,0.01424842
3809.39456177,0.01731583
3811.32336914,0.01693949
3813.25217651,0.01749851
3815.18098389,0.01589884
3817.10979126,0.01385999
3819.03859863,0.01755589
3820.96740601,0.01411306
3822.89621338,0.01487945
3824.82502075,0.01753493
3826.75382812,0.01577021
3828.68263550,0.01695700
3830.61144287,0.01636393
3832.54025024,0.01583096
3834.46905762,0.01617623
3836.39786499,0.01541594
3838.32667236,0.01382029
3840.25547974,0.01506566
3842.18428711,0.01623747
3844.11309448,0.01535871
3846.04190186,0.01680309
3847.97070923,0.01642471
3849.89951660,0.01647750
3851.82832397,0.01488584
3853.75713135,0.01103196
3855.68593872,0.01319127
3857.61474609,0.01654224
3859.54355347,0.01611654
3861.47236084,0.01590075
3863.40116821,0.01558857
3865.32997559,0.01445378
3867.25878296,0.01613237
3869.18759033,0.01487138
3871.11639770,0.01369592
3873.04520508,0.01628053
3874.97401245,0.01489247
3876.90281982,0.01608973
3878.83162720,0.01646422
3880.76043457,0.01395788
3882.68924194,0.01621440
3884.61804932,0.01520477
3886.54685669,0.01383049
3888.47566406,0.01618784
3890.40447144,0.01537064
3892.33327881,0.01443598
3894.26208618,0.01573822
3896.19089355,0.01612037
3898.11970093,0.01535824
3900.04850830,0.01442702
3901.97731567,0.01431899
3903.90612305,0.01415544
3905.83493042,0.01437613
3907.76373779,0.01580134
3909.69254517,0.01582624
3911.62135254,0.01565242
3913.55015991,0.01590385
3915.47896728,0.01537284
3917.40777466,0.01495399
3919.33658203,0.01484470
3921.26538940,0.01531888
3923.19419678,0.01522206
3925.12300415,0.01500004
3927.05181152,0.01535143
3928.98061890,0.01550486
3930.90942627,0.01508750
3932.83823364,0.01458054
3934.76704102,0.01520787
3936.69584839,0.01546741
3938.62465576,0.01546529
3940.55346313,0.01545634
3942.48227051,0.01486033
3944.41107788,0.01501196
3946.33988525,0.01516724
3948.26869263,0.01483023
3950.19750000,0.01482854
3952.12630737,0.01507265
3954.05511475,0.01507377
3955.98392212,0.01501525
3957.91272949,0.01505203
3959.84153687,0.01502901
3961.77034424,0.01489446
3963.69915161,0.01490387
3965.62795898,0.01499981
3967.55676636,0.01481723
3969.48557373,0.01491967
3971.41438110,0.01487885
3973.34318848,0.01480533
3975.27199585,0.01478601
3977.20080322,0.01473172
3979.12961060,0.01489275
3981.05841797,0.01463524
3982.98722534,0.01472848
3984.91603271,0.01471946
3986.84484009,0.01464230
3988.77364746,0.01468984
3990.70245483,0.01449404
3992.63126221,0.01471583
3994.56006958,0.01456174
3996.48887695,0.01454955
3998.41768433,0.01462862
4000.34649170,0.01456809
4002.27529907,0.01462126
4004.20410645,0.01444297
4006.13291382,0.01443392
4008.06172119,0.01426608
4009.99052856,0.01435421
4011.91933594,0.01440410
4013.84814331,0.01426186
4015.77695068,0.01430358
4017.70575806,0.01427121
4019.63456543,0.01427316
4021.56337280,0.01422676
4023.49218018,0.01432445
4025.42098755,0.01414524
4027.34979492,0.01404663
4029.27860229,0.01411225
4031.20740967,0.01405087
4033.13621704,0.01414359
4035.06502441,0.01410452
4036.99383179,0.01410996
4038.92263916,0.01399785
4040.85144653,0.01396104
4042.78025391,0.01397775
4044.70906128,0.01395349
4046.63786865,0.01394248
4048.56667603,0.01386631
4050.49548340,0.01389234
4052.42429077,0.01375474
4054.35309814,0.01376617
4056.28190552,0.01372307
4058.21071289,0.01372518
4060.13952026,0.01374149
4062.06832764,0.01364311
4063.99713501,0.01368776
4065.92594238,0.01351150
4067.85474976,0.01357158
4069.78355713,0.01354970
4071.71236450,0.01353761
4073.64117187,0.01363680
4075.56997925,0.01348660
4077.49878662,0.01350755
4079.42759399,0.01344620
4081.35640137,0.01343728
4083.28520874,0.01343732
4085.21401611,0.01340150
4087.14282349,0.01340195
4089.07163086,0.01343188
4091.00043823,0.01342536
4092.92924561,0.01327260
4094.85805298,0.01323595
4096.78686035,0.01322840
4098.71566772,0.01328827
4100.64447510,0.01319642
4102.57328247,0.01317669
4104.50208984,0.01312443
4106.43089722,0.01300544
4108.35970459,0.01308179
4110.28851196,0.01300832
4112.21731934,0.01309880
4114.14612671,0.01301507
4116.07493408,0.01299573
4118.00374145,0.01302912
4119.93254883,0.01290742
4121.86135620,0.01300547
4123.79016357,0.01292506
4125.71897095,0.01291762
4127.64777832,0.01284952
4129.57658569,0.01286738
4131.50539307,0.01284876
4133.43420044,0.01273520
4135.36300781,0.01278575
4137.29181519,0.01265728
4139.22062256,0.01278602
4141.14942993,0.01278762
4143.07823730,0.01265072
4145.00704468,0.01261147
4146.93585205,0.01259520
4148.86465942,0.01257747
4150.79346680,0.01249033
4152.72227417,0.01257556
4154.65108154,0.01247943
4156.57988892,0.01255248
4158.50869629,0.01252831
4160.43750366,0.01238283
4162.36631103,0.01248395
4164.29511841,0.01243322
4166.22392578,0.01239970
4168.15273315,0.01229917
4170.08154053,0.01238659
4172.01034790,0.01239211
4173.93915527,0.01227658
4175.86796265,0.01231763
4177.79677002,0.01225121
4179.72557739,0.01218707
4181.65438477,0.01211319
4183.58319214,0.01218358
4185.51199951,0.01212236
4187.44080688,0.01209391
4189.36961426,0.01213579
4191.29842163,0.01205904
4193.22722900,0.01207633
4195.15603638,0.01203433
4197.08484375,0.01205320
4199.01365112,0.01199073
4200.94245850,0.01200007
4202.87126587,0.01196438
4204.80007324,0.01189389
4206.72888062,0.01191164
4208.65768799,0.01180139
4210.58649536,0.01187111
4212.51530273,0.01182576
4214.44411011,0.01178013
4216.37291748,0.01176381
4218.30172485,0.01172631
4220.23053223,0.01175987
4222.15933960,0.01172348
4224.08814697,0.01177887
4226.01695435,0.01164910
4227.94576172,0.01164747
4229.87456909,0.01170643
4231.80337646,0.01158692
4233.73218384,0.01157918
4235.66099121,0.01159038
4237.58979858,0.01162034
4239.51860596,0.01154934
4241.44741333,0.01147353
4243.37622070,0.01145207
4245.30502808,0.01144470
4247.23383545,0.01143286
4249.16264282,0.01140857
4251.09145020,0.01134494
4253.02025757,0.01129288
4254.94906494,0.01135196
4256.87787231,0.01131780
4258.80667969,0.01125117
4260.73548706,0.01120523
4262.66429443,0.01127197
4264.59310181,0.01128066
4266.52190918,0.01122919
4268.45071655,0.01120599
4270.37952393,0.01112387
4272.30833130,0.01115799
4274.23713867,0.01106588
4276.16594604,0.01109144
4278.09475342,0.01109705
4280.02356079,0.01098405
4281.95236816,0.01098916
4283.88117554,0.01100180
4285.80998291,0.01103505
4287.73879028,0.01082759
4289.66759766,0.01093111
4291.59640503,0.01099306
4293.52521240,0.01084316
4295.45401978,0.01095837
4297.38282715,0.01091785
4299.31163452,0.01091450
4301.24044189,0.01074394
4303.16924927,0.01075260
4305.09805664,0.01087595
4307.02686401,0.01068936
4308.95567139,0.01073310
4310.88447876,0.01077272
4312.81328613,0.01069723
4314.74209351,0.01063589
4316.67090088,0.01065017
4318.59970825,0.01060181
4320.52851562,0.01056606
4322.45732300,0.01058585
4324.38613037,0.01055504
4326.31493774,0.01062604
4328.24374512,0.01055335
4330.17255249,0.01045436
4332.10135986,0.01042507
4334.03016724,0.01049261
4335.95897461,0.01044165
4337.88778198,0.01026801
4339.81658936,0.01028797
4341.74539673,0.01028134
4343.67420410,0.01027596
4345.60301147,0.01023745
4347.53181885,0.01029805
4349.46062622,0.01032107
4351.38943359,0.01027046
4353.31824097,0.01029518
4355.24704834,0.01027279
4357.17585571,0.01024415
4359.10466309,0.01014210
4361.03347046,0.01022656
4362.96227783,0.01013131
4364.89108520,0.01007994
4366.81989258,0.01022270
4368.74869995,0.01007637
4370.67750732,0.01007046
4372.60631470,0.00998766
4374.53512207,0.01000009
4376.46392944,0.01006437
4378.39273682,0.00994731
4380.32154419,0.00994902
4382.25035156,0.00989702
4384.17915894,0.00991393
4386.10796631,0.00992765
4388.03677368,0.00989063
4389.96558105,0.00982492
4391.89438843,0.00983793
4393.82319580,0.00985410
4395.75200317,0.00977178
4397.68081055,0.00974944
4399.60961792,0.00969948
4401.53842529,0.00974290
4403.46723267,0.00972256
4405.39604004,0.00970212
4407.32484741,0.00964880
4409.25365478,0.00961806
4411.18246216,0.00973053
4413.11126953,0.00965459
4415.04007690,0.00956867
4416.96888428,0.00947957
4418.89769165,0.00953018
4420.82649902,0.00953896
4422.75530640,0.00943436
4424.68411377,0.00950266
4426.61292114,0.00950702
4428.54172852,0.00947117
4430.47053589,0.00936806
4432.39934326,0.00938114
4434.32815063,0.00939050
4436.25695801,0.00935620
4438.18576538,0.00941916
4440.11457275,0.00938188
4442.04338013,0.00932984
4443.97218750,0.00922082
4445.90099487,0.00921660
4447.82980225,0.00922851
4449.75860962,0.00924804
4451.68741699,0.00921958
4453.61622437,0.00912037
4455.54503174,0.00921189
4457.47383911,0.00912649
4459.40264648,0.00907902
4461.33145386,0.00913769
4463.26026123,0.00913563
4465.18906860,0.00913315
4467.11787598,0.00902751
4469.04668335,0.00905576
4470.97549072,0.00907433
4472.90429810,0.00898625
4474.83310547,0.00899567
4476.76191284,0.00900122
4478.69072021,0.00891411
4480.61952759,0.00895838
4482.54833496,0.00895828
4484.47714233,0.00884993
4486.40594971,0.00888581
4488.33475708,0.00887126
4490.26356445,0.00888952
4492.19237183,0.00886082
4494.12117920,0.00883389
4496.04998657,0.00882326
4497.97879395,0.00875479
4499.90760132,0.00881025
4501.83640869,0.00870258
4503.76521606,0.00869466
4505.69402344,0.00875092
4507.62283081,0.00863424
4509.55163818,0.00865414
4511.48044556,0.00870117
4513.40925293,0.00863096
4515.33806030,0.00856210
4517.26686768,0.00861782
4519.19567505,0.00856122
4521.12448242,0.00848993
4523.05328979,0.00850329
4524.98209717,0.00850154
4526.91090454,0.00855099
4528.83971191,0.00852687
4530.76851929,0.00847220
4532.69732666,0.00841185
4534.62613403,0.00852255
4536.55494141,0.00852849
4538.48374878,0.00830376
4540.41255615,0.00828605
4542.34136353,0.00832808
4544.27017090,0.00833769
4546.19897827,0.00825735
4548.12778564,0.00829001
4550.05659302,0.00830054
4551.98540039,0.00817390
4553.91420776,0.00830961
4555.84301514,0.00829043
4557.77182251,0.00820184
4559.70062988,0.00818909
4561.62943726,0.00811930
4563.55824463,0.00818000
4565.48705200,0.00810207
4567.41585937,0.00808677
4569.34466675,0.00814311
4571.27347412,0.00804916
4573.20228149,0.00805108
4575.13108887,0.00803214
4577.05989624,0.00805571
4578.98870361,0.00808340
4580.91751099,0.00795661
4582.84631836,0.00792990
4584.77512573,0.00795424
4586.70393311,0.00791406
4588.63274048,0.00790063
4590.56154785,0.00794465
4592.49035522,0.00789543
4594.41916260,0.00781957
4596.34796997,0.00788248
4598.27677734,0.00785667
4600.20558472,0.00778960
4602.13439209,0.00776774
4604.06319946,0.00777877
4605.99200684,0.00782711
4607.92081421,0.00775677
4609.84962158,0.00768435
4611.77842895,0.00769579
4613.70723633,0.00772030
4615.63604370,0.00768051
4617.56485107,0.00763187
4619.49365845,0.00762015
4621.42246582,0.00759964
4623.35127319,0.00761573
4625.28008057,0.00761705
4627.20888794,0.00757001
4629.13769531,0.00748853
4631.06650269,0.00748324
4632.99531006,0.00748186
4634.92411743,0.00748734
4636.85292480,0.00748729
4638.78173218,0.00739860
4640.71053955,0.00746745
4642.63934692,0.00742106
4644.56815430,0.00736170
4646.49696167,0.00747594
4648.42576904,0.00737690
4650.35457642,0.00727977
4652.28338379,0.00730966
4654.21219116,0.00731983
4656.14099853,0.00730113
4658.06980591,0.00730045
4659.99861328,0.00726859
4661.92742065,0.00729807
4663.85622803,0.00736495
4665.78503540,0.00726280
4667.71384277,0.00723966
4669.64265015,0.00723565
4671.57145752,0.00723493
4673.50026489,0.00729838
4675.42907227,0.00724887
4677.35787964,0.00719191
4679.28668701,0.00715812
4681.21549438,0.00713817
4683.14430176,0.00712626
4685.07310913,0.00714478
4687.00191650,0.00715392
4688.93072388,0.00711158
4690.85953125,0.00707053
4692.78833862,0.00704305
4694.71714600,0.00702116
4696.64595337,0.00706578
4698.57476074,0.00708634
4700.50356812,0.00692167
4702.43237549,0.00690009
4704.36118286,0.00691385
4706.28999023,0.00687423
4708.21879761,0.00693612
4710.14760498,0.00690802
4712.07641235,0.00687374
4714.00521973,0.00682191
4715.93402710,0.00685609
4717.86283447,0.00684772
4719.79164185,0.00681479
4721.72044922,0.00684931
4723.64925659,0.00678616
4725.57806396,0.00683249
4727.50687134,0.00675117
4729.43567871,0.00675860
4731.36448608,0.00682446
4733.29329346,0.00668052
4735.22210083,0.00666691
4737.15090820,0.00666894
4739.07971558,0.00670664
4741.00852295,0.00664919
4742.93733032,0.00662525
4744.86613770,0.00667157
4746.79494507,0.00659908
4748.72375244,0.00664089
4750.65255981,0.00660418
4752.58136719,0.00651941
4754.51017456,0.00651292
4756.43898193,0.00657279
4758.36778931,0.00655908
4760.29659668,0.00643327
4762.22540405,0.00647406
4764.15421143,0.00655508
4766.08301880,0.00649796
4768.01182617,0.00641662
4769.94063354,0.00642017
4771.86944092,0.00641381
4773.79824829,0.00645854
4775.72705566,0.00643314
4777.65586304,0.00642343
4779.58467041,0.00651920
4781.51347778,0.00637899
4783.44228516,0.00631789
4785.37109253,0.00631418
4787.29989990,0.00628098
4789.22870728,0.00629338
4791.15751465,0.00624801
4793.08632202,0.00627884
4795.01512939,0.00623439
4796.94393677,0.00624658
4798.87274414,0.00631331
4800.80155151,0.00629200
4802.73035889,0.00622253
4804.65916626,0.00619359
4806.58797363,0.00626875
4808.51678101,0.00620654
4810.44558838,0.00614734
4812.37439575,0.00617804
4814.30320312,0.00616411
4816.23201050,0.00606518
4818.16081787,0.00601345
4820.08962524,0.00602322
4822.01843262,0.00600888
4823.94723999,0.00605896
4825.87604736,0.00602605
4827.80485474,0.00605990
4829.73366211,0.00604149
4831.66246948,0.00590561
4833.59127686,0.00594270
4835.52008423,0.00600140
4837.44889160,0.00600307
4839.37769897,0.00594079
4841.30650635,0.00597478
4843.23531372,0.00594350
4845.16412109,0.00587789
4847.09292847,0.00593332
4849.02173584,0.00585141
4850.95054321,0.00585510
4852.87935059,0.00583389
4854.80815796,0.00578178
4856.73696533,0.00582597
4858.66577270,0.00582022
4860.59458008,0.00587274
4862.52338745,0.00582981
4864.45219482,0.00577781
4866.38100220,0.00581344
4868.30980957,0.00577779
4870.23861694,0.00574427
4872.16742432,0.00573822
4874.09623169,0.00570680
4876.02503906,0.00564629
4877.95384644,0.00564597
4879.88265381,0.00572800
4881.81146118,0.00575568
4883.74026855,0.00570136
4885.66907593,0.00563015
4887.59788330,0.00555448
4889.52669067,0.00557654
4891.45549805,0.00563389
4893.38430542,0.00565143
4895.31311279,0.00560077
4897.24192017,0.00549127
4899.17072754,0.00549388
4901.09953491,0.00544777
4903.02834228,0.00551438
4904.95714966,0.00558864
4906.88595703,0.00543525
4908.81476440,0.00547706
4910.74357178,0.00542906
4912.67237915,0.00540019
4914.60118652,0.00551613
4916.52999390,0.00541354
4918.45880127,0.00541979
4920.38760864,0.00539783
4922.31641602,0.00537204
4924.24522339,0.00543141
4926.17403076,0.00540186
4928.10283813,0.00545241
4930.03164551,0.00539886
4931.96045288,0.00533525
4933.88926025,0.00531920
4935.81806763,0.00530228
4937.74687500,0.00531564
4939.67568237,0.00518794
4941.60448975,0.00517688
4943.53329712,0.00522164
4945.46210449,0.00521463
4947.39091187,0.00523972
4949.31971924,0.00522014
4951.24852661,0.00521904
4953.17733398,0.00518981
4955.10614136,0.00518613
4957.03494873,0.00515773
4958.96375610,0.00516641
4960.89256348,0.00515717
4962.82137085,0.00507831
4964.75017822,0.00515000
4966.67898560,0.00512279
4968.60779297,0.00512012
4970.53660034,0.00517109
4972.46540771,0.00514335
4974.39421509,0.00510302
4976.32302246,0.00499645
4978.25182983,0.00501944
4980.18063721,0.00497747
4982.10944458,0.00497100
4984.03825195,0.00506698
4985.96705933,0.00500608
4987.89586670,0.00497272
4989.82467407,0.00497606
4991.75348145,0.00498494
4993.68228882,0.00498836
4995.61109619,0.00495714
4997.53990356,0.00488357
4999.46871094,0.00491229
5001.39751831,0.00485822
5003.32632568,0.00478089
5005.25513306,0.00491773
5007.18394043,0.00482472
5009.11274780,0.00485850
5011.04155518,0.00490311
5012.97036255,0.00481078
5014.89916992,0.00486945
5016.82797729,0.00470285
5018.75678467,0.00472876
5020.68559204,0.00478623
5022.61439941,0.00470294
5024.54320679,0.00479629
5026.47201416,0.00480366
5028.40082153,0.00475074
5030.32962891,0.00473568
5032.25843628,0.00476194
5034.18724365,0.00466333
5036.11605103,0.00468834
5038.04485840,0.00474010
5039.97366577,0.00466002
5041.90247314,0.00476895
5043.83128052,0.00470838
5045.76008789,0.00461183
5047.68889526,0.00460104
5049.61770264,0.00459620
5051.54651001,0.00465618
5053.47531738,0.00456769
5055.40412476,0.00457309
5057.33293213,0.00461332
5059.26173950,0.00450907
5061.19054687,0.00449177
5063.11935425,0.00454128
5065.04816162,0.00454503
5066.97696899,0.00456310
5068.90577637,0.00453584
5070.83458374,0.00450966
5072.76339111,0.00454547
5074.69219849,0.00451505
5076.62100586,0.00447697
5078.54981323,0.00439142
5080.47862061,0.00440851
5082.40742798,0.00447031
5084.33623535,0.00439509
5086.26504272,0.00443067
5088.19385010,0.00441826
5090.12265747,0.00433918
5092.05146484,0.00434578
5093.98027222,0.00437411
5095.90907959,0.00437199
5097.83788696,0.00433478
5099.76669434,0.00434324
5101.69550171,0.00430920
5103.62430908,0.00429039
5105.55311645,0.00433148
5107.48192383,0.00431517
5109.41073120,0.00426863
5111.33953857,0.00424445
5113.26834595,0.00428647
5115.19715332,0.00432182
5117.12596069,0.00422901
5119.05476807,0.00420131
5120.98357544,0.00424641
5122.91238281,0.00420203
5124.84119019,0.00425176
5126.76999756,0.00424871
5128.69880493,0.00418136
5130.62761230,0.00416187
5132.55641968,0.00415899
5134.48522705,0.00419322
5136.41403442,0.00406682
5138.34284180,0.00409380
5140.27164917,0.00414338
5142.20045654,0.00407944
5144.12926392,0.00413611
5146.05807129,0.00407001
5147.98687866,0.00411455
5149.91568603,0.00410592
5151.84449341,0.00406103
5153.77330078,0.00410950
5155.70210815,0.00399699
5157.63091553,0.00404890
5159.55972290,0.00404811
5161.48853027,0.00402064
5163.41733765,0.00405649
5165.34614502,0.00395020
5167.27495239,0.00399795
5169.20375977,0.00397935
5171.13256714,0.00390089
5173.06137451,0.00397178
5174.99018188,0.00398687
5176.91898926,0.00397001
5178.84779663,0.00395471
5180.77660400,0.00394520
5182.70541138,0.00391465
5184.63421875,0.00390992
5186.56302612,0.00394072
5188.49183350,0.00389832
5190.42064087,0.00387023
5192.34944824,0.00384820
5194.27825562,0.00391007
5196.20706299,0.00390103
5198.13587036,0.00373114
5200.06467773,0.00380788
5201.99348511,0.00384406
5203.92229248,0.00377754
5205.85109985,0.00379112
5207.77990723,0.00373487
5209.70871460,0.00376159
5211.63752197,0.00373673
5213.56632935,0.00376274
5215.49513672,0.00381828
5217.42394409,0.00374603
5219.35275146,0.00372303
5221.28155884,0.00371076
5223.21036621,0.00372658
5225.13917358,0.00361798
5227.06798096,0.00358764
5228.99678833,0.00366295
5230.92559570,0.00364601
5232.85440308,0.00370732
5234.78321045,0.00366327
5236.71201782,0.00363904
5238.64082520,0.00366613
5240.56963257,0.00365366
5242.49843994,0.00365411
5244.42724731,0.00361284
5246.35605469,0.00360943
5248.28486206,0.00352020
5250.21366943,0.00352756
5252.14247681,0.00362578
5254.07128418,0.00358779
5256.00009155,0.00358384
5257.92889893,0.00356354
5259.85770630,0.00355628
5261.78651367,0.00357252
5263.71532104,0.00339066
5265.64412842,0.00334380
5267.57293579,0.00354939
5269.50174316,0.00353669
5271.43055054,0.00354679
5273.35935791,0.00355040
5275.28816528,0.00344991
5277.21697266,0.00356425
5279.14578003,0.00349009
5281.07458740,0.00346104
5283.00339478,0.00352202
5284.93220215,0.00337732
5286.86100952,0.00347593
5288.78981689,0.00350517
5290.71862427,0.00338067
5292.64743164,0.00342185
5294.57623901,0.00348264
5296.50504639,0.00350364
5298.43385376,0.00344582
5300.36266113,0.00339836
5302.29146851,0.00336668
5304.22027588,0.00335676
5306.14908325,0.00332852
5308.07789062,0.00325373
5310.00669800,0.00337883
5311.93550537,0.00344314
5313.86431274,0.00330902
5315.79312012,0.00331154
5317.72192749,0.00334965
5319.65073486,0.00330942
5321.57954224,0.00325852
5323.50834961,0.00326617
5325.43715698,0.00327650
5327.36596436,0.00319283
5329.29477173,0.00320219
5331.22357910,0.00327660
5333.15238647,0.00326201
5335.08119385,0.00323359
5337.01000122,0.00320058
5338.93880859,0.00312102
5340.86761597,0.00316245
5342.79642334,0.00319235
5344.72523071,0.00308045
5346.65403809,0.00316460
5348.58284546,0.00318567
5350.51165283,0.00317265
5352.44046020,0.00323499
5354.36926758,0.00307514
5356.29807495,0.00308882
5358.22688232,0.00311392
5360.15568970,0.00310872
5362.08449707,0.00322495
5364.01330444,0.00315287
5365.94211182,0.00313346
5367.87091919,0.00312609
5369.79972656,0.00313671
5371.72853394,0.00314249
5373.65734131,0.00302407
5375.58614868,0.00301743
5377.51495605,0.00296221
5379.44376343,0.00294990
5381.37257080,0.00306090
5383.30137817,0.00306557
5385.23018555,0.00300974
5387.15899292,0.00297091
5389.08780029,0.00301358
5391.01660767,0.00302532
5392.94541504,0.00298999
5394.87422241,0.00301296
5396.80302978,0.00296559
5398.73183716,0.00296401
5400.66064453,0.00302702
5402.58945190,0.00297135
5404.51825928,0.00295249
5406.44706665,0.00298956
5408.37587402,0.00299338
5410.30468140,0.00294329
5412.23348877,0.00291270
5414.16229614,0.00289236
5416.09110352,0.00283228
5418.01991089,0.00295026
5419.94871826,0.00301294
5421.87752563,0.00290372
5423.80633301,0.00283853
5425.73514038,0.00290687
5427.66394775,0.00298580
5429.59275513,0.00280729
5431.52156250,0.00281646
5433.45036987,0.00292703
5435.37917725,0.00281326
5437.30798462,0.00279256
5439.23679199,0.00278747
5441.16559936,0.00282835
5443.09440674,0.00285363
5445.02321411,0.00277753
5446.95202148,0.00277347
5448.88082886,0.00280929
5450.80963623,0.00278288
5452.73844360,0.00274436
5454.66725098,0.00282333
5456.59605835,0.00287010
5458.52486572,0.00278661
5460.45367310,0.00266103
5462.38248047,0.00268348
5464.31128784,0.00273419
5466.24009521,0.00269196
5468.16890259,0.00276274
5470.09770996,0.00275767
5472.02651733,0.00275845
5473.95532471,0.00276313
5475.88413208,0.00265456
5477.81293945,0.00267585
5479.74174683,0.00268047
5481.67055420,0.00268852
5483.59936157,0.00271214
5485.52816895,0.00266699
5487.45697632,0.00268839
5489.38578369,0.00268184
5491.31459106,0.00263725
5493.24339844,0.00257928
5495.17220581,0.00260112
5497.10101318,0.00271742
5499.02982056,0.00264889
5500.95862793,0.00261327
5502.88743530,0.00268847
5504.81624268,0.00264881
5506.74505005,0.00268542
5508.67385742,0.00267043
5510.60266479,0.00261039
5512.53147217,0.00263625
5514.46027954,0.00257089
5516.38908691,0.00256124
5518.31789429,0.00260776
5520.24670166,0.00260122
5522.17550903,0.00256126
5524.10431641,0.00253412
5526.03312378,0.00250793
5527.96193115,0.00248349
5529.89073853,0.00254153
5531.81954590,0.00251556
5533.74835327,0.00251695
5535.67716064,0.00256723
5537.60596802,0.00245943
5539.53477539,0.00246086
5541.46358276,0.00258016
5543.39239014,0.00253245
5545.32119751,0.00250606
5547.25000488,0.00252964
5549.17881226,0.00246813
5551.10761963,0.00250962
5553.03642700,0.00247825
5554.96523437,0.00245344
5556.89404175,0.00248677
5558.82284912,0.00242417
5560.75165649,0.00249984
5562.68046387,0.00243438
5564.60927124,0.00240255
5566.53807861,0.00251510
5568.46688599,0.00245261
5570.39569336,0.00243068
5572.32450073,0.00241024
5574.25330811,0.00244490
5576.18211548,0.00246394
5578.11092285,0.00241587
5580.03973022,0.00243490
5581.96853760,0.00240140
5583.89734497,0.00234634
5585.82615234,0.00234787
5587.75495972,0.00238171
5589.68376709,0.00234686
5591.61257446,0.00235751
5593.54138184,0.00235737
5595.47018921,0.00234723
5597.39899658,0.00235530
5599.32780395,0.00228711
5601.25661133,0.00232559
5603.18541870,0.00231573
5605.11422607,0.00232904
5607.04303345,0.00229449
5608.97184082,0.00219958
5610.90064819,0.00231252
5612.82945557,0.00232566
5614.75826294,0.00230078
5616.68707031,0.00226401
5618.61587769,0.00226283
5620.54468506,0.00230366
5622.47349243,0.00221362
5624.40229980,0.00222479
5626.33110718,0.00221701
5628.25991455,0.00221702
5630.18872192,0.00222070
5632.11752930,0.00214012
5634.04633667,0.00218982
5635.97514404,0.00221382
5637.90395142,0.00221574
5639.83275879,0.00224699
5641.76156616,0.00220962
5643.69037353,0.00224134
5645.61918091,0.00223207
5647.54798828,0.00217803
5649.47679565,0.00221732
5651.40560303,0.00215178
5653.33441040,0.00213658
5655.26321777,0.00220139
5657.19202515,0.00216226
5659.12083252,0.00216574
5661.04963989,0.00215033
5662.97844727,0.00211048
5664.90725464,0.00206299
5666.83606201,0.00209167
5668.76486938,0.00213891
5670.69367676,0.00205612
5672.62248413,0.00209883
5674.55129150,0.00214754
5676.48009888,0.00209316
5678.40890625,0.00207228
5680.33771362,0.00209187
5682.26652100,0.00211175
5684.19532837,0.00212825
5686.12413574,0.00212211
5688.05294311,0.00199941
5689.98175049,0.00200780
5691.91055786,0.00206806
5693.83936523,0.00201719
5695.76817261,0.00201700
5697.69697998,0.00199660
5699.62578735,0.00198016
5701.55459473,0.00200766
5703.48340210,0.00206365
5705.41220947,0.00204927
5707.34101685,0.00198173
5709.26982422,0.00196591
5711.19863159,0.00197331
5713.12743896,0.00199574
5715.05624634,0.00193724
5716.98505371,0.00193675
5718.91386108,0.00199071
5720.84266846,0.00195961
5722.77147583,0.00200038
5724.70028320,0.00199669
5726.62909058,0.00190509
5728.55789795,0.00196360
5730.48670532,0.00199403
5732.41551270,0.00191963
5734.34432007,0.00196049
5736.27312744,0.00196104
5738.20193481,0.00192596
5740.13074219,0.00193939
5742.05954956,0.00194966
5743.98835693,0.00194469
5745.91716431,0.00185602
5747.84597168,0.00187191
5749.77477905,0.00191799
5751.70358643,0.00192272
5753.63239380,0.00193993
5755.56120117,0.00186421
5757.49000854,0.00186529
5759.41881592,0.00188144
5761.34762329,0.00184266
5763.27643066,0.00183789
5765.20523804,0.00183872
5767.13404541,0.00186495
5769.06285278,0.00188582
5770.99166016,0.00186924
5772.92046753,0.00183403
5774.84927490,0.00182764
5776.77808228,0.00181921
5778.70688965,0.00185255
5780.63569702,0.00184349
5782.56450439,0.00170513
5784.49331177,0.00168493
5786.42211914,0.00176933
5788.35092651,0.00179172
5790.27973389,0.00177731
5792.20854126,0.00181848
5794.13734863,0.00183319
5796.06615601,0.00178740
5797.99496338,0.00180811
5799.92377075,0.00177373
5801.85257812,0.00170273
5803.78138550,0.00171295
5805.71019287,0.00175692
5807.63900024,0.00177827
5809.56780762,0.00175465
5811.49661499,0.00172223
5813.42542236,0.00168999
5815.35422974,0.00170986
5817.28303711,0.00168027
5819.21184448,0.00163652
5821.14065186,0.00172531
5823.06945923,0.00176041
5824.99826660,0.00172098
5826.92707397,0.00170270
5828.85588135,0.00173246
5830.78468872,0.00169840
5832.71349609,0.00161806
5834.64230347,0.00165592
5836.57111084,0.00163206
5838.49991821,0.00166793
5840.42872559,0.00169394
5842.35753296,0.00158441
5844.28634033,0.00167008
5846.21514770,0.00169424
5848.14395508,0.00162334
5850.07276245,0.00163766
5852.00156982,0.00162106
5853.93037720,0.00163832
5855.85918457,0.00165291
5857.78799194,0.00165794
5859.71679932,0.00162084
5861.64560669,0.00159689
5863.57441406,0.00159382
5865.50322144,0.00156718
5867.43202881,0.00160828
5869.36083618,0.00162120
5871.28964355,0.00159949
5873.21845093,0.00154352
5875.14725830,0.00154377
5877.07606567,0.00158651
5879.00487305,0.00158354
5880.93368042,0.00160705
5882.86248779,0.00155131
5884.79129517,0.00155341
5886.72010254,0.00161064
5888.64890991,0.00156533
5890.57771728,0.00151284
5892.50652466,0.00149929
5894.43533203,0.00152430
5896.36413940,0.00153815
5898.29294678,0.00152766
5900.22175415,0.00151863
5902.15056152,0.00154111
5904.07936890,0.00149674
5906.00817627,0.00148663
5907.93698364,0.00151274
5909.86579102,0.00142556
5911.79459839,0.00147896
5913.72340576,0.00152264
5915.65221313,0.00146531
5917.58102051,0.00149801
5919.50982788,0.00149147
5921.43863525,0.00144348
5923.36744263,0.00145930
5925.29625000,0.00146645
5927.22505737,0.00142165
5929.15386475,0.00145864
5931.08267212,0.00144417
5933.01147949,0.00142736
5934.94028686,0.00149780
5936.86909424,0.00145958
5938.79790161,0.00144042
5940.72670898,0.00147628
5942.65551636,0.00148422
5944.58432373,0.00144318
5946.51313110,0.00141341
5948.44193848,0.00140842
5950.37074585,0.00142956
5952.29955322,0.00144244
5954.22836060,0.00137497
5956.15716797,0.00140847
5958.08597534,0.00138345
5960.01478271,0.00131259
5961.94359009,0.00132739
5963.87239746,0.00133957
5965.80120483,0.00136213
5967.73001221,0.00133690
5969.65881958,0.00137371
5971.58762695,0.00135915
5973.51643433,0.00135440
5975.44524170,0.00135082
5977.37404907,0.00128225
5979.30285645,0.00136534
5981.23166382,0.00136565
5983.16047119,0.00137355
5985.08927856,0.00137670
5987.01808594,0.00130053
5988.94689331,0.00133737
5990.87570068,0.00139001
5992.80450806,0.00142160
5994.73331543,0.00131163
5996.66212280,0.00127487
5998.59093018,0.00134927
6000.51973755,0.00130749
