399.26312622,0.00024138
401.19193359,-0.00023994
403.12074097,0.00004437
405.04954834,0.00042723
406.97835571,0.00027880
408.90716309,0.00015861
410.83597046,0.00062095
412.76477783,0.00033199
414.69358521,0.00043529
416.62239258,0.00045588
418.55119995,-0.00034228
420.48000732,-0.00002220
422.40881470,0.00010841
424.33762207,-0.00022984
426.26642944,-0.00004929
428.19523682,0.00056867
430.12404419,0.00030222
432.05285156,0.00008655
433.98165894,0.00054463
435.91046631,0.00012657
437.83927368,-0.00003121
439.76808105,0.00010136
441.69688843,0.00019185
443.62569580,0.00020130
445.55450317,0.00006005
447.48331055,-0.00021170
449.41211792,0.00010447
451.34092529,0.00009129
453.26973267,-0.00010893
455.19854004,0.00014291
457.12734741,-0.00020099
459.05615479,-0.00003625
460.98496216,0.00017046
462.91376953,-0.00009388
464.84257690,-0.00008969
466.77138428,-0.00005097
468.70019165,0.00009674
470.62899902,0.00020045
472.55780640,0.00036894
474.48661377,0.00040554
476.41542114,-0.00007036
478.34422852,0.00014008
480.27303589,0.00037066
482.20184326,-0.00014182
484.13065063,0.00004240
486.05945801,-0.00023090
487.98826538,-0.00010544
489.91707275,0.00022107
491.84588013,0.00012380
493.77468750,0.00039396
495.70349487,0.00023958
497.63230225,0.00024513
499.56110962,0.00008898
501.48991699,0.00005264
503.41872437,0.00050397
505.34753174,0.00021742
507.27633911,0.00002029
509.20514648,0.00020876
511.13395386,0.00010476
513.06276123,0.00027545
514.99156860,0.00051177
516.92037598,0.00041509
518.84918335,0.00026961
520.77799072,0.00008422
522.70679810,0.00006351
524.63560547,0.00002346
526.56441284,0.00000324
528.49322021,0.00014552
530.42202759,0.00015903
532.35083496,-0.00002904
534.27964233,-0.00003345
536.20844971,0.00009125
538.13725708,0.00006288
540.06606445,0.00009721
541.99487183,-0.00003211
543.92367920,0.00015630
545.85248657,0.00049903
547.78129395,0.00054563
549.71010132,0.00043458
551.63890869,0.00006420
553.56771606,0.00004258
555.49652344,0.00007422
557.42533081,0.00029842
559.35413818,0.00033967
561.28294556,-0.00002138
563.21175293,0.00003932
565.14056030,0.00012091
567.06936768,0.00031726
568.99817505,-0.00004618
570.92698242,-0.00009405
572.85578979,-0.00014262
574.78459717,-0.00037531
576.71340454,0.00030543
578.64221191,0.00035203
580.57101929,0.00020181
582.49982666,0.00018129
584.42863403,0.00001160
586.35744141,0.00003656
588.28624878,-0.00009837
590.21505615,0.00024025
592.14386353,0.00030253
594.07267090,0.00023244
596.00147827,-0.00004365
597.93028564,0.00008196
599.85909302,0.00034433
601.78790039,-0.00004053
603.71670776,0.00024082
605.64551514,0.00033965
607.57432251,-0.00013351
609.50312988,0.00040939
611.43193726,0.00037411
613.36074463,0.00001449
615.28955200,0.00040414
617.21835938,0.00025651
619.14716675,0.00013232
621.07597412,0.00011720
623.00478149,0.00013502
624.93358887,-0.00002089
626.86239624,-0.00013248
628.79120361,0.00004875
630.72001099,0.00002048
632.64881836,0.00027812
634.57762573,0.00025012
636.50643311,0.00011657
638.43524048,0.00023396
640.36404785,-0.00003712
642.29285522,0.00003759
644.22166260,0.00028502
646.15046997,0.00028649
648.07927734,0.00021357
650.00808472,0.00011289
651.93689209,0.00015629
653.86569946,0.00016693
655.79450684,0.00012112
657.72331421,0.00002825
659.65212158,0.00027448
661.58092896,0.00055527
663.50973633,0.00051239
665.43854370,0.00037342
667.36735107,0.00013787
669.29615845,0.00023084
671.22496582,0.00012116
673.15377319,0.00050937
675.08258057,0.00085113
677.01138794,0.00030142
678.94019531,0.00050097
680.86900269,0.00070756
682.79781006,0.00069683
684.72661743,0.00051427
686.65542480,0.00040932
688.58423218,0.00040661
690.51303955,0.00018577
692.44184692,0.00074548
694.37065430,0.00061136
696.29946167,0.00028173
698.22826904,0.00048102
700.15707642,0.00057795
702.08588379,0.00063209
704.01469116,0.00035648
705.94349854,0.00057522
707.87230591,0.00040670
709.80111328,0.00040384
711.72992065,0.00061463
713.65872803,0.00014582
715.58753540,0.00027613
717.51634277,0.00022340
719.44515015,0.00018027
721.37395752,0.00018624
723.30276489,0.00007549
725.23157227,0.00037541
727.16037964,0.00030644
729.08918701,0.00019017
731.01799438,-0.00001745
732.94680176,0.00006184
734.87560913,0.00038626
736.80441650,0.00004079
738.73322388,-0.00001809
740.66203125,0.00024954
742.59083862,0.00010271
744.51964600,-0.00007277
746.44845337,0.00019785
748.37726074,0.00039867
750.30606812,0.00023499
752.23487549,0.00023637
754.16368286,0.00032490
756.09249023,0.00017582
758.02129761,-0.00006537
759.95010498,0.00001094
761.87891235,0.00014546
763.80771973,0.00021568
765.73652710,0.00012675
767.66533447,0.00002897
769.59414185,0.00025318
771.52294922,0.00029801
773.45175659,0.00032469
775.38056396,0.00007006
777.30937134,-0.00000976
779.23817871,0.00040396
781.16698608,0.00024948
783.09579346,0.00011003
785.02460083,0.00012955
786.95340820,0.00028012
788.88221558,0.00030739
790.81102295,0.00010201
792.73983032,0.00045392
794.66863770,0.00038088
796.59744507,0.00021623
798.52625244,0.00041408
800.45505981,0.00021709
802.38386719,0.00038178
804.31267456,0.00041747
806.24148193,0.00008862
808.17028931,0.00018795
810.09909668,0.00021500
812.02790405,-0.00001211
813.95671143,0.00010576
815.88551880,0.00046136
817.81432617,0.00031407
819.74313354,0.00013143
821.67194092,0.00010835
823.60074829,0.00007846
825.52955566,0.00021935
827.45836304,0.00013927
829.38717041,0.00035634
831.31597778,0.00040240
833.24478516,0.00011570
835.17359253,0.00024114
837.10239990,0.00012464
839.03120728,0.00022441
840.96001465,0.00047702
842.88882202,0.00023500
844.81762939,0.00045605
846.74643677,0.00057984
848.67524414,0.00006808
850.60405151,0.00001690
852.53285889,0.00014293
854.46166626,0.00012880
856.39047363,0.00010491
858.31928101,0.00022028
860.24808838,0.00038985
862.17689575,0.00016154
864.10570313,0.00031022
866.03451050,0.00040730
867.96331787,0.00029183
869.89212524,0.00033665
871.82093262,0.00006621
873.74973999,0.00020952
875.67854736,0.00030641
877.60735474,0.00024621
879.53616211,0.00057153
881.46496948,0.00058470
883.39377686,0.00049801
885.32258423,0.00030851
887.25139160,0.00014540
889.18019897,0.00010404
891.10900635,0.00022902
893.03781372,0.00045714
894.96662109,0.00019079
896.89542847,0.00018110
898.82423584,0.00029958
900.75304321,0.00024002
902.68185059,0.00023641
904.61065796,0.00015675
906.53946533,0.00023007
908.46827271,0.00013275
910.39708008,0.00008682
912.32588745,0.00018518
914.25469482,0.00023901
916.18350220,0.00046098
918.11230957,0.00053904
920.04111694,0.00028709
921.96992432,0.00026310
923.89873169,0.00034719
925.82753906,0.00024819
927.75634644,0.00035892
929.68515381,0.00015960
931.61396118,0.00018053
933.54276855,0.00053302
935.47157593,0.00046781
937.40038330,0.00063218
939.32919067,0.00057189
941.25799805,0.00037889
943.18680542,0.00039029
945.11561279,0.00032843
947.04442017,0.00059444
948.97322754,0.00071197
950.90203491,0.00052142
952.83084229,0.00055388
954.75964966,0.00054243
956.68845703,0.00023715
958.61726440,0.00022533
960.54607178,0.00057417
962.47487915,0.00061844
964.40368652,0.00031880
966.33249390,0.00044688
968.26130127,0.00070568
970.19010864,0.00045178
972.11891602,0.00054782
974.04772339,0.00072632
975.97653076,0.00061976
977.90533813,0.00061947
979.83414551,0.00072126
981.76295288,0.00098151
983.69176025,0.00104677
985.62056763,0.00118117
987.54937500,0.00116286
989.47818237,0.00118353
991.40698975,0.00171401
993.33579712,0.00167478
995.26460449,0.00157779
997.19341187,0.00192374
999.12221924,0.00203720
1001.05102661,0.00218644
1002.97983398,0.00226636
1004.90864136,0.00243346
1006.83744873,0.00293795
1008.76625610,0.00298090
1010.69506348,0.00289126
1012.62387085,0.00324452
1014.55267822,0.00352449
1016.48148560,0.00351319
1018.41029297,0.00349663
1020.33910034,0.00379771
1022.26790771,0.00403076
1024.19671509,0.00423259
1026.12552246,0.00441305
1028.05432983,0.00446460
1029.98313721,0.00475278
1031.91194458,0.00486300
1033.84075195,0.00512055
1035.76955933,0.00527301
1037.69836670,0.00515280
1039.62717407,0.00515734
1041.55598145,0.00481492
1043.48478882,0.00491190
1045.41359619,0.00508531
1047.34240356,0.00486171
1049.27121094,0.00483627
1051.20001831,0.00482598
1053.12882568,0.00475245
1055.05763306,0.00461511
1056.98644043,0.00477521
1058.91524780,0.00465551
1060.84405518,0.00428302
1062.77286255,0.00421648
1064.70166992,0.00407142
1066.63047729,0.00396960
1068.55928467,0.00368801
1070.48809204,0.00352542
1072.41689941,0.00350563
1074.34570679,0.00326531
1076.27451416,0.00318091
1078.20332153,0.00304084
1080.13212891,0.00286655
1082.06093628,0.00290387
1083.98974365,0.00267403
1085.91855103,0.00229749
1087.84735840,0.00234459
1089.77616577,0.00223177
1091.70497314,0.00210460
1093.63378052,0.00217287
1095.56258789,0.00212071
1097.49139526,0.00217594
1099.42020264,0.00190171
1101.34901001,0.00181131
1103.27781738,0.00193872
1105.20662476,0.00180252
1107.13543213,0.00170849
1109.06423950,0.00182632
1110.99304687,0.00213878
1112.92185425,0.00181828
1114.85066162,0.00171792
1116.77946899,0.00179350
1118.70827637,0.00147959
1120.63708374,0.00186137
1122.56589111,0.00200746
1124.49469849,0.00179231
1126.42350586,0.00179342
1128.35231323,0.00186911
1130.28112061,0.00190754
1132.20992798,0.00188312
1134.13873535,0.00215959
1136.06754272,0.00216225
1137.99635010,0.00223762
1139.92515747,0.00235466
1141.85396484,0.00225679
1143.78277222,0.00274570
1145.71157959,0.00299682
1147.64038696,0.00282182
1149.56919434,0.00308096
1151.49800171,0.00354826
1153.42680908,0.00369268
1155.35561646,0.00359119
1157.28442383,0.00371042
1159.21323120,0.00394678
1161.14203857,0.00413708
1163.07084595,0.00445161
1164.99965332,0.00454823
1166.92846069,0.00442446
1168.85726807,0.00468105
1170.78607544,0.00490231
1172.71488281,0.00508447
1174.64369019,0.00543968
1176.57249756,0.00550803
1178.50130493,0.00572145
1180.43011230,0.00598010
1182.35891968,0.00616265
1184.28772705,0.00642319
1186.21653442,0.00667691
1188.14534180,0.00707409
1190.07414917,0.00734094
1192.00295654,0.00777705
1193.93176392,0.00800971
1195.86057129,0.00813803
1197.78937866,0.00874214
1199.71818604,0.00910065
1201.64699341,0.00945384
1203.57580078,0.00981872
1205.50460815,0.01035223
1207.43341553,0.01085780
1209.36222290,0.01100113
1211.29103027,0.01127215
1213.21983765,0.01142219
1215.14864502,0.01209722
1217.07745239,0.01258267
1219.00625977,0.01262232
1220.93506714,0.01285845
1222.86387451,0.01278003
1224.79268188,0.01304597
1226.72148926,0.01313109
1228.65029663,0.01323134
1230.57910400,0.01332211
1232.50791138,0.01304687
1234.43671875,0.01328188
1236.36552612,0.01335948
1238.29433350,0.01349184
1240.22314087,0.01340330
1242.15194824,0.01319938
1244.08075562,0.01324238
1246.00956299,0.01314980
1247.93837036,0.01333032
1249.86717773,0.01305654
1251.79598511,0.01286474
1253.72479248,0.01276755
1255.65359985,0.01255150
1257.58240723,0.01261821
1259.51121460,0.01230722
1261.44002197,0.01217802
1263.36882935,0.01209713
1265.29763672,0.01195000
1267.22644409,0.01176848
1269.15525146,0.01162829
1271.08405884,0.01170078
1273.01286621,0.01138093
1274.94167358,0.01114790
1276.87048096,0.01098864
1278.79928833,0.01079792
1280.72809570,0.01054117
1282.65690308,0.01025730
1284.58571045,0.01016360
1286.51451782,0.00983337
1288.44332520,0.00959135
1290.37213257,0.00964019
1292.30093994,0.00979219
1294.22974731,0.00962478
1296.15855469,0.00948436
1298.08736206,0.00954726
1300.01616943,0.00934285
1301.94497681,0.00948935
1303.87378418,0.00965518
1305.80259155,0.00963559
1307.73139893,0.00977531
1309.66020630,0.01002385
1311.58901367,0.01037076
1313.51782104,0.01055140
1315.44662842,0.01081326
1317.37543579,0.01100774
1319.30424316,0.01116178
1321.23305054,0.01155652
1323.16185791,0.01196408
1325.09066528,0.01236512
1327.01947266,0.01254790
1328.94828003,0.01285916
1330.87708740,0.01344418
1332.80589478,0.01365241
1334.73470215,0.01379984
1336.66350952,0.01403444
1338.59231689,0.01395894
1340.52112427,0.01423749
1342.44993164,0.01476443
1344.37873901,0.01464705
1346.30754639,0.01459630
1348.23635376,0.01488297
1350.16516113,0.01477052
1352.09396851,0.01455653
1354.02277588,0.01446371
1355.95158325,0.01430957
1357.88039062,0.01439046
1359.80919800,0.01425229
1361.73800537,0.01338009
1363.66681274,0.01332764
1365.59562012,0.01397878
1367.52442749,0.01359189
1369.45323486,0.01356932
1371.38204224,0.01367393
1373.31084961,0.01306945
1375.23965698,0.01339675
1377.16846436,0.01367075
1379.09727173,0.01343761
1381.02607910,0.01340305
1382.95488647,0.01343345
1384.88369385,0.01347031
1386.81250122,0.01296546
1388.74130859,0.01300942
1390.67011597,0.01410004
1392.59892334,0.01384320
1394.52773071,0.01273071
1396.45653809,0.01367381
1398.38534546,0.01376810
1400.31415283,0.01335723
1402.24296021,0.01467590
1404.17176758,0.01391498
1406.10057495,0.01366403
1408.02938232,0.01415865
1409.95818970,0.01386916
1411.88699707,0.01416845
1413.81580444,0.01354391
1415.74461182,0.01397946
1417.67341919,0.01260181
1419.60222656,0.01121135
1421.53103394,0.01298410
1423.45984131,0.01258495
1425.38864868,0.01225439
1427.31745605,0.01248755
1429.24626343,0.01158595
1431.17507080,0.01112974
1433.10387817,0.01139242
1435.03268555,0.01042278
1436.96149292,0.00872571
1438.89030029,0.00997995
1440.81910767,0.01020440
1442.74791504,0.00956449
1444.67672241,0.00996359
1446.60552979,0.00917636
1448.53433716,0.00953517
1450.46314453,0.00971043
1452.39195190,0.00980221
1454.32075928,0.01015171
1456.24956665,0.00846342
1458.17837402,0.00883343
1460.10718140,0.01155221
1462.03598877,0.01238613
1463.96479614,0.01233036
1465.89360352,0.01284287
1467.82241089,0.01473442
1469.75121826,0.01556901
1471.68002563,0.01385873
1473.60883301,0.01474002
1475.53764038,0.01661471
1477.46644775,0.01812249
1479.39525513,0.01976985
1481.32406250,0.01984254
1483.25286987,0.02114981
1485.18167725,0.02169188
1487.11048462,0.02171487
1489.03929199,0.02148741
1490.96809937,0.02144573
1492.89690674,0.02520384
1494.82571411,0.02446190
1496.75452148,0.02201392
1498.68332886,0.02481197
1500.61213623,0.02550399
1502.54094360,0.02745183
1504.46975098,0.02594749
1506.39855835,0.01878111
1508.32736572,0.02287702
1510.25617310,0.02688579
1512.18498047,0.02598798
1514.11378784,0.02820193
1516.04259521,0.02532547
1517.97140259,0.02642562
1519.90020996,0.02537476
1521.82901733,0.02199110
1523.75782471,0.02700759
1525.68663208,0.02621693
1527.61543945,0.02624221
1529.54424683,0.02899193
1531.47305420,0.02784673
1533.40186157,0.02549460
1535.33066895,0.02691037
1537.25947632,0.02894968
1539.18828369,0.02058686
1541.11709106,0.02152938
1543.04589844,0.02573055
1544.97470581,0.02451493
1546.90351318,0.02926505
1548.83232056,0.02732262
1550.76112793,0.02789396
1552.68993530,0.02776026
1554.61874268,0.02517476
1556.54755005,0.02669421
1558.47635742,0.01886663
1560.40516479,0.02023720
1562.33397217,0.02884858
1564.26277954,0.02708753
1566.19158691,0.02760070
1568.12039429,0.02742948
1570.04920166,0.02400968
1571.97800903,0.02766062
1573.90681641,0.02781326
1575.83562378,0.02197742
1577.76443115,0.02466173
1579.69323853,0.02734525
1581.62204590,0.02624876
1583.55085327,0.02685854
1585.47966064,0.02642759
1587.40846802,0.02635366
1589.33727539,0.02566668
1591.26608276,0.02554723
1593.19489014,0.02533472
1595.12369751,0.02478976
1597.05250488,0.02488407
1598.98131226,0.02459721
1600.91011963,0.02445180
1602.83892700,0.02371876
1604.76773437,0.02393580
1606.69654175,0.02312988
1608.62534912,0.02277299
1610.55415649,0.02248295
1612.48296387,0.02239625
1614.41177124,0.02254179
1616.34057861,0.01827306
1618.26938599,0.01974747
1620.19819336,0.02273331
1622.12700073,0.01994556
1624.05580811,0.01991275
1625.98461548,0.02082060
1627.91342285,0.02058360
1629.84223022,0.02044094
1631.77103760,0.02187494
1633.69984497,0.02008415
1635.62865234,0.01676125
1637.55745972,0.01962597
1639.48626709,0.02168487
1641.41507446,0.02138820
1643.34388184,0.02208178
1645.27268921,0.02004432
1647.20149658,0.01777909
1649.13030396,0.02247145
1651.05911133,0.02156928
1652.98791870,0.01410228
1654.91672607,0.01923650
1656.84553345,0.02439964
1658.77434082,0.02363255
1660.70314819,0.02449339
1662.63195557,0.02269614
1664.56076294,0.02419180
1666.48957031,0.02625326
1668.41837769,0.02334874
1670.34718506,0.02300980
1672.27599243,0.02613399
1674.20479980,0.02439606
1676.13360718,0.02390135
1678.06241455,0.02775953
1679.99122192,0.02711536
1681.92002930,0.02702426
1683.84883667,0.02215030
1685.77764404,0.02240519
1687.70645142,0.03099107
1689.63525879,0.02704678
1691.56406616,0.03012915
1693.49287354,0.03099793
1695.42168091,0.02282420
1697.35048828,0.02863725
1699.27929565,0.02527686
1701.20810303,0.02308432
1703.13691040,0.03173498
1705.06571777,0.02913588
1706.99452515,0.02978990
1708.92333252,0.03266845
1710.85213989,0.03173523
1712.78094727,0.03246289
1714.70975464,0.03030648
1716.63856201,0.02753625
1718.56736938,0.02732830
1720.49617676,0.03258944
1722.42498413,0.03393999
1724.35379150,0.03182784
1726.28259888,0.03473084
1728.21140625,0.03235006
1730.14021362,0.03294903
1732.06902100,0.03202571
1733.99782837,0.02446559
1735.92663574,0.03069155
1737.85544312,0.03417297
1739.78425049,0.03054132
1741.71305786,0.03336499
1743.64186523,0.03393582
1745.57067261,0.03415845
1747.49947998,0.03432535
1749.42828735,0.03288996
1751.35709473,0.03188872
1753.28590210,0.03541184
1755.21470947,0.03711838
1757.14351685,0.03394701
1759.07232422,0.03752322
1761.00113159,0.03513114
1762.92993896,0.03400245
1764.85874634,0.03927347
1766.78755371,0.03514084
1768.71636108,0.03569165
1770.64516846,0.03560891
1772.57397583,0.03207739
1774.50278320,0.03593228
1776.43159058,0.03791101
1778.36039795,0.03752456
1780.28920532,0.03713477
1782.21801270,0.03760253
1784.14682007,0.03753322
1786.07562744,0.03689453
1788.00443481,0.03893200
1789.93324219,0.03790233
1791.86204956,0.03434743
1793.79085693,0.03579725
1795.71966431,0.03852576
1797.64847168,0.03806330
1799.57727905,0.03759316
1801.50608643,0.03703110
1803.43489380,0.03827713
1805.36370117,0.03917416
1807.29250854,0.03867867
1809.22131592,0.03895197
1811.15012329,0.03782065
1813.07893066,0.03903389
1815.00773804,0.03926067
1816.93654541,0.03885631
1818.86535278,0.03936931
1820.79416016,0.03924020
1822.72296753,0.03984711
1824.65177490,0.03730746
1826.58058228,0.03874221
1828.50938965,0.03879322
1830.43819702,0.03629818
1832.36700439,0.03949133
1834.29581177,0.03941226
1836.22461914,0.03930390
1838.15342651,0.03911493
1840.08223389,0.03951234
1842.01104126,0.03947802
1843.93984863,0.03518194
1845.86865601,0.03742360
1847.79746338,0.03951735
1849.72627075,0.03880705
1851.65507812,0.03975834
1853.58388550,0.03924181
1855.51269287,0.03971740
1857.44150024,0.03939254
1859.37030762,0.03918023
1861.29911499,0.03933148
1863.22792236,0.03892510
1865.15672974,0.03958562
1867.08553711,0.03837256
1869.01434448,0.03663572
1870.94315186,0.03820513
1872.87195923,0.03971148
1874.80076660,0.03899482
1876.72957397,0.03920148
1878.65838135,0.03911016
1880.58718872,0.03897119
1882.51599609,0.03918109
1884.44480347,0.03856423
1886.37361084,0.03919238
1888.30241821,0.03834444
1890.23122559,0.03755212
1892.16003296,0.03900256
1894.08884033,0.03867143
1896.01764771,0.03839728
1897.94645508,0.03885901
1899.87526245,0.03873492
1901.80406982,0.03878197
1903.73287720,0.03860148
1905.66168457,0.03864403
1907.59049194,0.03820897
1909.51929932,0.03802739
1911.44810669,0.03823377
1913.37691406,0.03828360
1915.30572144,0.03866789
1917.23452881,0.03691676
1919.16333618,0.03700396
1921.09214355,0.03860630
1923.02095093,0.03737742
1924.94975830,0.03813019
1926.87856567,0.03853209
1928.80737305,0.03798828
1930.73618042,0.03850572
1932.66498779,0.03800637
1934.59379517,0.03837605
1936.52260254,0.03800049
1938.45140991,0.03801908
1940.38021729,0.03813413
1942.30902466,0.03685367
1944.23783203,0.03758768
1946.16663940,0.03804748
1948.09544678,0.03786590
1950.02425415,0.03816770
1951.95306152,0.03807716
1953.88186890,0.03805414
1955.81067627,0.03783862
1957.73948364,0.03791027
1959.66829102,0.03784291
1961.59709839,0.03771777
1963.52590576,0.03796048
1965.45471313,0.03769495
1967.38352051,0.03733364
1969.31232788,0.03762032
1971.24113525,0.03774238
1973.16994263,0.03759307
1975.09875000,0.03765658
1977.02755737,0.03750375
1978.95636475,0.03758743
1980.88517212,0.03752412
1982.81397949,0.03735818
1984.74278687,0.03744727
1986.67159424,0.03715329
1988.60040161,0.03715493
1990.52920898,0.03686891
1992.45801636,0.03657695
1994.38682373,0.03704688
1996.31563110,0.03701492
1998.24443848,0.03694281
2000.17324585,0.03696675
2002.10205322,0.03673461
2004.03086060,0.03676827
2005.95966797,0.03662722
2007.88847534,0.03651176
2009.81728271,0.03653294
2011.74609009,0.03641378
2013.67489746,0.03648876
2015.60370483,0.03626315
2017.53251221,0.03592222
2019.46131958,0.03601368
2021.39012695,0.03598781
2023.31893433,0.03584237
2025.24774170,0.03583158
2027.17654907,0.03573540
2029.10535645,0.03560836
2031.03416382,0.03562819
2032.96297119,0.03558755
2034.89177856,0.03546646
2036.82058594,0.03530869
2038.74939331,0.03522924
2040.67820068,0.03517220
2042.60700806,0.03505194
2044.53581543,0.03508506
2046.46462280,0.03499756
2048.39343018,0.03494520
2050.32223755,0.03480035
2052.25104492,0.03475098
2054.17985229,0.03492561
2056.10865967,0.03467934
2058.03746704,0.03459720
2059.96627441,0.03450023
2061.89508179,0.03439802
2063.82388916,0.03433358
2065.75269653,0.03418387
2067.68150391,0.03426297
2069.61031128,0.03409652
2071.53911865,0.03434129
2073.46792603,0.03428882
2075.39673340,0.03390416
2077.32554077,0.03405790
2079.25434814,0.03381988
2081.18315552,0.03377195
2083.11196289,0.03390958
2085.04077026,0.03389698
2086.96957764,0.03377236
2088.89838501,0.03352420
2090.82719238,0.03361626
2092.75599976,0.03359214
2094.68480713,0.03350519
2096.61361450,0.03353816
2098.54242187,0.03346876
2100.47122925,0.03334247
2102.40003662,0.03333949
2104.32884399,0.03336401
2106.25765137,0.03334367
2108.18645874,0.03328115
2110.11526611,0.03316963
2112.04407349,0.03314520
2113.97288086,0.03295749
2115.90168823,0.03306378
2117.83049561,0.03304114
2119.75930298,0.03279262
2121.68811035,0.03302520
2123.61691772,0.03289719
2125.54572510,0.03291049
2127.47453247,0.03310658
2129.40333984,0.03291062
2131.33214722,0.03288886
2133.26095459,0.03281331
2135.18976196,0.03276746
2137.11856934,0.03284597
2139.04737671,0.03277215
2140.97618408,0.03278325
2142.90499146,0.03286425
2144.83379883,0.03272071
2146.76260620,0.03269977
2148.69141357,0.03277508
2150.62022095,0.03270164
2152.54902832,0.03271453
2154.47783569,0.03265421
2156.40664307,0.03259406
2158.33545044,0.03258935
2160.26425781,0.03271228
2162.19306519,0.03277812
2164.12187256,0.03273241
2166.05067993,0.03280168
2167.97948730,0.03263664
2169.90829468,0.03270067
2171.83710205,0.03280519
2173.76590942,0.03268134
2175.69471680,0.03270113
2177.62352417,0.03255286
2179.55233154,0.03263817
2181.48113892,0.03269553
2183.40994629,0.03245357
2185.33875366,0.03251909
2187.26756104,0.03260010
2189.19636841,0.03264712
2191.12517578,0.03262958
2193.05398315,0.03253251
2194.98279053,0.03270162
2196.91159790,0.03261583
2198.84040527,0.03254300
2200.76921265,0.03273641
2202.69802002,0.03258657
2204.62682739,0.03256554
2206.55563477,0.03260340
2208.48444214,0.03262617
2210.41324951,0.03273983
2212.34205688,0.03263244
2214.27086426,0.03265624
2216.19967163,0.03261337
2218.12847900,0.03256706
2220.05728638,0.03260822
2221.98609375,0.03253508
2223.91490112,0.03249642
2225.84370850,0.03254796
2227.77251587,0.03268470
2229.70132324,0.03257766
2231.63013062,0.03246082
2233.55893799,0.03248694
2235.48774536,0.03258842
2237.41655273,0.03259159
2239.34536011,0.03241060
2241.27416748,0.03243537
2243.20297485,0.03251308
2245.13178223,0.03256615
2247.06058960,0.03246275
2248.98939697,0.03247087
2250.91820435,0.03248414
2252.84701172,0.03238424
2254.77581909,0.03244883
2256.70462646,0.03233805
2258.63343384,0.03250081
2260.56224121,0.03242888
2262.49104858,0.03227798
2264.41985596,0.03244699
2266.34866333,0.03230819
2268.27747070,0.03244758
2270.20627808,0.03236371
2272.13508545,0.03228731
2274.06389282,0.03250149
2275.99270020,0.03236467
2277.92150757,0.03227565
2279.85031494,0.03227158
2281.77912231,0.03240087
2283.70792969,0.03238536
2285.63673706,0.03229974
2287.56554443,0.03229993
2289.49435181,0.03225447
2291.42315918,0.03216594
2293.35196655,0.03209658
2295.28077393,0.03224984
2297.20958130,0.03205451
2299.13838867,0.03199285
2301.06719604,0.03199912
2302.99600342,0.03166195
2304.92481079,0.03163313
2306.85361816,0.03142110
2308.78242554,0.03119507
2310.71123291,0.03104125
2312.64004028,0.03074637
2314.56884766,0.03056278
2316.49765503,0.03017097
2318.42646240,0.02978107
2320.35526978,0.02940330
2322.28407715,0.02888710
2324.21288452,0.02863231
2326.14169189,0.02852669
2328.07049927,0.02817375
2329.99930664,0.02774894
2331.92811401,0.02747370
2333.85692139,0.02744842
2335.78572876,0.02749885
2337.71453613,0.02743242
2339.64334351,0.02747120
2341.57215088,0.02757009
2343.50095825,0.02798728
2345.42976562,0.02863971
2347.35857300,0.02969065
2349.28738037,0.03063364
2351.21618774,0.02971421
2353.14499512,0.02820801
2355.07380249,0.02727088
2357.00260986,0.02645700
2358.93141724,0.02598673
2360.86022461,0.02560753
2362.78903198,0.02569200
2364.71783936,0.02589285
2366.64664673,0.02605614
2368.57545410,0.02677057
2370.50426147,0.02743620
2372.43306885,0.02812384
2374.36187622,0.02903082
2376.29068359,0.02988019
2378.21949097,0.03048047
2380.14829834,0.03096892
2382.07710571,0.03141747
2384.00591309,0.03150535
2385.93472046,0.03165262
2387.86352783,0.03179084
2389.79233521,0.03178145
2391.72114258,0.03181712
2393.64994995,0.03176561
2395.57875732,0.03184512
2397.50756470,0.03179070
2399.43637207,0.03173425
2401.36517944,0.03178924
2403.29398682,0.03167338
2405.22279419,0.03163914
2407.15160156,0.03156144
2409.08040894,0.03170829
2411.00921631,0.03175683
2412.93802368,0.03145555
2414.86683105,0.03155617
2416.79563843,0.03159365
2418.72444580,0.03155985
2420.65325317,0.03160103
2422.58206055,0.03144548
2424.51086792,0.03155771
2426.43967529,0.03161387
2428.36848267,0.03146624
2430.29729004,0.03143000
2432.22609741,0.03136783
2434.15490479,0.03138761
2436.08371216,0.03141180
2438.01251953,0.03135490
2439.94132690,0.03140622
2441.87013428,0.03137217
2443.79894165,0.03129092
2445.72774902,0.03138356
2447.65655640,0.03126721
2449.58536377,0.03111591
2451.51417114,0.03118947
2453.44297852,0.03115696
2455.37178589,0.03122126
2457.30059326,0.03122279
2459.22940063,0.03107113
2461.15820801,0.03117400
2463.08701538,0.03115648
2465.01582275,0.03108949
2466.94463013,0.03120778
2468.87343750,0.03107593
2470.80224487,0.03105373
2472.73105225,0.03117515
2474.65985962,0.03098439
2476.58866699,0.03093633
2478.51747437,0.03096427
2480.44628174,0.03088843
2482.37508911,0.03095774
2484.30389648,0.03092386
2486.23270386,0.03083435
2488.16151123,0.03087185
2490.09031860,0.03092838
2492.01912598,0.03085502
2493.94793335,0.03078648
2495.87674072,0.03087222
2497.80554810,0.03085500
2499.73435547,0.03071609
2501.66316284,0.03065798
2503.59197021,0.03074297
2505.52077759,0.03058391
2507.44958496,0.03049672
2509.37839233,0.03081224
2511.30719971,0.03068078
2513.23600708,0.03054942
2515.16481445,0.03061220
2517.09362183,0.03045326
2519.02242920,0.03052532
2520.95123657,0.03044269
2522.88004395,0.03036144
2524.80885132,0.03047798
2526.73765869,0.03046235
2528.66646606,0.03047071
2530.59527344,0.03036414
2532.52408081,0.03038443
2534.45288818,0.03041692
2536.38169556,0.03034395
2538.31050293,0.03041517
2540.23931030,0.03034540
2542.16811768,0.03030113
2544.09692505,0.03026273
2546.02573242,0.03019362
2547.95453979,0.03026762
2549.88334717,0.03023000
2551.81215454,0.03018873
2553.74096191,0.03018919
2555.66976929,0.03005141
2557.59857666,0.02995270
2559.52738403,0.03004882
2561.45619141,0.03010667
2563.38499878,0.03006224
2565.31380615,0.03001531
2567.24261353,0.02998869
2569.17142090,0.03005722
2571.10022827,0.02992378
2573.02903564,0.02977557
2574.95784302,0.02985797
2576.88665039,0.02982580
2578.81545776,0.02979342
2580.74426514,0.02979797
2582.67307251,0.02976404
2584.60187988,0.02963055
2586.53068726,0.02956034
2588.45949463,0.02962863
2590.38830200,0.02948757
2592.31710937,0.02954618
2594.24591675,0.02962728
2596.17472412,0.02946149
2598.10353149,0.02955338
2600.03233887,0.02952072
2601.96114624,0.02934845
2603.88995361,0.02937261
2605.81876099,0.02937890
2607.74756836,0.02934638
2609.67637573,0.02935976
2611.60518311,0.02941527
2613.53399048,0.02935749
2615.46279785,0.02919351
2617.39160522,0.02916842
2619.32041260,0.02920969
2621.24921997,0.02911293
2623.17802734,0.02916361
2625.10683472,0.02918151
2627.03564209,0.02895009
2628.96444946,0.02898478
2630.89325684,0.02896101
2632.82206421,0.02888685
2634.75087158,0.02895296
2636.67967895,0.02880040
2638.60848633,0.02886402
2640.53729370,0.02893655
2642.46610107,0.02881075
2644.39490845,0.02877383
2646.32371582,0.02870414
2648.25252319,0.02870695
2650.18133057,0.02858197
2652.11013794,0.02850178
2654.03894531,0.02861780
2655.96775269,0.02852226
2657.89656006,0.02848168
2659.82536743,0.02855964
2661.75417480,0.02853259
2663.68298218,0.02848589
2665.61178955,0.02836906
2667.54059692,0.02823858
2669.46940430,0.02825072
2671.39821167,0.02830086
2673.32701904,0.02829921
2675.25582642,0.02828813
2677.18463379,0.02815551
2679.11344116,0.02800804
2681.04224854,0.02805155
2682.97105591,0.02807349
2684.89986328,0.02801035
2686.82867065,0.02797036
2688.75747803,0.02791792
2690.68628540,0.02784848
2692.61509277,0.02775819
2694.54390015,0.02769037
2696.47270752,0.02763704
2698.40151489,0.02760258
2700.33032227,0.02762215
2702.25912964,0.02769690
2704.18793701,0.02769998
2706.11674438,0.02754262
2708.04555176,0.02753356
2709.97435913,0.02747858
2711.90316650,0.02733070
2713.83197388,0.02739322
2715.76078125,0.02733989
2717.68958862,0.02731654
2719.61839600,0.02730297
2721.54720337,0.02720969
2723.47601074,0.02722423
2725.40481812,0.02717679
2727.33362549,0.02716421
2729.26243286,0.02698182
2731.19124023,0.02698745
2733.12004761,0.02710640
2735.04885498,0.02674223
2736.97766235,0.02681807
2738.90646973,0.02698580
2740.83527710,0.02671249
2742.76408447,0.02671117
2744.69289185,0.02668632
2746.62169922,0.02659946
2748.55050659,0.02656367
2750.47931396,0.02646730
2752.40812134,0.02648678
2754.33692871,0.02636808
2756.26573608,0.02631660
2758.19454346,0.02635837
2760.12335083,0.02611494
2762.05215820,0.02611044
2763.98096558,0.02620471
2765.90977295,0.02612048
2767.83858032,0.02615690
2769.76738770,0.02599428
2771.69619507,0.02582614
2773.62500244,0.02579344
2775.55380981,0.02572239
2777.48261719,0.02571481
2779.41142456,0.02561731
2781.34023193,0.02560736
2783.26903931,0.02562498
2785.19784668,0.02548521
2787.12665405,0.02542914
2789.05546143,0.02543757
2790.98426880,0.02534254
2792.91307617,0.02523907
2794.84188354,0.02521945
2796.77069092,0.02509602
2798.69949829,0.02502898
2800.62830566,0.02503969
2802.55711304,0.02494249
2804.48592041,0.02491204
2806.41472778,0.02484793
2808.34353516,0.02470854
2810.27234253,0.02460022
2812.20114990,0.02454857
2814.12995728,0.02452249
2816.05876465,0.02448659
2817.98757202,0.02450041
2819.91637939,0.02433562
2821.84518677,0.02416499
2823.77399414,0.02424736
2825.70280151,0.02418448
2827.63160889,0.02405874
2829.56041626,0.02400871
2831.48922363,0.02384852
2833.41803101,0.02376975
2835.34683838,0.02369680
2837.27564575,0.02357991
2839.20445312,0.02355714
2841.13326050,0.02349619
2843.06206787,0.02338961
2844.99087524,0.02324720
2846.91968262,0.02316557
2848.84848999,0.02304563
2850.77729736,0.02282420
2852.70610474,0.02285778
2854.63491211,0.02288802
2856.56371948,0.02268269
2858.49252686,0.02264494
2860.42133423,0.02260744
2862.35014160,0.02238477
2864.27894897,0.02242988
2866.20775635,0.02252410
2868.13656372,0.02237468
2870.06537109,0.02229272
2871.99417847,0.02225279
2873.92298584,0.02212302
2875.85179321,0.02191846
2877.78060059,0.02189484
2879.70940796,0.02187821
2881.63821533,0.02175101
2883.56702270,0.02184379
2885.49583008,0.02170178
2887.42463745,0.02147395
2889.35344482,0.02153128
2891.28225220,0.02147904
2893.21105957,0.02135328
2895.13986694,0.02127593
2897.06867432,0.02115352
2898.99748169,0.02097495
2900.92628906,0.02090004
2902.85509644,0.02084107
2904.78390381,0.02070258
2906.71271118,0.02056297
2908.64151855,0.02050610
2910.57032593,0.02049330
2912.49913330,0.02029361
2914.42794067,0.02016576
2916.35674805,0.01997619
2918.28555542,0.01984282
2920.21436279,0.01995715
2922.14317017,0.01967859
2924.07197754,0.01954191
2926.00078491,0.01964124
2927.92959229,0.01949186
2929.85839966,0.01944824
2931.78720703,0.01933492
2933.71601440,0.01921763
2935.64482178,0.01929152
2937.57362915,0.01928226
2939.50243652,0.01916821
2941.43124390,0.01909304
2943.36005127,0.01900788
2945.28885864,0.01887497
2947.21766602,0.01882415
2949.14647339,0.01872712
2951.07528076,0.01860628
2953.00408813,0.01848932
2954.93289551,0.01836537
2956.86170288,0.01835607
2958.79051025,0.01821346
2960.71931763,0.01808668
2962.64812500,0.01807697
2964.57693237,0.01799675
2966.50573975,0.01787198
2968.43454712,0.01766464
2970.36335449,0.01768852
2972.29216187,0.01774126
2974.22096924,0.01760725
2976.14977661,0.01753955
2978.07858398,0.01742820
2980.00739136,0.01741539
2981.93619873,0.01732419
2983.86500610,0.01720603
2985.79381348,0.01720464
2987.72262085,0.01704496
2989.65142822,0.01694358
2991.58023560,0.01681781
2993.50904297,0.01673975
2995.43785034,0.01662966
2997.36665771,0.01643806
2999.29546509,0.01651126
3001.22427246,0.01644840
3003.15307983,0.01630426
3005.08188721,0.01620068
3007.01069458,0.01606934
3008.93950195,0.01597983
3010.86830933,0.01574939
3012.79711670,0.01565098
3014.72592407,0.01568073
3016.65473145,0.01553844
3018.58353882,0.01530030
3020.51234619,0.01525467
3022.44115356,0.01529068
3024.36996094,0.01512289
3026.29876831,0.01498852
3028.22757568,0.01487281
3030.15638306,0.01471178
3032.08519043,0.01457730
3034.01399780,0.01449121
3035.94280518,0.01446891
3037.87161255,0.01433202
3039.80041992,0.01423760
3041.72922729,0.01415794
3043.65803467,0.01400119
3045.58684204,0.01399546
3047.51564941,0.01378572
3049.44445679,0.01354054
3051.37326416,0.01361453
3053.30207153,0.01347921
3055.23087891,0.01337566
3057.15968628,0.01336332
3059.08849365,0.01318180
3061.01730103,0.01319587
3062.94610840,0.01310370
3064.87491577,0.01284232
3066.80372314,0.01270915
3068.73253052,0.01268679
3070.66133789,0.01260413
3072.59014526,0.01241214
3074.51895264,0.01239449
3076.44776001,0.01232225
3078.37656738,0.01217673
3080.30537476,0.01206886
3082.23418213,0.01194744
3084.16298950,0.01193981
3086.09179687,0.01185658
3088.02060425,0.01174004
3089.94941162,0.01165019
3091.87821899,0.01149736
3093.80702637,0.01139999
3095.73583374,0.01132749
3097.66464111,0.01108903
3099.59344849,0.01103906
3101.52225586,0.01113888
3103.45106323,0.01093259
3105.37987061,0.01090335
3107.30867798,0.01083384
3109.23748535,0.01063506
3111.16629272,0.01059519
3113.09510010,0.01043515
3115.02390747,0.01043719
3116.95271484,0.01037016
3118.88152222,0.01023456
3120.81032959,0.01012545
3122.73913696,0.00995788
3124.66794434,0.00998444
3126.59675171,0.00989239
3128.52555908,0.00987008
3130.45436645,0.00977558
3132.38317383,0.00960738
3134.31198120,0.00967943
3136.24078857,0.00958112
3138.16959595,0.00955050
3140.09840332,0.00944857
3142.02721069,0.00924813
3143.95601807,0.00924314
3145.88482544,0.00913899
3147.81363281,0.00913230
3149.74244019,0.00910919
3151.67124756,0.00891013
3153.60005493,0.00877349
3155.52886230,0.00870809
3157.45766968,0.00875497
3159.38647705,0.00875580
3161.31528442,0.00863837
3163.24409180,0.00854156
3165.17289917,0.00850648
3167.10170654,0.00845764
3169.03051392,0.00831408
3170.95932129,0.00828701
3172.88812866,0.00833438
3174.81693604,0.00819216
3176.74574341,0.00811135
3178.67455078,0.00813685
3180.60335815,0.00806256
3182.53216553,0.00807603
3184.46097290,0.00801787
3186.38978027,0.00792744
3188.31858765,0.00800049
3190.24739502,0.00783689
3192.17620239,0.00776338
3194.10500977,0.00788785
3196.03381714,0.00782002
3197.96262451,0.00776413
3199.89143188,0.00769318
3201.82023926,0.00769841
3203.74904663,0.00773678
3205.67785400,0.00767411
3207.60666138,0.00765978
3209.53546875,0.00764478
3211.46427612,0.00760554
3213.39308350,0.00753564
3215.32189087,0.00754911
3217.25069824,0.00753815
3219.17950562,0.00754364
3221.10831299,0.00756248
3223.03712036,0.00751535
3224.96592773,0.00762740
3226.89473511,0.00753080
3228.82354248,0.00744530
3230.75234985,0.00757769
3232.68115723,0.00746874
3234.60996460,0.00740367
3236.53877197,0.00754157
3238.46757935,0.00754709
3240.39638672,0.00745289
3242.32519409,0.00749746
3244.25400146,0.00752151
3246.18280884,0.00754058
3248.11161621,0.00749293
3250.04042358,0.00742366
3251.96923096,0.00753380
3253.89803833,0.00751253
3255.82684570,0.00748487
3257.75565308,0.00751771
3259.68446045,0.00761114
3261.61326782,0.00760697
3263.54207520,0.00749161
3265.47088257,0.00753054
3267.39968994,0.00746393
3269.32849731,0.00755870
3271.25730469,0.00767414
3273.18611206,0.00763143
3275.11491943,0.00768557
3277.04372681,0.00769762
3278.97253418,0.00763051
3280.90134155,0.00760062
3282.83014893,0.00766173
3284.75895630,0.00763191
3286.68776367,0.00772283
3288.61657104,0.00767600
3290.54537842,0.00763043
3292.47418579,0.00769278
3294.40299316,0.00757997
3296.33180054,0.00782395
3298.26060791,0.00776738
3300.18941528,0.00772787
3302.11822266,0.00788711
3304.04703003,0.00771899
3305.97583740,0.00778252
3307.90464478,0.00776567
3309.83345215,0.00783444
3311.76225952,0.00776252
3313.69106689,0.00765974
3315.61987427,0.00782006
3317.54868164,0.00782039
3319.47748901,0.00793871
3321.40629639,0.00782944
3323.33510376,0.00781277
3325.26391113,0.00791174
3327.19271851,0.00782950
3329.12152588,0.00791672
3331.05033325,0.00792594
3332.97914062,0.00791662
3334.90794800,0.00797336
3336.83675537,0.00801527
3338.76556274,0.00798441
3340.69437012,0.00801931
3342.62317749,0.00803337
3344.55198486,0.00800378
3346.48079224,0.00802112
3348.40959961,0.00800346
3350.33840698,0.00810062
3352.26721436,0.00806952
3354.19602173,0.00808297
3356.12482910,0.00808598
3358.05363647,0.00801726
3359.98244385,0.00813569
3361.91125122,0.00815788
3363.84005859,0.00813652
3365.76886597,0.00814369
3367.69767334,0.00817500
3369.62648071,0.00822386
3371.55528809,0.00829512
3373.48409546,0.00820677
3375.41290283,0.00820297
3377.34171020,0.00829112
3379.27051758,0.00820481
3381.19932495,0.00837884
3383.12813232,0.00837258
3385.05693970,0.00834281
3386.98574707,0.00844991
3388.91455444,0.00846001
3390.84336182,0.00850724
3392.77216919,0.00841152
3394.70097656,0.00851185
3396.62978394,0.00851231
3398.55859131,0.00858986
3400.48739868,0.00874477
3402.41620605,0.00860471
3404.34501343,0.00866308
3406.27382080,0.00878829
3408.20262817,0.00885133
3410.13143555,0.00879482
3412.06024292,0.00883389
3413.98905029,0.00886486
3415.91785767,0.00884459
3417.84666504,0.00893769
3419.77547241,0.00893871
3421.70427979,0.00899959
3423.63308716,0.00898085
3425.56189453,0.00906611
3427.49070190,0.00916350
3429.41950928,0.00923357
3431.34831665,0.00927172
3433.27712402,0.00915506
3435.20593140,0.00925885
3437.13473877,0.00932221
3439.06354614,0.00937921
3440.99235352,0.00936943
3442.92116089,0.00937773
3444.84996826,0.00945794
3446.77877563,0.00937234
3448.70758301,0.00942582
3450.63639038,0.00953856
3452.56519775,0.00964267
3454.49400513,0.00971657
3456.42281250,0.00974314
3458.35161987,0.00964106
3460.28042725,0.00972402
3462.20923462,0.00989293
3464.13804199,0.00984409
3466.06684937,0.00990720
3467.99565674,0.00991255
3469.92446411,0.01004789
3471.85327148,0.01007060
3473.78207886,0.01000122
3475.71088623,0.01002411
3477.63969360,0.01007517
3479.56850098,0.01018142
3481.49730835,0.01004147
3483.42611572,0.01026604
3485.35492310,0.01034462
3487.28373047,0.01023910
3489.21253784,0.01038984
3491.14134521,0.01041613
3493.07015259,0.01051601
3494.99895996,0.01049191
3496.92776733,0.01058829
3498.85657471,0.01068790
3500.78538208,0.01070774
3502.71418945,0.01051155
3504.64299683,0.01051091
3506.57180420,0.01091740
3508.50061157,0.01072593
3510.42941895,0.01074318
3512.35822632,0.01091404
3514.28703369,0.01102836
3516.21584106,0.01119842
3518.14464844,0.01108671
3520.07345581,0.01116391
3522.00226318,0.01113295
3523.93107056,0.01110546
3525.85987793,0.01109738
3527.78868530,0.01110857
3529.71749268,0.01122089
3531.64630005,0.01137311
3533.57510742,0.01152556
3535.50391479,0.01147180
3537.43272217,0.01155164
3539.36152954,0.01161231
3541.29033691,0.01169482
3543.21914429,0.01165439
3545.14795166,0.01135051
3547.07675903,0.01129852
3549.00556641,0.01176397
3550.93437378,0.01192879
3552.86318115,0.01165452
3554.79198853,0.01198944
3556.72079590,0.01212559
3558.64960327,0.01206842
3560.57841064,0.01199016
3562.50721802,0.01195638
3564.43602539,0.01214968
3566.36483276,0.01141546
3568.29364014,0.01120930
3570.22244751,0.01214430
3572.15125488,0.01249092
3574.08006226,0.01232151
3576.00886963,0.01244676
3577.93767700,0.01248889
3579.86648437,0.01246855
3581.79529175,0.01259083
3583.72409912,0.01265007
3585.65290649,0.01243183
3587.58171387,0.01147482
3589.51052124,0.01182356
3591.43932861,0.01278668
3593.36813599,0.01256204
3595.29694336,0.01250775
3597.22575073,0.01263837
3599.15455811,0.01287750
3601.08336548,0.01275219
3603.01217285,0.01294999
3604.94098022,0.01323849
3606.86978760,0.01270095
3608.79859497,0.01213022
3610.72740234,0.01238945
3612.65620972,0.01279473
3614.58501709,0.01245423
3616.51382446,0.01331196
3618.44263184,0.01239296
3620.37143921,0.01193084
3622.30024658,0.01359402
3624.22905395,0.01321029
3626.15786133,0.01391638
3628.08666870,0.01191171
3630.01547607,0.01077372
3631.94428345,0.01373918
3633.87309082,0.01350665
3635.80189819,0.01362536
3637.73070557,0.01400012
3639.65951294,0.01398560
3641.58832031,0.01402405
3643.51712769,0.01394895
3645.44593506,0.01424132
3647.37474243,0.01268717
3649.30354980,0.01171529
3651.23235718,0.01199236
3653.16116455,0.01427280
3655.08997192,0.01412270
3657.01877930,0.01281783
3658.94758667,0.01484260
3660.87639404,0.01447046
3662.80520142,0.01474196
3664.73400879,0.01471868
3666.66281616,0.01464448
3668.59162354,0.01435044
3670.52043091,0.01172891
3672.44923828,0.01433811
3674.37804565,0.01375387
3676.30685303,0.01133311
3678.23566040,0.01433934
3680.16446777,0.01470734
3682.09327515,0.01482142
3684.02208252,0.01537411
3685.95088989,0.01506662
3687.87969727,0.01372952
3689.80850464,0.01258228
3691.73731201,0.01428728
3693.66611938,0.01481412
3695.59492676,0.01513995
3697.52373413,0.01526140
3699.45254150,0.01515129
3701.38134888,0.01477956
3703.31015625,0.01433711
3705.23896362,0.01580927
3707.16777100,0.01501870
3709.09657837,0.01467165
3711.02538574,0.01385320
3712.95419312,0.01294286
3714.88300049,0.01529517
3716.81180786,0.01506616
3718.74061523,0.01513300
3720.66942261,0.01483826
3722.59822998,0.01435237
3724.52703735,0.01501923
3726.45584473,0.01384972
3728.38465210,0.01501549
3730.31345947,0.01491841
3732.24226685,0.01371742
3734.17107422,0.01337206
3736.09988159,0.01257543
3738.02868896,0.01345351
3739.95749634,0.01461070
3741.88630371,0.01523846
3743.81511108,0.01187759
3745.74391846,0.01112300
3747.67272583,0.01448948
3749.60153320,0.01254805
3751.53034058,0.01156178
3753.45914795,0.01323071
3755.38795532,0.01424783
3757.31676270,0.01490797
3759.24557007,0.01377570
3761.17437744,0.01422985
3763.10318481,0.01517370
3765.03199219,0.01423201
3766.96079956,0.01453128
3768.88960693,0.01428360
3770.81841431,0.01368574
3772.74722168,0.01489883
3774.67602905,0.01485743
3776.60483643,0.01487236
3778.53364380,0.01450456
3780.46245117,0.01392218
3782.39125854,0.01482869
3784.32006592,0.01450210
3786.24887329,0.01443828
3788.17768066,0.01470686
3790.10648804,0.01470975
3792.03529541,0.01464074
3793.96410278,0.01477415
3795.89291016,0.01387088
3797.82171753,0.01367583
3799.75052490,0.01450439
3801.67933228,0.01150365
3803.60813965,0.01333499
3805.53694702,0.01452259
3807.46575439,0.01191132
3809.39456177,0.01446047
3811.32336914,0.01417099
3813.25217651,0.01469945
3815.18098389,0.01330959
3817.10979126,0.01163494
3819.03859863,0.01473588
3820.96740601,0.01193672
3822.89621338,0.01251427
3824.82502075,0.01463044
3826.75382812,0.01314871
3828.68263550,0.01420562
3830.61144287,0.01371265
3832.54025024,0.01313219
3834.46905762,0.01347492
3836.39786499,0.01283820
3838.32667236,0.01153252
3840.25547974,0.01248996
3842.18428711,0.01345589
3844.11309448,0.01289394
3846.04190186,0.01402585
3847.97070923,0.01375490
3849.89951660,0.01370424
3851.82832397,0.01242028
3853.75713135,0.00932592
3855.68593872,0.01101384
3857.61474609,0.01386929
3859.54355347,0.01345003
3861.47236084,0.01328730
3863.40116821,0.01300651
3865.32997559,0.01208012
3867.25878296,0.01354309
3869.18759033,0.01231968
3871.11639770,0.01134626
3873.04520508,0.01355426
3874.97401245,0.01246687
3876.90281982,0.01339143
3878.83162720,0.01371700
3880.76043457,0.01175482
3882.68924194,0.01351309
3884.61804932,0.01264889
3886.54685669,0.01156592
3888.47566406,0.01361767
3890.40447144,0.01283158
3892.33327881,0.01203579
3894.26208618,0.01322114
3896.19089355,0.01339974
3898.11970093,0.01275285
3900.04850830,0.01201380
3901.97731567,0.01198068
3903.90612305,0.01179819
3905.83493042,0.01197269
3907.76373779,0.01320942
3909.69254517,0.01312156
3911.62135254,0.01301805
3913.55015991,0.01324599
3915.47896728,0.01287420
3917.40777466,0.01249498
3919.33658203,0.01230020
3921.26538940,0.01281816
3923.19419678,0.01276921
3925.12300415,0.01254944
3927.05181152,0.01276476
3928.98061890,0.01289771
3930.90942627,0.01253128
3932.83823364,0.01215484
3934.76704102,0.01275931
3936.69584839,0.01270480
3938.62465576,0.01267186
3940.55346313,0.01285324
3942.48227051,0.01239887
3944.41107788,0.01246979
3946.33988525,0.01261037
3948.26869263,0.01241516
3950.19750000,0.01230213
3952.12630737,0.01257196
3954.05511475,0.01264497
3955.98392212,0.01254851
3957.91272949,0.01250941
3959.84153687,0.01237239
3961.77034424,0.01243184
3963.69915161,0.01239076
3965.62795898,0.01238482
3967.55676636,0.01230817
3969.48557373,0.01229864
3971.41438110,0.01234287
3973.34318848,0.01229632
3975.27199585,0.01227969
3977.20080322,0.01223141
3979.12961060,0.01231716
3981.05841797,0.01221593
3982.98722534,0.01228562
3984.91603271,0.01222557
3986.84484009,0.01211565
3988.77364746,0.01223197
3990.70245483,0.01202403
3992.63126221,0.01203182
3994.56006958,0.01202036
3996.48887695,0.01200909
3998.41768433,0.01209203
4000.34649170,0.01203123
4002.27529907,0.01196664
4004.20410645,0.01191457
4006.13291382,0.01195306
4008.06172119,0.01187870
4009.99052856,0.01184275
4011.91933594,0.01183717
4013.84814331,0.01187447
4015.77695068,0.01180854
4017.70575806,0.01183047
4019.63456543,0.01183560
4021.56337280,0.01161508
4023.49218018,0.01178384
4025.42098755,0.01169644
4027.34979492,0.01162294
4029.27860229,0.01171066
4031.20740967,0.01155793
4033.13621704,0.01161675
4035.06502441,0.01159380
4036.99383179,0.01157341
4038.92263916,0.01157516
4040.85144653,0.01157093
4042.78025391,0.01149392
4044.70906128,0.01141024
4046.63786865,0.01149508
4048.56667603,0.01153482
4050.49548340,0.01152216
4052.42429077,0.01142401
4054.35309814,0.01140485
4056.28190552,0.01131801
4058.21071289,0.01133755
4060.13952026,0.01137678
4062.06832764,0.01128763
4063.99713501,0.01131315
4065.92594238,0.01124168
4067.85474976,0.01126543
4069.78355713,0.01122539
4071.71236450,0.01118994
4073.64117187,0.01118334
4075.56997925,0.01110890
4077.49878662,0.01109309
4079.42759399,0.01102394
4081.35640137,0.01108480
4083.28520874,0.01108411
4085.21401611,0.01108599
4087.14282349,0.01106205
4089.07163086,0.01103744
4091.00043823,0.01106481
4092.92924561,0.01101499
4094.85805298,0.01098167
4096.78686035,0.01088073
4098.71566772,0.01092177
4100.64447510,0.01085047
4102.57328247,0.01084357
4104.50208984,0.01085368
4106.43089722,0.01077291
4108.35970459,0.01088415
4110.28851196,0.01073151
4112.21731934,0.01073125
4114.14612671,0.01076013
4116.07493408,0.01065113
4118.00374145,0.01066778
4119.93254883,0.01068485
4121.86135620,0.01069421
4123.79016357,0.01056568
4125.71897095,0.01058948
4127.64777832,0.01050946
4129.57658569,0.01052503
4131.50539307,0.01061086
4133.43420044,0.01040889
4135.36300781,0.01048631
4137.29181519,0.01051592
4139.22062256,0.01043167
4141.14942993,0.01047758
4143.07823730,0.01049187
4145.00704468,0.01047336
4146.93585205,0.01037943
4148.86465942,0.01031534
4150.79346680,0.01032497
4152.72227417,0.01025803
4154.65108154,0.01023352
4156.57988892,0.01029007
4158.50869629,0.01020328
4160.43750366,0.01020428
4162.36631103,0.01022931
4164.29511841,0.01023202
4166.22392578,0.01015164
4168.15273315,0.01003238
4170.08154053,0.01013017
4172.01034790,0.01005874
4173.93915527,0.01005558
4175.86796265,0.01008361
4177.79677002,0.01002492
4179.72557739,0.01001613
4181.65438477,0.00998081
4183.58319214,0.01003739
4185.51199951,0.00993997
4187.44080688,0.00991176
4189.36961426,0.00990776
4191.29842163,0.00990297
4193.22722900,0.00990715
4195.15603638,0.00986866
4197.08484375,0.00995112
4199.01365112,0.00984866
4200.94245850,0.00984101
4202.87126587,0.00975887
4204.80007324,0.00967473
4206.72888062,0.00974276
4208.65768799,0.00966591
4210.58649536,0.00969983
4212.51530273,0.00963065
4214.44411011,0.00956374
4216.37291748,0.00959148
4218.30172485,0.00963828
4220.23053223,0.00964550
4222.15933960,0.00959166
4224.08814697,0.00955019
4226.01695435,0.00948597
4227.94576172,0.00953362
4229.87456909,0.00945283
4231.80337646,0.00948875
4233.73218384,0.00954584
4235.66099121,0.00947791
4237.58979858,0.00943209
4239.51860596,0.00933071
4241.44741333,0.00943562
4243.37622070,0.00936274
4245.30502808,0.00930033
4247.23383545,0.00935102
4249.16264282,0.00931446
4251.09145020,0.00930281
4253.02025757,0.00918844
4254.94906494,0.00924602
4256.87787231,0.00921526
4258.80667969,0.00914948
4260.73548706,0.00916346
4262.66429443,0.00915165
4264.59310181,0.00923057
4266.52190918,0.00910578
4268.45071655,0.00901396
4270.37952393,0.00910957
4272.30833130,0.00918154
4274.23713867,0.00911476
4276.16594604,0.00900670
4278.09475342,0.00902847
4280.02356079,0.00903742
4281.95236816,0.00897304
4283.88117554,0.00897657
4285.80998291,0.00897283
4287.73879028,0.00889599
4289.66759766,0.00894653
4291.59640503,0.00892940
4293.52521240,0.00894136
4295.45401978,0.00891046
4297.38282715,0.00875504
4299.31163452,0.00889293
4301.24044189,0.00885556
4303.16924927,0.00872278
4305.09805664,0.00879640
4307.02686401,0.00872566
4308.95567139,0.00865296
4310.88447876,0.00867795
4312.81328613,0.00867832
4314.74209351,0.00865602
4316.67090088,0.00859274
4318.59970825,0.00860175
4320.52851562,0.00870924
4322.45732300,0.00858954
4324.38613037,0.00851651
4326.31493774,0.00854830
4328.24374512,0.00850784
4330.17255249,0.00856517
4332.10135986,0.00849071
4334.03016724,0.00846064
4335.95897461,0.00848230
4337.88778198,0.00848202
4339.81658936,0.00845707
4341.74539673,0.00838221
4343.67420410,0.00845749
4345.60301147,0.00839861
4347.53181885,0.00833473
4349.46062622,0.00835477
4351.38943359,0.00828068
4353.31824097,0.00823154
4355.24704834,0.00831046
4357.17585571,0.00829474
4359.10466309,0.00815237
4361.03347046,0.00823688
4362.96227783,0.00829950
4364.89108520,0.00825749
4366.81989258,0.00809062
4368.74869995,0.00804457
4370.67750732,0.00818226
4372.60631470,0.00810179
4374.53512207,0.00809541
4376.46392944,0.00808611
4378.39273682,0.00806690
4380.32154419,0.00804901
4382.25035156,0.00805667
4384.17915894,0.00806608
4386.10796631,0.00794183
4388.03677368,0.00799987
4389.96558105,0.00796303
4391.89438843,0.00794359
4393.82319580,0.00795726
4395.75200317,0.00787863
4397.68081055,0.00790356
4399.60961792,0.00785638
4401.53842529,0.00787616
4403.46723267,0.00787181
4405.39604004,0.00781876
4407.32484741,0.00779322
4409.25365478,0.00783504
4411.18246216,0.00783175
4413.11126953,0.00771081
4415.04007690,0.00777087
4416.96888428,0.00774774
4418.89769165,0.00765727
4420.82649902,0.00768179
4422.75530640,0.00765692
4424.68411377,0.00763308
4426.61292114,0.00767640
4428.54172852,0.00760529
4430.47053589,0.00756050
4432.39934326,0.00764150
4434.32815063,0.00749548
4436.25695801,0.00748488
4438.18576538,0.00761257
4440.11457275,0.00754843
4442.04338013,0.00750629
4443.97218750,0.00754504
4445.90099487,0.00750187
4447.82980225,0.00742235
4449.75860962,0.00748217
4451.68741699,0.00735365
4453.61622437,0.00734925
4455.54503174,0.00747869
4457.47383911,0.00736413
4459.40264648,0.00735132
4461.33145386,0.00731657
4463.26026123,0.00730562
4465.18906860,0.00735996
4467.11787598,0.00737115
4469.04668335,0.00727761
4470.97549072,0.00721373
4472.90429810,0.00726024
4474.83310547,0.00720793
4476.76191284,0.00724462
4478.69072021,0.00717629
4480.61952759,0.00713870
4482.54833496,0.00712797
4484.47714233,0.00704185
4486.40594971,0.00718802
4488.33475708,0.00717376
4490.26356445,0.00706109
4492.19237183,0.00707346
4494.12117920,0.00708854
4496.04998657,0.00702501
4497.97879395,0.00697184
4499.90760132,0.00697560
4501.83640869,0.00697694
4503.76521606,0.00700532
4505.69402344,0.00690353
4507.62283081,0.00690551
4509.55163818,0.00696717
4511.48044556,0.00697658
4513.40925293,0.00701214
4515.33806030,0.00693876
4517.26686768,0.00687800
4519.19567505,0.00688610
4521.12448242,0.00690527
4523.05328979,0.00682130
4524.98209717,0.00683145
4526.91090454,0.00683293
4528.83971191,0.00672361
4530.76851929,0.00677714
4532.69732666,0.00679435
4534.62613403,0.00673781
4536.55494141,0.00672382
4538.48374878,0.00673639
4540.41255615,0.00667586
4542.34136353,0.00671000
4544.27017090,0.00673192
4546.19897827,0.00665906
4548.12778564,0.00665516
4550.05659302,0.00655905
4551.98540039,0.00663779
4553.91420776,0.00657799
4555.84301514,0.00652316
4557.77182251,0.00664882
4559.70062988,0.00652691
4561.62943726,0.00659228
4563.55824463,0.00654002
4565.48705200,0.00650041
4567.41585937,0.00654434
4569.34466675,0.00633096
4571.27347412,0.00647473
4573.20228149,0.00651710
4575.13108887,0.00631317
4577.05989624,0.00644174
4578.98870361,0.00644246
4580.91751099,0.00632110
4582.84631836,0.00640392
4584.77512573,0.00636064
4586.70393311,0.00632249
4588.63274048,0.00629075
4590.56154785,0.00624686
4592.49035522,0.00636818
4594.41916260,0.00627064
4596.34796997,0.00627575
4598.27677734,0.00635315
4600.20558472,0.00619685
4602.13439209,0.00619144
4604.06319946,0.00621811
4605.99200684,0.00618349
4607.92081421,0.00618216
4609.84962158,0.00617950
4611.77842895,0.00612442
4613.70723633,0.00617814
4615.63604370,0.00621413
4617.56485107,0.00609467
4619.49365845,0.00605000
4621.42246582,0.00604423
4623.35127319,0.00616240
4625.28008057,0.00614506
4627.20888794,0.00602385
4629.13769531,0.00605937
4631.06650269,0.00597022
4632.99531006,0.00595694
4634.92411743,0.00603274
4636.85292480,0.00597219
4638.78173218,0.00598167
4640.71053955,0.00597047
4642.63934692,0.00587278
4644.56815430,0.00590192
4646.49696167,0.00583545
4648.42576904,0.00584274
4650.35457642,0.00597656
4652.28338379,0.00586983
4654.21219116,0.00582104
4656.14099853,0.00583307
4658.06980591,0.00583174
4659.99861328,0.00579014
4661.92742065,0.00579241
4663.85622803,0.00584555
4665.78503540,0.00576617
4667.71384277,0.00580216
4669.64265015,0.00573044
4671.57145752,0.00566097
4673.50026489,0.00569026
4675.42907227,0.00566204
4677.35787964,0.00566278
4679.28668701,0.00566314
4681.21549438,0.00573506
4683.14430176,0.00564366
4685.07310913,0.00560315
4687.00191650,0.00562303
4688.93072388,0.00560990
4690.85953125,0.00561977
4692.78833862,0.00560919
4694.71714600,0.00568318
4696.64595337,0.00552075
4698.57476074,0.00550626
4700.50356812,0.00550096
4702.43237549,0.00544248
4704.36118286,0.00559963
4706.28999023,0.00550754
4708.21879761,0.00548885
4710.14760498,0.00544931
4712.07641235,0.00542354
4714.00521973,0.00545010
4715.93402710,0.00535403
4717.86283447,0.00539388
4719.79164185,0.00538418
4721.72044922,0.00541501
4723.64925659,0.00543061
4725.57806396,0.00537085
4727.50687134,0.00532392
4729.43567871,0.00533584
4731.36448608,0.00532823
4733.29329346,0.00531300
4735.22210083,0.00533960
4737.15090820,0.00519318
4739.07971558,0.00523176
4741.00852295,0.00526438
4742.93733032,0.00524228
4744.86613770,0.00526090
4746.79494507,0.00517881
4748.72375244,0.00520236
4750.65255981,0.00511926
4752.58136719,0.00522698
4754.51017456,0.00524223
4756.43898193,0.00510008
4758.36778931,0.00519228
4760.29659668,0.00512853
4762.22540405,0.00512783
4764.15421143,0.00509086
4766.08301880,0.00499879
4768.01182617,0.00503486
4769.94063354,0.00501786
4771.86944092,0.00496893
4773.79824829,0.00495960
4775.72705566,0.00504558
4777.65586304,0.00503380
4779.58467041,0.00498750
4781.51347778,0.00498364
4783.44228516,0.00498177
4785.37109253,0.00496667
4787.29989990,0.00493735
4789.22870728,0.00491576
4791.15751465,0.00488009
4793.08632202,0.00492496
4795.01512939,0.00491655
4796.94393677,0.00491219
4798.87274414,0.00489123
4800.80155151,0.00483568
4802.73035889,0.00483550
4804.65916626,0.00483309
4806.58797363,0.00484090
4808.51678101,0.00475269
4810.44558838,0.00483679
4812.37439575,0.00488293
4814.30320312,0.00477018
4816.23201050,0.00479198
4818.16081787,0.00476637
4820.08962524,0.00477560
4822.01843262,0.00470875
4823.94723999,0.00469348
4825.87604736,0.00468664
4827.80485474,0.00462627
4829.73366211,0.00475521
4831.66246948,0.00470176
4833.59127686,0.00469814
4835.52008423,0.00467640
4837.44889160,0.00460107
4839.37769897,0.00468639
4841.30650635,0.00454442
4843.23531372,0.00462590
4845.16412109,0.00472654
4847.09292847,0.00452946
4849.02173584,0.00451956
4850.95054321,0.00455203
4852.87935059,0.00458457
4854.80815796,0.00456550
4856.73696533,0.00451617
4858.66577270,0.00448690
4860.59458008,0.00454290
4862.52338745,0.00466275
4864.45219482,0.00450849
4866.38100220,0.00449691
4868.30980957,0.00454763
4870.23861694,0.00442217
4872.16742432,0.00443513
4874.09623169,0.00442165
4876.02503906,0.00444216
4877.95384644,0.00443426
4879.88265381,0.00441387
4881.81146118,0.00442770
4883.74026855,0.00432972
4885.66907593,0.00435423
4887.59788330,0.00440998
4889.52669067,0.00434941
4891.45549805,0.00428037
4893.38430542,0.00430587
4895.31311279,0.00432131
4897.24192017,0.00431709
4899.17072754,0.00435232
4901.09953491,0.00430950
4903.02834228,0.00427305
4904.95714966,0.00418153
4906.88595703,0.00413805
4908.81476440,0.00421092
4910.74357178,0.00425226
4912.67237915,0.00423838
4914.60118652,0.00421105
4916.52999390,0.00426317
4918.45880127,0.00421831
4920.38760864,0.00414406
4922.31641602,0.00411715
4924.24522339,0.00411181
4926.17403076,0.00410836
4928.10283813,0.00407443
4930.03164551,0.00413088
4931.96045288,0.00407595
4933.88926025,0.00402991
4935.81806763,0.00410393
4937.74687500,0.00412837
4939.67568237,0.00411441
4941.60448975,0.00404809
4943.53329712,0.00397785
4945.46210449,0.00399658
4947.39091187,0.00406180
4949.31971924,0.00400750
4951.24852661,0.00401173
4953.17733398,0.00397465
4955.10614136,0.00391477
4957.03494873,0.00397712
4958.96375610,0.00394136
4960.89256348,0.00398169
4962.82137085,0.00394596
4964.75017822,0.00391270
4966.67898560,0.00393828
4968.60779297,0.00391701
4970.53660034,0.00395842
4972.46540771,0.00384722
4974.39421509,0.00384247
4976.32302246,0.00389525
4978.25182983,0.00386570
4980.18063721,0.00384473
4982.10944458,0.00389901
4984.03825195,0.00388588
4985.96705933,0.00368160
4987.89586670,0.00382681
4989.82467407,0.00389733
4991.75348145,0.00377582
4993.68228882,0.00380582
4995.61109619,0.00375263
4997.53990356,0.00373804
4999.46871094,0.00371411
5001.39751831,0.00374521
5003.32632568,0.00375090
5005.25513306,0.00371601
5007.18394043,0.00371678
5009.11274780,0.00369560
5011.04155518,0.00368715
5012.97036255,0.00364428
5014.89916992,0.00370740
5016.82797729,0.00366980
5018.75678467,0.00363395
5020.68559204,0.00367470
5022.61439941,0.00365538
5024.54320679,0.00366468
5026.47201416,0.00357624
5028.40082153,0.00359111
5030.32962891,0.00359333
5032.25843628,0.00357091
5034.18724365,0.00362489
5036.11605103,0.00359749
5038.04485840,0.00361593
5039.97366577,0.00357029
5041.90247314,0.00351257
5043.83128052,0.00353591
5045.76008789,0.00354330
5047.68889526,0.00352998
5049.61770264,0.00350092
5051.54651001,0.00344355
5053.47531738,0.00345443
5055.40412476,0.00351585
5057.33293213,0.00346728
5059.26173950,0.00347438
5061.19054687,0.00345721
5063.11935425,0.00341884
5065.04816162,0.00342717
5066.97696899,0.00338152
5068.90577637,0.00339947
5070.83458374,0.00334192
5072.76339111,0.00333116
5074.69219849,0.00340854
5076.62100586,0.00336212
5078.54981323,0.00336214
5080.47862061,0.00339556
5082.40742798,0.00337491
5084.33623535,0.00333982
5086.26504272,0.00326034
5088.19385010,0.00326966
5090.12265747,0.00339595
5092.05146484,0.00336848
5093.98027222,0.00330131
5095.90907959,0.00333353
5097.83788696,0.00330486
5099.76669434,0.00324779
5101.69550171,0.00323553
5103.62430908,0.00325512
5105.55311645,0.00325101
5107.48192383,0.00324746
5109.41073120,0.00321635
5111.33953857,0.00319869
5113.26834595,0.00323085
5115.19715332,0.00322307
5117.12596069,0.00320215
5119.05476807,0.00314958
5120.98357544,0.00317205
5122.91238281,0.00323085
5124.84119019,0.00319454
5126.76999756,0.00312007
5128.69880493,0.00308751
5130.62761230,0.00314491
5132.55641968,0.00320648
5134.48522705,0.00321241
5136.41403442,0.00314385
5138.34284180,0.00313814
5140.27164917,0.00310345
5142.20045654,0.00306822
5144.12926392,0.00315679
5146.05807129,0.00308202
5147.98687866,0.00304655
5149.91568603,0.00313294
5151.84449341,0.00318510
5153.77330078,0.00313898
5155.70210815,0.00302022
5157.63091553,0.00303195
5159.55972290,0.00300671
5161.48853027,0.00303705
5163.41733765,0.00304025
5165.34614502,0.00290297
5167.27495239,0.00295466
5169.20375977,0.00304488
5171.13256714,0.00300952
5173.06137451,0.00295765
5174.99018188,0.00300619
5176.91898926,0.00302815
5178.84779663,0.00295836
5180.77660400,0.00295494
5182.70541138,0.00295467
5184.63421875,0.00297012
5186.56302612,0.00295032
5188.49183350,0.00287574
5190.42064087,0.00291369
5192.34944824,0.00295598
5194.27825562,0.00291069
5196.20706299,0.00292089
5198.13587036,0.00293902
5200.06467773,0.00289850
5201.99348511,0.00291428
5203.92229248,0.00289135
5205.85109985,0.00282373
5207.77990723,0.00280593
5209.70871460,0.00276406
5211.63752197,0.00284806
5213.56632935,0.00291175
5215.49513672,0.00279366
5217.42394409,0.00282147
5219.35275146,0.00283307
5221.28155884,0.00282615
5223.21036621,0.00283226
5225.13917358,0.00264329
5227.06798096,0.00268906
5228.99678833,0.00272949
5230.92559570,0.00262985
5232.85440308,0.00275662
5234.78321045,0.00278619
5236.71201782,0.00276061
5238.64082520,0.00272145
5240.56963257,0.00270073
5242.49843994,0.00279356
5244.42724731,0.00274524
5246.35605469,0.00267768
5248.28486206,0.00264035
5250.21366943,0.00260740
5252.14247681,0.00264811
5254.07128418,0.00268140
5256.00009155,0.00268880
5257.92889893,0.00268433
5259.85770630,0.00266751
5261.78651367,0.00264558
5263.71532104,0.00264797
5265.64412842,0.00265622
5267.57293579,0.00262896
5269.50174316,0.00255638
5271.43055054,0.00259753
5273.35935791,0.00265243
5275.28816528,0.00254440
5277.21697266,0.00259732
5279.14578003,0.00263806
5281.07458740,0.00252559
5283.00339478,0.00256711
5284.93220215,0.00260248
5286.86100952,0.00262089
5288.78981689,0.00257560
5290.71862427,0.00250798
5292.64743164,0.00259366
5294.57623901,0.00255584
5296.50504639,0.00254885
5298.43385376,0.00257797
5300.36266113,0.00254193
5302.29146851,0.00253898
5304.22027588,0.00245742
5306.14908325,0.00251559
5308.07789062,0.00248409
5310.00669800,0.00244734
5311.93550537,0.00255337
5313.86431274,0.00248431
5315.79312012,0.00250090
5317.72192749,0.00245330
5319.65073486,0.00244440
5321.57954224,0.00249900
5323.50834961,0.00246330
5325.43715698,0.00249097
5327.36596436,0.00238029
5329.29477173,0.00242860
5331.22357910,0.00243639
5333.15238647,0.00233995
5335.08119385,0.00240268
5337.01000122,0.00235205
5338.93880859,0.00231545
5340.86761597,0.00232835
5342.79642334,0.00238478
5344.72523071,0.00233657
5346.65403809,0.00229912
5348.58284546,0.00235764
5350.51165283,0.00235758
5352.44046020,0.00236535
5354.36926758,0.00229201
5356.29807495,0.00236532
5358.22688232,0.00232394
5360.15568970,0.00225701
5362.08449707,0.00239168
5364.01330444,0.00236129
5365.94211182,0.00234210
5367.87091919,0.00229569
5369.79972656,0.00231602
5371.72853394,0.00232453
5373.65734131,0.00226262
5375.58614868,0.00227936
5377.51495605,0.00226539
5379.44376343,0.00233314
5381.37257080,0.00230230
5383.30137817,0.00233865
5385.23018555,0.00234896
5387.15899292,0.00219405
5389.08780029,0.00227496
5391.01660767,0.00232367
5392.94541504,0.00219021
5394.87422241,0.00215032
5396.80302978,0.00227570
5398.73183716,0.00228704
5400.66064453,0.00223833
5402.58945190,0.00226806
5404.51825928,0.00222554
5406.44706665,0.00224661
5408.37587402,0.00220565
5410.30468140,0.00210391
5412.23348877,0.00212844
5414.16229614,0.00215551
5416.09110352,0.00215078
5418.01991089,0.00214968
5419.94871826,0.00216412
5421.87752563,0.00217471
5423.80633301,0.00216090
5425.73514038,0.00217641
5427.66394775,0.00214610
5429.59275513,0.00208216
5431.52156250,0.00217824
5433.45036987,0.00214695
5435.37917725,0.00204088
5437.30798462,0.00215621
5439.23679199,0.00214751
5441.16559936,0.00206471
5443.09440674,0.00211736
5445.02321411,0.00211911
5446.95202148,0.00202728
5448.88082886,0.00207144
5450.80963623,0.00212150
5452.73844360,0.00203568
5454.66725098,0.00202747
5456.59605835,0.00205557
5458.52486572,0.00209469
5460.45367310,0.00202546
5462.38248047,0.00200052
5464.31128784,0.00205979
5466.24009521,0.00198139
5468.16890259,0.00200441
5470.09770996,0.00202383
5472.02651733,0.00199572
5473.95532471,0.00194622
5475.88413208,0.00189377
5477.81293945,0.00197128
5479.74174683,0.00202229
5481.67055420,0.00198550
5483.59936157,0.00192933
5485.52816895,0.00200100
5487.45697632,0.00196946
5489.38578369,0.00189870
5491.31459106,0.00200021
5493.24339844,0.00196454
5495.17220581,0.00195116
5497.10101318,0.00200800
5499.02982056,0.00193883
5500.95862793,0.00187203
5502.88743530,0.00191433
5504.81624268,0.00197594
5506.74505005,0.00195316
5508.67385742,0.00185345
5510.60266479,0.00183913
5512.53147217,0.00195983
5514.46027954,0.00192801
5516.38908691,0.00187825
5518.31789429,0.00194521
5520.24670166,0.00193212
5522.17550903,0.00186878
5524.10431641,0.00185758
5526.03312378,0.00189591
5527.96193115,0.00185017
5529.89073853,0.00183873
5531.81954590,0.00189738
5533.74835327,0.00187939
5535.67716064,0.00184391
5537.60596802,0.00183674
5539.53477539,0.00185173
5541.46358276,0.00183379
5543.39239014,0.00180160
5545.32119751,0.00179678
5547.25000488,0.00179124
5549.17881226,0.00179126
5551.10761963,0.00180173
5553.03642700,0.00180308
5554.96523437,0.00183070
5556.89404175,0.00180881
5558.82284912,0.00180845
5560.75165649,0.00187010
5562.68046387,0.00180167
5564.60927124,0.00177960
5566.53807861,0.00173663
5568.46688599,0.00174404
5570.39569336,0.00180859
5572.32450073,0.00173570
5574.25330811,0.00180679
5576.18211548,0.00179559
5578.11092285,0.00177448
5580.03973022,0.00176344
5581.96853760,0.00170848
5583.89734497,0.00177046
5585.82615234,0.00171700
5587.75495972,0.00177654
5589.68376709,0.00172064
5591.61257446,0.00164893
5593.54138184,0.00175048
5595.47018921,0.00169039
5597.39899658,0.00167046
5599.32780395,0.00168230
5601.25661133,0.00173079
5603.18541870,0.00167512
5605.11422607,0.00161748
5607.04303345,0.00162264
5608.97184082,0.00162890
5610.90064819,0.00173631
5612.82945557,0.00170046
5614.75826294,0.00173655
5616.68707031,0.00169556
5618.61587769,0.00161775
5620.54468506,0.00163160
5622.47349243,0.00158871
5624.40229980,0.00167127
5626.33110718,0.00160372
5628.25991455,0.00158790
5630.18872192,0.00163802
5632.11752930,0.00160476
5634.04633667,0.00161029
5635.97514404,0.00158594
5637.90395142,0.00164000
5639.83275879,0.00163903
5641.76156616,0.00163383
5643.69037353,0.00155547
5645.61918091,0.00153576
5647.54798828,0.00159058
5649.47679565,0.00151141
5651.40560303,0.00157771
5653.33441040,0.00155379
5655.26321777,0.00153830
5657.19202515,0.00160673
5659.12083252,0.00157134
5661.04963989,0.00157024
5662.97844727,0.00150645
5664.90725464,0.00150472
5666.83606201,0.00150562
5668.76486938,0.00152728
5670.69367676,0.00158411
5672.62248413,0.00146963
5674.55129150,0.00144393
5676.48009888,0.00145315
5678.40890625,0.00142736
5680.33771362,0.00155062
5682.26652100,0.00154393
5684.19532837,0.00142259
5686.12413574,0.00145599
5688.05294311,0.00145167
5689.98175049,0.00144487
5691.91055786,0.00149630
5693.83936523,0.00148616
5695.76817261,0.00152584
5697.69697998,0.00148366
5699.62578735,0.00141074
5701.55459473,0.00145953
5703.48340210,0.00145698
5705.41220947,0.00146181
5707.34101685,0.00149366
5709.26982422,0.00152481
5711.19863159,0.00151538
5713.12743896,0.00142204
5715.05624634,0.00140400
5716.98505371,0.00137530
5718.91386108,0.00138470
5720.84266846,0.00143021
5722.77147583,0.00141311
5724.70028320,0.00148969
5726.62909058,0.00144714
5728.55789795,0.00142370
5730.48670532,0.00145176
5732.41551270,0.00133319
5734.34432007,0.00142051
5736.27312744,0.00145084
5738.20193481,0.00132494
5740.13074219,0.00134515
5742.05954956,0.00138423
5743.98835693,0.00139712
5745.91716431,0.00133608
5747.84597168,0.00130733
5749.77477905,0.00137693
5751.70358643,0.00137084
5753.63239380,0.00136455
5755.56120117,0.00136795
5757.49000854,0.00132280
5759.41881592,0.00134389
5761.34762329,0.00128706
5763.27643066,0.00132986
5765.20523804,0.00141786
5767.13404541,0.00126249
5769.06285278,0.00132167
5770.99166016,0.00132642
5772.92046753,0.00127193
5774.84927490,0.00131418
5776.77808228,0.00122620
5778.70688965,0.00134159
5780.63569702,0.00130196
5782.56450439,0.00128920
5784.49331177,0.00139123
5786.42211914,0.00132424
5788.35092651,0.00131643
5790.27973389,0.00127193
5792.20854126,0.00136030
5794.13734863,0.00128001
5796.06615601,0.00121400
5797.99496338,0.00129082
5799.92377075,0.00120820
5801.85257812,0.00123591
5803.78138550,0.00119904
5805.71019287,0.00123300
5807.63900024,0.00121782
5809.56780762,0.00123005
5811.49661499,0.00127721
5813.42542236,0.00115424
5815.35422974,0.00121135
5817.28303711,0.00114835
5819.21184448,0.00118390
5821.14065186,0.00123316
5823.06945923,0.00116041
5824.99826660,0.00122017
5826.92707397,0.00116015
5828.85588135,0.00124221
5830.78468872,0.00123445
5832.71349609,0.00114812
5834.64230347,0.00119029
5836.57111084,0.00116988
5838.49991821,0.00122564
5840.42872559,0.00121448
5842.35753296,0.00118318
5844.28634033,0.00117732
5846.21514770,0.00115541
5848.14395508,0.00118341
5850.07276245,0.00120932
5852.00156982,0.00118821
5853.93037720,0.00112151
5855.85918457,0.00110271
5857.78799194,0.00107941
5859.71679932,0.00111718
5861.64560669,0.00119474
5863.57441406,0.00111513
5865.50322144,0.00108534
5867.43202881,0.00116026
5869.36083618,0.00111547
5871.28964355,0.00113708
5873.21845093,0.00118624
5875.14725830,0.00113007
5877.07606567,0.00113410
5879.00487305,0.00109842
5880.93368042,0.00112320
5882.86248779,0.00114497
5884.79129517,0.00110731
5886.72010254,0.00113126
5888.64890991,0.00106555
5890.57771728,0.00106896
5892.50652466,0.00107709
5894.43533203,0.00101577
5896.36413940,0.00101279
5898.29294678,0.00101292
5900.22175415,0.00103271
5902.15056152,0.00105075
5904.07936890,0.00104806
5906.00817627,0.00107116
5907.93698364,0.00112559
5909.86579102,0.00104980
5911.79459839,0.00098936
5913.72340576,0.00104324
5915.65221313,0.00106263
5917.58102051,0.00107337
5919.50982788,0.00105827
5921.43863525,0.00109075
5923.36744263,0.00103691
5925.29625000,0.00096424
5927.22505737,0.00103487
5929.15386475,0.00105465
5931.08267212,0.00099822
5933.01147949,0.00091904
5934.94028686,0.00093028
5936.86909424,0.00100942
5938.79790161,0.00104206
5940.72670898,0.00100751
5942.65551636,0.00099949
5944.58432373,0.00100566
5946.51313110,0.00098298
5948.44193848,0.00102661
5950.37074585,0.00101413
5952.29955322,0.00096502
5954.22836060,0.00097924
5956.15716797,0.00100546
5958.08597534,0.00098923
5960.01478271,0.00105938
5961.94359009,0.00103554
5963.87239746,0.00089402
5965.80120483,0.00099605
5967.73001221,0.00096349
5969.65881958,0.00091055
5971.58762695,0.00092608
5973.51643433,0.00088337
5975.44524170,0.00099445
5977.37404907,0.00097652
5979.30285645,0.00092170
5981.23166382,0.00086720
5983.16047119,0.00094988
5985.08927856,0.00102422
5987.01808594,0.00090296
5988.94689331,0.00094531
5990.87570068,0.00091852
5992.80450806,0.00091652
5994.73331543,0.00089227
5996.66212280,0.00090362
5998.59093018,0.00101568
6000.51973755,0.00092410
