399.26312622,0.00007028
401.19193359,-0.00003937
403.12074097,-0.00008040
405.04954834,0.00010642
406.97835571,0.00032055
408.90716309,-0.00000213
410.83597046,-0.00010103
412.76477783,-0.00009032
414.69358521,0.00000455
416.62239258,0.00064896
418.55119995,0.00041320
420.48000732,-0.00000564
422.40881470,0.00018182
424.33762207,0.00025887
426.26642944,0.00019691
428.19523682,0.00020739
430.12404419,0.00011202
432.05285156,0.00002899
433.98165894,0.00041709
435.91046631,0.00022707
437.83927368,-0.00004255
439.76808105,0.00019950
441.69688843,0.00013928
443.62569580,0.00028629
445.55450317,0.00028607
447.48331055,0.00003546
449.41211792,0.00014633
451.34092529,0.00030087
453.26973267,0.00002941
455.19854004,-0.00007173
457.12734741,0.00013248
459.05615479,0.00005364
460.98496216,0.00018039
462.91376953,0.00021813
464.84257690,0.00013168
466.77138428,0.00011717
468.70019165,-0.00000822
470.62899902,0.00025997
472.55780640,0.00021074
474.48661377,0.00013655
476.41542114,0.00030233
478.34422852,0.00020564
480.27303589,0.00025144
482.20184326,0.00025573
484.13065063,0.00010029
486.05945801,0.00012210
487.98826538,0.00039752
489.91707275,0.00014837
491.84588013,-0.00026083
493.77468750,0.00009465
495.70349487,0.00039501
497.63230225,0.00026679
499.56110962,-0.00015200
501.48991699,-0.00010264
503.41872437,-0.00014144
505.34753174,0.00010562
507.27633911,0.00038819
509.20514648,0.00004831
511.13395386,0.00009680
513.06276123,0.00021254
514.99156860,0.00003287
516.92037598,0.00002383
518.84918335,0.00043424
520.77799072,0.00002330
522.70679810,-0.00002673
524.63560547,0.00021090
526.56441284,0.00025335
528.49322021,0.00018095
530.42202759,-0.00029244
532.35083496,0.00009627
534.27964233,0.00024978
536.20844971,0.00008942
538.13725708,0.00025598
540.06606445,0.00002378
541.99487183,-0.00001482
543.92367920,0.00005869
545.85248657,0.00033329
547.78129395,0.00047769
549.71010132,0.00002020
551.63890869,0.00017600
553.56771606,0.00020740
555.49652344,-0.00008462
557.42533081,0.00018158
559.35413818,0.00014944
561.28294556,0.00013751
563.21175293,0.00031859
565.14056030,0.00011957
567.06936768,-0.00001520
568.99817505,0.00038393
570.92698242,0.00033765
572.85578979,-0.00025973
574.78459717,0.00020937
576.71340454,0.00055339
578.64221191,0.00026792
580.57101929,0.00018090
582.49982666,0.00015840
584.42863403,0.00031801
586.35744141,0.00012588
588.28624878,0.00006507
590.21505615,0.00021434
592.14386353,0.00011383
594.07267090,0.00009777
596.00147827,0.00014531
597.93028564,0.00017025
599.85909302,-0.00001468
601.78790039,0.00014324
603.71670776,0.00025106
605.64551514,-0.00016975
607.57432251,0.00002476
609.50312988,0.00022399
611.43193726,0.00011275
613.36074463,0.00012044
615.28955200,-0.00012085
617.21835938,0.00003598
619.14716675,0.00013459
621.07597412,0.00013937
623.00478149,0.00038365
624.93358887,0.00012242
626.86239624,0.00023638
628.79120361,0.00043264
630.72001099,0.00025098
632.64881836,0.00024894
634.57762573,0.00013367
636.50643311,-0.00003193
638.43524048,0.00007246
640.36404785,0.00010797
642.29285522,0.00012342
644.22166260,0.00024799
646.15046997,0.00010397
648.07927734,-0.00006872
650.00808472,0.00012556
651.93689209,0.00029711
653.86569946,0.00015261
655.79450684,0.00022299
657.72331421,0.00009317
659.65212158,0.00023190
661.58092896,0.00058931
663.50973633,0.00005522
665.43854370,0.00010083
667.36735107,0.00033993
669.29615845,0.00028127
671.22496582,0.00049784
673.15377319,0.00020175
675.08258057,0.00032281
677.01138794,0.00055131
678.94019531,0.00033465
680.86900269,0.00025447
682.79781006,0.00002542
684.72661743,0.00021821
686.65542480,0.00032564
688.58423218,0.00009453
690.51303955,0.00020363
692.44184692,0.00026026
694.37065430,0.00034004
696.29946167,0.00024952
698.22826904,0.00026874
700.15707642,0.00051449
702.08588379,0.00046142
704.01469116,0.00052374
705.94349854,0.00049882
707.87230591,0.00023404
709.80111328,0.00003581
711.72992065,0.00018170
713.65872803,0.00033724
715.58753540,0.00018750
717.51634277,0.00024369
719.44515015,0.00030001
721.37395752,0.00033865
723.30276489,-0.00001226
725.23157227,0.00002478
727.16037964,0.00047668
729.08918701,0.00016390
731.01799438,0.00024752
732.94680176,0.00023497
734.87560913,0.00006026
736.80441650,0.00021927
738.73322388,0.00011719
740.66203125,0.00021267
742.59083862,0.00033079
744.51964600,0.00039945
746.44845337,0.00022474
748.37726074,0.00007661
750.30606812,0.00018110
752.23487549,0.00017144
754.16368286,0.00023598
756.09249023,0.00025684
758.02129761,0.00021444
759.95010498,0.00015851
761.87891235,0.00026844
763.80771973,0.00020142
765.73652710,0.00003594
767.66533447,0.00010635
769.59414185,0.00011300
771.52294922,0.00019879
773.45175659,0.00020843
775.38056396,0.00026263
777.30937134,0.00013611
779.23817871,-0.00002254
781.16698608,0.00005446
783.09579346,0.00000902
785.02460083,0.00020614
786.95340820,0.00017975
788.88221558,0.00007497
790.81102295,0.00013981
792.73983032,0.00018427
794.66863770,0.00035933
796.59744507,0.00015566
798.52625244,0.00011330
800.45505981,0.00031684
802.38386719,0.00014766
804.31267456,-0.00003705
806.24148193,0.00014615
808.17028931,0.00024733
810.09909668,0.00003161
812.02790405,0.00032702
813.95671143,0.00049179
815.88551880,0.00014366
817.81432617,0.00009947
819.74313354,0.00018099
821.67194092,0.00012793
823.60074829,0.00009894
825.52955566,0.00022653
827.45836304,0.00012509
829.38717041,0.00013276
831.31597778,0.00010042
833.24478516,0.00014532
835.17359253,0.00044366
837.10239990,-0.00001100
839.03120728,0.00032435
840.96001465,0.00059766
842.88882202,-0.00005914
844.81762939,0.00032024
846.74643677,0.00026703
848.67524414,0.00006113
850.60405151,0.00019490
852.53285889,0.00010900
854.46166626,0.00043093
856.39047363,0.00035730
858.31928101,0.00030290
860.24808838,0.00015325
862.17689575,0.00002713
864.10570313,0.00029103
866.03451050,0.00010951
867.96331787,0.00004359
869.89212524,0.00004674
871.82093262,0.00032686
873.74973999,0.00026778
875.67854736,-0.00028993
877.60735474,0.00023421
879.53616211,0.00037769
881.46496948,0.00013004
883.39377686,0.00022372
885.32258423,0.00015294
887.25139160,0.00030768
889.18019897,0.00015006
891.10900635,0.00009985
893.03781372,0.00019294
894.96662109,0.00010018
896.89542847,0.00020100
898.82423584,0.00040795
900.75304321,0.00037463
902.68185059,0.00023467
904.61065796,0.00029916
906.53946533,0.00016715
908.46827271,0.00014953
910.39708008,0.00012805
912.32588745,0.00017771
914.25469482,0.00039610
916.18350220,0.00037110
918.11230957,0.00035623
920.04111694,0.00025586
921.96992432,0.00038021
923.89873169,0.00042066
925.82753906,0.00014464
927.75634644,0.00017837
929.68515381,0.00025719
931.61396118,0.00015254
933.54276855,0.00011593
935.47157593,0.00027758
937.40038330,0.00025593
939.32919067,0.00007394
941.25799805,0.00021128
943.18680542,0.00034825
945.11561279,0.00030730
947.04442017,0.00035685
948.97322754,0.00047596
950.90203491,0.00037434
952.83084229,0.00017693
954.75964966,0.00030822
956.68845703,0.00043879
958.61726440,0.00040626
960.54607178,0.00025671
962.47487915,0.00023760
964.40368652,0.00039258
966.33249390,0.00035205
968.26130127,0.00053242
970.19010864,0.00042314
972.11891602,0.00027309
974.04772339,0.00053337
975.97653076,0.00032281
977.90533813,0.00025896
979.83414551,0.00040276
981.76295288,0.00041946
983.69176025,0.00037201
985.62056763,0.00046046
987.54937500,0.00066586
989.47818237,0.00052924
991.40698975,0.00068270
993.33579712,0.00081157
995.26460449,0.00080184
997.19341187,0.00080682
999.12221924,0.00066367
1001.05102661,0.00063818
1002.97983398,0.00061296
1004.90864136,0.00082948
1006.83744873,0.00095852
1008.76625610,0.00125189
1010.69506348,0.00135433
1012.62387085,0.00100895
1014.55267822,0.00128161
1016.48148560,0.00144048
1018.41029297,0.00142393
1020.33910034,0.00150420
1022.26790771,0.00146542
1024.19671509,0.00155808
1026.12552246,0.00158838
1028.05432983,0.00147804
1029.98313721,0.00150738
1031.91194458,0.00186834
1033.84075195,0.00178526
1035.76955933,0.00154588
1037.69836670,0.00180607
1039.62717407,0.00185675
1041.55598145,0.00154642
1043.48478882,0.00152148
1045.41359619,0.00189418
1047.34240356,0.00180380
1049.27121094,0.00164718
1051.20001831,0.00175671
1053.12882568,0.00166636
1055.05763306,0.00161227
1056.98644043,0.00152308
1058.91524780,0.00153261
1060.84405518,0.00144289
1062.77286255,0.00137210
1064.70166992,0.00152660
1066.63047729,0.00139148
1068.55928467,0.00134683
1070.48809204,0.00145488
1072.41689941,0.00132437
1074.34570679,0.00115286
1076.27451416,0.00116895
1078.20332153,0.00120593
1080.13212891,0.00121640
1082.06093628,0.00113688
1083.98974365,0.00096505
1085.91855103,0.00097893
1087.84735840,0.00085609
1089.77616577,0.00093088
1091.70497314,0.00099663
1093.63378052,0.00067155
1095.56258789,0.00081988
1097.49139526,0.00084346
1099.42020264,0.00077332
1101.34901001,0.00087169
1103.27781738,0.00075803
1105.20662476,0.00087106
1107.13543213,0.00062144
1109.06423950,0.00059248
1110.99304687,0.00093444
1112.92185425,0.00076954
1114.85066162,0.00086699
1116.77946899,0.00084025
1118.70827637,0.00074086
1120.63708374,0.00090527
1122.56589111,0.00077116
1124.49469849,0.00077771
1126.42350586,0.00072547
1128.35231323,0.00066485
1130.28112061,0.00080502
1132.20992798,0.00083225
1134.13873535,0.00088170
1136.06754272,0.00076839
1137.99635010,0.00082939
1139.92515747,0.00096105
1141.85396484,0.00096124
1143.78277222,0.00119169
1145.71157959,0.00124034
1147.64038696,0.00118123
1149.56919434,0.00118047
1151.49800171,0.00123777
1153.42680908,0.00119223
1155.35561646,0.00101356
1157.28442383,0.00109687
1159.21323120,0.00135237
1161.14203857,0.00163139
1163.07084595,0.00155876
1164.99965332,0.00146784
1166.92846069,0.00162659
1168.85726807,0.00157960
1170.78607544,0.00161333
1172.71488281,0.00173116
1174.64369019,0.00176797
1176.57249756,0.00184137
1178.50130493,0.00186137
1180.43011230,0.00194733
1182.35891968,0.00218558
1184.28772705,0.00211285
1186.21653442,0.00206669
1188.14534180,0.00237119
1190.07414917,0.00231989
1192.00295654,0.00232791
1193.93176392,0.00256260
1195.86057129,0.00269564
1197.78937866,0.00274980
1199.71818604,0.00268796
1201.64699341,0.00305850
1203.57580078,0.00313769
1205.50460815,0.00298707
1207.43341553,0.00348408
1209.36222290,0.00338312
1211.29103027,0.00329685
1213.21983765,0.00373532
1215.14864502,0.00354589
1217.07745239,0.00364511
1219.00625977,0.00380013
1220.93506714,0.00360931
1222.86387451,0.00383079
1224.79268188,0.00410318
1226.72148926,0.00420173
1228.65029663,0.00389169
1230.57910400,0.00381427
1232.50791138,0.00396981
1234.43671875,0.00385545
1236.36552612,0.00404502
1238.29433350,0.00398128
1240.22314087,0.00386623
1242.15194824,0.00399960
1244.08075562,0.00394940
1246.00956299,0.00388866
1247.93837036,0.00396355
1249.86717773,0.00399523
1251.79598511,0.00367260
1253.72479248,0.00372787
1255.65359985,0.00382750
1257.58240723,0.00357574
1259.51121460,0.00361277
1261.44002197,0.00364372
1263.36882935,0.00370054
1265.29763672,0.00357313
1267.22644409,0.00343136
1269.15525146,0.00352504
1271.08405884,0.00330523
1273.01286621,0.00316919
1274.94167358,0.00345233
1276.87048096,0.00348195
1278.79928833,0.00320335
1280.72809570,0.00326556
1282.65690308,0.00317517
1284.58571045,0.00285078
1286.51451782,0.00286962
1288.44332520,0.00300858
1290.37213257,0.00290832
1292.30093994,0.00272650
1294.22974731,0.00295091
1296.15855469,0.00306215
1298.08736206,0.00301351
1300.01616943,0.00299541
1301.94497681,0.00298936
1303.87378418,0.00310304
1305.80259155,0.00298434
1307.73139893,0.00316110
1309.66020630,0.00322937
1311.58901367,0.00308588
1313.51782104,0.00312823
1315.44662842,0.00318785
1317.37543579,0.00342799
1319.30424316,0.00327152
1321.23305054,0.00338721
1323.16185791,0.00355030
1325.09066528,0.00354566
1327.01947266,0.00396930
1328.94828003,0.00382130
1330.87708740,0.00388034
1332.80589478,0.00411676
1334.73470215,0.00401141
1336.66350952,0.00409803
1338.59231689,0.00404692
1340.52112427,0.00422190
1342.44993164,0.00434470
1344.37873901,0.00433893
1346.30754639,0.00440119
1348.23635376,0.00425716
1350.16516113,0.00431423
1352.09396851,0.00429356
1354.02277588,0.00420776
1355.95158325,0.00433734
1357.88039062,0.00431517
1359.80919800,0.00423405
1361.73800537,0.00409411
1363.66681274,0.00402273
1365.59562012,0.00414091
1367.52442749,0.00399950
1369.45323486,0.00392583
1371.38204224,0.00402529
1373.31084961,0.00393820
1375.23965698,0.00402880
1377.16846436,0.00411672
1379.09727173,0.00398546
1381.02607910,0.00399308
1382.95488647,0.00405830
1384.88369385,0.00394037
1386.81250122,0.00383338
1388.74130859,0.00393894
1390.67011597,0.00408186
1392.59892334,0.00392945
1394.52773071,0.00379131
1396.45653809,0.00408892
1398.38534546,0.00399248
1400.31415283,0.00397893
1402.24296021,0.00430127
1404.17176758,0.00404851
1406.10057495,0.00417669
1408.02938232,0.00418734
1409.95818970,0.00403472
1411.88699707,0.00426237
1413.81580444,0.00413438
1415.74461182,0.00426157
1417.67341919,0.00373967
1419.60222656,0.00327903
1421.53103394,0.00390793
1423.45984131,0.00377115
1425.38864868,0.00359200
1427.31745605,0.00373674
1429.24626343,0.00349808
1431.17507080,0.00339590
1433.10387817,0.00344320
1435.03268555,0.00324990
1436.96149292,0.00289513
1438.89030029,0.00303239
1440.81910767,0.00310603
1442.74791504,0.00300830
1444.67672241,0.00315966
1446.60552979,0.00298233
1448.53433716,0.00293378
1450.46314453,0.00308168
1452.39195190,0.00317077
1454.32075928,0.00315074
1456.24956665,0.00266042
1458.17837402,0.00287666
1460.10718140,0.00356894
1462.03598877,0.00369692
1463.96479614,0.00384041
1465.89360352,0.00388270
1467.82241089,0.00440737
1469.75121826,0.00469626
1471.68002563,0.00400655
1473.60883301,0.00430405
1475.53764038,0.00488890
1477.46644775,0.00511853
1479.39525513,0.00553620
1481.32406250,0.00563521
1483.25286987,0.00598678
1485.18167725,0.00617838
1487.11048462,0.00609846
1489.03929199,0.00612916
1490.96809937,0.00615079
1492.89690674,0.00684399
1494.82571411,0.00685610
1496.75452148,0.00637996
1498.68332886,0.00692719
1500.61213623,0.00698521
1502.54094360,0.00754528
1504.46975098,0.00728415
1506.39855835,0.00530021
1508.32736572,0.00646342
1510.25617310,0.00756810
1512.18498047,0.00714983
1514.11378784,0.00770756
1516.04259521,0.00710106
1517.97140259,0.00750002
1519.90020996,0.00707915
1521.82901733,0.00615275
1523.75782471,0.00750146
1525.68663208,0.00723797
1527.61543945,0.00731676
1529.54424683,0.00815176
1531.47305420,0.00771537
1533.40186157,0.00712849
1535.33066895,0.00764042
1537.25947632,0.00789390
1539.18828369,0.00582494
1541.11709106,0.00609178
1543.04589844,0.00704391
1544.97470581,0.00699892
1546.90351318,0.00797757
1548.83232056,0.00744494
1550.76112793,0.00781097
1552.68993530,0.00766660
1554.61874268,0.00714552
1556.54755005,0.00746688
1558.47635742,0.00534472
1560.40516479,0.00578021
1562.33397217,0.00791096
1564.26277954,0.00755773
1566.19158691,0.00776756
1568.12039429,0.00760354
1570.04920166,0.00688137
1571.97800903,0.00795324
1573.90681641,0.00777125
1575.83562378,0.00624297
1577.76443115,0.00710171
1579.69323853,0.00773531
1581.62204590,0.00744445
1583.55085327,0.00764340
1585.47966064,0.00749721
1587.40846802,0.00760809
1589.33727539,0.00739453
1591.26608276,0.00742060
1593.19489014,0.00764066
1595.12369751,0.00737814
1597.05250488,0.00748369
1598.98131226,0.00761769
1600.91011963,0.00740114
1602.83892700,0.00726688
1604.76773437,0.00754946
1606.69654175,0.00732052
1608.62534912,0.00726814
1610.55415649,0.00737576
1612.48296387,0.00742665
1614.41177124,0.00751293
1616.34057861,0.00627950
1618.26938599,0.00666670
1620.19819336,0.00774702
1622.12700073,0.00702059
1624.05580811,0.00704877
1625.98461548,0.00752966
1627.91342285,0.00756129
1629.84223022,0.00757401
1631.77103760,0.00811045
1633.69984497,0.00751419
1635.62865234,0.00634921
1637.55745972,0.00744429
1639.48626709,0.00821596
1641.41507446,0.00809408
1643.34388184,0.00847180
1645.27268921,0.00761115
1647.20149658,0.00679322
1649.13030396,0.00855346
1651.05911133,0.00810981
1652.98791870,0.00549539
1654.91672607,0.00730181
1656.84553345,0.00906828
1658.77434082,0.00879253
1660.70314819,0.00904048
1662.63195557,0.00831353
1664.56076294,0.00881494
1666.48957031,0.00944242
1668.41837769,0.00839776
1670.34718506,0.00850428
1672.27599243,0.00948065
1674.20479980,0.00875664
1676.13360718,0.00865191
1678.06241455,0.00986214
1679.99122192,0.00953100
1681.92002930,0.00937607
1683.84883667,0.00789038
1685.77764404,0.00805910
1687.70645142,0.01069663
1689.63525879,0.00955242
1691.56406616,0.01055944
1693.49287354,0.01060668
1695.42168091,0.00809646
1697.35048828,0.00986249
1699.27929565,0.00859663
1701.20810303,0.00810519
1703.13691040,0.01079174
1705.06571777,0.00992407
1706.99452515,0.01038936
1708.92333252,0.01126507
1710.85213989,0.01088185
1712.78094727,0.01110866
1714.70975464,0.01031213
1716.63856201,0.00938076
1718.56736938,0.00933226
1720.49617676,0.01098246
1722.42498413,0.01144215
1724.35379150,0.01081296
1726.28259888,0.01166213
1728.21140625,0.01090287
1730.14021362,0.01106563
1732.06902100,0.01071728
1733.99782837,0.00850242
1735.92663574,0.01043881
1737.85544312,0.01130981
1739.78425049,0.01017117
1741.71305786,0.01100294
1743.64186523,0.01111610
1745.57067261,0.01134797
1747.49947998,0.01151153
1749.42828735,0.01097267
1751.35709473,0.01061968
1753.28590210,0.01167574
1755.21470947,0.01206420
1757.14351685,0.01114589
1759.07232422,0.01225782
1761.00113159,0.01146258
1762.92993896,0.01118609
1764.85874634,0.01266732
1766.78755371,0.01139252
1768.71636108,0.01162524
1770.64516846,0.01150577
1772.57397583,0.01050104
1774.50278320,0.01167484
1776.43159058,0.01222089
1778.36039795,0.01206730
1780.28920532,0.01193646
1782.21801270,0.01214457
1784.14682007,0.01200424
1786.07562744,0.01181366
1788.00443481,0.01255036
1789.93324219,0.01220827
1791.86204956,0.01107423
1793.79085693,0.01136358
1795.71966431,0.01219509
1797.64847168,0.01213690
1799.57727905,0.01191384
1801.50608643,0.01175820
1803.43489380,0.01212563
1805.36370117,0.01236630
1807.29250854,0.01223107
1809.22131592,0.01215957
1811.15012329,0.01184752
1813.07893066,0.01237444
1815.00773804,0.01233236
1816.93654541,0.01213995
1818.86535278,0.01223910
1820.79416016,0.01221357
1822.72296753,0.01253413
1824.65177490,0.01165951
1826.58058228,0.01198088
1828.50938965,0.01204849
1830.43819702,0.01140261
1832.36700439,0.01228589
1834.29581177,0.01220445
1836.22461914,0.01227402
1838.15342651,0.01200936
1840.08223389,0.01212566
1842.01104126,0.01217559
1843.93984863,0.01074902
1845.86865601,0.01150986
1847.79746338,0.01205159
1849.72627075,0.01179056
1851.65507812,0.01218408
1853.58388550,0.01204316
1855.51269287,0.01215633
1857.44150024,0.01206398
1859.37030762,0.01201363
1861.29911499,0.01198545
1863.22792236,0.01192117
1865.15672974,0.01200480
1867.08553711,0.01158505
1869.01434448,0.01115219
1870.94315186,0.01150746
1872.87195923,0.01199952
1874.80076660,0.01179016
1876.72957397,0.01190386
1878.65838135,0.01185205
1880.58718872,0.01169352
1882.51599609,0.01184659
1884.44480347,0.01165388
1886.37361084,0.01180934
1888.30241821,0.01144829
1890.23122559,0.01125604
1892.16003296,0.01156895
1894.08884033,0.01131226
1896.01764771,0.01160561
1897.94645508,0.01171755
1899.87526245,0.01153322
1901.80406982,0.01152585
1903.73287720,0.01146663
1905.66168457,0.01157747
1907.59049194,0.01128637
1909.51929932,0.01137630
1911.44810669,0.01147901
1913.37691406,0.01139849
1915.30572144,0.01156899
1917.23452881,0.01086200
1919.16333618,0.01088983
1921.09214355,0.01135836
1923.02095093,0.01099238
1924.94975830,0.01114340
1926.87856567,0.01123545
1928.80737305,0.01122869
1930.73618042,0.01115421
1932.66498779,0.01110717
1934.59379517,0.01131933
1936.52260254,0.01106203
1938.45140991,0.01114219
1940.38021729,0.01115550
1942.30902466,0.01087127
1944.23783203,0.01095355
1946.16663940,0.01100527
1948.09544678,0.01106095
1950.02425415,0.01109530
1951.95306152,0.01104168
1953.88186890,0.01096508
1955.81067627,0.01102978
1957.73948364,0.01089719
1959.66829102,0.01078494
1961.59709839,0.01095683
1963.52590576,0.01096821
1965.45471313,0.01091447
1967.38352051,0.01069899
1969.31232788,0.01083854
1971.24113525,0.01088834
1973.16994263,0.01072113
1975.09875000,0.01092133
1977.02755737,0.01082339
1978.95636475,0.01084045
1980.88517212,0.01084650
1982.81397949,0.01070751
1984.74278687,0.01070213
1986.67159424,0.01075778
1988.60040161,0.01077681
1990.52920898,0.01052995
1992.45801636,0.01059853
1994.38682373,0.01054828
1996.31563110,0.01046931
1998.24443848,0.01055773
2000.17324585,0.01047421
2002.10205322,0.01053187
2004.03086060,0.01038190
2005.95966797,0.01043695
2007.88847534,0.01044281
2009.81728271,0.01028133
2011.74609009,0.01048768
2013.67489746,0.01042474
2015.60370483,0.01020578
2017.53251221,0.01016054
2019.46131958,0.01026592
2021.39012695,0.01022407
2023.31893433,0.01014613
2025.24774170,0.01025942
2027.17654907,0.01013737
2029.10535645,0.01013315
2031.03416382,0.01018857
2032.96297119,0.00995757
2034.89177856,0.00998403
2036.82058594,0.01012988
2038.74939331,0.01003782
2040.67820068,0.01000344
2042.60700806,0.00996676
2044.53581543,0.00991627
2046.46462280,0.00991338
2048.39343018,0.00994039
2050.32223755,0.00994682
2052.25104492,0.00987986
2054.17985229,0.00992678
2056.10865967,0.00978523
2058.03746704,0.00976749
2059.96627441,0.00980342
2061.89508179,0.00973048
2063.82388916,0.00987508
2065.75269653,0.00962157
2067.68150391,0.00965065
2069.61031128,0.00981946
2071.53911865,0.00974808
2073.46792603,0.00981173
2075.39673340,0.00955206
2077.32554077,0.00965667
2079.25434814,0.00967251
2081.18315552,0.00957760
2083.11196289,0.00972457
2085.04077026,0.00957152
2086.96957764,0.00968248
2088.89838501,0.00962013
2090.82719238,0.00952522
2092.75599976,0.00956885
2094.68480713,0.00942327
2096.61361450,0.00948683
2098.54242187,0.00949319
2100.47122925,0.00948331
2102.40003662,0.00950608
2104.32884399,0.00950026
2106.25765137,0.00947088
2108.18645874,0.00949537
2110.11526611,0.00952744
2112.04407349,0.00943997
2113.97288086,0.00939053
2115.90168823,0.00926827
2117.83049561,0.00938166
2119.75930298,0.00943455
2121.68811035,0.00929528
2123.61691772,0.00943528
2125.54572510,0.00945365
2127.47453247,0.00937929
2129.40333984,0.00935082
2131.33214722,0.00923955
2133.26095459,0.00923349
2135.18976196,0.00940934
2137.11856934,0.00942167
2139.04737671,0.00934645
2140.97618408,0.00935956
2142.90499146,0.00922179
2144.83379883,0.00922726
2146.76260620,0.00930205
2148.69141357,0.00927548
2150.62022095,0.00919701
2152.54902832,0.00918355
2154.47783569,0.00929119
2156.40664307,0.00923961
2158.33545044,0.00932398
2160.26425781,0.00936810
2162.19306519,0.00934592
2164.12187256,0.00938767
2166.05067993,0.00926152
2167.97948730,0.00932064
2169.90829468,0.00932878
2171.83710205,0.00920529
2173.76590942,0.00919057
2175.69471680,0.00927270
2177.62352417,0.00932256
2179.55233154,0.00924704
2181.48113892,0.00932376
2183.40994629,0.00925283
2185.33875366,0.00909181
2187.26756104,0.00909591
2189.19636841,0.00908118
2191.12517578,0.00915037
2193.05398315,0.00926930
2194.98279053,0.00934058
2196.91159790,0.00924569
2198.84040527,0.00917859
2200.76921265,0.00928503
2202.69802002,0.00930672
2204.62682739,0.00926288
2206.55563477,0.00917851
2208.48444214,0.00906105
2210.41324951,0.00911620
2212.34205688,0.00928093
2214.27086426,0.00928208
2216.19967163,0.00919330
2218.12847900,0.00909402
2220.05728638,0.00913277
2221.98609375,0.00923548
2223.91490112,0.00911605
2225.84370850,0.00918197
2227.77251587,0.00929910
2229.70132324,0.00915506
2231.63013062,0.00915948
2233.55893799,0.00919238
2235.48774536,0.00907716
2237.41655273,0.00911747
2239.34536011,0.00916336
2241.27416748,0.00903773
2243.20297485,0.00907988
2245.13178223,0.00912979
2247.06058960,0.00907651
2248.98939697,0.00912741
2250.91820435,0.00913808
2252.84701172,0.00910601
2254.77581909,0.00903777
2256.70462646,0.00902530
2258.63343384,0.00901759
2260.56224121,0.00898604
2262.49104858,0.00912434
2264.41985596,0.00910009
2266.34866333,0.00897331
2268.27747070,0.00907479
2270.20627808,0.00910285
2272.13508545,0.00905511
2274.06389282,0.00903876
2275.99270020,0.00891918
2277.92150757,0.00896012
2279.85031494,0.00905705
2281.77912231,0.00907145
2283.70792969,0.00915401
2285.63673706,0.00908812
2287.56554443,0.00900967
2289.49435181,0.00896433
2291.42315918,0.00898049
2293.35196655,0.00898609
2295.28077393,0.00885155
2297.20958130,0.00889165
2299.13838867,0.00884079
2301.06719604,0.00876953
2302.99600342,0.00880535
2304.92481079,0.00877482
2306.85361816,0.00871287
2308.78242554,0.00853457
2310.71123291,0.00851636
2312.64004028,0.00855858
2314.56884766,0.00848085
2316.49765503,0.00832698
2318.42646240,0.00820780
2320.35526978,0.00813997
2322.28407715,0.00799253
2324.21288452,0.00791465
2326.14169189,0.00779245
2328.07049927,0.00771634
2329.99930664,0.00762949
2331.92811401,0.00765944
2333.85692139,0.00776803
2335.78572876,0.00757798
2337.71453613,0.00753843
2339.64334351,0.00756227
2341.57215088,0.00763860
2343.50095825,0.00773698
2345.42976562,0.00786766
2347.35857300,0.00825224
2349.28738037,0.00838541
2351.21618774,0.00819571
2353.14499512,0.00775083
2355.07380249,0.00741669
2357.00260986,0.00720516
2358.93141724,0.00711899
2360.86022461,0.00717089
2362.78903198,0.00695741
2364.71783936,0.00715245
2366.64664673,0.00734730
2368.57545410,0.00726920
2370.50426147,0.00743090
2372.43306885,0.00763369
2374.36187622,0.00798999
2376.29068359,0.00810395
2378.21949097,0.00815555
2380.14829834,0.00841927
2382.07710571,0.00849475
2384.00591309,0.00850821
2385.93472046,0.00854524
2387.86352783,0.00861266
2389.79233521,0.00866619
2391.72114258,0.00864798
2393.64994995,0.00861274
2395.57875732,0.00860043
2397.50756470,0.00855528
2399.43637207,0.00853750
2401.36517944,0.00855224
2403.29398682,0.00847582
2405.22279419,0.00835619
2407.15160156,0.00838787
2409.08040894,0.00850048
2411.00921631,0.00838778
2412.93802368,0.00846381
2414.86683105,0.00853788
2416.79563843,0.00836057
2418.72444580,0.00841161
2420.65325317,0.00841822
2422.58206055,0.00835841
2424.51086792,0.00834153
2426.43967529,0.00830716
2428.36848267,0.00822613
2430.29729004,0.00831938
2432.22609741,0.00836095
2434.15490479,0.00814735
2436.08371216,0.00834346
2438.01251953,0.00832071
2439.94132690,0.00826834
2441.87013428,0.00840456
2443.79894165,0.00822173
2445.72774902,0.00828441
2447.65655640,0.00810596
2449.58536377,0.00808967
2451.51417114,0.00835047
2453.44297852,0.00819188
2455.37178589,0.00818195
2457.30059326,0.00817494
2459.22940063,0.00812789
2461.15820801,0.00808052
2463.08701538,0.00806085
2465.01582275,0.00813281
2466.94463013,0.00804173
2468.87343750,0.00808245
2470.80224487,0.00811560
2472.73105225,0.00799323
2474.65985962,0.00803531
2476.58866699,0.00807002
2478.51747437,0.00802123
2480.44628174,0.00812445
2482.37508911,0.00807483
2484.30389648,0.00798088
2486.23270386,0.00808566
2488.16151123,0.00803503
2490.09031860,0.00801137
2492.01912598,0.00796456
2493.94793335,0.00788795
2495.87674072,0.00795767
2497.80554810,0.00790999
2499.73435547,0.00786506
2501.66316284,0.00790889
2503.59197021,0.00792051
2505.52077759,0.00786199
2507.44958496,0.00791193
2509.37839233,0.00803300
2511.30719971,0.00795912
2513.23600708,0.00788155
2515.16481445,0.00778820
2517.09362183,0.00767382
2519.02242920,0.00779321
2520.95123657,0.00781164
2522.88004395,0.00770484
2524.80885132,0.00781105
2526.73765869,0.00778333
2528.66646606,0.00776194
2530.59527344,0.00787606
2532.52408081,0.00779564
2534.45288818,0.00769604
2536.38169556,0.00766640
2538.31050293,0.00771841
2540.23931030,0.00769438
2542.16811768,0.00772821
2544.09692505,0.00777114
2546.02573242,0.00761831
2547.95453979,0.00759318
2549.88334717,0.00749967
2551.81215454,0.00756328
2553.74096191,0.00759954
2555.66976929,0.00746367
2557.59857666,0.00760390
2559.52738403,0.00754441
2561.45619141,0.00757500
2563.38499878,0.00761555
2565.31380615,0.00744404
2567.24261353,0.00751415
2569.17142090,0.00748766
2571.10022827,0.00748589
2573.02903564,0.00751475
2574.95784302,0.00746624
2576.88665039,0.00748730
2578.81545776,0.00737125
2580.74426514,0.00741927
2582.67307251,0.00751953
2584.60187988,0.00732505
2586.53068726,0.00736655
2588.45949463,0.00743795
2590.38830200,0.00730085
2592.31710937,0.00740944
2594.24591675,0.00732061
2596.17472412,0.00723036
2598.10353149,0.00737342
2600.03233887,0.00725177
2601.96114624,0.00721338
2603.88995361,0.00721891
2605.81876099,0.00727828
2607.74756836,0.00733482
2609.67637573,0.00717835
2611.60518311,0.00725611
2613.53399048,0.00729014
2615.46279785,0.00719814
2617.39160522,0.00718862
2619.32041260,0.00714810
2621.24921997,0.00710651
2623.17802734,0.00696264
2625.10683472,0.00704555
2627.03564209,0.00722373
2628.96444946,0.00704822
2630.89325684,0.00701285
2632.82206421,0.00703865
2634.75087158,0.00693440
2636.67967895,0.00702916
2638.60848633,0.00697558
2640.53729370,0.00696099
2642.46610107,0.00709446
2644.39490845,0.00694576
2646.32371582,0.00688477
2648.25252319,0.00688358
2650.18133057,0.00689062
2652.11013794,0.00697583
2654.03894531,0.00690346
2655.96775269,0.00689783
2657.89656006,0.00689883
2659.82536743,0.00685626
2661.75417480,0.00686565
2663.68298218,0.00688233
2665.61178955,0.00690666
2667.54059692,0.00680997
2669.46940430,0.00673853
2671.39821167,0.00675695
2673.32701904,0.00672482
2675.25582642,0.00664377
2677.18463379,0.00662986
2679.11344116,0.00668898
2681.04224854,0.00665533
2682.97105591,0.00664012
2684.89986328,0.00659836
2686.82867065,0.00653656
2688.75747803,0.00663627
2690.68628540,0.00660774
2692.61509277,0.00650384
2694.54390015,0.00650263
2696.47270752,0.00648117
2698.40151489,0.00653834
2700.33032227,0.00658356
2702.25912964,0.00652431
2704.18793701,0.00648620
2706.11674438,0.00647753
2708.04555176,0.00639063
2709.97435913,0.00635125
2711.90316650,0.00645705
2713.83197388,0.00641888
2715.76078125,0.00638434
2717.68958862,0.00640867
2719.61839600,0.00630705
2721.54720337,0.00624698
2723.47601074,0.00630421
2725.40481812,0.00634273
2727.33362549,0.00612257
2729.26243286,0.00616449
2731.19124023,0.00637065
2733.12004761,0.00620491
2735.04885498,0.00622272
2736.97766235,0.00621289
2738.90646973,0.00619400
2740.83527710,0.00621781
2742.76408447,0.00604082
2744.69289185,0.00615788
2746.62169922,0.00618240
2748.55050659,0.00613465
2750.47931396,0.00623316
2752.40812134,0.00614067
2754.33692871,0.00599733
2756.26573608,0.00597650
2758.19454346,0.00619161
2760.12335083,0.00615473
2762.05215820,0.00595253
2763.98096558,0.00602468
2765.90977295,0.00603762
2767.83858032,0.00602865
2769.76738770,0.00601120
2771.69619507,0.00595450
2773.62500244,0.00588593
2775.55380981,0.00582757
2777.48261719,0.00587959
2779.41142456,0.00587641
2781.34023193,0.00585382
2783.26903931,0.00577382
2785.19784668,0.00570129
2787.12665405,0.00582109
2789.05546143,0.00579787
2790.98426880,0.00574190
2792.91307617,0.00580428
2794.84188354,0.00571803
2796.77069092,0.00573431
2798.69949829,0.00576305
2800.62830566,0.00567152
2802.55711304,0.00565778
2804.48592041,0.00560477
2806.41472778,0.00558413
2808.34353516,0.00558014
2810.27234253,0.00562896
2812.20114990,0.00557880
2814.12995728,0.00552219
2816.05876465,0.00566767
2817.98757202,0.00550925
2819.91637939,0.00547280
2821.84518677,0.00555797
2823.77399414,0.00543095
2825.70280151,0.00551955
2827.63160889,0.00554358
2829.56041626,0.00547486
2831.48922363,0.00543079
2833.41803101,0.00545410
2835.34683838,0.00545613
2837.27564575,0.00530715
2839.20445312,0.00530014
2841.13326050,0.00537713
2843.06206787,0.00533069
2844.99087524,0.00522000
2846.91968262,0.00535827
2848.84848999,0.00531377
2850.77729736,0.00521915
2852.70610474,0.00537560
2854.63491211,0.00516945
2856.56371948,0.00515983
2858.49252686,0.00520969
2860.42133423,0.00510755
2862.35014160,0.00513965
2864.27894897,0.00501272
2866.20775635,0.00507566
2868.13656372,0.00512257
2870.06537109,0.00508016
2871.99417847,0.00504464
2873.92298584,0.00502500
2875.85179321,0.00511756
2877.78060059,0.00501404
2879.70940796,0.00497816
2881.63821533,0.00503882
2883.56702270,0.00508526
2885.49583008,0.00505639
2887.42463745,0.00497902
2889.35344482,0.00501221
2891.28225220,0.00500639
2893.21105957,0.00493877
2895.13986694,0.00485296
2897.06867432,0.00495033
2898.99748169,0.00491893
2900.92628906,0.00483134
2902.85509644,0.00491533
2904.78390381,0.00481251
2906.71271118,0.00481289
2908.64151855,0.00479726
2910.57032593,0.00469356
2912.49913330,0.00472876
2914.42794067,0.00473261
2916.35674805,0.00474325
2918.28555542,0.00475339
2920.21436279,0.00470965
2922.14317017,0.00474851
2924.07197754,0.00477902
2926.00078491,0.00464848
2927.92959229,0.00470471
2929.85839966,0.00467283
2931.78720703,0.00458210
2933.71601440,0.00470339
2935.64482178,0.00457701
2937.57362915,0.00457559
2939.50243652,0.00460543
2941.43124390,0.00460774
2943.36005127,0.00471299
2945.28885864,0.00457085
2947.21766602,0.00458454
2949.14647339,0.00466206
2951.07528076,0.00458723
2953.00408813,0.00456089
2954.93289551,0.00464973
2956.86170288,0.00462205
2958.79051025,0.00454233
2960.71931763,0.00455073
2962.64812500,0.00446372
2964.57693237,0.00462529
2966.50573975,0.00454294
2968.43454712,0.00434543
2970.36335449,0.00451851
2972.29216187,0.00449652
2974.22096924,0.00456701
2976.14977661,0.00453843
2978.07858398,0.00441979
2980.00739136,0.00449052
2981.93619873,0.00440172
2983.86500610,0.00439592
2985.79381348,0.00442249
2987.72262085,0.00446327
2989.65142822,0.00449333
2991.58023560,0.00438053
2993.50904297,0.00439864
2995.43785034,0.00446145
2997.36665771,0.00453504
2999.29546509,0.00450124
3001.22427246,0.00429986
3003.15307983,0.00437714
3005.08188721,0.00443584
3007.01069458,0.00434195
3008.93950195,0.00442974
3010.86830933,0.00437976
3012.79711670,0.00430715
3014.72592407,0.00435151
3016.65473145,0.00439101
3018.58353882,0.00433094
3020.51234619,0.00422920
3022.44115356,0.00430418
3024.36996094,0.00424860
3026.29876831,0.00428490
3028.22757568,0.00430305
3030.15638306,0.00423423
3032.08519043,0.00432482
3034.01399780,0.00419108
3035.94280518,0.00424501
3037.87161255,0.00424475
3039.80041992,0.00413584
3041.72922729,0.00426481
3043.65803467,0.00416158
3045.58684204,0.00411139
3047.51564941,0.00416932
3049.44445679,0.00421776
3051.37326416,0.00421026
3053.30207153,0.00418753
3055.23087891,0.00418171
3057.15968628,0.00406995
3059.08849365,0.00410189
3061.01730103,0.00408147
3062.94610840,0.00409898
3064.87491577,0.00413821
3066.80372314,0.00403988
3068.73253052,0.00405851
3070.66133789,0.00411067
3072.59014526,0.00405966
3074.51895264,0.00401679
3076.44776001,0.00409797
3078.37656738,0.00398601
3080.30537476,0.00398016
3082.23418213,0.00403518
3084.16298950,0.00392614
3086.09179687,0.00403485
3088.02060425,0.00395803
3089.94941162,0.00396436
3091.87821899,0.00405956
3093.80702637,0.00400792
3095.73583374,0.00397924
3097.66464111,0.00386428
3099.59344849,0.00400959
3101.52225586,0.00399789
3103.45106323,0.00388063
3105.37987061,0.00393069
3107.30867798,0.00390034
3109.23748535,0.00397878
3111.16629272,0.00392075
3113.09510010,0.00383970
3115.02390747,0.00385580
3116.95271484,0.00386869
3118.88152222,0.00389778
3120.81032959,0.00384836
3122.73913696,0.00384373
3124.66794434,0.00384649
3126.59675171,0.00377323
3128.52555908,0.00379274
3130.45436645,0.00386703
3132.38317383,0.00372651
3134.31198120,0.00374251
3136.24078857,0.00383571
3138.16959595,0.00384331
3140.09840332,0.00392739
3142.02721069,0.00372636
3143.95601807,0.00379664
3145.88482544,0.00397127
3147.81363281,0.00384004
3149.74244019,0.00380643
3151.67124756,0.00368872
3153.60005493,0.00369919
3155.52886230,0.00376328
3157.45766968,0.00381140
3159.38647705,0.00385908
3161.31528442,0.00379629
3163.24409180,0.00382192
3165.17289917,0.00378520
3167.10170654,0.00377881
3169.03051392,0.00379536
3170.95932129,0.00383122
3172.88812866,0.00386435
3174.81693604,0.00380764
3176.74574341,0.00378593
3178.67455078,0.00375506
3180.60335815,0.00382210
3182.53216553,0.00384408
3184.46097290,0.00378540
3186.38978027,0.00377432
3188.31858765,0.00379096
3190.24739502,0.00373649
3192.17620239,0.00369939
3194.10500977,0.00385083
3196.03381714,0.00381491
3197.96262451,0.00378771
3199.89143188,0.00386584
3201.82023926,0.00382549
3203.74904663,0.00379221
3205.67785400,0.00375316
3207.60666138,0.00385714
3209.53546875,0.00383006
3211.46427612,0.00377861
3213.39308350,0.00389705
3215.32189087,0.00379399
3217.25069824,0.00377674
3219.17950562,0.00385855
3221.10831299,0.00383396
3223.03712036,0.00388640
3224.96592773,0.00380619
3226.89473511,0.00376138
3228.82354248,0.00390465
3230.75234985,0.00384595
3232.68115723,0.00383787
3234.60996460,0.00394016
3236.53877197,0.00393349
3238.46757935,0.00390268
3240.39638672,0.00388213
3242.32519409,0.00395239
3244.25400146,0.00386977
3246.18280884,0.00388414
3248.11161621,0.00397227
3250.04042358,0.00392067
3251.96923096,0.00403555
3253.89803833,0.00401476
3255.82684570,0.00397627
3257.75565308,0.00399655
3259.68446045,0.00407298
3261.61326782,0.00406332
3263.54207520,0.00391521
3265.47088257,0.00407183
3267.39968994,0.00403898
3269.32849731,0.00399687
3271.25730469,0.00403867
3273.18611206,0.00392931
3275.11491943,0.00395750
3277.04372681,0.00407707
3278.97253418,0.00418563
3280.90134155,0.00401305
3282.83014893,0.00412510
3284.75895630,0.00427367
3286.68776367,0.00410498
3288.61657104,0.00410218
3290.54537842,0.00402462
3292.47418579,0.00413477
3294.40299316,0.00415852
3296.33180054,0.00410821
3298.26060791,0.00418881
3300.18941528,0.00414548
3302.11822266,0.00418681
3304.04703003,0.00414289
3305.97583740,0.00417403
3307.90464478,0.00414800
3309.83345215,0.00412564
3311.76225952,0.00421830
3313.69106689,0.00423847
3315.61987427,0.00434077
3317.54868164,0.00424757
3319.47748901,0.00423352
3321.40629639,0.00428562
3323.33510376,0.00428146
3325.26391113,0.00431409
3327.19271851,0.00425003
3329.12152588,0.00437153
3331.05033325,0.00437809
3332.97914062,0.00431782
3334.90794800,0.00437861
3336.83675537,0.00428957
3338.76556274,0.00423299
3340.69437012,0.00430724
3342.62317749,0.00435889
3344.55198486,0.00435896
3346.48079224,0.00444933
3348.40959961,0.00440741
3350.33840698,0.00433382
3352.26721436,0.00438094
3354.19602173,0.00424091
3356.12482910,0.00433794
3358.05363647,0.00450730
3359.98244385,0.00440494
3361.91125122,0.00450385
3363.84005859,0.00445344
3365.76886597,0.00438102
3367.69767334,0.00450706
3369.62648071,0.00443180
3371.55528809,0.00453783
3373.48409546,0.00459047
3375.41290283,0.00456762
3377.34171020,0.00460638
3379.27051758,0.00453448
3381.19932495,0.00471612
3383.12813232,0.00462291
3385.05693970,0.00451238
3386.98574707,0.00466520
3388.91455444,0.00463356
3390.84336182,0.00468757
3392.77216919,0.00457246
3394.70097656,0.00460865
3396.62978394,0.00480310
3398.55859131,0.00468013
3400.48739868,0.00469640
3402.41620605,0.00473234
3404.34501343,0.00468581
3406.27382080,0.00478863
3408.20262817,0.00484077
3410.13143555,0.00479128
3412.06024292,0.00478488
3413.98905029,0.00482180
3415.91785767,0.00483023
3417.84666504,0.00476989
3419.77547241,0.00481211
3421.70427979,0.00482234
3423.63308716,0.00482908
3425.56189453,0.00497732
3427.49070190,0.00490054
3429.41950928,0.00494880
3431.34831665,0.00494601
3433.27712402,0.00483801
3435.20593140,0.00501156
3437.13473877,0.00495296
3439.06354614,0.00494628
3440.99235352,0.00498548
3442.92116089,0.00496681
3444.84996826,0.00502403
3446.77877563,0.00501013
3448.70758301,0.00510506
3450.63639038,0.00513024
3452.56519775,0.00513668
3454.49400513,0.00508800
3456.42281250,0.00505685
3458.35161987,0.00510221
3460.28042725,0.00511509
3462.20923462,0.00510123
3464.13804199,0.00508333
3466.06684937,0.00527832
3467.99565674,0.00516714
3469.92446411,0.00507574
3471.85327148,0.00523666
3473.78207886,0.00518469
3475.71088623,0.00524181
3477.63969360,0.00522000
3479.56850098,0.00512769
3481.49730835,0.00512078
3483.42611572,0.00520635
3485.35492310,0.00526334
3487.28373047,0.00521568
3489.21253784,0.00531662
3491.14134521,0.00531256
3493.07015259,0.00528121
3494.99895996,0.00538396
3496.92776733,0.00531423
3498.85657471,0.00520829
3500.78538208,0.00533431
3502.71418945,0.00526599
3504.64299683,0.00527213
3506.57180420,0.00545489
3508.50061157,0.00530686
3510.42941895,0.00541361
3512.35822632,0.00546054
3514.28703369,0.00538043
3516.21584106,0.00547778
3518.14464844,0.00540617
3520.07345581,0.00547511
3522.00226318,0.00547574
3523.93107056,0.00543119
3525.85987793,0.00542824
3527.78868530,0.00533985
3529.71749268,0.00532360
3531.64630005,0.00544253
3533.57510742,0.00562068
3535.50391479,0.00556263
3537.43272217,0.00551580
3539.36152954,0.00550445
3541.29033691,0.00556659
3543.21914429,0.00565960
3545.14795166,0.00538160
3547.07675903,0.00527055
3549.00556641,0.00560347
3550.93437378,0.00560261
3552.86318115,0.00541819
3554.79198853,0.00565552
3556.72079590,0.00565067
3558.64960327,0.00558224
3560.57841064,0.00563657
3562.50721802,0.00556113
3564.43602539,0.00562120
3566.36483276,0.00527402
3568.29364014,0.00518578
3570.22244751,0.00567780
3572.15125488,0.00575748
3574.08006226,0.00568500
3576.00886963,0.00572220
3577.93767700,0.00570739
3579.86648437,0.00573705
3581.79529175,0.00571212
3583.72409912,0.00569306
3585.65290649,0.00564248
3587.58171387,0.00526452
3589.51052124,0.00541065
3591.43932861,0.00580855
3593.36813599,0.00569752
3595.29694336,0.00568534
3597.22575073,0.00565109
3599.15455811,0.00578169
3601.08336548,0.00580949
3603.01217285,0.00571252
3604.94098022,0.00590963
3606.86978760,0.00571085
3608.79859497,0.00538961
3610.72740234,0.00556252
3612.65620972,0.00563582
3614.58501709,0.00556385
3616.51382446,0.00592924
3618.44263184,0.00555472
3620.37143921,0.00542446
3622.30024658,0.00595733
3624.22905395,0.00592365
3626.15786133,0.00620907
3628.08666870,0.00516218
3630.01547607,0.00479401
3631.94428345,0.00601334
3633.87309082,0.00590538
3635.80189819,0.00607702
3637.73070557,0.00611631
3639.65951294,0.00611828
3641.58832031,0.00620731
3643.51712769,0.00603824
3645.44593506,0.00617581
3647.37474243,0.00557279
3649.30354980,0.00514886
3651.23235718,0.00521979
3653.16116455,0.00616084
3655.08997192,0.00619591
3657.01877930,0.00558886
3658.94758667,0.00655274
3660.87639404,0.00652272
3662.80520142,0.00641878
3664.73400879,0.00646975
3666.66281616,0.00653554
3668.59162354,0.00635131
3670.52043091,0.00533715
3672.44923828,0.00635328
3674.37804565,0.00604900
3676.30685303,0.00510982
3678.23566040,0.00642180
3680.16446777,0.00660683
3682.09327515,0.00656048
3684.02208252,0.00683344
3685.95088989,0.00669761
3687.87969727,0.00605339
3689.80850464,0.00563575
3691.73731201,0.00634203
3693.66611938,0.00663665
3695.59492676,0.00672379
3697.52373413,0.00669460
3699.45254150,0.00670756
3701.38134888,0.00654697
3703.31015625,0.00634660
3705.23896362,0.00677748
3707.16777100,0.00649305
3709.09657837,0.00645570
3711.02538574,0.00601634
3712.95419312,0.00565471
3714.88300049,0.00659897
3716.81180786,0.00658823
3718.74061523,0.00662626
3720.66942261,0.00639579
3722.59822998,0.00618703
3724.52703735,0.00646065
3726.45584473,0.00600617
3728.38465210,0.00639791
3730.31345947,0.00633785
3732.24226685,0.00583479
3734.17107422,0.00572408
3736.09988159,0.00546961
3738.02868896,0.00573347
3739.95749634,0.00628627
3741.88630371,0.00650701
3743.81511108,0.00504376
3745.74391846,0.00486965
3747.67272583,0.00618293
3749.60153320,0.00528364
3751.53034058,0.00483467
3753.45914795,0.00553559
3755.38795532,0.00600037
3757.31676270,0.00617512
3759.24557007,0.00571958
3761.17437744,0.00598405
3763.10318481,0.00640058
3765.03199219,0.00596861
3766.96079956,0.00596988
3768.88960693,0.00589885
3770.81841431,0.00563881
3772.74722168,0.00602648
3774.67602905,0.00601796
3776.60483643,0.00602772
3778.53364380,0.00588419
3780.46245117,0.00567930
3782.39125854,0.00605201
3784.32006592,0.00588854
3786.24887329,0.00583888
3788.17768066,0.00591475
3790.10648804,0.00587226
3792.03529541,0.00586033
3793.96410278,0.00596340
3795.89291016,0.00566324
3797.82171753,0.00552245
3799.75052490,0.00582701
3801.67933228,0.00470759
3803.60813965,0.00536123
3805.53694702,0.00579520
3807.46575439,0.00480504
3809.39456177,0.00572821
3811.32336914,0.00556056
3813.25217651,0.00582408
3815.18098389,0.00517358
3817.10979126,0.00457420
3819.03859863,0.00593063
3820.96740601,0.00465408
3822.89621338,0.00485648
3824.82502075,0.00573615
3826.75382812,0.00518200
3828.68263550,0.00558200
3830.61144287,0.00536097
3832.54025024,0.00524524
3834.46905762,0.00530447
3836.39786499,0.00507021
3838.32667236,0.00456786
3840.25547974,0.00487065
3842.18428711,0.00536087
3844.11309448,0.00508926
3846.04190186,0.00542496
3847.97070923,0.00533545
3849.89951660,0.00534450
3851.82832397,0.00479532
3853.75713135,0.00361906
3855.68593872,0.00431222
3857.61474609,0.00530909
3859.54355347,0.00512933
3861.47236084,0.00505424
3863.40116821,0.00500242
3865.32997559,0.00464138
3867.25878296,0.00508245
3869.18759033,0.00474983
3871.11639770,0.00442600
3873.04520508,0.00510560
3874.97401245,0.00472690
3876.90281982,0.00511833
3878.83162720,0.00515831
3880.76043457,0.00448185
3882.68924194,0.00513756
3884.61804932,0.00475028
3886.54685669,0.00440135
3888.47566406,0.00518965
3890.40447144,0.00483350
3892.33327881,0.00450244
3894.26208618,0.00504029
3896.19089355,0.00500026
3898.11970093,0.00475251
3900.04850830,0.00456907
3901.97731567,0.00446800
3903.90612305,0.00451566
3905.83493042,0.00449020
3907.76373779,0.00487549
3909.69254517,0.00490683
3911.62135254,0.00482104
3913.55015991,0.00498515
3915.47896728,0.00478802
3917.40777466,0.00466642
3919.33658203,0.00463035
3921.26538940,0.00478054
3923.19419678,0.00475918
3925.12300415,0.00459502
3927.05181152,0.00465468
3928.98061890,0.00474961
3930.90942627,0.00476046
3932.83823364,0.00453629
3934.76704102,0.00473938
3936.69584839,0.00486381
3938.62465576,0.00469515
3940.55346313,0.00474300
3942.48227051,0.00450261
3944.41107788,0.00446052
3946.33988525,0.00459666
3948.26869263,0.00448216
3950.19750000,0.00455625
3952.12630737,0.00459551
3954.05511475,0.00445854
3955.98392212,0.00453093
3957.91272949,0.00456651
3959.84153687,0.00449967
3961.77034424,0.00449637
3963.69915161,0.00446935
3965.62795898,0.00448857
3967.55676636,0.00444078
3969.48557373,0.00446387
3971.41438110,0.00444842
3973.34318848,0.00438538
3975.27199585,0.00446276
3977.20080322,0.00443471
3979.12961060,0.00444019
3981.05841797,0.00440978
3982.98722534,0.00439528
3984.91603271,0.00444856
3986.84484009,0.00443438
3988.77364746,0.00440112
3990.70245483,0.00435205
3992.63126221,0.00443025
3994.56006958,0.00441656
3996.48887695,0.00435133
3998.41768433,0.00434497
4000.34649170,0.00433743
4002.27529907,0.00430284
4004.20410645,0.00419458
4006.13291382,0.00420081
4008.06172119,0.00414341
4009.99052856,0.00419588
4011.91933594,0.00430059
4013.84814331,0.00415710
4015.77695068,0.00420166
4017.70575806,0.00424427
4019.63456543,0.00415065
4021.56337280,0.00419953
4023.49218018,0.00419737
4025.42098755,0.00422218
4027.34979492,0.00422317
4029.27860229,0.00411446
4031.20740967,0.00418591
4033.13621704,0.00417804
4035.06502441,0.00411189
4036.99383179,0.00412307
4038.92263916,0.00406080
4040.85144653,0.00407530
4042.78025391,0.00405033
4044.70906128,0.00403860
4046.63786865,0.00400726
4048.56667603,0.00402789
4050.49548340,0.00411556
4052.42429077,0.00399934
4054.35309814,0.00400095
4056.28190552,0.00398643
4058.21071289,0.00392359
4060.13952026,0.00396173
4062.06832764,0.00396751
4063.99713501,0.00400447
4065.92594238,0.00396585
4067.85474976,0.00392311
4069.78355713,0.00387970
4071.71236450,0.00392171
4073.64117187,0.00398873
4075.56997925,0.00390942
4077.49878662,0.00391676
4079.42759399,0.00394175
4081.35640137,0.00388480
4083.28520874,0.00386615
4085.21401611,0.00389697
4087.14282349,0.00382789
4089.07163086,0.00382254
4091.00043823,0.00388618
4092.92924561,0.00374878
4094.85805298,0.00372260
4096.78686035,0.00383622
4098.71566772,0.00381847
4100.64447510,0.00378488
4102.57328247,0.00377873
4104.50208984,0.00371797
4106.43089722,0.00375401
4108.35970459,0.00385771
4110.28851196,0.00382066
4112.21731934,0.00372159
4114.14612671,0.00365883
4116.07493408,0.00369483
4118.00374145,0.00372549
4119.93254883,0.00371836
4121.86135620,0.00370932
4123.79016357,0.00365796
4125.71897095,0.00365966
4127.64777832,0.00363287
4129.57658569,0.00361757
4131.50539307,0.00367502
4133.43420044,0.00362814
4135.36300781,0.00358774
4137.29181519,0.00360408
4139.22062256,0.00348718
4141.14942993,0.00351923
4143.07823730,0.00362355
4145.00704468,0.00349467
4146.93585205,0.00350463
4148.86465942,0.00355169
4150.79346680,0.00354702
4152.72227417,0.00358810
4154.65108154,0.00355560
4156.57988892,0.00353079
4158.50869629,0.00346041
4160.43750366,0.00344744
4162.36631103,0.00351530
4164.29511841,0.00353965
4166.22392578,0.00345952
4168.15273315,0.00340137
4170.08154053,0.00344091
4172.01034790,0.00341330
4173.93915527,0.00343222
4175.86796265,0.00346880
4177.79677002,0.00345275
4179.72557739,0.00343113
4181.65438477,0.00343344
4183.58319214,0.00339330
4185.51199951,0.00339087
4187.44080688,0.00341378
4189.36961426,0.00332976
4191.29842163,0.00344286
4193.22722900,0.00346435
4195.15603638,0.00336449
4197.08484375,0.00334779
4199.01365112,0.00329659
4200.94245850,0.00332221
4202.87126587,0.00332381
4204.80007324,0.00339049
4206.72888062,0.00331116
4208.65768799,0.00329403
4210.58649536,0.00338810
4212.51530273,0.00326226
4214.44411011,0.00325954
4216.37291748,0.00320476
4218.30172485,0.00319691
4220.23053223,0.00326449
4222.15933960,0.00329873
4224.08814697,0.00327222
4226.01695435,0.00316275
4227.94576172,0.00325252
4229.87456909,0.00323549
4231.80337646,0.00324060
4233.73218384,0.00327262
4235.66099121,0.00323471
4237.58979858,0.00320884
4239.51860596,0.00316015
4241.44741333,0.00330033
4243.37622070,0.00320763
4245.30502808,0.00308339
4247.23383545,0.00314428
4249.16264282,0.00308188
4251.09145020,0.00309243
4253.02025757,0.00315333
4254.94906494,0.00315030
4256.87787231,0.00308928
4258.80667969,0.00306566
4260.73548706,0.00306305
4262.66429443,0.00311796
4264.59310181,0.00314939
4266.52190918,0.00307497
4268.45071655,0.00302791
4270.37952393,0.00298582
4272.30833130,0.00306937
4274.23713867,0.00308088
4276.16594604,0.00299289
4278.09475342,0.00307244
4280.02356079,0.00307449
4281.95236816,0.00298375
4283.88117554,0.00297293
4285.80998291,0.00290345
4287.73879028,0.00295383
4289.66759766,0.00308701
4291.59640503,0.00300667
4293.52521240,0.00296714
4295.45401978,0.00291687
4297.38282715,0.00298565
4299.31163452,0.00302469
4301.24044189,0.00285774
4303.16924927,0.00300400
4305.09805664,0.00298353
4307.02686401,0.00289182
4308.95567139,0.00291931
4310.88447876,0.00280646
4312.81328613,0.00291638
4314.74209351,0.00289478
4316.67090088,0.00281378
4318.59970825,0.00286705
4320.52851562,0.00277035
4322.45732300,0.00276342
4324.38613037,0.00284235
4326.31493774,0.00279007
4328.24374512,0.00275054
4330.17255249,0.00282208
4332.10135986,0.00285867
4334.03016724,0.00281653
4335.95897461,0.00278908
4337.88778198,0.00279023
4339.81658936,0.00270842
4341.74539673,0.00273666
4343.67420410,0.00280303
4345.60301147,0.00280762
4347.53181885,0.00283688
4349.46062622,0.00275200
4351.38943359,0.00284321
4353.31824097,0.00281827
4355.24704834,0.00273093
4357.17585571,0.00273844
4359.10466309,0.00256628
4361.03347046,0.00265908
4362.96227783,0.00265045
4364.89108520,0.00263199
4366.81989258,0.00273661
4368.74869995,0.00262125
4370.67750732,0.00268260
4372.60631470,0.00275825
4374.53512207,0.00270897
4376.46392944,0.00264238
4378.39273682,0.00264425
4380.32154419,0.00261705
4382.25035156,0.00263258
4384.17915894,0.00267349
4386.10796631,0.00257087
4388.03677368,0.00267088
4389.96558105,0.00264513
4391.89438843,0.00259131
4393.82319580,0.00268894
4395.75200317,0.00261231
4397.68081055,0.00253312
4399.60961792,0.00252529
4401.53842529,0.00266184
4403.46723267,0.00265311
4405.39604004,0.00252263
4407.32484741,0.00256717
4409.25365478,0.00256709
4411.18246216,0.00253374
4413.11126953,0.00256403
4415.04007690,0.00252251
4416.96888428,0.00247850
4418.89769165,0.00252222
4420.82649902,0.00246774
4422.75530640,0.00247192
4424.68411377,0.00246320
4426.61292114,0.00246103
4428.54172852,0.00252977
4430.47053589,0.00242500
4432.39934326,0.00249377
4434.32815063,0.00249805
4436.25695801,0.00240545
4438.18576538,0.00249692
4440.11457275,0.00243229
4442.04338013,0.00240625
4443.97218750,0.00248874
4445.90099487,0.00246570
4447.82980225,0.00241029
4449.75860962,0.00238677
4451.68741699,0.00233684
4453.61622437,0.00232087
4455.54503174,0.00231913
4457.47383911,0.00234279
4459.40264648,0.00241711
4461.33145386,0.00235072
4463.26026123,0.00231359
4465.18906860,0.00230243
4467.11787598,0.00236308
4469.04668335,0.00245138
4470.97549072,0.00232620
4472.90429810,0.00230034
4474.83310547,0.00235227
4476.76191284,0.00232753
4478.69072021,0.00228429
4480.61952759,0.00230103
4482.54833496,0.00232773
4484.47714233,0.00229556
4486.40594971,0.00228346
4488.33475708,0.00223409
4490.26356445,0.00221857
4492.19237183,0.00218741
4494.12117920,0.00220023
4496.04998657,0.00227988
4497.97879395,0.00225871
4499.90760132,0.00219199
4501.83640869,0.00217089
4503.76521606,0.00223314
4505.69402344,0.00218432
4507.62283081,0.00219124
4509.55163818,0.00229232
4511.48044556,0.00221933
4513.40925293,0.00220193
4515.33806030,0.00220983
4517.26686768,0.00217781
4519.19567505,0.00221935
4521.12448242,0.00216907
4523.05328979,0.00213346
4524.98209717,0.00222090
4526.91090454,0.00219475
4528.83971191,0.00216030
4530.76851929,0.00214155
4532.69732666,0.00207611
4534.62613403,0.00209576
4536.55494141,0.00213067
4538.48374878,0.00222190
4540.41255615,0.00219824
4542.34136353,0.00213925
4544.27017090,0.00216669
4546.19897827,0.00204163
4548.12778564,0.00205815
4550.05659302,0.00216985
4551.98540039,0.00214736
4553.91420776,0.00210065
4555.84301514,0.00205629
4557.77182251,0.00204227
4559.70062988,0.00205309
4561.62943726,0.00208595
4563.55824463,0.00207429
4565.48705200,0.00205417
4567.41585937,0.00206071
4569.34466675,0.00204750
4571.27347412,0.00198229
4573.20228149,0.00197983
4575.13108887,0.00208954
4577.05989624,0.00205359
4578.98870361,0.00193019
4580.91751099,0.00198518
4582.84631836,0.00206199
4584.77512573,0.00194689
4586.70393311,0.00199785
4588.63274048,0.00205675
4590.56154785,0.00193030
4592.49035522,0.00201983
4594.41916260,0.00197951
4596.34796997,0.00193102
4598.27677734,0.00199627
4600.20558472,0.00193089
4602.13439209,0.00195965
4604.06319946,0.00187708
4605.99200684,0.00194980
4607.92081421,0.00207536
4609.84962158,0.00189494
4611.77842895,0.00190434
4613.70723633,0.00188939
4615.63604370,0.00182780
4617.56485107,0.00193363
4619.49365845,0.00188819
4621.42246582,0.00190591
4623.35127319,0.00196026
4625.28008057,0.00187404
4627.20888794,0.00190399
4629.13769531,0.00192838
4631.06650269,0.00191444
4632.99531006,0.00189028
4634.92411743,0.00180403
4636.85292480,0.00185953
4638.78173218,0.00190747
4640.71053955,0.00184645
4642.63934692,0.00186923
4644.56815430,0.00188216
4646.49696167,0.00184492
4648.42576904,0.00186343
4650.35457642,0.00180674
4652.28338379,0.00174892
4654.21219116,0.00180559
4656.14099853,0.00183931
4658.06980591,0.00184322
4659.99861328,0.00173955
4661.92742065,0.00173603
4663.85622803,0.00184547
4665.78503540,0.00180472
4667.71384277,0.00178645
4669.64265015,0.00178786
4671.57145752,0.00180318
4673.50026489,0.00177553
4675.42907227,0.00175072
4677.35787964,0.00179723
4679.28668701,0.00174205
4681.21549438,0.00170917
4683.14430176,0.00173675
4685.07310913,0.00176003
4687.00191650,0.00169916
4688.93072388,0.00172483
4690.85953125,0.00178683
4692.78833862,0.00169888
4694.71714600,0.00175802
4696.64595337,0.00175575
4698.57476074,0.00167403
4700.50356812,0.00168653
4702.43237549,0.00168077
4704.36118286,0.00168925
4706.28999023,0.00166083
4708.21879761,0.00169513
4710.14760498,0.00171619
4712.07641235,0.00168522
4714.00521973,0.00169632
4715.93402710,0.00169972
4717.86283447,0.00170552
4719.79164185,0.00167691
4721.72044922,0.00166300
4723.64925659,0.00164730
4725.57806396,0.00164507
4727.50687134,0.00165633
4729.43567871,0.00163581
4731.36448608,0.00166946
4733.29329346,0.00164269
4735.22210083,0.00158030
4737.15090820,0.00164021
4739.07971558,0.00168858
4741.00852295,0.00162398
4742.93733032,0.00162349
4744.86613770,0.00173854
4746.79494507,0.00166079
4748.72375244,0.00151204
4750.65255981,0.00159733
4752.58136719,0.00163178
4754.51017456,0.00155989
4756.43898193,0.00155202
4758.36778931,0.00155596
4760.29659668,0.00155038
4762.22540405,0.00159817
4764.15421143,0.00161453
4766.08301880,0.00150542
4768.01182617,0.00158584
4769.94063354,0.00160282
4771.86944092,0.00144358
4773.79824829,0.00151796
4775.72705566,0.00155872
4777.65586304,0.00155750
4779.58467041,0.00154111
4781.51347778,0.00155783
4783.44228516,0.00156789
4785.37109253,0.00145560
4787.29989990,0.00155869
4789.22870728,0.00155748
4791.15751465,0.00149159
4793.08632202,0.00151411
4795.01512939,0.00145288
4796.94393677,0.00150466
4798.87274414,0.00151276
4800.80155151,0.00149193
4802.73035889,0.00150751
4804.65916626,0.00149209
4806.58797363,0.00147166
4808.51678101,0.00149313
4810.44558838,0.00149896
4812.37439575,0.00141634
4814.30320312,0.00141762
4816.23201050,0.00147323
4818.16081787,0.00149605
4820.08962524,0.00145257
4822.01843262,0.00142349
4823.94723999,0.00140305
4825.87604736,0.00143425
4827.80485474,0.00145913
4829.73366211,0.00140979
4831.66246948,0.00151073
4833.59127686,0.00144139
4835.52008423,0.00139817
4837.44889160,0.00143619
4839.37769897,0.00132195
4841.30650635,0.00136407
4843.23531372,0.00138900
4845.16412109,0.00145687
4847.09292847,0.00143205
4849.02173584,0.00137350
4850.95054321,0.00142849
4852.87935059,0.00135452
4854.80815796,0.00133153
4856.73696533,0.00129418
4858.66577270,0.00135120
4860.59458008,0.00137509
4862.52338745,0.00132534
4864.45219482,0.00138058
4866.38100220,0.00137475
4868.30980957,0.00138626
4870.23861694,0.00128436
4872.16742432,0.00129734
4874.09623169,0.00140832
4876.02503906,0.00132462
4877.95384644,0.00132348
4879.88265381,0.00132896
4881.81146118,0.00129362
4883.74026855,0.00129938
4885.66907593,0.00130996
4887.59788330,0.00137901
4889.52669067,0.00136865
4891.45549805,0.00127599
4893.38430542,0.00128247
4895.31311279,0.00130604
4897.24192017,0.00132843
4899.17072754,0.00128017
4901.09953491,0.00120345
4903.02834228,0.00127668
4904.95714966,0.00133332
4906.88595703,0.00133369
4908.81476440,0.00125401
4910.74357178,0.00127381
4912.67237915,0.00136083
4914.60118652,0.00129598
4916.52999390,0.00123755
4918.45880127,0.00122715
4920.38760864,0.00130112
4922.31641602,0.00124908
4924.24522339,0.00126723
4926.17403076,0.00133081
4928.10283813,0.00124298
4930.03164551,0.00127289
4931.96045288,0.00120478
4933.88926025,0.00122192
4935.81806763,0.00124581
4937.74687500,0.00117149
4939.67568237,0.00116012
4941.60448975,0.00122276
4943.53329712,0.00132789
4945.46210449,0.00118377
4947.39091187,0.00122135
4949.31971924,0.00123241
4951.24852661,0.00116698
4953.17733398,0.00128960
4955.10614136,0.00126318
4957.03494873,0.00128595
4958.96375610,0.00119008
4960.89256348,0.00112476
4962.82137085,0.00113663
4964.75017822,0.00115567
4966.67898560,0.00121333
4968.60779297,0.00109599
4970.53660034,0.00115245
4972.46540771,0.00119708
4974.39421509,0.00114897
4976.32302246,0.00112007
4978.25182983,0.00113507
4980.18063721,0.00118292
4982.10944458,0.00108850
4984.03825195,0.00109763
4985.96705933,0.00116021
4987.89586670,0.00115869
4989.82467407,0.00112310
4991.75348145,0.00119073
4993.68228882,0.00118549
4995.61109619,0.00108118
4997.53990356,0.00113959
4999.46871094,0.00109454
5001.39751831,0.00105226
5003.32632568,0.00112922
5005.25513306,0.00120633
5007.18394043,0.00112672
5009.11274780,0.00109104
5011.04155518,0.00116208
5012.97036255,0.00107932
5014.89916992,0.00112313
5016.82797729,0.00113067
5018.75678467,0.00109193
5020.68559204,0.00107232
5022.61439941,0.00105430
5024.54320679,0.00112703
5026.47201416,0.00111676
5028.40082153,0.00117076
5030.32962891,0.00114422
5032.25843628,0.00102698
5034.18724365,0.00098351
5036.11605103,0.00104787
5038.04485840,0.00112053
5039.97366577,0.00108909
5041.90247314,0.00110812
5043.83128052,0.00109656
5045.76008789,0.00108650
5047.68889526,0.00102557
5049.61770264,0.00103180
5051.54651001,0.00102988
5053.47531738,0.00096409
5055.40412476,0.00106810
5057.33293213,0.00104435
5059.26173950,0.00107299
5061.19054687,0.00108319
5063.11935425,0.00098915
5065.04816162,0.00103059
5066.97696899,0.00100493
5068.90577637,0.00101450
5070.83458374,0.00102480
5072.76339111,0.00100259
5074.69219849,0.00103965
5076.62100586,0.00102293
5078.54981323,0.00096527
5080.47862061,0.00099699
5082.40742798,0.00103873
5084.33623535,0.00101116
5086.26504272,0.00099114
5088.19385010,0.00100679
5090.12265747,0.00103171
5092.05146484,0.00099685
5093.98027222,0.00103871
5095.90907959,0.00093064
5097.83788696,0.00087971
5099.76669434,0.00102447
5101.69550171,0.00093775
5103.62430908,0.00100332
5105.55311645,0.00104249
5107.48192383,0.00101001
5109.41073120,0.00099010
5111.33953857,0.00089271
5113.26834595,0.00099752
5115.19715332,0.00097075
5117.12596069,0.00098527
5119.05476807,0.00098211
5120.98357544,0.00090565
5122.91238281,0.00097804
5124.84119019,0.00094410
5126.76999756,0.00096246
5128.69880493,0.00095261
5130.62761230,0.00092377
5132.55641968,0.00095070
5134.48522705,0.00091790
5136.41403442,0.00088616
5138.34284180,0.00095634
5140.27164917,0.00099529
5142.20045654,0.00087970
5144.12926392,0.00092422
5146.05807129,0.00094604
5147.98687866,0.00085325
5149.91568603,0.00084245
5151.84449341,0.00090475
5153.77330078,0.00094041
5155.70210815,0.00087554
5157.63091553,0.00089288
5159.55972290,0.00090261
5161.48853027,0.00089728
5163.41733765,0.00086143
5165.34614502,0.00087377
5167.27495239,0.00094564
5169.20375977,0.00090359
5171.13256714,0.00091480
5173.06137451,0.00092053
5174.99018188,0.00091129
5176.91898926,0.00083980
5178.84779663,0.00085833
5180.77660400,0.00093569
5182.70541138,0.00084105
5184.63421875,0.00084306
5186.56302612,0.00083299
5188.49183350,0.00088989
5190.42064087,0.00094454
5192.34944824,0.00086963
5194.27825562,0.00088014
5196.20706299,0.00084503
5198.13587036,0.00085233
5200.06467773,0.00082693
5201.99348511,0.00076554
5203.92229248,0.00083512
5205.85109985,0.00088628
5207.77990723,0.00090087
5209.70871460,0.00086040
5211.63752197,0.00081322
5213.56632935,0.00084577
5215.49513672,0.00087712
5217.42394409,0.00089984
5219.35275146,0.00080809
5221.28155884,0.00073023
5223.21036621,0.00084510
5225.13917358,0.00081671
5227.06798096,0.00080394
5228.99678833,0.00083739
5230.92559570,0.00081963
5232.85440308,0.00088643
5234.78321045,0.00078916
5236.71201782,0.00082593
5238.64082520,0.00086701
5240.56963257,0.00078173
5242.49843994,0.00079532
5244.42724731,0.00077010
5246.35605469,0.00083525
5248.28486206,0.00076783
5250.21366943,0.00078006
5252.14247681,0.00091305
5254.07128418,0.00082624
5256.00009155,0.00073619
5257.92889893,0.00074994
5259.85770630,0.00080128
5261.78651367,0.00070787
5263.71532104,0.00073759
5265.64412842,0.00081090
5267.57293579,0.00079224
5269.50174316,0.00081771
5271.43055054,0.00081613
5273.35935791,0.00086769
5275.28816528,0.00075896
5277.21697266,0.00074978
5279.14578003,0.00080724
5281.07458740,0.00074205
5283.00339478,0.00074078
5284.93220215,0.00071612
5286.86100952,0.00073414
5288.78981689,0.00069936
5290.71862427,0.00073708
5292.64743164,0.00075282
5294.57623901,0.00076816
5296.50504639,0.00077209
5298.43385376,0.00069365
5300.36266113,0.00079589
5302.29146851,0.00069354
5304.22027588,0.00071689
5306.14908325,0.00077945
5308.07789062,0.00068649
5310.00669800,0.00079882
5311.93550537,0.00073847
5313.86431274,0.00077902
5315.79312012,0.00075608
5317.72192749,0.00067438
5319.65073486,0.00078823
5321.57954224,0.00072690
5323.50834961,0.00076436
5325.43715698,0.00073152
5327.36596436,0.00068729
5329.29477173,0.00081411
5331.22357910,0.00072320
5333.15238647,0.00066627
5335.08119385,0.00074459
5337.01000122,0.00073495
5338.93880859,0.00069941
5340.86761597,0.00070014
5342.79642334,0.00073618
5344.72523071,0.00070327
5346.65403809,0.00064109
5348.58284546,0.00071151
5350.51165283,0.00073899
5352.44046020,0.00067935
5354.36926758,0.00067162
5356.29807495,0.00071491
5358.22688232,0.00072092
5360.15568970,0.00066146
5362.08449707,0.00067665
5364.01330444,0.00068410
5365.94211182,0.00068453
5367.87091919,0.00070384
5369.79972656,0.00070425
5371.72853394,0.00071418
5373.65734131,0.00069905
5375.58614868,0.00069114
5377.51495605,0.00059305
5379.44376343,0.00060371
5381.37257080,0.00072251
5383.30137817,0.00071574
5385.23018555,0.00069869
5387.15899292,0.00067961
5389.08780029,0.00067308
5391.01660767,0.00064282
5392.94541504,0.00064375
5394.87422241,0.00062725
5396.80302978,0.00063111
5398.73183716,0.00069746
5400.66064453,0.00067509
5402.58945190,0.00071616
5404.51825928,0.00068026
5406.44706665,0.00064307
5408.37587402,0.00065421
5410.30468140,0.00060878
5412.23348877,0.00065933
5414.16229614,0.00063914
5416.09110352,0.00063357
5418.01991089,0.00064655
5419.94871826,0.00063741
5421.87752563,0.00066520
5423.80633301,0.00063852
5425.73514038,0.00061316
5427.66394775,0.00061092
5429.59275513,0.00060111
5431.52156250,0.00055219
5433.45036987,0.00063322
5435.37917725,0.00064181
5437.30798462,0.00062235
5439.23679199,0.00072300
5441.16559936,0.00055263
5443.09440674,0.00054669
5445.02321411,0.00066480
5446.95202148,0.00057410
5448.88082886,0.00059590
5450.80963623,0.00061678
5452.73844360,0.00059288
5454.66725098,0.00053396
5456.59605835,0.00057555
5458.52486572,0.00061353
5460.45367310,0.00052548
5462.38248047,0.00063614
5464.31128784,0.00060064
5466.24009521,0.00051350
5468.16890259,0.00061829
5470.09770996,0.00058378
5472.02651733,0.00059453
5473.95532471,0.00057329
5475.88413208,0.00053830
5477.81293945,0.00058969
5479.74174683,0.00055122
5481.67055420,0.00058400
5483.59936157,0.00056544
5485.52816895,0.00062147
5487.45697632,0.00070049
5489.38578369,0.00058078
5491.31459106,0.00060335
5493.24339844,0.00060252
5495.17220581,0.00061281
5497.10101318,0.00062623
5499.02982056,0.00054905
5500.95862793,0.00060735
5502.88743530,0.00052230
5504.81624268,0.00053401
5506.74505005,0.00061885
5508.67385742,0.00051896
5510.60266479,0.00059452
5512.53147217,0.00059548
5514.46027954,0.00049458
5516.38908691,0.00051698
5518.31789429,0.00054329
5520.24670166,0.00055761
5522.17550903,0.00052961
5524.10431641,0.00052385
5526.03312378,0.00050967
5527.96193115,0.00048440
5529.89073853,0.00048127
5531.81954590,0.00049353
5533.74835327,0.00057128
5535.67716064,0.00051951
5537.60596802,0.00047567
5539.53477539,0.00056528
5541.46358276,0.00053550
5543.39239014,0.00050913
5545.32119751,0.00052514
5547.25000488,0.00052149
5549.17881226,0.00051935
5551.10761963,0.00050488
5553.03642700,0.00046472
5554.96523437,0.00042448
5556.89404175,0.00052818
5558.82284912,0.00052233
5560.75165649,0.00048593
5562.68046387,0.00052413
5564.60927124,0.00043982
5566.53807861,0.00052861
5568.46688599,0.00056723
5570.39569336,0.00050295
5572.32450073,0.00052030
5574.25330811,0.00048643
5576.18211548,0.00053539
5578.11092285,0.00051390
5580.03973022,0.00050789
5581.96853760,0.00055061
5583.89734497,0.00048889
5585.82615234,0.00051117
5587.75495972,0.00053197
5589.68376709,0.00045759
5591.61257446,0.00045757
5593.54138184,0.00054284
5595.47018921,0.00050150
5597.39899658,0.00047101
5599.32780395,0.00046016
5601.25661133,0.00045289
5603.18541870,0.00052511
5605.11422607,0.00046643
5607.04303345,0.00049599
5608.97184082,0.00049229
5610.90064819,0.00044805
5612.82945557,0.00051395
5614.75826294,0.00045289
5616.68707031,0.00046848
5618.61587769,0.00046429
5620.54468506,0.00047125
5622.47349243,0.00053387
5624.40229980,0.00051586
5626.33110718,0.00051966
5628.25991455,0.00045392
5630.18872192,0.00045335
5632.11752930,0.00045655
5634.04633667,0.00045372
5635.97514404,0.00050697
5637.90395142,0.00049666
5639.83275879,0.00047836
5641.76156616,0.00045821
5643.69037353,0.00049726
5645.61918091,0.00048390
5647.54798828,0.00050622
5649.47679565,0.00051450
5651.40560303,0.00040919
5653.33441040,0.00043844
5655.26321777,0.00045180
5657.19202515,0.00045374
5659.12083252,0.00043995
5661.04963989,0.00042830
5662.97844727,0.00046476
5664.90725464,0.00041902
5666.83606201,0.00046604
5668.76486938,0.00051634
5670.69367676,0.00048915
5672.62248413,0.00043976
5674.55129150,0.00044266
5676.48009888,0.00048349
5678.40890625,0.00044384
5680.33771362,0.00044990
5682.26652100,0.00037626
5684.19532837,0.00040460
5686.12413574,0.00051270
5688.05294311,0.00037180
5689.98175049,0.00039632
5691.91055786,0.00050133
5693.83936523,0.00045211
5695.76817261,0.00044120
5697.69697998,0.00040886
5699.62578735,0.00043953
5701.55459473,0.00045407
5703.48340210,0.00035951
5705.41220947,0.00040338
5707.34101685,0.00047790
5709.26982422,0.00042393
5711.19863159,0.00036519
5713.12743896,0.00037863
5715.05624634,0.00043983
5716.98505371,0.00042689
5718.91386108,0.00043076
5720.84266846,0.00044062
5722.77147583,0.00034763
5724.70028320,0.00039620
5726.62909058,0.00047490
5728.55789795,0.00043989
5730.48670532,0.00043310
5732.41551270,0.00039024
5734.34432007,0.00039865
5736.27312744,0.00044507
5738.20193481,0.00038729
5740.13074219,0.00038121
5742.05954956,0.00042325
5743.98835693,0.00040111
5745.91716431,0.00038512
5747.84597168,0.00036223
5749.77477905,0.00034242
5751.70358643,0.00037395
5753.63239380,0.00039906
5755.56120117,0.00038923
5757.49000854,0.00039018
5759.41881592,0.00042139
5761.34762329,0.00041847
5763.27643066,0.00042518
5765.20523804,0.00040187
5767.13404541,0.00033982
5769.06285278,0.00035014
5770.99166016,0.00034562
5772.92046753,0.00039494
5774.84927490,0.00040390
5776.77808228,0.00033720
5778.70688965,0.00037904
5780.63569702,0.00038961
5782.56450439,0.00039645
5784.49331177,0.00037864
5786.42211914,0.00037254
5788.35092651,0.00038606
5790.27973389,0.00034533
5792.20854126,0.00040545
5794.13734863,0.00035603
5796.06615601,0.00031238
5797.99496338,0.00036348
5799.92377075,0.00034035
5801.85257812,0.00039236
5803.78138550,0.00037374
5805.71019287,0.00036382
5807.63900024,0.00040964
5809.56780762,0.00032918
5811.49661499,0.00030446
5813.42542236,0.00038581
5815.35422974,0.00038553
5817.28303711,0.00031144
5819.21184448,0.00032137
5821.14065186,0.00033958
5823.06945923,0.00035212
5824.99826660,0.00035272
5826.92707397,0.00033486
5828.85588135,0.00035326
5830.78468872,0.00034187
5832.71349609,0.00035925
5834.64230347,0.00033377
5836.57111084,0.00033799
5838.49991821,0.00035480
5840.42872559,0.00030777
5842.35753296,0.00031856
5844.28634033,0.00031014
5846.21514770,0.00035224
5848.14395508,0.00028252
5850.07276245,0.00027557
5852.00156982,0.00037427
5853.93037720,0.00028211
5855.85918457,0.00038575
5857.78799194,0.00039269
5859.71679932,0.00027972
5861.64560669,0.00033216
5863.57441406,0.00028377
5865.50322144,0.00032707
5867.43202881,0.00032463
5869.36083618,0.00026953
5871.28964355,0.00031309
5873.21845093,0.00028573
5875.14725830,0.00030948
5877.07606567,0.00033951
5879.00487305,0.00032221
5880.93368042,0.00030817
5882.86248779,0.00025439
5884.79129517,0.00027846
5886.72010254,0.00039430
5888.64890991,0.00035845
5890.57771728,0.00027090
5892.50652466,0.00033605
5894.43533203,0.00034365
5896.36413940,0.00028563
5898.29294678,0.00028292
5900.22175415,0.00027056
5902.15056152,0.00029363
5904.07936890,0.00034239
5906.00817627,0.00031399
5907.93698364,0.00030947
5909.86579102,0.00030611
5911.79459839,0.00024055
5913.72340576,0.00025706
5915.65221313,0.00024969
5917.58102051,0.00027571
5919.50982788,0.00036378
5921.43863525,0.00030846
5923.36744263,0.00029392
5925.29625000,0.00031634
5927.22505737,0.00028953
5929.15386475,0.00025497
5931.08267212,0.00022578
5933.01147949,0.00034193
5934.94028686,0.00036707
5936.86909424,0.00027123
5938.79790161,0.00032723
5940.72670898,0.00032538
5942.65551636,0.00025688
5944.58432373,0.00028643
5946.51313110,0.00028458
5948.44193848,0.00026150
5950.37074585,0.00024463
5952.29955322,0.00021970
5954.22836060,0.00026920
5956.15716797,0.00033498
5958.08597534,0.00031585
5960.01478271,0.00026208
5961.94359009,0.00029987
5963.87239746,0.00033263
5965.80120483,0.00027618
5967.73001221,0.00030711
5969.65881958,0.00037435
5971.58762695,0.00032492
5973.51643433,0.00026511
5975.44524170,0.00028787
5977.37404907,0.00027485
5979.30285645,0.00026851
5981.23166382,0.00028229
5983.16047119,0.00023564
5985.08927856,0.00030757
5987.01808594,0.00030656
5988.94689331,0.00020973
5990.87570068,0.00024073
5992.80450806,0.00023360
5994.73331543,0.00028021
5996.66212280,0.00030090
5998.59093018,0.00023899
6000.51973755,0.00026457
