399.26312622,-0.00010243
401.19193359,0.00019928
403.12074097,0.00031825
405.04954834,-0.00005089
406.97835571,-0.00009773
408.90716309,0.00032112
410.83597046,0.00029593
412.76477783,0.00052485
414.69358521,0.00007406
416.62239258,-0.00018076
418.55119995,0.00036250
420.48000732,0.00009669
422.40881470,0.00007945
424.33762207,0.00020193
426.26642944,0.00044228
428.19523682,0.00055790
430.12404419,0.00019058
432.05285156,0.00004509
433.98165894,0.00023605
435.91046631,0.00038785
437.83927368,0.00020435
439.76808105,0.00043420
441.69688843,0.00024648
443.62569580,0.00016660
445.55450317,0.00037345
447.48331055,0.00023242
449.41211792,0.00064929
451.34092529,0.00047380
453.26973267,-0.00001505
455.19854004,0.00009633
457.12734741,0.00036712
459.05615479,0.00048031
460.98496216,0.00049683
462.91376953,0.00038647
464.84257690,0.00001465
466.77138428,0.00030655
468.70019165,0.00062171
470.62899902,0.00037631
472.55780640,0.00036350
474.48661377,0.00042873
476.41542114,0.00032116
478.34422852,0.00031942
480.27303589,0.00036406
482.20184326,0.00048776
484.13065063,0.00053937
486.05945801,0.00006965
487.98826538,-0.00003422
489.91707275,0.00009231
491.84588013,-0.00005364
493.77468750,0.00034442
495.70349487,0.00066414
497.63230225,0.00051969
499.56110962,0.00050259
501.48991699,0.00025942
503.41872437,0.00027853
505.34753174,0.00063615
507.27633911,0.00028130
509.20514648,0.00011942
511.13395386,0.00029650
513.06276123,0.00012739
514.99156860,0.00006034
516.92037598,0.00004252
518.84918335,0.00033351
520.77799072,0.00039272
522.70679810,-0.00005238
524.63560547,0.00033314
526.56441284,0.00078728
528.49322021,0.00044220
530.42202759,0.00009094
532.35083496,0.00017636
534.27964233,0.00028419
536.20844971,0.00006209
538.13725708,0.00040353
540.06606445,0.00045918
541.99487183,0.00002954
543.92367920,0.00028246
545.85248657,0.00035363
547.78129395,0.00044134
549.71010132,0.00049157
551.63890869,0.00013135
553.56771606,-0.00006509
555.49652344,0.00009220
557.42533081,0.00024667
559.35413818,-0.00007276
561.28294556,0.00021250
563.21175293,0.00031188
565.14056030,0.00002796
567.06936768,0.00012581
568.99817505,-0.00005381
570.92698242,0.00031722
572.85578979,0.00033252
574.78459717,0.00008586
576.71340454,0.00017703
578.64221191,0.00006788
580.57101929,0.00047151
582.49982666,0.00028735
584.42863403,-0.00005263
586.35744141,0.00044444
588.28624878,0.00043372
590.21505615,0.00012990
592.14386353,0.00022193
594.07267090,0.00012333
596.00147827,0.00020290
597.93028564,0.00055710
599.85909302,0.00024449
601.78790039,0.00012916
603.71670776,0.00017734
605.64551514,0.00002105
607.57432251,0.00031670
609.50312988,0.00031703
611.43193726,0.00007447
613.36074463,0.00020125
615.28955200,0.00039636
617.21835938,0.00023044
619.14716675,0.00038943
621.07597412,0.00071830
623.00478149,0.00046694
624.93358887,0.00040997
626.86239624,0.00001806
628.79120361,0.00012420
630.72001099,0.00070135
632.64881836,0.00017558
634.57762573,0.00015298
636.50643311,0.00030368
638.43524048,0.00011821
640.36404785,0.00019619
642.29285522,0.00000499
644.22166260,0.00027635
646.15046997,-0.00001785
648.07927734,0.00015293
650.00808472,0.00060885
651.93689209,0.00034642
653.86569946,0.00057140
655.79450684,0.00040779
657.72331421,0.00018366
659.65212158,0.00016285
661.58092896,0.00034006
663.50973633,0.00039103
665.43854370,0.00036433
667.36735107,0.00071118
669.29615845,0.00087648
671.22496582,0.00057802
673.15377319,0.00016482
675.08258057,0.00078722
677.01138794,0.00097088
678.94019531,0.00037151
680.86900269,0.00070716
682.79781006,0.00073435
684.72661743,0.00052327
686.65542480,0.00083362
688.58423218,0.00078249
690.51303955,0.00038390
692.44184692,0.00048479
694.37065430,0.00075433
696.29946167,0.00094684
698.22826904,0.00119552
700.15707642,0.00110008
702.08588379,0.00101607
704.01469116,0.00088980
705.94349854,0.00078826
707.87230591,0.00061422
709.80111328,0.00035099
711.72992065,0.00049376
713.65872803,0.00049552
715.58753540,0.00004182
717.51634277,-0.00005485
719.44515015,0.00037065
721.37395752,0.00022357
723.30276489,0.00031687
725.23157227,0.00029113
727.16037964,0.00038744
729.08918701,0.00037248
731.01799438,0.00001263
732.94680176,0.00031233
734.87560913,0.00025887
736.80441650,0.00033158
738.73322388,0.00050437
740.66203125,0.00042297
742.59083862,0.00027147
744.51964600,0.00036287
746.44845337,0.00021623
748.37726074,-0.00004100
750.30606812,0.00032753
752.23487549,0.00033004
754.16368286,0.00040219
756.09249023,0.00036686
758.02129761,0.00034884
759.95010498,0.00037732
761.87891235,0.00049418
763.80771973,0.00083275
765.73652710,0.00023333
767.66533447,0.00029734
769.59414185,0.00044834
771.52294922,0.00024878
773.45175659,0.00043322
775.38056396,0.00023535
777.30937134,0.00023716
779.23817871,0.00010080
781.16698608,0.00023883
783.09579346,0.00035276
785.02460083,0.00042611
786.95340820,0.00045415
788.88221558,0.00003605
790.81102295,0.00045475
792.73983032,0.00058093
794.66863770,0.00024364
796.59744507,0.00018654
798.52625244,0.00025737
800.45505981,0.00048338
802.38386719,0.00038714
804.31267456,0.00021111
806.24148193,0.00051655
808.17028931,0.00051257
810.09909668,-0.00002725
812.02790405,0.00043265
813.95671143,0.00040705
815.88551880,0.00006600
817.81432617,0.00051203
819.74313354,0.00016362
821.67194092,0.00014437
823.60074829,0.00053355
825.52955566,0.00047902
827.45836304,0.00025968
829.38717041,0.00046710
831.31597778,0.00062368
833.24478516,0.00031658
835.17359253,0.00036696
837.10239990,0.00024521
839.03120728,0.00041079
840.96001465,0.00027529
842.88882202,0.00010407
844.81762939,0.00033882
846.74643677,0.00025066
848.67524414,0.00061818
850.60405151,0.00032703
852.53285889,0.00016978
854.46166626,0.00034208
856.39047363,0.00034357
858.31928101,0.00057312
860.24808838,0.00027090
862.17689575,0.00051414
864.10570313,0.00046553
866.03451050,0.00034206
867.96331787,0.00045098
869.89212524,0.00023225
871.82093262,0.00043763
873.74973999,0.00029438
875.67854736,0.00044682
877.60735474,0.00045798
879.53616211,0.00045863
881.46496948,0.00075136
883.39377686,0.00034534
885.32258423,0.00040486
887.25139160,0.00060137
889.18019897,0.00041501
891.10900635,0.00018645
893.03781372,0.00022118
894.96662109,0.00049507
896.89542847,0.00054978
898.82423584,0.00062279
900.75304321,0.00049125
902.68185059,0.00039510
904.61065796,0.00053035
906.53946533,0.00039879
908.46827271,0.00031380
910.39708008,0.00040617
912.32588745,0.00011056
914.25469482,0.00026554
916.18350220,0.00065154
918.11230957,0.00043026
920.04111694,0.00057654
921.96992432,0.00062595
923.89873169,0.00038829
925.82753906,0.00030733
927.75634644,0.00049036
929.68515381,0.00068421
931.61396118,0.00046546
933.54276855,0.00057934
935.47157593,0.00062535
937.40038330,0.00058876
939.32919067,0.00088814
941.25799805,0.00085458
943.18680542,0.00062932
945.11561279,0.00069146
947.04442017,0.00083012
948.97322754,0.00092083
950.90203491,0.00082848
952.83084229,0.00038592
954.75964966,0.00058691
956.68845703,0.00086384
958.61726440,0.00063785
960.54607178,0.00064005
962.47487915,0.00061369
964.40368652,0.00080919
966.33249390,0.00092156
968.26130127,0.00092413
970.19010864,0.00090847
972.11891602,0.00071720
974.04772339,0.00065395
975.97653076,0.00070708
977.90533813,0.00128313
979.83414551,0.00137287
981.76295288,0.00102245
983.69176025,0.00108481
985.62056763,0.00117755
987.54937500,0.00163883
989.47818237,0.00164785
991.40698975,0.00146901
993.33579712,0.00199469
995.26460449,0.00230614
997.19341187,0.00244525
999.12221924,0.00247794
1001.05102661,0.00270793
1002.97983398,0.00317918
1004.90864136,0.00310228
1006.83744873,0.00321627
1008.76625610,0.00351534
1010.69506348,0.00373198
1012.62387085,0.00400057
1014.55267822,0.00394096
1016.48148560,0.00424599
1018.41029297,0.00458296
1020.33910034,0.00482756
1022.26790771,0.00513636
1024.19671509,0.00505985
1026.12552246,0.00535932
1028.05432983,0.00565169
1029.98313721,0.00578059
1031.91194458,0.00589076
1033.84075195,0.00579828
1035.76955933,0.00592789
1037.69836670,0.00611620
1039.62717407,0.00629383
1041.55598145,0.00611908
1043.48478882,0.00610232
1045.41359619,0.00615215
1047.34240356,0.00594997
1049.27121094,0.00610385
1051.20001831,0.00583425
1053.12882568,0.00566132
1055.05763306,0.00556692
1056.98644043,0.00528703
1058.91524780,0.00530160
1060.84405518,0.00493173
1062.77286255,0.00502100
1064.70166992,0.00504787
1066.63047729,0.00469577
1068.55928467,0.00470293
1070.48809204,0.00424326
1072.41689941,0.00416756
1074.34570679,0.00409726
1076.27451416,0.00368467
1078.20332153,0.00375124
1080.13212891,0.00343988
1082.06093628,0.00331661
1083.98974365,0.00340697
1085.91855103,0.00313395
1087.84735840,0.00289575
1089.77616577,0.00289043
1091.70497314,0.00295813
1093.63378052,0.00245044
1095.56258789,0.00232126
1097.49139526,0.00242766
1099.42020264,0.00230849
1101.34901001,0.00242764
1103.27781738,0.00215020
1105.20662476,0.00202962
1107.13543213,0.00196646
1109.06423950,0.00213721
1110.99304687,0.00223981
1112.92185425,0.00182497
1114.85066162,0.00212494
1116.77946899,0.00219715
1118.70827637,0.00224966
1120.63708374,0.00238640
1122.56589111,0.00218176
1124.49469849,0.00233460
1126.42350586,0.00228984
1128.35231323,0.00243595
1130.28112061,0.00245736
1132.20992798,0.00243396
1134.13873535,0.00252856
1136.06754272,0.00250111
1137.99635010,0.00294617
1139.92515747,0.00292490
1141.85396484,0.00293293
1143.78277222,0.00329492
1145.71157959,0.00342207
1147.64038696,0.00378643
1149.56919434,0.00402674
1151.49800171,0.00402760
1153.42680908,0.00414283
1155.35561646,0.00423263
1157.28442383,0.00434529
1159.21323120,0.00475606
1161.14203857,0.00483921
1163.07084595,0.00492619
1164.99965332,0.00535545
1166.92846069,0.00544414
1168.85726807,0.00562656
1170.78607544,0.00599312
1172.71488281,0.00620528
1174.64369019,0.00620264
1176.57249756,0.00652952
1178.50130493,0.00684340
1180.43011230,0.00700443
1182.35891968,0.00749585
1184.28772705,0.00773940
1186.21653442,0.00834985
1188.14534180,0.00864866
1190.07414917,0.00872853
1192.00295654,0.00939845
1193.93176392,0.00968539
1195.86057129,0.01016718
1197.78937866,0.01056598
1199.71818604,0.01098624
1201.64699341,0.01161694
1203.57580078,0.01206442
1205.50460815,0.01266886
1207.43341553,0.01291181
1209.36222290,0.01346173
1211.29103027,0.01387919
1213.21983765,0.01392988
1215.14864502,0.01467896
1217.07745239,0.01502009
1219.00625977,0.01514906
1220.93506714,0.01561057
1222.86387451,0.01559601
1224.79268188,0.01568685
1226.72148926,0.01604289
1228.65029663,0.01606107
1230.57910400,0.01602933
1232.50791138,0.01612102
1234.43671875,0.01628923
1236.36552612,0.01630169
1238.29433350,0.01613888
1240.22314087,0.01603181
1242.15194824,0.01607644
1244.08075562,0.01630055
1246.00956299,0.01619406
1247.93837036,0.01609199
1249.86717773,0.01603786
1251.79598511,0.01577053
1253.72479248,0.01569747
1255.65359985,0.01551803
1257.58240723,0.01541765
1259.51121460,0.01513895
1261.44002197,0.01475904
1263.36882935,0.01472793
1265.29763672,0.01450557
1267.22644409,0.01440898
1269.15525146,0.01419034
1271.08405884,0.01379743
1273.01286621,0.01369569
1274.94167358,0.01343509
1276.87048096,0.01320982
1278.79928833,0.01309236
1280.72809570,0.01276893
1282.65690308,0.01251976
1284.58571045,0.01231366
1286.51451782,0.01205603
1288.44332520,0.01204843
1290.37213257,0.01188121
1292.30093994,0.01157320
1294.22974731,0.01155549
1296.15855469,0.01150716
1298.08736206,0.01154558
1300.01616943,0.01157477
1301.94497681,0.01155708
1303.87378418,0.01182550
1305.80259155,0.01196978
1307.73139893,0.01201781
1309.66020630,0.01234198
1311.58901367,0.01248597
1313.51782104,0.01252342
1315.44662842,0.01298328
1317.37543579,0.01338327
1319.30424316,0.01362437
1321.23305054,0.01401784
1323.16185791,0.01455703
1325.09066528,0.01508943
1327.01947266,0.01552432
1328.94828003,0.01602643
1330.87708740,0.01626041
1332.80589478,0.01669528
1334.73470215,0.01719172
1336.66350952,0.01695151
1338.59231689,0.01680878
1340.52112427,0.01709738
1342.44993164,0.01768911
1344.37873901,0.01802885
1346.30754639,0.01796514
1348.23635376,0.01798629
1350.16516113,0.01786873
1352.09396851,0.01777958
1354.02277588,0.01769957
1355.95158325,0.01767703
1357.88039062,0.01747278
1359.80919800,0.01716699
1361.73800537,0.01668184
1363.66681274,0.01640074
1365.59562012,0.01714084
1367.52442749,0.01682172
1369.45323486,0.01661560
1371.38204224,0.01697620
1373.31084961,0.01599574
1375.23965698,0.01609395
1377.16846436,0.01671527
1379.09727173,0.01671067
1381.02607910,0.01657275
1382.95488647,0.01649078
1384.88369385,0.01658292
1386.81250122,0.01585455
1388.74130859,0.01611805
1390.67011597,0.01737468
1392.59892334,0.01689285
1394.52773071,0.01584139
1396.45653809,0.01666371
1398.38534546,0.01680945
1400.31415283,0.01673402
1402.24296021,0.01789528
1404.17176758,0.01682606
1406.10057495,0.01700082
1408.02938232,0.01773764
1409.95818970,0.01717891
1411.88699707,0.01758794
1413.81580444,0.01686352
1415.74461182,0.01717012
1417.67341919,0.01555781
1419.60222656,0.01390895
1421.53103394,0.01604252
1423.45984131,0.01565835
1425.38864868,0.01516640
1427.31745605,0.01528388
1429.24626343,0.01413353
1431.17507080,0.01366635
1433.10387817,0.01397422
1435.03268555,0.01286033
1436.96149292,0.01089236
1438.89030029,0.01241315
1440.81910767,0.01279404
1442.74791504,0.01188769
1444.67672241,0.01242123
1446.60552979,0.01141900
1448.53433716,0.01143311
1450.46314453,0.01180861
1452.39195190,0.01213898
1454.32075928,0.01251759
1456.24956665,0.01030657
1458.17837402,0.01064021
1460.10718140,0.01438298
1462.03598877,0.01552171
1463.96479614,0.01532323
1465.89360352,0.01592598
1467.82241089,0.01814402
1469.75121826,0.01952101
1471.68002563,0.01732345
1473.60883301,0.01813341
1475.53764038,0.02062508
1477.46644775,0.02239380
1479.39525513,0.02456325
1481.32406250,0.02472104
1483.25286987,0.02650234
1485.18167725,0.02729120
1487.11048462,0.02676582
1489.03929199,0.02646695
1490.96809937,0.02657089
1492.89690674,0.03131602
1494.82571411,0.03073206
1496.75452148,0.02764265
1498.68332886,0.03104922
1500.61213623,0.03208717
1502.54094360,0.03441861
1504.46975098,0.03232835
1506.39855835,0.02348034
1508.32736572,0.02875789
1510.25617310,0.03393128
1512.18498047,0.03274302
1514.11378784,0.03556683
1516.04259521,0.03206779
1517.97140259,0.03331754
1519.90020996,0.03219860
1521.82901733,0.02789233
1523.75782471,0.03431503
1525.68663208,0.03342022
1527.61543945,0.03336051
1529.54424683,0.03716492
1531.47305420,0.03555924
1533.40186157,0.03253510
1535.33066895,0.03458270
1537.25947632,0.03726304
1539.18828369,0.02636592
1541.11709106,0.02736199
1543.04589844,0.03323310
1544.97470581,0.03184377
1546.90351318,0.03779279
1548.83232056,0.03531317
1550.76112793,0.03626401
1552.68993530,0.03604408
1554.61874268,0.03259947
1556.54755005,0.03486590
1558.47635742,0.02463944
1560.40516479,0.02632492
1562.33397217,0.03768989
1564.26277954,0.03580192
1566.19158691,0.03648918
1568.12039429,0.03623353
1570.04920166,0.03204395
1571.97800903,0.03687108
1573.90681641,0.03722956
1575.83562378,0.02916266
1577.76443115,0.03315204
1579.69323853,0.03747217
1581.62204590,0.03573623
1583.55085327,0.03653627
1585.47966064,0.03587649
1587.40846802,0.03612873
1589.33727539,0.03555541
1591.26608276,0.03542556
1593.19489014,0.03526719
1595.12369751,0.03468235
1597.05250488,0.03519691
1598.98131226,0.03470699
1600.91011963,0.03459493
1602.83892700,0.03377368
1604.76773437,0.03429316
1606.69654175,0.03366663
1608.62534912,0.03340080
1610.55415649,0.03303085
1612.48296387,0.03291558
1614.41177124,0.03331073
1616.34057861,0.02694433
1618.26938599,0.02907106
1620.19819336,0.03376293
1622.12700073,0.02966534
1624.05580811,0.02964682
1625.98461548,0.03102296
1627.91342285,0.03084998
1629.84223022,0.03050387
1631.77103760,0.03255957
1633.69984497,0.03013443
1635.62865234,0.02483698
1637.55745972,0.02891344
1639.48626709,0.03203635
1641.41507446,0.03138272
1643.34388184,0.03232916
1645.27268921,0.02937710
1647.20149658,0.02588938
1649.13030396,0.03254229
1651.05911133,0.03096598
1652.98791870,0.01991981
1654.91672607,0.02738839
1656.84553345,0.03467617
1658.77434082,0.03344934
1660.70314819,0.03459129
1662.63195557,0.03186413
1664.56076294,0.03366745
1666.48957031,0.03633533
1668.41837769,0.03201521
1670.34718506,0.03124030
1672.27599243,0.03599192
1674.20479980,0.03335521
1676.13360718,0.03201879
1678.06241455,0.03723750
1679.99122192,0.03605203
1681.92002930,0.03598081
1683.84883667,0.02946389
1685.77764404,0.02907920
1687.70645142,0.04038938
1689.63525879,0.03553600
1691.56406616,0.03912064
1693.49287354,0.04012929
1695.42168091,0.02934162
1697.35048828,0.03649855
1699.27929565,0.03226864
1701.20810303,0.02896860
1703.13691040,0.04021904
1705.06571777,0.03696349
1706.99452515,0.03723375
1708.92333252,0.04078924
1710.85213989,0.03922630
1712.78094727,0.04015400
1714.70975464,0.03724145
1716.63856201,0.03349802
1718.56736938,0.03308862
1720.49617676,0.03945065
1722.42498413,0.04122610
1724.35379150,0.03824303
1726.28259888,0.04182987
1728.21140625,0.03864940
1730.14021362,0.03905085
1732.06902100,0.03821325
1733.99782837,0.02895706
1735.92663574,0.03646123
1737.85544312,0.04048554
1739.78425049,0.03579367
1741.71305786,0.03910152
1743.64186523,0.03973858
1745.57067261,0.03986754
1747.49947998,0.04024146
1749.42828735,0.03852803
1751.35709473,0.03685582
1753.28590210,0.04094185
1755.21470947,0.04305270
1757.14351685,0.03922377
1759.07232422,0.04316258
1761.00113159,0.04062125
1762.92993896,0.03926550
1764.85874634,0.04499545
1766.78755371,0.04055359
1768.71636108,0.04110378
1770.64516846,0.04073679
1772.57397583,0.03650316
1774.50278320,0.04089154
1776.43159058,0.04344777
1778.36039795,0.04279085
1780.28920532,0.04210323
1782.21801270,0.04259787
1784.14682007,0.04257032
1786.07562744,0.04181036
1788.00443481,0.04409445
1789.93324219,0.04301400
1791.86204956,0.03879595
1793.79085693,0.04048345
1795.71966431,0.04365509
1797.64847168,0.04300756
1799.57727905,0.04252373
1801.50608643,0.04187567
1803.43489380,0.04336636
1805.36370117,0.04440387
1807.29250854,0.04351839
1809.22131592,0.04378386
1811.15012329,0.04262049
1813.07893066,0.04398818
1815.00773804,0.04431912
1816.93654541,0.04375180
1818.86535278,0.04412109
1820.79416016,0.04399080
1822.72296753,0.04477479
1824.65177490,0.04179042
1826.58058228,0.04345672
1828.50938965,0.04351018
1830.43819702,0.04075710
1832.36700439,0.04459675
1834.29581177,0.04420566
1836.22461914,0.04429291
1838.15342651,0.04402976
1840.08223389,0.04426033
1842.01104126,0.04465552
1843.93984863,0.03937491
1845.86865601,0.04189261
1847.79746338,0.04455546
1849.72627075,0.04375263
1851.65507812,0.04488576
1853.58388550,0.04390683
1855.51269287,0.04449358
1857.44150024,0.04416076
1859.37030762,0.04389669
1861.29911499,0.04436125
1863.22792236,0.04395542
1865.15672974,0.04445658
1867.08553711,0.04292670
1869.01434448,0.04109292
1870.94315186,0.04273663
1872.87195923,0.04443405
1874.80076660,0.04372037
1876.72957397,0.04405402
1878.65838135,0.04393854
1880.58718872,0.04366524
1882.51599609,0.04432032
1884.44480347,0.04359874
1886.37361084,0.04407582
1888.30241821,0.04322870
1890.23122559,0.04222647
1892.16003296,0.04383160
1894.08884033,0.04345538
1896.01764771,0.04318100
1897.94645508,0.04376969
1899.87526245,0.04350752
1901.80406982,0.04361055
1903.73287720,0.04352424
1905.66168457,0.04359371
1907.59049194,0.04325183
1909.51929932,0.04296484
1911.44810669,0.04317528
1913.37691406,0.04334518
1915.30572144,0.04376098
1917.23452881,0.04188483
1919.16333618,0.04193723
1921.09214355,0.04373438
1923.02095093,0.04222589
1924.94975830,0.04304630
1926.87856567,0.04364762
1928.80737305,0.04293261
1930.73618042,0.04359905
1932.66498779,0.04300275
1934.59379517,0.04347190
1936.52260254,0.04319296
1938.45140991,0.04317119
1940.38021729,0.04332265
1942.30902466,0.04180085
1944.23783203,0.04257454
1946.16663940,0.04318074
1948.09544678,0.04319561
1950.02425415,0.04338495
1951.95306152,0.04308155
1953.88186890,0.04317346
1955.81067627,0.04305961
1957.73948364,0.04324410
1959.66829102,0.04318330
1961.59709839,0.04312555
1963.52590576,0.04321259
1965.45471313,0.04293419
1967.38352051,0.04259013
1969.31232788,0.04289463
1971.24113525,0.04324547
1973.16994263,0.04293330
1975.09875000,0.04325361
1977.02755737,0.04301842
1978.95636475,0.04282549
1980.88517212,0.04304042
1982.81397949,0.04290128
1984.74278687,0.04314798
1986.67159424,0.04272490
1988.60040161,0.04266511
1990.52920898,0.04247605
1992.45801636,0.04195315
1994.38682373,0.04257919
1996.31563110,0.04265492
1998.24443848,0.04241733
2000.17324585,0.04252392
2002.10205322,0.04244251
2004.03086060,0.04248495
2005.95966797,0.04234063
2007.88847534,0.04220299
2009.81728271,0.04228432
2011.74609009,0.04214652
2013.67489746,0.04223143
2015.60370483,0.04197250
2017.53251221,0.04150273
2019.46131958,0.04179376
2021.39012695,0.04171566
2023.31893433,0.04162923
2025.24774170,0.04172888
2027.17654907,0.04166759
2029.10535645,0.04177795
2031.03416382,0.04152516
2032.96297119,0.04137225
2034.89177856,0.04131631
2036.82058594,0.04127598
2038.74939331,0.04116819
2040.67820068,0.04091972
2042.60700806,0.04104472
2044.53581543,0.04099794
2046.46462280,0.04089926
2048.39343018,0.04106318
2050.32223755,0.04099278
2052.25104492,0.04075642
2054.17985229,0.04076637
2056.10865967,0.04074275
2058.03746704,0.04060988
2059.96627441,0.04052582
2061.89508179,0.04042943
2063.82388916,0.04035294
2065.75269653,0.04015461
2067.68150391,0.04024858
2069.61031128,0.04032525
2071.53911865,0.04014905
2073.46792603,0.04004336
2075.39673340,0.04001539
2077.32554077,0.04014558
2079.25434814,0.04000346
2081.18315552,0.03989923
2083.11196289,0.03981852
2085.04077026,0.03973658
2086.96957764,0.03978806
2088.89838501,0.03954286
2090.82719238,0.03944924
2092.75599976,0.03955073
2094.68480713,0.03952466
2096.61361450,0.03938743
2098.54242187,0.03949032
2100.47122925,0.03953212
2102.40003662,0.03936988
2104.32884399,0.03938920
2106.25765137,0.03931979
2108.18645874,0.03930090
2110.11526611,0.03925449
2112.04407349,0.03927445
2113.97288086,0.03916990
2115.90168823,0.03907200
2117.83049561,0.03917442
2119.75930298,0.03899440
2121.68811035,0.03901850
2123.61691772,0.03904594
2125.54572510,0.03905257
2127.47453247,0.03893798
2129.40333984,0.03894355
2131.33214722,0.03915019
2133.26095459,0.03883820
2135.18976196,0.03892744
2137.11856934,0.03885509
2139.04737671,0.03862080
2140.97618408,0.03887620
2142.90499146,0.03882251
2144.83379883,0.03879409
2146.76260620,0.03876502
2148.69141357,0.03870818
2150.62022095,0.03870658
2152.54902832,0.03859273
2154.47783569,0.03852048
2156.40664307,0.03858293
2158.33545044,0.03861299
2160.26425781,0.03859408
2162.19306519,0.03862227
2164.12187256,0.03848983
2166.05067993,0.03855782
2167.97948730,0.03859085
2169.90829468,0.03849726
2171.83710205,0.03840557
2173.76590942,0.03837232
2175.69471680,0.03852936
2177.62352417,0.03841339
2179.55233154,0.03854857
2181.48113892,0.03847601
2183.40994629,0.03826576
2185.33875366,0.03848210
2187.26756104,0.03838797
2189.19636841,0.03838048
2191.12517578,0.03829379
2193.05398315,0.03823905
2194.98279053,0.03831368
2196.91159790,0.03821951
2198.84040527,0.03829883
2200.76921265,0.03831830
2202.69802002,0.03828071
2204.62682739,0.03817935
2206.55563477,0.03832704
2208.48444214,0.03838331
2210.41324951,0.03817315
2212.34205688,0.03820828
2214.27086426,0.03811473
2216.19967163,0.03811998
2218.12847900,0.03810760
2220.05728638,0.03807059
2221.98609375,0.03809890
2223.91490112,0.03805789
2225.84370850,0.03817213
2227.77251587,0.03815385
2229.70132324,0.03815157
2231.63013062,0.03794954
2233.55893799,0.03788083
2235.48774536,0.03802595
2237.41655273,0.03785308
2239.34536011,0.03791976
2241.27416748,0.03779788
2243.20297485,0.03776591
2245.13178223,0.03786837
2247.06058960,0.03769625
2248.98939697,0.03778755
2250.91820435,0.03758379
2252.84701172,0.03758167
2254.77581909,0.03778984
2256.70462646,0.03754776
2258.63343384,0.03746407
2260.56224121,0.03748544
2262.49104858,0.03748719
2264.41985596,0.03749121
2266.34866333,0.03750131
2268.27747070,0.03743047
2270.20627808,0.03752775
2272.13508545,0.03754325
2274.06389282,0.03734566
2275.99270020,0.03756370
2277.92150757,0.03745934
2279.85031494,0.03734336
2281.77912231,0.03749625
2283.70792969,0.03741257
2285.63673706,0.03731883
2287.56554443,0.03721941
2289.49435181,0.03731678
2291.42315918,0.03724059
2293.35196655,0.03724476
2295.28077393,0.03717380
2297.20958130,0.03692041
2299.13838867,0.03693343
2301.06719604,0.03668528
2302.99600342,0.03652648
2304.92481079,0.03628185
2306.85361816,0.03623890
2308.78242554,0.03618350
2310.71123291,0.03563659
2312.64004028,0.03545491
2314.56884766,0.03513896
2316.49765503,0.03473783
2318.42646240,0.03424338
2320.35526978,0.03379107
2322.28407715,0.03340619
2324.21288452,0.03283060
2326.14169189,0.03257740
2328.07049927,0.03217167
2329.99930664,0.03183729
2331.92811401,0.03149132
2333.85692139,0.03133260
2335.78572876,0.03147091
2337.71453613,0.03136323
2339.64334351,0.03138012
2341.57215088,0.03148248
2343.50095825,0.03199209
2345.42976562,0.03259787
2347.35857300,0.03397249
2349.28738037,0.03522300
2351.21618774,0.03399318
2353.14499512,0.03218134
2355.07380249,0.03100858
2357.00260986,0.03008618
2358.93141724,0.02943374
2360.86022461,0.02918963
2362.78903198,0.02928379
2364.71783936,0.02940419
2366.64664673,0.02980426
2368.57545410,0.03036488
2370.50426147,0.03120794
2372.43306885,0.03207847
2374.36187622,0.03306475
2376.29068359,0.03395862
2378.21949097,0.03469845
2380.14829834,0.03554458
2382.07710571,0.03575195
2384.00591309,0.03612042
2385.93472046,0.03633098
2387.86352783,0.03625187
2389.79233521,0.03645149
2391.72114258,0.03630427
2393.64994995,0.03635830
2395.57875732,0.03631353
2397.50756470,0.03623069
2399.43637207,0.03621318
2401.36517944,0.03601528
2403.29398682,0.03610058
2405.22279419,0.03610362
2407.15160156,0.03611868
2409.08040894,0.03613646
2411.00921631,0.03614263
2412.93802368,0.03607820
2414.86683105,0.03591108
2416.79563843,0.03599714
2418.72444580,0.03596933
2420.65325317,0.03588459
2422.58206055,0.03590679
2424.51086792,0.03596004
2426.43967529,0.03594393
2428.36848267,0.03580338
2430.29729004,0.03581049
2432.22609741,0.03581145
2434.15490479,0.03578570
2436.08371216,0.03584033
2438.01251953,0.03571329
2439.94132690,0.03563436
2441.87013428,0.03571974
2443.79894165,0.03576505
2445.72774902,0.03579798
2447.65655640,0.03563041
2449.58536377,0.03564277
2451.51417114,0.03568347
2453.44297852,0.03549360
2455.37178589,0.03552422
2457.30059326,0.03543701
2459.22940063,0.03551712
2461.15820801,0.03546831
2463.08701538,0.03525573
2465.01582275,0.03544520
2466.94463013,0.03537235
2468.87343750,0.03539059
2470.80224487,0.03531875
2472.73105225,0.03513980
2474.65985962,0.03523663
2476.58866699,0.03521693
2478.51747437,0.03538626
2480.44628174,0.03525204
2482.37508911,0.03503607
2484.30389648,0.03517824
2486.23270386,0.03517998
2488.16151123,0.03519006
2490.09031860,0.03513624
2492.01912598,0.03511950
2493.94793335,0.03511300
2495.87674072,0.03500201
2497.80554810,0.03500389
2499.73435547,0.03495038
2501.66316284,0.03488395
2503.59197021,0.03493688
2505.52077759,0.03494537
2507.44958496,0.03489454
2509.37839233,0.03486481
2511.30719971,0.03486565
2513.23600708,0.03491328
2515.16481445,0.03482875
2517.09362183,0.03473781
2519.02242920,0.03475454
2520.95123657,0.03465587
2522.88004395,0.03465246
2524.80885132,0.03464694
2526.73765869,0.03459837
2528.66646606,0.03470414
2530.59527344,0.03462513
2532.52408081,0.03448960
2534.45288818,0.03455918
2536.38169556,0.03458464
2538.31050293,0.03450411
2540.23931030,0.03447551
2542.16811768,0.03449259
2544.09692505,0.03448334
2546.02573242,0.03449918
2547.95453979,0.03439390
2549.88334717,0.03426934
2551.81215454,0.03436878
2553.74096191,0.03437643
2555.66976929,0.03430086
2557.59857666,0.03425385
2559.52738403,0.03418332
2561.45619141,0.03422669
2563.38499878,0.03418911
2565.31380615,0.03413361
2567.24261353,0.03416033
2569.17142090,0.03411277
2571.10022827,0.03406752
2573.02903564,0.03401120
2574.95784302,0.03402937
2576.88665039,0.03400701
2578.81545776,0.03386360
2580.74426514,0.03392467
2582.67307251,0.03393589
2584.60187988,0.03381998
2586.53068726,0.03387907
2588.45949463,0.03387102
2590.38830200,0.03384536
2592.31710937,0.03374077
2594.24591675,0.03360247
2596.17472412,0.03367316
2598.10353149,0.03357971
2600.03233887,0.03366214
2601.96114624,0.03368779
2603.88995361,0.03352828
2605.81876099,0.03371235
2607.74756836,0.03358268
2609.67637573,0.03351293
2611.60518311,0.03352337
2613.53399048,0.03332188
2615.46279785,0.03344665
2617.39160522,0.03336597
2619.32041260,0.03324965
2621.24921997,0.03338606
2623.17802734,0.03337941
2625.10683472,0.03326803
2627.03564209,0.03330435
2628.96444946,0.03334134
2630.89325684,0.03322361
2632.82206421,0.03324441
2634.75087158,0.03323866
2636.67967895,0.03325642
2638.60848633,0.03316994
2640.53729370,0.03308494
2642.46610107,0.03316039
2644.39490845,0.03301878
2646.32371582,0.03298970
2648.25252319,0.03288122
2650.18133057,0.03286235
2652.11013794,0.03294133
2654.03894531,0.03285120
2655.96775269,0.03297755
2657.89656006,0.03280932
2659.82536743,0.03267472
2661.75417480,0.03281593
2663.68298218,0.03272921
2665.61178955,0.03262961
2667.54059692,0.03260349
2669.46940430,0.03258799
2671.39821167,0.03260323
2673.32701904,0.03266482
2675.25582642,0.03251208
2677.18463379,0.03244001
2679.11344116,0.03250309
2681.04224854,0.03236884
2682.97105591,0.03243471
2684.89986328,0.03244512
2686.82867065,0.03225575
2688.75747803,0.03221809
2690.68628540,0.03223933
2692.61509277,0.03222531
2694.54390015,0.03220236
2696.47270752,0.03216894
2698.40151489,0.03212538
2700.33032227,0.03203825
2702.25912964,0.03192531
2704.18793701,0.03201448
2706.11674438,0.03209349
2708.04555176,0.03206698
2709.97435913,0.03195757
2711.90316650,0.03170853
2713.83197388,0.03176387
2715.76078125,0.03180438
2717.68958862,0.03170358
2719.61839600,0.03176971
2721.54720337,0.03168416
2723.47601074,0.03167676
2725.40481812,0.03176747
2727.33362549,0.03159945
2729.26243286,0.03147390
2731.19124023,0.03158941
2733.12004761,0.03159538
2735.04885498,0.03145257
2736.97766235,0.03151958
2738.90646973,0.03145312
2740.83527710,0.03127101
2742.76408447,0.03138537
2744.69289185,0.03135236
2746.62169922,0.03129496
2748.55050659,0.03127361
2750.47931396,0.03103853
2752.40812134,0.03099275
2754.33692871,0.03111996
2756.26573608,0.03116661
2758.19454346,0.03102331
2760.12335083,0.03100425
2762.05215820,0.03101176
2763.98096558,0.03080808
2765.90977295,0.03082877
2767.83858032,0.03077503
2769.76738770,0.03073971
2771.69619507,0.03083672
2773.62500244,0.03068399
2775.55380981,0.03061657
2777.48261719,0.03069888
2779.41142456,0.03060229
2781.34023193,0.03048204
2783.26903931,0.03058516
2785.19784668,0.03049315
2787.12665405,0.03038785
2789.05546143,0.03037022
2790.98426880,0.03027877
2792.91307617,0.03033253
2794.84188354,0.03023569
2796.77069092,0.03026095
2798.69949829,0.03015476
2800.62830566,0.02999124
2802.55711304,0.03009555
2804.48592041,0.02994113
2806.41472778,0.02986666
2808.34353516,0.02988777
2810.27234253,0.02996419
2812.20114990,0.02982529
2814.12995728,0.02973682
2816.05876465,0.02988776
2817.98757202,0.02966003
2819.91637939,0.02968380
2821.84518677,0.02962635
2823.77399414,0.02943522
2825.70280151,0.02944642
2827.63160889,0.02930949
2829.56041626,0.02926068
2831.48922363,0.02922605
2833.41803101,0.02920119
2835.34683838,0.02916068
2837.27564575,0.02918971
2839.20445312,0.02900063
2841.13326050,0.02884784
2843.06206787,0.02891085
2844.99087524,0.02872856
2846.91968262,0.02872624
2848.84848999,0.02851953
2850.77729736,0.02835394
2852.70610474,0.02836169
2854.63491211,0.02825863
2856.56371948,0.02835711
2858.49252686,0.02825063
2860.42133423,0.02815769
2862.35014160,0.02809931
2864.27894897,0.02810630
2866.20775635,0.02806386
2868.13656372,0.02792109
2870.06537109,0.02801869
2871.99417847,0.02798144
2873.92298584,0.02791514
2875.85179321,0.02782118
2877.78060059,0.02781855
2879.70940796,0.02779370
2881.63821533,0.02772277
2883.56702270,0.02778993
2885.49583008,0.02764522
2887.42463745,0.02763527
2889.35344482,0.02762049
2891.28225220,0.02749879
2893.21105957,0.02741996
2895.13986694,0.02730071
2897.06867432,0.02727934
2898.99748169,0.02723351
2900.92628906,0.02705526
2902.85509644,0.02691245
2904.78390381,0.02694325
2906.71271118,0.02688559
2908.64151855,0.02690346
2910.57032593,0.02670320
2912.49913330,0.02642520
2914.42794067,0.02647518
2916.35674805,0.02632739
2918.28555542,0.02624467
2920.21436279,0.02604369
2922.14317017,0.02600510
2924.07197754,0.02610047
2926.00078491,0.02596888
2927.92959229,0.02603900
2929.85839966,0.02592938
2931.78720703,0.02592979
2933.71601440,0.02581922
2935.64482178,0.02574904
2937.57362915,0.02587579
2939.50243652,0.02577224
2941.43124390,0.02590942
2943.36005127,0.02577042
2945.28885864,0.02564904
2947.21766602,0.02559850
2949.14647339,0.02544692
2951.07528076,0.02559119
2953.00408813,0.02548879
2954.93289551,0.02533635
2956.86170288,0.02520924
2958.79051025,0.02515427
2960.71931763,0.02508907
2962.64812500,0.02490300
2964.57693237,0.02492898
2966.50573975,0.02492367
2968.43454712,0.02482435
2970.36335449,0.02471574
2972.29216187,0.02470017
2974.22096924,0.02467312
2976.14977661,0.02465886
2978.07858398,0.02461054
2980.00739136,0.02455990
2981.93619873,0.02465415
2983.86500610,0.02456716
2985.79381348,0.02454852
2987.72262085,0.02444392
2989.65142822,0.02435414
2991.58023560,0.02442593
2993.50904297,0.02421248
2995.43785034,0.02412837
2997.36665771,0.02408576
2999.29546509,0.02400792
3001.22427246,0.02399550
3003.15307983,0.02386796
3005.08188721,0.02372818
3007.01069458,0.02362116
3008.93950195,0.02364350
3010.86830933,0.02344008
3012.79711670,0.02326239
3014.72592407,0.02336369
3016.65473145,0.02319546
3018.58353882,0.02313875
3020.51234619,0.02312514
3022.44115356,0.02285451
3024.36996094,0.02278042
3026.29876831,0.02270322
3028.22757568,0.02257280
3030.15638306,0.02247958
3032.08519043,0.02232048
3034.01399780,0.02225475
3035.94280518,0.02220351
3037.87161255,0.02216020
3039.80041992,0.02208853
3041.72922729,0.02197383
3043.65803467,0.02183285
3045.58684204,0.02168116
3047.51564941,0.02166550
3049.44445679,0.02152368
3051.37326416,0.02133807
3053.30207153,0.02133773
3055.23087891,0.02126268
3057.15968628,0.02108049
3059.08849365,0.02096318
3061.01730103,0.02089396
3062.94610840,0.02078674
3064.87491577,0.02062386
3066.80372314,0.02048900
3068.73253052,0.02042036
3070.66133789,0.02028121
3072.59014526,0.02025174
3074.51895264,0.02017211
3076.44776001,0.02000317
3078.37656738,0.01999539
3080.30537476,0.01978816
3082.23418213,0.01962992
3084.16298950,0.01954168
3086.09179687,0.01946776
3088.02060425,0.01945513
3089.94941162,0.01927285
3091.87821899,0.01920875
3093.80702637,0.01899951
3095.73583374,0.01883589
3097.66464111,0.01878555
3099.59344849,0.01862672
3101.52225586,0.01860056
3103.45106323,0.01834109
3105.37987061,0.01815052
3107.30867798,0.01819384
3109.23748535,0.01808896
3111.16629272,0.01797417
3113.09510010,0.01794683
3115.02390747,0.01769424
3116.95271484,0.01735577
3118.88152222,0.01736469
3120.81032959,0.01730907
3122.73913696,0.01721237
3124.66794434,0.01714471
3126.59675171,0.01700110
3128.52555908,0.01694103
3130.45436645,0.01680453
3132.38317383,0.01665235
3134.31198120,0.01650760
3136.24078857,0.01639978
3138.16959595,0.01626953
3140.09840332,0.01613722
3142.02721069,0.01604772
3143.95601807,0.01589782
3145.88482544,0.01580700
3147.81363281,0.01571612
3149.74244019,0.01552201
3151.67124756,0.01534226
3153.60005493,0.01527556
3155.52886230,0.01520478
3157.45766968,0.01525264
3159.38647705,0.01501523
3161.31528442,0.01473466
3163.24409180,0.01492313
3165.17289917,0.01472754
3167.10170654,0.01456376
3169.03051392,0.01451376
3170.95932129,0.01440196
3172.88812866,0.01437555
3174.81693604,0.01415460
3176.74574341,0.01423719
3178.67455078,0.01406425
3180.60335815,0.01385919
3182.53216553,0.01387381
3184.46097290,0.01369082
3186.38978027,0.01369806
3188.31858765,0.01358069
3190.24739502,0.01352208
3192.17620239,0.01342967
3194.10500977,0.01335439
3196.03381714,0.01340290
3197.96262451,0.01326115
3199.89143188,0.01324087
3201.82023926,0.01308326
3203.74904663,0.01301418
3205.67785400,0.01302003
3207.60666138,0.01286582
3209.53546875,0.01290821
3211.46427612,0.01291253
3213.39308350,0.01284302
3215.32189087,0.01273471
3217.25069824,0.01263182
3219.17950562,0.01266761
3221.10831299,0.01259725
3223.03712036,0.01247622
3224.96592773,0.01248329
3226.89473511,0.01250789
3228.82354248,0.01255036
3230.75234985,0.01245242
3232.68115723,0.01233722
3234.60996460,0.01239601
3236.53877197,0.01240992
3238.46757935,0.01234457
3240.39638672,0.01225020
3242.32519409,0.01231400
3244.25400146,0.01224987
3246.18280884,0.01225470
3248.11161621,0.01236786
3250.04042358,0.01223599
3251.96923096,0.01232525
3253.89803833,0.01221395
3255.82684570,0.01219091
3257.75565308,0.01225742
3259.68446045,0.01210111
3261.61326782,0.01218296
3263.54207520,0.01209027
3265.47088257,0.01215503
3267.39968994,0.01216140
3269.32849731,0.01211738
3271.25730469,0.01221478
3273.18611206,0.01217853
3275.11491943,0.01222778
3277.04372681,0.01210243
3278.97253418,0.01222356
3280.90134155,0.01218844
3282.83014893,0.01212684
3284.75895630,0.01222182
3286.68776367,0.01202602
3288.61657104,0.01223592
3290.54537842,0.01215425
3292.47418579,0.01200491
3294.40299316,0.01213595
3296.33180054,0.01208989
3298.26060791,0.01214221
3300.18941528,0.01206314
3302.11822266,0.01213393
3304.04703003,0.01214306
3305.97583740,0.01200431
3307.90464478,0.01209685
3309.83345215,0.01208194
3311.76225952,0.01198742
3313.69106689,0.01206783
3315.61987427,0.01212273
3317.54868164,0.01203084
3319.47748901,0.01204699
3321.40629639,0.01203299
3323.33510376,0.01204321
3325.26391113,0.01212143
3327.19271851,0.01204331
3329.12152588,0.01197908
3331.05033325,0.01204677
3332.97914062,0.01210912
3334.90794800,0.01204017
3336.83675537,0.01200272
3338.76556274,0.01203463
3340.69437012,0.01203403
3342.62317749,0.01202086
3344.55198486,0.01205869
3346.48079224,0.01198085
3348.40959961,0.01193229
3350.33840698,0.01198883
3352.26721436,0.01197967
3354.19602173,0.01210200
3356.12482910,0.01201353
3358.05363647,0.01197906
3359.98244385,0.01199584
3361.91125122,0.01197780
3363.84005859,0.01217472
3365.76886597,0.01202556
3367.69767334,0.01202158
3369.62648071,0.01209269
3371.55528809,0.01212101
3373.48409546,0.01215439
3375.41290283,0.01207827
3377.34171020,0.01220702
3379.27051758,0.01203030
3381.19932495,0.01210125
3383.12813232,0.01221940
3385.05693970,0.01206987
3386.98574707,0.01217175
3388.91455444,0.01220899
3390.84336182,0.01224222
3392.77216919,0.01220089
3394.70097656,0.01222228
3396.62978394,0.01218775
3398.55859131,0.01219691
3400.48739868,0.01229151
3402.41620605,0.01229401
3404.34501343,0.01242098
3406.27382080,0.01241833
3408.20262817,0.01249569
3410.13143555,0.01253342
3412.06024292,0.01251391
3413.98905029,0.01249519
3415.91785767,0.01257286
3417.84666504,0.01272436
3419.77547241,0.01260989
3421.70427979,0.01262207
3423.63308716,0.01262137
3425.56189453,0.01278144
3427.49070190,0.01280390
3429.41950928,0.01270198
3431.34831665,0.01285978
3433.27712402,0.01287568
3435.20593140,0.01295301
3437.13473877,0.01282425
3439.06354614,0.01292013
3440.99235352,0.01295948
3442.92116089,0.01285261
3444.84996826,0.01309358
3446.77877563,0.01293838
3448.70758301,0.01302074
3450.63639038,0.01318598
3452.56519775,0.01315557
3454.49400513,0.01321428
3456.42281250,0.01318997
3458.35161987,0.01339871
3460.28042725,0.01341088
3462.20923462,0.01327470
3464.13804199,0.01337852
3466.06684937,0.01347789
3467.99565674,0.01348129
3469.92446411,0.01352963
3471.85327148,0.01352565
3473.78207886,0.01351961
3475.71088623,0.01363489
3477.63969360,0.01370511
3479.56850098,0.01368400
3481.49730835,0.01363530
3483.42611572,0.01385412
3485.35492310,0.01393157
3487.28373047,0.01379217
3489.21253784,0.01385738
3491.14134521,0.01393821
3493.07015259,0.01394113
3494.99895996,0.01397459
3496.92776733,0.01407519
3498.85657471,0.01409332
3500.78538208,0.01417428
3502.71418945,0.01396651
3504.64299683,0.01401326
3506.57180420,0.01442530
3508.50061157,0.01426435
3510.42941895,0.01426581
3512.35822632,0.01437756
3514.28703369,0.01449266
3516.21584106,0.01448180
3518.14464844,0.01449218
3520.07345581,0.01482503
3522.00226318,0.01460996
3523.93107056,0.01439866
3525.85987793,0.01442793
3527.78868530,0.01457544
3529.71749268,0.01465151
3531.64630005,0.01470232
3533.57510742,0.01497014
3535.50391479,0.01483553
3537.43272217,0.01482626
3539.36152954,0.01504816
3541.29033691,0.01509839
3543.21914429,0.01502208
3545.14795166,0.01476081
3547.07675903,0.01461465
3549.00556641,0.01515714
3550.93437378,0.01531519
3552.86318115,0.01487314
3554.79198853,0.01527937
3556.72079590,0.01541605
3558.64960327,0.01537471
3560.57841064,0.01533146
3562.50721802,0.01527011
3564.43602539,0.01550098
3566.36483276,0.01445226
3568.29364014,0.01413262
3570.22244751,0.01536427
3572.15125488,0.01578925
3574.08006226,0.01564601
3576.00886963,0.01579089
3577.93767700,0.01578876
3579.86648437,0.01574840
3581.79529175,0.01584941
3583.72409912,0.01589138
3585.65290649,0.01562146
3587.58171387,0.01438375
3589.51052124,0.01479295
3591.43932861,0.01614464
3593.36813599,0.01562516
3595.29694336,0.01545789
3597.22575073,0.01585081
3599.15455811,0.01597215
3601.08336548,0.01585422
3603.01217285,0.01608027
3604.94098022,0.01642184
3606.86978760,0.01587510
3608.79859497,0.01499274
3610.72740234,0.01534396
3612.65620972,0.01577989
3614.58501709,0.01524251
3616.51382446,0.01643555
3618.44263184,0.01530802
3620.37143921,0.01462735
3622.30024658,0.01666679
3624.22905395,0.01617627
3626.15786133,0.01701843
3628.08666870,0.01460900
3630.01547607,0.01315424
3631.94428345,0.01669449
3633.87309082,0.01632542
3635.80189819,0.01663548
3637.73070557,0.01703906
3639.65951294,0.01681841
3641.58832031,0.01709386
3643.51712769,0.01683348
3645.44593506,0.01704585
3647.37474243,0.01534493
3649.30354980,0.01416352
3651.23235718,0.01434755
3653.16116455,0.01705175
3655.08997192,0.01688788
3657.01877930,0.01504495
3658.94758667,0.01751903
3660.87639404,0.01715056
3662.80520142,0.01747288
3664.73400879,0.01755417
3666.66281616,0.01732267
3668.59162354,0.01691494
3670.52043091,0.01377628
3672.44923828,0.01686683
3674.37804565,0.01602014
3676.30685303,0.01316066
3678.23566040,0.01677781
3680.16446777,0.01706953
3682.09327515,0.01721495
3684.02208252,0.01780170
3685.95088989,0.01756410
3687.87969727,0.01583721
3689.80850464,0.01437192
3691.73731201,0.01656231
3693.66611938,0.01707323
3695.59492676,0.01749674
3697.52373413,0.01750765
3699.45254150,0.01735442
3701.38134888,0.01693239
3703.31015625,0.01622759
3705.23896362,0.01797726
3707.16777100,0.01695658
3709.09657837,0.01658471
3711.02538574,0.01576280
3712.95419312,0.01465408
3714.88300049,0.01728635
3716.81180786,0.01701177
3718.74061523,0.01713939
3720.66942261,0.01688701
3722.59822998,0.01631382
3724.52703735,0.01687657
3726.45584473,0.01557833
3728.38465210,0.01694377
3730.31345947,0.01676891
3732.24226685,0.01538153
3734.17107422,0.01505381
3736.09988159,0.01427525
3738.02868896,0.01510628
3739.95749634,0.01643030
3741.88630371,0.01725427
3743.81511108,0.01339947
3745.74391846,0.01255526
3747.67272583,0.01633053
3749.60153320,0.01408180
3751.53034058,0.01292185
3753.45914795,0.01486932
3755.38795532,0.01599363
3757.31676270,0.01672822
3759.24557007,0.01548424
3761.17437744,0.01590333
3763.10318481,0.01696148
3765.03199219,0.01585247
3766.96079956,0.01623151
3768.88960693,0.01594307
3770.81841431,0.01510517
3772.74722168,0.01657021
3774.67602905,0.01667061
3776.60483643,0.01670586
3778.53364380,0.01619305
3780.46245117,0.01541292
3782.39125854,0.01653033
3784.32006592,0.01622249
3786.24887329,0.01609571
3788.17768066,0.01641974
3790.10648804,0.01635159
3792.03529541,0.01628595
3793.96410278,0.01657960
3795.89291016,0.01557443
3797.82171753,0.01531678
3799.75052490,0.01619451
3801.67933228,0.01283026
3803.60813965,0.01494863
3805.53694702,0.01630950
3807.46575439,0.01334864
3809.39456177,0.01614382
3811.32336914,0.01584581
3813.25217651,0.01643806
3815.18098389,0.01477297
3817.10979126,0.01291121
3819.03859863,0.01644272
3820.96740601,0.01324387
3822.89621338,0.01398333
3824.82502075,0.01634370
3826.75382812,0.01453848
3828.68263550,0.01578407
3830.61144287,0.01527537
3832.54025024,0.01474914
3834.46905762,0.01510444
3836.39786499,0.01432308
3838.32667236,0.01303921
3840.25547974,0.01402611
3842.18428711,0.01506927
3844.11309448,0.01445670
3846.04190186,0.01553848
3847.97070923,0.01527940
3849.89951660,0.01539897
3851.82832397,0.01393223
3853.75713135,0.01029357
3855.68593872,0.01215031
3857.61474609,0.01544325
3859.54355347,0.01501630
3861.47236084,0.01490488
3863.40116821,0.01463060
3865.32997559,0.01346351
3867.25878296,0.01504387
3869.18759033,0.01379331
3871.11639770,0.01267647
3873.04520508,0.01500594
3874.97401245,0.01390575
3876.90281982,0.01504831
3878.83162720,0.01530073
3880.76043457,0.01309709
3882.68924194,0.01502657
3884.61804932,0.01408235
3886.54685669,0.01288649
3888.47566406,0.01513540
3890.40447144,0.01436873
3892.33327881,0.01337747
3894.26208618,0.01469258
3896.19089355,0.01495975
3898.11970093,0.01426266
3900.04850830,0.01350703
3901.97731567,0.01333314
3903.90612305,0.01317431
3905.83493042,0.01336471
3907.76373779,0.01478069
3909.69254517,0.01475841
3911.62135254,0.01456317
3913.55015991,0.01487746
3915.47896728,0.01431866
3917.40777466,0.01394182
3919.33658203,0.01383213
3921.26538940,0.01429996
3923.19419678,0.01429823
3925.12300415,0.01403955
3927.05181152,0.01420506
3928.98061890,0.01440497
3930.90942627,0.01416136
3932.83823364,0.01360177
3934.76704102,0.01422098
3936.69584839,0.01434812
3938.62465576,0.01421355
3940.55346313,0.01432184
3942.48227051,0.01373174
3944.41107788,0.01390807
3946.33988525,0.01411398
3948.26869263,0.01378118
3950.19750000,0.01369895
3952.12630737,0.01388643
3954.05511475,0.01395984
3955.98392212,0.01389652
3957.91272949,0.01395765
3959.84153687,0.01398380
3961.77034424,0.01387496
3963.69915161,0.01384889
3965.62795898,0.01402824
3967.55676636,0.01388287
3969.48557373,0.01377202
3971.41438110,0.01381057
3973.34318848,0.01385407
3975.27199585,0.01372639
3977.20080322,0.01359695
3979.12961060,0.01385487
3981.05841797,0.01369137
3982.98722534,0.01362861
3984.91603271,0.01358750
3986.84484009,0.01360793
3988.77364746,0.01365293
3990.70245483,0.01336611
3992.63126221,0.01355708
3994.56006958,0.01346091
3996.48887695,0.01343990
3998.41768433,0.01351777
4000.34649170,0.01346585
4002.27529907,0.01348109
4004.20410645,0.01331812
4006.13291382,0.01348645
4008.06172119,0.01331906
4009.99052856,0.01330199
4011.91933594,0.01333707
4013.84814331,0.01318397
4015.77695068,0.01331425
4017.70575806,0.01320470
4019.63456543,0.01323225
4021.56337280,0.01322401
4023.49218018,0.01322652
4025.42098755,0.01315541
4027.34979492,0.01306746
4029.27860229,0.01309823
4031.20740967,0.01303618
4033.13621704,0.01312634
4035.06502441,0.01299827
4036.99383179,0.01300099
4038.92263916,0.01296712
4040.85144653,0.01291895
4042.78025391,0.01297413
4044.70906128,0.01278256
4046.63786865,0.01288661
4048.56667603,0.01294902
4050.49548340,0.01283156
4052.42429077,0.01272972
4054.35309814,0.01274742
4056.28190552,0.01280032
4058.21071289,0.01271560
4060.13952026,0.01271200
4062.06832764,0.01269072
4063.99713501,0.01268528
4065.92594238,0.01264545
4067.85474976,0.01265181
4069.78355713,0.01263297
4071.71236450,0.01255096
4073.64117187,0.01257265
4075.56997925,0.01262066
4077.49878662,0.01261009
4079.42759399,0.01247256
4081.35640137,0.01238840
4083.28520874,0.01232708
4085.21401611,0.01237771
4087.14282349,0.01243189
4089.07163086,0.01235835
4091.00043823,0.01234555
4092.92924561,0.01234045
4094.85805298,0.01232162
4096.78686035,0.01228142
4098.71566772,0.01223642
4100.64447510,0.01217558
4102.57328247,0.01225421
4104.50208984,0.01219318
4106.43089722,0.01212552
4108.35970459,0.01216314
4110.28851196,0.01200711
4112.21731934,0.01206490
4114.14612671,0.01206117
4116.07493408,0.01203625
4118.00374145,0.01196653
4119.93254883,0.01192891
4121.86135620,0.01206117
4123.79016357,0.01191285
4125.71897095,0.01192071
4127.64777832,0.01189922
4129.57658569,0.01191856
4131.50539307,0.01190391
4133.43420044,0.01178710
4135.36300781,0.01190067
4137.29181519,0.01180234
4139.22062256,0.01181061
4141.14942993,0.01173547
4143.07823730,0.01165105
4145.00704468,0.01175865
4146.93585205,0.01172062
4148.86465942,0.01168894
4150.79346680,0.01158051
4152.72227417,0.01159644
4154.65108154,0.01160499
4156.57988892,0.01150994
4158.50869629,0.01148814
4160.43750366,0.01150045
4162.36631103,0.01145024
4164.29511841,0.01144293
4166.22392578,0.01153238
4168.15273315,0.01143493
4170.08154053,0.01139047
4172.01034790,0.01136155
4173.93915527,0.01134093
4175.86796265,0.01136085
4177.79677002,0.01138022
4179.72557739,0.01140500
4181.65438477,0.01127934
4183.58319214,0.01123499
4185.51199951,0.01113898
4187.44080688,0.01113361
4189.36961426,0.01119797
4191.29842163,0.01117616
4193.22722900,0.01119503
4195.15603638,0.01114542
4197.08484375,0.01108957
4199.01365112,0.01101315
4200.94245850,0.01108535
4202.87126587,0.01107535
4204.80007324,0.01103619
4206.72888062,0.01104464
4208.65768799,0.01094061
4210.58649536,0.01096923
4212.51530273,0.01098610
4214.44411011,0.01100295
4216.37291748,0.01087880
4218.30172485,0.01083457
4220.23053223,0.01089918
4222.15933960,0.01083826
4224.08814697,0.01083512
4226.01695435,0.01081536
4227.94576172,0.01077940
4229.87456909,0.01068106
4231.80337646,0.01079609
4233.73218384,0.01073285
4235.66099121,0.01062457
4237.58979858,0.01074232
4239.51860596,0.01062625
4241.44741333,0.01066076
4243.37622070,0.01056532
4245.30502808,0.01056613
4247.23383545,0.01062806
4249.16264282,0.01047929
4251.09145020,0.01045263
4253.02025757,0.01040908
4254.94906494,0.01053283
4256.87787231,0.01043863
4258.80667969,0.01039670
4260.73548706,0.01041504
4262.66429443,0.01028888
4264.59310181,0.01038333
4266.52190918,0.01035782
4268.45071655,0.01037764
4270.37952393,0.01030907
4272.30833130,0.01026818
4274.23713867,0.01029149
4276.16594604,0.01021604
4278.09475342,0.01024686
4280.02356079,0.01018093
4281.95236816,0.01021388
4283.88117554,0.01019268
4285.80998291,0.01007592
4287.73879028,0.01006907
4289.66759766,0.01009297
4291.59640503,0.01009932
4293.52521240,0.01007549
4295.45401978,0.00999376
4297.38282715,0.00990086
4299.31163452,0.00997748
4301.24044189,0.00991947
4303.16924927,0.00988409
4305.09805664,0.00989526
4307.02686401,0.00987189
4308.95567139,0.00993412
4310.88447876,0.00982312
4312.81328613,0.00980616
4314.74209351,0.00981708
4316.67090088,0.00983199
4318.59970825,0.00984695
4320.52851562,0.00977272
4322.45732300,0.00972332
4324.38613037,0.00965401
4326.31493774,0.00972693
4328.24374512,0.00966398
4330.17255249,0.00958670
4332.10135986,0.00965221
4334.03016724,0.00961602
4335.95897461,0.00961272
4337.88778198,0.00958300
4339.81658936,0.00950013
4341.74539673,0.00957020
4343.67420410,0.00960172
4345.60301147,0.00943270
4347.53181885,0.00949078
4349.46062622,0.00949213
4351.38943359,0.00939928
4353.31824097,0.00945738
4355.24704834,0.00937745
4357.17585571,0.00939368
4359.10466309,0.00943040
4361.03347046,0.00945550
4362.96227783,0.00938419
4364.89108520,0.00927055
4366.81989258,0.00928031
4368.74869995,0.00924745
4370.67750732,0.00930831
4372.60631470,0.00923274
4374.53512207,0.00918817
4376.46392944,0.00917853
4378.39273682,0.00913766
4380.32154419,0.00920140
4382.25035156,0.00910505
4384.17915894,0.00908512
4386.10796631,0.00910785
4388.03677368,0.00907492
4389.96558105,0.00902045
4391.89438843,0.00900565
4393.82319580,0.00903096
4395.75200317,0.00903705
4397.68081055,0.00902081
4399.60961792,0.00890709
4401.53842529,0.00896765
4403.46723267,0.00894256
4405.39604004,0.00887274
4407.32484741,0.00888793
4409.25365478,0.00883763
4411.18246216,0.00884505
4413.11126953,0.00879882
4415.04007690,0.00882790
4416.96888428,0.00875695
4418.89769165,0.00876593
4420.82649902,0.00875979
4422.75530640,0.00861339
4424.68411377,0.00872047
4426.61292114,0.00863667
4428.54172852,0.00863216
4430.47053589,0.00866574
4432.39934326,0.00855840
4434.32815063,0.00862866
4436.25695801,0.00857901
4438.18576538,0.00863898
4440.11457275,0.00865400
4442.04338013,0.00847184
4443.97218750,0.00847821
4445.90099487,0.00846310
4447.82980225,0.00842397
4449.75860962,0.00852542
4451.68741699,0.00848433
4453.61622437,0.00839633
4455.54503174,0.00841040
4457.47383911,0.00834611
4459.40264648,0.00840306
4461.33145386,0.00841980
4463.26026123,0.00833349
4465.18906860,0.00836772
4467.11787598,0.00832442
4469.04668335,0.00828558
4470.97549072,0.00829272
4472.90429810,0.00828031
4474.83310547,0.00827211
4476.76191284,0.00824694
4478.69072021,0.00823144
4480.61952759,0.00823541
4482.54833496,0.00820777
4484.47714233,0.00809881
4486.40594971,0.00806958
4488.33475708,0.00816173
4490.26356445,0.00818731
4492.19237183,0.00811050
4494.12117920,0.00810316
4496.04998657,0.00808188
4497.97879395,0.00798537
4499.90760132,0.00799147
4501.83640869,0.00797638
4503.76521606,0.00790070
4505.69402344,0.00789703
4507.62283081,0.00800262
4509.55163818,0.00800170
4511.48044556,0.00790081
4513.40925293,0.00796315
4515.33806030,0.00787107
4517.26686768,0.00777544
4519.19567505,0.00792156
4521.12448242,0.00785957
4523.05328979,0.00781021
4524.98209717,0.00787286
4526.91090454,0.00777683
4528.83971191,0.00775129
4530.76851929,0.00774087
4532.69732666,0.00771738
4534.62613403,0.00772014
4536.55494141,0.00769121
4538.48374878,0.00771212
4540.41255615,0.00768468
4542.34136353,0.00766871
4544.27017090,0.00760242
4546.19897827,0.00755557
4548.12778564,0.00755354
4550.05659302,0.00749261
4551.98540039,0.00756643
4553.91420776,0.00752043
4555.84301514,0.00748471
4557.77182251,0.00750205
4559.70062988,0.00742199
4561.62943726,0.00747914
4563.55824463,0.00745357
4565.48705200,0.00741020
4567.41585937,0.00740785
4569.34466675,0.00739821
4571.27347412,0.00740578
4573.20228149,0.00739820
4575.13108887,0.00740535
4577.05989624,0.00734336
4578.98870361,0.00732623
4580.91751099,0.00728258
4582.84631836,0.00729591
4584.77512573,0.00733030
4586.70393311,0.00727470
4588.63274048,0.00722287
4590.56154785,0.00712160
4592.49035522,0.00721545
4594.41916260,0.00721584
4596.34796997,0.00711152
4598.27677734,0.00716193
4600.20558472,0.00710060
4602.13439209,0.00714938
4604.06319946,0.00719159
4605.99200684,0.00710808
4607.92081421,0.00708699
4609.84962158,0.00699265
4611.77842895,0.00700242
4613.70723633,0.00706010
4615.63604370,0.00702745
4617.56485107,0.00708211
4619.49365845,0.00700475
4621.42246582,0.00690536
4623.35127319,0.00693364
4625.28008057,0.00695090
4627.20888794,0.00699371
4629.13769531,0.00687244
4631.06650269,0.00683876
4632.99531006,0.00688042
4634.92411743,0.00687491
4636.85292480,0.00694339
4638.78173218,0.00682193
4640.71053955,0.00682092
4642.63934692,0.00682499
4644.56815430,0.00674970
4646.49696167,0.00679976
4648.42576904,0.00676062
4650.35457642,0.00677402
4652.28338379,0.00673105
4654.21219116,0.00664763
4656.14099853,0.00666965
4658.06980591,0.00673669
4659.99861328,0.00667929
4661.92742065,0.00661189
4663.85622803,0.00665535
4665.78503540,0.00656139
4667.71384277,0.00660097
4669.64265015,0.00662946
4671.57145752,0.00658718
4673.50026489,0.00656637
4675.42907227,0.00648318
4677.35787964,0.00655442
4679.28668701,0.00650561
4681.21549438,0.00646467
4683.14430176,0.00650473
4685.07310913,0.00644514
4687.00191650,0.00640101
4688.93072388,0.00638671
4690.85953125,0.00640564
4692.78833862,0.00641214
4694.71714600,0.00643424
4696.64595337,0.00635253
4698.57476074,0.00637387
4700.50356812,0.00644723
4702.43237549,0.00637303
4704.36118286,0.00635314
4706.28999023,0.00625080
4708.21879761,0.00623151
4710.14760498,0.00630158
4712.07641235,0.00627037
4714.00521973,0.00626540
4715.93402710,0.00625529
4717.86283447,0.00620488
4719.79164185,0.00622016
4721.72044922,0.00622021
4723.64925659,0.00615401
4725.57806396,0.00618073
4727.50687134,0.00614618
4729.43567871,0.00611089
4731.36448608,0.00608593
4733.29329346,0.00607557
4735.22210083,0.00613732
4737.15090820,0.00606156
4739.07971558,0.00610349
4741.00852295,0.00615123
4742.93733032,0.00606119
4744.86613770,0.00602001
4746.79494507,0.00606701
4748.72375244,0.00606378
4750.65255981,0.00593825
4752.58136719,0.00596150
4754.51017456,0.00595029
4756.43898193,0.00595931
4758.36778931,0.00595735
4760.29659668,0.00589509
4762.22540405,0.00598676
4764.15421143,0.00591404
4766.08301880,0.00583359
4768.01182617,0.00584539
4769.94063354,0.00584489
4771.86944092,0.00589797
4773.79824829,0.00592176
4775.72705566,0.00583678
4777.65586304,0.00579984
4779.58467041,0.00588347
4781.51347778,0.00578488
4783.44228516,0.00574202
4785.37109253,0.00573825
4787.29989990,0.00570579
4789.22870728,0.00573125
4791.15751465,0.00567275
4793.08632202,0.00576326
4795.01512939,0.00575019
4796.94393677,0.00568831
4798.87274414,0.00572385
4800.80155151,0.00567349
4802.73035889,0.00565782
4804.65916626,0.00559499
4806.58797363,0.00558733
4808.51678101,0.00556307
4810.44558838,0.00555925
4812.37439575,0.00563627
4814.30320312,0.00552823
4816.23201050,0.00550754
4818.16081787,0.00555970
4820.08962524,0.00551818
4822.01843262,0.00555723
4823.94723999,0.00547771
4825.87604736,0.00541342
4827.80485474,0.00547886
4829.73366211,0.00542783
4831.66246948,0.00546943
4833.59127686,0.00543061
4835.52008423,0.00533409
4837.44889160,0.00538992
4839.37769897,0.00535678
4841.30650635,0.00537902
4843.23531372,0.00535923
4845.16412109,0.00531870
4847.09292847,0.00532444
4849.02173584,0.00528550
4850.95054321,0.00530584
4852.87935059,0.00524970
4854.80815796,0.00524066
4856.73696533,0.00529369
4858.66577270,0.00528468
4860.59458008,0.00524547
4862.52338745,0.00528490
4864.45219482,0.00530384
4866.38100220,0.00520043
4868.30980957,0.00520814
4870.23861694,0.00517008
4872.16742432,0.00514922
4874.09623169,0.00517542
4876.02503906,0.00516006
4877.95384644,0.00517009
4879.88265381,0.00509083
4881.81146118,0.00507151
4883.74026855,0.00507742
4885.66907593,0.00510933
4887.59788330,0.00510547
4889.52669067,0.00504387
4891.45549805,0.00508513
4893.38430542,0.00510585
4895.31311279,0.00511200
4897.24192017,0.00505014
4899.17072754,0.00499618
4901.09953491,0.00497401
4903.02834228,0.00495125
4904.95714966,0.00500771
4906.88595703,0.00499490
4908.81476440,0.00492214
4910.74357178,0.00493786
4912.67237915,0.00496711
4914.60118652,0.00487196
4916.52999390,0.00486119
4918.45880127,0.00485473
4920.38760864,0.00484526
4922.31641602,0.00495574
4924.24522339,0.00491566
4926.17403076,0.00488633
4928.10283813,0.00486559
4930.03164551,0.00487063
4931.96045288,0.00489682
4933.88926025,0.00477042
4935.81806763,0.00478761
4937.74687500,0.00480464
4939.67568237,0.00476825
4941.60448975,0.00481181
4943.53329712,0.00473862
4945.46210449,0.00471267
4947.39091187,0.00475980
4949.31971924,0.00469280
4951.24852661,0.00468057
4953.17733398,0.00467580
4955.10614136,0.00461504
4957.03494873,0.00460603
4958.96375610,0.00456673
4960.89256348,0.00464457
4962.82137085,0.00466649
4964.75017822,0.00458294
4966.67898560,0.00463470
4968.60779297,0.00457511
4970.53660034,0.00454566
4972.46540771,0.00456910
4974.39421509,0.00450287
4976.32302246,0.00456416
4978.25182983,0.00457841
4980.18063721,0.00448256
4982.10944458,0.00451389
4984.03825195,0.00446995
4985.96705933,0.00440577
4987.89586670,0.00451117
4989.82467407,0.00443659
4991.75348145,0.00444895
4993.68228882,0.00452683
4995.61109619,0.00438426
4997.53990356,0.00445572
4999.46871094,0.00445293
5001.39751831,0.00431101
5003.32632568,0.00435354
5005.25513306,0.00434579
5007.18394043,0.00434219
5009.11274780,0.00438687
5011.04155518,0.00431845
5012.97036255,0.00428723
5014.89916992,0.00431540
5016.82797729,0.00427778
5018.75678467,0.00430506
5020.68559204,0.00427071
5022.61439941,0.00422236
5024.54320679,0.00427877
5026.47201416,0.00426036
5028.40082153,0.00425648
5030.32962891,0.00426121
5032.25843628,0.00424615
5034.18724365,0.00420158
5036.11605103,0.00422833
5038.04485840,0.00428760
5039.97366577,0.00421014
5041.90247314,0.00418550
5043.83128052,0.00417196
5045.76008789,0.00418572
5047.68889526,0.00421973
5049.61770264,0.00416022
5051.54651001,0.00409541
5053.47531738,0.00405040
5055.40412476,0.00405589
5057.33293213,0.00408880
5059.26173950,0.00405577
5061.19054687,0.00399259
5063.11935425,0.00407509
5065.04816162,0.00409390
5066.97696899,0.00405522
5068.90577637,0.00408017
5070.83458374,0.00401119
5072.76339111,0.00404256
5074.69219849,0.00402562
5076.62100586,0.00397355
5078.54981323,0.00400520
5080.47862061,0.00398616
5082.40742798,0.00397540
5084.33623535,0.00389855
5086.26504272,0.00395193
5088.19385010,0.00405497
5090.12265747,0.00397186
5092.05146484,0.00391370
5093.98027222,0.00393403
5095.90907959,0.00389626
5097.83788696,0.00388197
5099.76669434,0.00394099
5101.69550171,0.00386311
5103.62430908,0.00378287
5105.55311645,0.00375495
5107.48192383,0.00377591
5109.41073120,0.00383277
5111.33953857,0.00378528
5113.26834595,0.00379703
5115.19715332,0.00375237
5117.12596069,0.00371745
5119.05476807,0.00380796
5120.98357544,0.00382001
5122.91238281,0.00376916
5124.84119019,0.00373817
5126.76999756,0.00379721
5128.69880493,0.00378404
5130.62761230,0.00371752
5132.55641968,0.00370837
5134.48522705,0.00366206
5136.41403442,0.00366331
5138.34284180,0.00366419
5140.27164917,0.00362073
5142.20045654,0.00365174
5144.12926392,0.00371471
5146.05807129,0.00366485
5147.98687866,0.00355549
5149.91568603,0.00359860
5151.84449341,0.00364593
5153.77330078,0.00357534
5155.70210815,0.00362251
5157.63091553,0.00360399
5159.55972290,0.00354265
5161.48853027,0.00365287
5163.41733765,0.00356352
5165.34614502,0.00348266
5167.27495239,0.00357735
5169.20375977,0.00348909
5171.13256714,0.00346071
5173.06137451,0.00353122
5174.99018188,0.00349202
5176.91898926,0.00351727
5178.84779663,0.00351293
5180.77660400,0.00344503
5182.70541138,0.00345712
5184.63421875,0.00340012
5186.56302612,0.00342169
5188.49183350,0.00346360
5190.42064087,0.00342905
5192.34944824,0.00350917
5194.27825562,0.00346138
5196.20706299,0.00337812
5198.13587036,0.00335609
5200.06467773,0.00337369
5201.99348511,0.00341106
5203.92229248,0.00334947
5205.85109985,0.00335539
5207.77990723,0.00330215
5209.70871460,0.00331127
5211.63752197,0.00341029
5213.56632935,0.00339903
5215.49513672,0.00332617
5217.42394409,0.00328114
5219.35275146,0.00335392
5221.28155884,0.00333267
5223.21036621,0.00336042
5225.13917358,0.00328959
5227.06798096,0.00319382
5228.99678833,0.00337351
5230.92559570,0.00329741
5232.85440308,0.00319908
5234.78321045,0.00324576
5236.71201782,0.00325767
5238.64082520,0.00334395
5240.56963257,0.00333887
5242.49843994,0.00324600
5244.42724731,0.00318480
5246.35605469,0.00320341
5248.28486206,0.00316378
5250.21366943,0.00316435
5252.14247681,0.00321695
5254.07128418,0.00312820
5256.00009155,0.00311824
5257.92889893,0.00316752
5259.85770630,0.00316559
5261.78651367,0.00320143
5263.71532104,0.00316434
5265.64412842,0.00312322
5267.57293579,0.00321581
5269.50174316,0.00316309
5271.43055054,0.00310960
5273.35935791,0.00317351
5275.28816528,0.00307692
5277.21697266,0.00305090
5279.14578003,0.00311716
5281.07458740,0.00310279
5283.00339478,0.00303687
5284.93220215,0.00303187
5286.86100952,0.00305958
5288.78981689,0.00302330
5290.71862427,0.00300964
5292.64743164,0.00300477
5294.57623901,0.00307713
5296.50504639,0.00305057
5298.43385376,0.00300269
5300.36266113,0.00304498
5302.29146851,0.00302110
5304.22027588,0.00306275
5306.14908325,0.00296846
5308.07789062,0.00288449
5310.00669800,0.00293886
5311.93550537,0.00295367
5313.86431274,0.00297343
5315.79312012,0.00295850
5317.72192749,0.00296481
5319.65073486,0.00294462
5321.57954224,0.00296005
5323.50834961,0.00296307
5325.43715698,0.00294692
5327.36596436,0.00289943
5329.29477173,0.00277900
5331.22357910,0.00285834
5333.15238647,0.00289718
5335.08119385,0.00285437
5337.01000122,0.00282219
5338.93880859,0.00271267
5340.86761597,0.00276623
5342.79642334,0.00284572
5344.72523071,0.00276622
5346.65403809,0.00275622
5348.58284546,0.00285474
5350.51165283,0.00284375
5352.44046020,0.00273338
5354.36926758,0.00264661
5356.29807495,0.00274429
5358.22688232,0.00282992
5360.15568970,0.00273411
5362.08449707,0.00277952
5364.01330444,0.00277125
5365.94211182,0.00272715
5367.87091919,0.00280468
5369.79972656,0.00272167
5371.72853394,0.00270911
5373.65734131,0.00282164
5375.58614868,0.00267824
5377.51495605,0.00260717
5379.44376343,0.00277234
5381.37257080,0.00271960
5383.30137817,0.00271757
5385.23018555,0.00272637
5387.15899292,0.00264273
5389.08780029,0.00272872
5391.01660767,0.00265629
5392.94541504,0.00265718
5394.87422241,0.00268379
5396.80302978,0.00258857
5398.73183716,0.00267272
5400.66064453,0.00267380
5402.58945190,0.00260217
5404.51825928,0.00257938
5406.44706665,0.00264419
5408.37587402,0.00267549
5410.30468140,0.00255230
5412.23348877,0.00251279
5414.16229614,0.00255205
5416.09110352,0.00256653
5418.01991089,0.00254736
5419.94871826,0.00259441
5421.87752563,0.00260833
5423.80633301,0.00249130
5425.73514038,0.00250815
5427.66394775,0.00256614
5429.59275513,0.00246337
5431.52156250,0.00251478
5433.45036987,0.00260858
5435.37917725,0.00248113
5437.30798462,0.00249967
5439.23679199,0.00250926
5441.16559936,0.00245571
5443.09440674,0.00249623
5445.02321411,0.00241547
5446.95202148,0.00246863
5448.88082886,0.00250057
5450.80963623,0.00241266
5452.73844360,0.00249186
5454.66725098,0.00242908
5456.59605835,0.00237227
5458.52486572,0.00254012
5460.45367310,0.00254049
5462.38248047,0.00245004
5464.31128784,0.00244356
5466.24009521,0.00240615
5468.16890259,0.00237303
5470.09770996,0.00237591
5472.02651733,0.00243134
5473.95532471,0.00240396
5475.88413208,0.00234060
5477.81293945,0.00232457
5479.74174683,0.00231678
5481.67055420,0.00239582
5483.59936157,0.00232436
5485.52816895,0.00232611
5487.45697632,0.00243340
5489.38578369,0.00237309
5491.31459106,0.00237894
5493.24339844,0.00229460
5495.17220581,0.00224962
5497.10101318,0.00229843
5499.02982056,0.00226520
5500.95862793,0.00227166
5502.88743530,0.00222178
5504.81624268,0.00221815
5506.74505005,0.00226229
5508.67385742,0.00226486
5510.60266479,0.00227536
5512.53147217,0.00229692
5514.46027954,0.00229510
5516.38908691,0.00228212
5518.31789429,0.00228730
5520.24670166,0.00226559
5522.17550903,0.00226864
5524.10431641,0.00223579
5526.03312378,0.00226046
5527.96193115,0.00231098
5529.89073853,0.00226629
5531.81954590,0.00220943
5533.74835327,0.00217183
5535.67716064,0.00222597
5537.60596802,0.00216296
5539.53477539,0.00216683
5541.46358276,0.00228257
5543.39239014,0.00220155
5545.32119751,0.00218680
5547.25000488,0.00220786
5549.17881226,0.00215559
5551.10761963,0.00212752
5553.03642700,0.00217176
5554.96523437,0.00219719
5556.89404175,0.00216600
5558.82284912,0.00215780
5560.75165649,0.00207247
5562.68046387,0.00206963
5564.60927124,0.00213210
5566.53807861,0.00210531
5568.46688599,0.00208021
5570.39569336,0.00210697
5572.32450073,0.00206198
5574.25330811,0.00201830
5576.18211548,0.00216696
5578.11092285,0.00214599
5580.03973022,0.00205553
5581.96853760,0.00206939
5583.89734497,0.00204042
5585.82615234,0.00208113
5587.75495972,0.00203871
5589.68376709,0.00202902
5591.61257446,0.00207468
5593.54138184,0.00207093
5595.47018921,0.00203977
5597.39899658,0.00199005
5599.32780395,0.00206026
5601.25661133,0.00197494
5603.18541870,0.00190029
5605.11422607,0.00201697
5607.04303345,0.00200668
5608.97184082,0.00195733
5610.90064819,0.00195687
5612.82945557,0.00202308
5614.75826294,0.00202247
5616.68707031,0.00194488
5618.61587769,0.00195873
5620.54468506,0.00194024
5622.47349243,0.00194759
5624.40229980,0.00200145
5626.33110718,0.00197690
5628.25991455,0.00198413
5630.18872192,0.00202087
5632.11752930,0.00200427
5634.04633667,0.00199470
5635.97514404,0.00192887
5637.90395142,0.00187929
5639.83275879,0.00193867
5641.76156616,0.00189120
5643.69037353,0.00185942
5645.61918091,0.00192778
5647.54798828,0.00191972
5649.47679565,0.00192322
5651.40560303,0.00192839
5653.33441040,0.00188450
5655.26321777,0.00182085
5657.19202515,0.00184818
5659.12083252,0.00192937
5661.04963989,0.00183460
5662.97844727,0.00180289
5664.90725464,0.00186379
5666.83606201,0.00182708
5668.76486938,0.00183742
5670.69367676,0.00181233
5672.62248413,0.00179900
5674.55129150,0.00180197
5676.48009888,0.00176260
5678.40890625,0.00183332
5680.33771362,0.00183217
5682.26652100,0.00180319
5684.19532837,0.00179866
5686.12413574,0.00176921
5688.05294311,0.00184500
5689.98175049,0.00182490
5691.91055786,0.00177958
5693.83936523,0.00178210
5695.76817261,0.00175999
5697.69697998,0.00176530
5699.62578735,0.00170906
5701.55459473,0.00173656
5703.48340210,0.00174662
5705.41220947,0.00171817
5707.34101685,0.00179664
5709.26982422,0.00177774
5711.19863159,0.00173869
5713.12743896,0.00173305
5715.05624634,0.00173339
5716.98505371,0.00174524
5718.91386108,0.00172180
5720.84266846,0.00168581
5722.77147583,0.00167053
5724.70028320,0.00173799
5726.62909058,0.00176729
5728.55789795,0.00169779
5730.48670532,0.00159627
5732.41551270,0.00165989
5734.34432007,0.00174987
5736.27312744,0.00164250
5738.20193481,0.00165926
5740.13074219,0.00167920
5742.05954956,0.00165947
5743.98835693,0.00168880
5745.91716431,0.00164697
5747.84597168,0.00162367
5749.77477905,0.00161759
5751.70358643,0.00172666
5753.63239380,0.00170182
5755.56120117,0.00159277
5757.49000854,0.00163292
5759.41881592,0.00160224
5761.34762329,0.00162062
5763.27643066,0.00162533
5765.20523804,0.00162807
5767.13404541,0.00162699
5769.06285278,0.00160400
5770.99166016,0.00166497
5772.92046753,0.00157908
5774.84927490,0.00154386
5776.77808228,0.00158365
5778.70688965,0.00154988
5780.63569702,0.00150951
5782.56450439,0.00150634
5784.49331177,0.00164153
5786.42211914,0.00160378
5788.35092651,0.00152367
5790.27973389,0.00161065
5792.20854126,0.00153685
5794.13734863,0.00147026
5796.06615601,0.00153589
5797.99496338,0.00156203
5799.92377075,0.00152971
5801.85257812,0.00149067
5803.78138550,0.00149755
5805.71019287,0.00148084
5807.63900024,0.00147821
5809.56780762,0.00150025
5811.49661499,0.00150101
5813.42542236,0.00147751
5815.35422974,0.00141646
5817.28303711,0.00146491
5819.21184448,0.00145207
5821.14065186,0.00142406
5823.06945923,0.00151284
5824.99826660,0.00146042
5826.92707397,0.00147216
5828.85588135,0.00143771
5830.78468872,0.00142673
5832.71349609,0.00157003
5834.64230347,0.00146356
5836.57111084,0.00142515
5838.49991821,0.00147844
5840.42872559,0.00145758
5842.35753296,0.00145463
5844.28634033,0.00142322
5846.21514770,0.00142034
5848.14395508,0.00140455
5850.07276245,0.00143436
5852.00156982,0.00141335
5853.93037720,0.00140965
5855.85918457,0.00142243
5857.78799194,0.00137715
5859.71679932,0.00138216
5861.64560669,0.00136655
5863.57441406,0.00144779
5865.50322144,0.00143505
5867.43202881,0.00134149
5869.36083618,0.00134568
5871.28964355,0.00138037
5873.21845093,0.00139178
5875.14725830,0.00132747
5877.07606567,0.00140305
5879.00487305,0.00138251
5880.93368042,0.00133609
5882.86248779,0.00137865
5884.79129517,0.00134796
5886.72010254,0.00138518
5888.64890991,0.00127971
5890.57771728,0.00126314
5892.50652466,0.00131628
5894.43533203,0.00126015
5896.36413940,0.00131258
5898.29294678,0.00128460
5900.22175415,0.00126068
5902.15056152,0.00130968
5904.07936890,0.00129260
5906.00817627,0.00126076
5907.93698364,0.00129436
5909.86579102,0.00132474
5911.79459839,0.00132718
5913.72340576,0.00130056
5915.65221313,0.00125298
5917.58102051,0.00128058
5919.50982788,0.00126560
5921.43863525,0.00125062
5923.36744263,0.00123578
5925.29625000,0.00125976
5927.22505737,0.00127932
5929.15386475,0.00124278
5931.08267212,0.00129973
5933.01147949,0.00127975
5934.94028686,0.00129982
5936.86909424,0.00122199
5938.79790161,0.00115753
5940.72670898,0.00127138
5942.65551636,0.00119858
5944.58432373,0.00121964
5946.51313110,0.00123187
5948.44193848,0.00118513
5950.37074585,0.00119983
5952.29955322,0.00120515
5954.22836060,0.00123772
5956.15716797,0.00115775
5958.08597534,0.00113609
5960.01478271,0.00112240
5961.94359009,0.00118205
5963.87239746,0.00120927
5965.80120483,0.00114988
5967.73001221,0.00122048
5969.65881958,0.00117205
5971.58762695,0.00119486
5973.51643433,0.00120423
5975.44524170,0.00112898
5977.37404907,0.00111984
5979.30285645,0.00110474
5981.23166382,0.00113455
5983.16047119,0.00112994
5985.08927856,0.00115416
5987.01808594,0.00111996
5988.94689331,0.00117629
5990.87570068,0.00115422
5992.80450806,0.00105300
5994.73331543,0.00120333
5996.66212280,0.00114373
5998.59093018,0.00115277
6000.51973755,0.00114795
