399.26312622,-0.00010856
401.19193359,0.00008884
403.12074097,0.00024838
405.04954834,0.00000447
406.97835571,0.00006861
408.90716309,0.00050116
410.83597046,0.00014145
412.76477783,-0.00016806
414.69358521,0.00028532
416.62239258,0.00026398
418.55119995,0.00022564
420.48000732,0.00027451
422.40881470,0.00039196
424.33762207,0.00042709
426.26642944,0.00019786
428.19523682,0.00050615
430.12404419,0.00013704
432.05285156,-0.00032353
433.98165894,0.00012062
435.91046631,0.00025312
437.83927368,0.00031370
439.76808105,-0.00005830
441.69688843,-0.00003904
443.62569580,0.00012682
445.55450317,0.00014967
447.48331055,0.00022670
449.41211792,-0.00009487
451.34092529,0.00031886
453.26973267,0.00036240
455.19854004,0.00013007
457.12734741,-0.00019692
459.05615479,-0.00027080
460.98496216,0.00025495
462.91376953,0.00002616
464.84257690,0.00022319
466.77138428,0.00014733
468.70019165,0.00003658
470.62899902,0.00030413
472.55780640,0.00001628
474.48661377,0.00030664
476.41542114,0.00052236
478.34422852,0.00006471
480.27303589,-0.00042137
482.20184326,-0.00005125
484.13065063,0.00033887
486.05945801,0.00011400
487.98826538,0.00020757
489.91707275,-0.00010369
491.84588013,-0.00001848
493.77468750,0.00014771
495.70349487,-0.00015769
497.63230225,0.00010867
499.56110962,0.00007468
501.48991699,0.00044032
503.41872437,0.00025364
505.34753174,-0.00035822
507.27633911,0.00008216
509.20514648,0.00007730
511.13395386,0.00003214
513.06276123,0.00014868
514.99156860,0.00020066
516.92037598,0.00027069
518.84918335,0.00006551
520.77799072,0.00020116
522.70679810,0.00052895
524.63560547,0.00058873
526.56441284,0.00017347
528.49322021,-0.00004932
530.42202759,0.00042759
532.35083496,0.00035098
534.27964233,0.00029053
536.20844971,0.00033391
538.13725708,0.00014731
540.06606445,0.00023445
541.99487183,0.00037904
543.92367920,0.00024989
545.85248657,-0.00002024
547.78129395,0.00044281
549.71010132,0.00017232
551.63890869,0.00000041
553.56771606,0.00006745
555.49652344,-0.00037227
557.42533081,0.00011039
559.35413818,0.00015921
561.28294556,0.00038057
563.21175293,0.00025975
565.14056030,-0.00010553
567.06936768,0.00060997
568.99817505,0.00043042
570.92698242,0.00005692
572.85578979,-0.00004842
574.78459717,-0.00005430
576.71340454,-0.00002945
578.64221191,-0.00030302
580.57101929,0.00027631
582.49982666,0.00033415
584.42863403,0.00009330
586.35744141,0.00047006
588.28624878,-0.00003426
590.21505615,-0.00007666
592.14386353,0.00013688
594.07267090,0.00006326
596.00147827,0.00041845
597.93028564,0.00004301
599.85909302,-0.00008311
601.78790039,0.00020782
603.71670776,0.00013305
605.64551514,0.00017287
607.57432251,0.00012755
609.50312988,-0.00014551
611.43193726,0.00010360
613.36074463,0.00004266
615.28955200,0.00015218
617.21835938,0.00023692
619.14716675,-0.00033399
621.07597412,0.00030697
623.00478149,0.00044102
624.93358887,0.00000361
626.86239624,0.00006273
628.79120361,0.00018123
630.72001099,0.00006543
632.64881836,-0.00003248
634.57762573,0.00035285
636.50643311,0.00028798
638.43524048,0.00026236
640.36404785,0.00008652
642.29285522,0.00005774
644.22166260,0.00007360
646.15046997,-0.00016091
648.07927734,0.00015353
650.00808472,0.00023027
651.93689209,0.00032492
653.86569946,0.00025458
655.79450684,-0.00005906
657.72331421,0.00002306
659.65212158,-0.00008641
661.58092896,0.00032991
663.50973633,0.00073673
665.43854370,0.00028468
667.36735107,0.00038550
669.29615845,0.00048652
671.22496582,0.00015824
673.15377319,0.00022061
675.08258057,0.00041054
677.01138794,0.00056768
678.94019531,0.00040485
680.86900269,0.00037855
682.79781006,0.00079217
684.72661743,0.00076046
686.65542480,0.00070319
688.58423218,0.00042178
690.51303955,0.00012047
692.44184692,0.00071497
694.37065430,0.00077730
696.29946167,0.00047587
698.22826904,0.00049599
700.15707642,0.00038968
702.08588379,0.00058839
704.01469116,0.00037604
705.94349854,0.00012150
707.87230591,0.00040998
709.80111328,0.00029113
711.72992065,0.00036268
713.65872803,0.00031601
715.58753540,-0.00001535
717.51634277,0.00030411
719.44515015,0.00030165
721.37395752,-0.00002078
723.30276489,0.00009428
725.23157227,0.00019116
727.16037964,0.00013110
729.08918701,-0.00001023
731.01799438,-0.00003733
732.94680176,0.00036483
734.87560913,0.00060035
736.80441650,0.00041943
738.73322388,0.00007027
740.66203125,-0.00000820
742.59083862,0.00025145
744.51964600,0.00018963
746.44845337,0.00004973
748.37726074,0.00006367
750.30606812,0.00022740
752.23487549,0.00017203
754.16368286,-0.00009308
756.09249023,0.00000113
758.02129761,0.00003592
759.95010498,0.00006446
761.87891235,0.00024021
763.80771973,0.00016491
765.73652710,0.00005882
767.66533447,0.00019254
769.59414185,0.00009444
771.52294922,0.00014221
773.45175659,0.00033686
775.38056396,-0.00003079
777.30937134,0.00006368
779.23817871,0.00023086
781.16698608,-0.00009385
783.09579346,0.00032631
785.02460083,0.00034691
786.95340820,-0.00013137
788.88221558,0.00026368
790.81102295,0.00031220
792.73983032,0.00014936
794.66863770,0.00015194
796.59744507,0.00030424
798.52625244,0.00065119
800.45505981,0.00026485
802.38386719,0.00025281
804.31267456,0.00031184
806.24148193,0.00008365
808.17028931,0.00010979
810.09909668,0.00009738
812.02790405,0.00018696
813.95671143,-0.00005662
815.88551880,0.00001968
817.81432617,0.00005894
819.74313354,0.00011036
821.67194092,0.00032253
823.60074829,0.00031115
825.52955566,0.00037312
827.45836304,-0.00013661
829.38717041,0.00003175
831.31597778,0.00044479
833.24478516,0.00036964
835.17359253,0.00034386
837.10239990,0.00003510
839.03120728,0.00033651
840.96001465,0.00053568
842.88882202,0.00019294
844.81762939,0.00007995
846.74643677,0.00028860
848.67524414,0.00013746
850.60405151,0.00004284
852.53285889,0.00028820
854.46166626,-0.00005081
856.39047363,0.00022673
858.31928101,0.00033865
860.24808838,0.00008106
862.17689575,0.00014938
864.10570313,-0.00001060
866.03451050,0.00026239
867.96331787,-0.00014844
869.89212524,-0.00011228
871.82093262,0.00033339
873.74973999,-0.00008911
875.67854736,0.00020854
877.60735474,0.00032954
879.53616211,0.00010676
881.46496948,0.00018822
883.39377686,0.00029412
885.32258423,0.00026997
887.25139160,0.00019935
889.18019897,0.00026133
891.10900635,0.00007174
893.03781372,0.00021121
894.96662109,0.00036406
896.89542847,0.00028955
898.82423584,0.00039023
900.75304321,0.00013508
902.68185059,-0.00006112
904.61065796,0.00010400
906.53946533,0.00012224
908.46827271,0.00024263
910.39708008,0.00020700
912.32588745,-0.00004346
914.25469482,0.00023487
916.18350220,0.00047360
918.11230957,0.00045714
920.04111694,0.00011423
921.96992432,-0.00009000
923.89873169,0.00021429
925.82753906,0.00018455
927.75634644,0.00032871
929.68515381,0.00038769
931.61396118,0.00041691
933.54276855,0.00065956
935.47157593,0.00050524
937.40038330,0.00038179
939.32919067,0.00034253
941.25799805,0.00045977
943.18680542,0.00054321
945.11561279,0.00046047
947.04442017,0.00033184
948.97322754,0.00037635
950.90203491,0.00051957
952.83084229,0.00027267
954.75964966,0.00036101
956.68845703,0.00058916
958.61726440,0.00031926
960.54607178,0.00022076
962.47487915,0.00061041
964.40368652,0.00070073
966.33249390,0.00054197
968.26130127,0.00066947
970.19010864,0.00063162
972.11891602,0.00061786
974.04772339,0.00073825
975.97653076,0.00096999
977.90533813,0.00098605
979.83414551,0.00081615
981.76295288,0.00087520
983.69176025,0.00088965
985.62056763,0.00125257
987.54937500,0.00144280
989.47818237,0.00143761
991.40698975,0.00152734
993.33579712,0.00143792
995.26460449,0.00169451
997.19341187,0.00194740
999.12221924,0.00206686
1001.05102661,0.00216261
1002.97983398,0.00232007
1004.90864136,0.00253221
1006.83744873,0.00261094
1008.76625610,0.00279220
1010.69506348,0.00306235
1012.62387085,0.00318025
1014.55267822,0.00315174
1016.48148560,0.00340099
1018.41029297,0.00339949
1020.33910034,0.00346016
1022.26790771,0.00384717
1024.19671509,0.00394564
1026.12552246,0.00417057
1028.05432983,0.00419947
1029.98313721,0.00446198
1031.91194458,0.00473022
1033.84075195,0.00457492
1035.76955933,0.00474007
1037.69836670,0.00479529
1039.62717407,0.00485980
1041.55598145,0.00482955
1043.48478882,0.00469216
1045.41359619,0.00462901
1047.34240356,0.00458177
1049.27121094,0.00480784
1051.20001831,0.00476947
1053.12882568,0.00451810
1055.05763306,0.00434790
1056.98644043,0.00431869
1058.91524780,0.00426592
1060.84405518,0.00390143
1062.77286255,0.00373031
1064.70166992,0.00385297
1066.63047729,0.00372715
1068.55928467,0.00344120
1070.48809204,0.00326477
1072.41689941,0.00314194
1074.34570679,0.00319822
1076.27451416,0.00302082
1078.20332153,0.00278218
1080.13212891,0.00270762
1082.06093628,0.00250086
1083.98974365,0.00250274
1085.91855103,0.00242723
1087.84735840,0.00241918
1089.77616577,0.00229986
1091.70497314,0.00197068
1093.63378052,0.00197650
1095.56258789,0.00179503
1097.49139526,0.00181199
1099.42020264,0.00194110
1101.34901001,0.00178679
1103.27781738,0.00189277
1105.20662476,0.00189175
1107.13543213,0.00173381
1109.06423950,0.00175783
1110.99304687,0.00180214
1112.92185425,0.00165452
1114.85066162,0.00151751
1116.77946899,0.00170107
1118.70827637,0.00175754
1120.63708374,0.00165009
1122.56589111,0.00168091
1124.49469849,0.00175017
1126.42350586,0.00194613
1128.35231323,0.00177482
1130.28112061,0.00179109
1132.20992798,0.00214520
1134.13873535,0.00177596
1136.06754272,0.00192213
1137.99635010,0.00221360
1139.92515747,0.00209290
1141.85396484,0.00247404
1143.78277222,0.00245414
1145.71157959,0.00249701
1147.64038696,0.00285174
1149.56919434,0.00293532
1151.49800171,0.00300572
1153.42680908,0.00315256
1155.35561646,0.00348746
1157.28442383,0.00371497
1159.21323120,0.00372369
1161.14203857,0.00371547
1163.07084595,0.00396199
1164.99965332,0.00402424
1166.92846069,0.00394889
1168.85726807,0.00421418
1170.78607544,0.00450994
1172.71488281,0.00471687
1174.64369019,0.00465014
1176.57249756,0.00499236
1178.50130493,0.00539326
1180.43011230,0.00539173
1182.35891968,0.00572048
1184.28772705,0.00583527
1186.21653442,0.00590218
1188.14534180,0.00637627
1190.07414917,0.00689388
1192.00295654,0.00707406
1193.93176392,0.00722602
1195.86057129,0.00760725
1197.78937866,0.00803877
1199.71818604,0.00855666
1201.64699341,0.00880393
1203.57580078,0.00926356
1205.50460815,0.00968441
1207.43341553,0.00986689
1209.36222290,0.01028581
1211.29103027,0.01039092
1213.21983765,0.01067363
1215.14864502,0.01117797
1217.07745239,0.01137406
1219.00625977,0.01146479
1220.93506714,0.01172330
1222.86387451,0.01186203
1224.79268188,0.01176088
1226.72148926,0.01203628
1228.65029663,0.01211572
1230.57910400,0.01208331
1232.50791138,0.01239811
1234.43671875,0.01241421
1236.36552612,0.01218682
1238.29433350,0.01228491
1240.22314087,0.01255590
1242.15194824,0.01223593
1244.08075562,0.01206606
1246.00956299,0.01230498
1247.93837036,0.01203553
1249.86717773,0.01180420
1251.79598511,0.01172998
1253.72479248,0.01174909
1255.65359985,0.01195334
1257.58240723,0.01164370
1259.51121460,0.01132261
1261.44002197,0.01140884
1263.36882935,0.01126382
1265.29763672,0.01100156
1267.22644409,0.01083632
1269.15525146,0.01067755
1271.08405884,0.01044218
1273.01286621,0.01028504
1274.94167358,0.01026871
1276.87048096,0.01005999
1278.79928833,0.00979571
1280.72809570,0.00964336
1282.65690308,0.00950288
1284.58571045,0.00929896
1286.51451782,0.00912655
1288.44332520,0.00889680
1290.37213257,0.00892630
1292.30093994,0.00915778
1294.22974731,0.00873267
1296.15855469,0.00858495
1298.08736206,0.00869532
1300.01616943,0.00864291
1301.94497681,0.00897725
1303.87378418,0.00892231
1305.80259155,0.00895650
1307.73139893,0.00928804
1309.66020630,0.00933302
1311.58901367,0.00935813
1313.51782104,0.00963879
1315.44662842,0.00996870
1317.37543579,0.00990858
1319.30424316,0.01024102
1321.23305054,0.01066164
1323.16185791,0.01082944
1325.09066528,0.01125932
1327.01947266,0.01151267
1328.94828003,0.01176865
1330.87708740,0.01222077
1332.80589478,0.01266089
1334.73470215,0.01283754
1336.66350952,0.01285954
1338.59231689,0.01278053
1340.52112427,0.01292741
1342.44993164,0.01339482
1344.37873901,0.01340957
1346.30754639,0.01338832
1348.23635376,0.01330542
1350.16516113,0.01347506
1352.09396851,0.01358979
1354.02277588,0.01305249
1355.95158325,0.01313370
1357.88039062,0.01314704
1359.80919800,0.01291307
1361.73800537,0.01230965
1363.66681274,0.01204755
1365.59562012,0.01296946
1367.52442749,0.01254408
1369.45323486,0.01232571
1371.38204224,0.01260084
1373.31084961,0.01185046
1375.23965698,0.01208504
1377.16846436,0.01246927
1379.09727173,0.01241415
1381.02607910,0.01220725
1382.95488647,0.01230517
1384.88369385,0.01253080
1386.81250122,0.01180162
1388.74130859,0.01195302
1390.67011597,0.01278897
1392.59892334,0.01255965
1394.52773071,0.01197068
1396.45653809,0.01238177
1398.38534546,0.01242834
1400.31415283,0.01241380
1402.24296021,0.01332282
1404.17176758,0.01261635
1406.10057495,0.01270608
1408.02938232,0.01326837
1409.95818970,0.01272690
1411.88699707,0.01288914
1413.81580444,0.01255231
1415.74461182,0.01287020
1417.67341919,0.01159264
1419.60222656,0.01029193
1421.53103394,0.01179234
1423.45984131,0.01156450
1425.38864868,0.01119834
1427.31745605,0.01123312
1429.24626343,0.01057671
1431.17507080,0.01022646
1433.10387817,0.01018574
1435.03268555,0.00947663
1436.96149292,0.00815441
1438.89030029,0.00914432
1440.81910767,0.00942935
1442.74791504,0.00884581
1444.67672241,0.00913339
1446.60552979,0.00831164
1448.53433716,0.00853240
1450.46314453,0.00887367
1452.39195190,0.00898563
1454.32075928,0.00916213
1456.24956665,0.00757122
1458.17837402,0.00801313
1460.10718140,0.01075896
1462.03598877,0.01154819
1463.96479614,0.01133586
1465.89360352,0.01171057
1467.82241089,0.01340705
1469.75121826,0.01426617
1471.68002563,0.01255111
1473.60883301,0.01339110
1475.53764038,0.01525248
1477.46644775,0.01637408
1479.39525513,0.01804068
1481.32406250,0.01811254
1483.25286987,0.01933395
1485.18167725,0.01983957
1487.11048462,0.01942715
1489.03929199,0.01946539
1490.96809937,0.01935254
1492.89690674,0.02267838
1494.82571411,0.02223022
1496.75452148,0.01983661
1498.68332886,0.02256280
1500.61213623,0.02327085
1502.54094360,0.02487141
1504.46975098,0.02333318
1506.39855835,0.01696159
1508.32736572,0.02087874
1510.25617310,0.02448055
1512.18498047,0.02374366
1514.11378784,0.02568365
1516.04259521,0.02299796
1517.97140259,0.02387625
1519.90020996,0.02309393
1521.82901733,0.02013893
1523.75782471,0.02456227
1525.68663208,0.02379391
1527.61543945,0.02367952
1529.54424683,0.02635478
1531.47305420,0.02519546
1533.40186157,0.02308716
1535.33066895,0.02451800
1537.25947632,0.02623234
1539.18828369,0.01878159
1541.11709106,0.01955032
1543.04589844,0.02347417
1544.97470581,0.02232284
1546.90351318,0.02619595
1548.83232056,0.02442789
1550.76112793,0.02530063
1552.68993530,0.02508595
1554.61874268,0.02250919
1556.54755005,0.02412653
1558.47635742,0.01692056
1560.40516479,0.01823944
1562.33397217,0.02585271
1564.26277954,0.02414666
1566.19158691,0.02492013
1568.12039429,0.02444808
1570.04920166,0.02161067
1571.97800903,0.02492129
1573.90681641,0.02488013
1575.83562378,0.01968090
1577.76443115,0.02211566
1579.69323853,0.02491842
1581.62204590,0.02354263
1583.55085327,0.02387472
1585.47966064,0.02357062
1587.40846802,0.02340757
1589.33727539,0.02297306
1591.26608276,0.02280341
1593.19489014,0.02244466
1595.12369751,0.02201498
1597.05250488,0.02235024
1598.98131226,0.02188227
1600.91011963,0.02169454
1602.83892700,0.02113924
1604.76773437,0.02120463
1606.69654175,0.02061387
1608.62534912,0.02014494
1610.55415649,0.01984865
1612.48296387,0.01987584
1614.41177124,0.02001752
1616.34057861,0.01613437
1618.26938599,0.01732274
1620.19819336,0.02008493
1622.12700073,0.01765296
1624.05580811,0.01768838
1625.98461548,0.01850201
1627.91342285,0.01832431
1629.84223022,0.01815412
1631.77103760,0.01947367
1633.69984497,0.01784220
1635.62865234,0.01474677
1637.55745972,0.01762479
1639.48626709,0.01936711
1641.41507446,0.01897099
1643.34388184,0.01966066
1645.27268921,0.01783554
1647.20149658,0.01602905
1649.13030396,0.02003748
1651.05911133,0.01903897
1652.98791870,0.01258041
1654.91672607,0.01738416
1656.84553345,0.02189887
1658.77434082,0.02117923
1660.70314819,0.02215028
1662.63195557,0.02042116
1664.56076294,0.02170013
1666.48957031,0.02376646
1668.41837769,0.02108721
1670.34718506,0.02068060
1672.27599243,0.02373796
1674.20479980,0.02203760
1676.13360718,0.02159238
1678.06241455,0.02524023
1679.99122192,0.02448526
1681.92002930,0.02471799
1683.84883667,0.02027697
1685.77764404,0.02028121
1687.70645142,0.02823889
1689.63525879,0.02468953
1691.56406616,0.02760999
1693.49287354,0.02833173
1695.42168091,0.02072965
1697.35048828,0.02608274
1699.27929565,0.02314588
1701.20810303,0.02115949
1703.13691040,0.02921855
1705.06571777,0.02698558
1706.99452515,0.02747174
1708.92333252,0.03023034
1710.85213989,0.02932463
1712.78094727,0.02996778
1714.70975464,0.02817420
1716.63856201,0.02548618
1718.56736938,0.02502586
1720.49617676,0.03001501
1722.42498413,0.03154219
1724.35379150,0.02940893
1726.28259888,0.03220407
1728.21140625,0.03001834
1730.14021362,0.03037441
1732.06902100,0.02979425
1733.99782837,0.02271060
1735.92663574,0.02849535
1737.85544312,0.03182219
1739.78425049,0.02824178
1741.71305786,0.03095534
1743.64186523,0.03145035
1745.57067261,0.03166904
1747.49947998,0.03211835
1749.42828735,0.03070556
1751.35709473,0.02957698
1753.28590210,0.03288251
1755.21470947,0.03453813
1757.14351685,0.03150457
1759.07232422,0.03481456
1761.00113159,0.03288596
1762.92993896,0.03178345
1764.85874634,0.03656245
1766.78755371,0.03286677
1768.71636108,0.03332607
1770.64516846,0.03320599
1772.57397583,0.02978506
1774.50278320,0.03340733
1776.43159058,0.03540235
1778.36039795,0.03504205
1780.28920532,0.03459026
1782.21801270,0.03481520
1784.14682007,0.03493924
1786.07562744,0.03435393
1788.00443481,0.03617349
1789.93324219,0.03531252
1791.86204956,0.03201082
1793.79085693,0.03367190
1795.71966431,0.03612248
1797.64847168,0.03551808
1799.57727905,0.03507437
1801.50608643,0.03443237
1803.43489380,0.03569647
1805.36370117,0.03653120
1807.29250854,0.03608427
1809.22131592,0.03622454
1811.15012329,0.03516222
1813.07893066,0.03641990
1815.00773804,0.03646221
1816.93654541,0.03620157
1818.86535278,0.03672462
1820.79416016,0.03646971
1822.72296753,0.03700587
1824.65177490,0.03446893
1826.58058228,0.03585623
1828.50938965,0.03592501
1830.43819702,0.03362761
1832.36700439,0.03689576
1834.29581177,0.03673142
1836.22461914,0.03663388
1838.15342651,0.03667198
1840.08223389,0.03689151
1842.01104126,0.03671080
1843.93984863,0.03265902
1845.86865601,0.03489204
1847.79746338,0.03687603
1849.72627075,0.03610405
1851.65507812,0.03708621
1853.58388550,0.03650869
1855.51269287,0.03685392
1857.44150024,0.03662831
1859.37030762,0.03657579
1861.29911499,0.03674056
1863.22792236,0.03620264
1865.15672974,0.03671585
1867.08553711,0.03552906
1869.01434448,0.03386443
1870.94315186,0.03524477
1872.87195923,0.03683336
1874.80076660,0.03626724
1876.72957397,0.03643568
1878.65838135,0.03646845
1880.58718872,0.03623459
1882.51599609,0.03650054
1884.44480347,0.03598002
1886.37361084,0.03653535
1888.30241821,0.03567714
1890.23122559,0.03479793
1892.16003296,0.03618358
1894.08884033,0.03565674
1896.01764771,0.03550779
1897.94645508,0.03618509
1899.87526245,0.03591332
1901.80406982,0.03589150
1903.73287720,0.03571374
1905.66168457,0.03578366
1907.59049194,0.03541394
1909.51929932,0.03536192
1911.44810669,0.03542709
1913.37691406,0.03539405
1915.30572144,0.03600773
1917.23452881,0.03432803
1919.16333618,0.03438941
1921.09214355,0.03577827
1923.02095093,0.03449686
1924.94975830,0.03526692
1926.87856567,0.03559631
1928.80737305,0.03515723
1930.73618042,0.03567486
1932.66498779,0.03509803
1934.59379517,0.03547464
1936.52260254,0.03534634
1938.45140991,0.03531623
1940.38021729,0.03530735
1942.30902466,0.03413919
1944.23783203,0.03465815
1946.16663940,0.03520850
1948.09544678,0.03510344
1950.02425415,0.03520356
1951.95306152,0.03504137
1953.88186890,0.03502627
1955.81067627,0.03504714
1957.73948364,0.03509477
1959.66829102,0.03501941
1961.59709839,0.03494208
1963.52590576,0.03504309
1965.45471313,0.03479862
1967.38352051,0.03431973
1969.31232788,0.03467004
1971.24113525,0.03501309
1973.16994263,0.03472864
1975.09875000,0.03467547
1977.02755737,0.03456581
1978.95636475,0.03463492
1980.88517212,0.03462929
1982.81397949,0.03445312
1984.74278687,0.03446443
1986.67159424,0.03441674
1988.60040161,0.03435200
1990.52920898,0.03389091
1992.45801636,0.03371443
1994.38682373,0.03405857
1996.31563110,0.03410581
1998.24443848,0.03405153
2000.17324585,0.03400101
2002.10205322,0.03384180
2004.03086060,0.03379351
2005.95966797,0.03375118
2007.88847534,0.03358877
2009.81728271,0.03360494
2011.74609009,0.03353420
2013.67489746,0.03347891
2015.60370483,0.03341583
2017.53251221,0.03308755
2019.46131958,0.03312307
2021.39012695,0.03315973
2023.31893433,0.03304069
2025.24774170,0.03300165
2027.17654907,0.03284483
2029.10535645,0.03283667
2031.03416382,0.03278137
2032.96297119,0.03272266
2034.89177856,0.03267272
2036.82058594,0.03249662
2038.74939331,0.03250856
2040.67820068,0.03234086
2042.60700806,0.03216557
2044.53581543,0.03221816
2046.46462280,0.03222525
2048.39343018,0.03217547
2050.32223755,0.03186255
2052.25104492,0.03189635
2054.17985229,0.03196432
2056.10865967,0.03177488
2058.03746704,0.03177785
2059.96627441,0.03150072
2061.89508179,0.03155765
2063.82388916,0.03149986
2065.75269653,0.03127722
2067.68150391,0.03153128
2069.61031128,0.03147306
2071.53911865,0.03141877
2073.46792603,0.03123051
2075.39673340,0.03121440
2077.32554077,0.03134333
2079.25434814,0.03108649
2081.18315552,0.03108209
2083.11196289,0.03110565
2085.04077026,0.03099518
2086.96957764,0.03076233
2088.89838501,0.03081677
2090.82719238,0.03085315
2092.75599976,0.03057274
2094.68480713,0.03055941
2096.61361450,0.03062780
2098.54242187,0.03071625
2100.47122925,0.03056436
2102.40003662,0.03052246
2104.32884399,0.03048139
2106.25765137,0.03034437
2108.18645874,0.03049457
2110.11526611,0.03041974
2112.04407349,0.03026925
2113.97288086,0.03020931
2115.90168823,0.03027209
2117.83049561,0.03022757
2119.75930298,0.03032247
2121.68811035,0.03025313
2123.61691772,0.03001739
2125.54572510,0.03029459
2127.47453247,0.03012569
2129.40333984,0.03012279
2131.33214722,0.03014324
2133.26095459,0.03004485
2135.18976196,0.03023464
2137.11856934,0.02998942
2139.04737671,0.03007763
2140.97618408,0.03001329
2142.90499146,0.03000351
2144.83379883,0.03012387
2146.76260620,0.02988333
2148.69141357,0.02996244
2150.62022095,0.02992274
2152.54902832,0.03007039
2154.47783569,0.03010618
2156.40664307,0.02992672
2158.33545044,0.02986654
2160.26425781,0.02975921
2162.19306519,0.02982570
2164.12187256,0.02978862
2166.05067993,0.02988711
2167.97948730,0.02993743
2169.90829468,0.02994986
2171.83710205,0.02987399
2173.76590942,0.02972374
2175.69471680,0.02985062
2177.62352417,0.02978535
2179.55233154,0.02993739
2181.48113892,0.03002588
2183.40994629,0.02985251
2185.33875366,0.02984691
2187.26756104,0.02979488
2189.19636841,0.02989464
2191.12517578,0.02991973
2193.05398315,0.02983146
2194.98279053,0.02984697
2196.91159790,0.02991003
2198.84040527,0.03002124
2200.76921265,0.03001521
2202.69802002,0.02984653
2204.62682739,0.02979944
2206.55563477,0.02991190
2208.48444214,0.02985019
2210.41324951,0.02982785
2212.34205688,0.02991077
2214.27086426,0.02995288
2216.19967163,0.02996094
2218.12847900,0.02990722
2220.05728638,0.03007040
2221.98609375,0.03009145
2223.91490112,0.02985941
2225.84370850,0.02989315
2227.77251587,0.02990141
2229.70132324,0.02989040
2231.63013062,0.02995322
2233.55893799,0.02985514
2235.48774536,0.02980210
2237.41655273,0.02976852
2239.34536011,0.02980322
2241.27416748,0.02978233
2243.20297485,0.02971086
2245.13178223,0.02978907
2247.06058960,0.02979438
2248.98939697,0.02983917
2250.91820435,0.02978228
2252.84701172,0.02978599
2254.77581909,0.02974996
2256.70462646,0.02963046
2258.63343384,0.02977691
2260.56224121,0.02962326
2262.49104858,0.02964765
2264.41985596,0.02977221
2266.34866333,0.02969494
2268.27747070,0.02979832
2270.20627808,0.02970665
2272.13508545,0.02972507
2274.06389282,0.02970868
2275.99270020,0.02964700
2277.92150757,0.02969696
2279.85031494,0.02968829
2281.77912231,0.02976654
2283.70792969,0.02972670
2285.63673706,0.02972908
2287.56554443,0.02971508
2289.49435181,0.02962305
2291.42315918,0.02953020
2293.35196655,0.02951425
2295.28077393,0.02953214
2297.20958130,0.02945603
2299.13838867,0.02943670
2301.06719604,0.02924260
2302.99600342,0.02913060
2304.92481079,0.02903533
2306.85361816,0.02877484
2308.78242554,0.02864641
2310.71123291,0.02857309
2312.64004028,0.02838339
2314.56884766,0.02802626
2316.49765503,0.02773863
2318.42646240,0.02734858
2320.35526978,0.02701070
2322.28407715,0.02666868
2324.21288452,0.02627347
2326.14169189,0.02621429
2328.07049927,0.02598583
2329.99930664,0.02560627
2331.92811401,0.02537212
2333.85692139,0.02528412
2335.78572876,0.02517918
2337.71453613,0.02516833
2339.64334351,0.02517200
2341.57215088,0.02516466
2343.50095825,0.02562985
2345.42976562,0.02620845
2347.35857300,0.02742118
2349.28738037,0.02827318
2351.21618774,0.02729559
2353.14499512,0.02590738
2355.07380249,0.02495357
2357.00260986,0.02431355
2358.93141724,0.02370014
2360.86022461,0.02350616
2362.78903198,0.02359558
2364.71783936,0.02369607
2366.64664673,0.02419043
2368.57545410,0.02450165
2370.50426147,0.02500678
2372.43306885,0.02579994
2374.36187622,0.02658808
2376.29068359,0.02735977
2378.21949097,0.02793316
2380.14829834,0.02848213
2382.07710571,0.02879784
2384.00591309,0.02909241
2385.93472046,0.02924517
2387.86352783,0.02923671
2389.79233521,0.02920878
2391.72114258,0.02914763
2393.64994995,0.02927657
2395.57875732,0.02917619
2397.50756470,0.02915106
2399.43637207,0.02917957
2401.36517944,0.02905479
2403.29398682,0.02908779
2405.22279419,0.02905639
2407.15160156,0.02911766
2409.08040894,0.02913592
2411.00921631,0.02908306
2412.93802368,0.02906829
2414.86683105,0.02902807
2416.79563843,0.02914319
2418.72444580,0.02902289
2420.65325317,0.02891339
2422.58206055,0.02897106
2424.51086792,0.02878152
2426.43967529,0.02885961
2428.36848267,0.02891769
2430.29729004,0.02870525
2432.22609741,0.02875727
2434.15490479,0.02874168
2436.08371216,0.02871411
2438.01251953,0.02874960
2439.94132690,0.02873428
2441.87013428,0.02881319
2443.79894165,0.02877139
2445.72774902,0.02872249
2447.65655640,0.02873399
2449.58536377,0.02871489
2451.51417114,0.02866835
2453.44297852,0.02867150
2455.37178589,0.02869164
2457.30059326,0.02861923
2459.22940063,0.02860460
2461.15820801,0.02861885
2463.08701538,0.02859149
2465.01582275,0.02846463
2466.94463013,0.02848535
2468.87343750,0.02851772
2470.80224487,0.02839938
2472.73105225,0.02845194
2474.65985962,0.02839410
2476.58866699,0.02841951
2478.51747437,0.02845435
2480.44628174,0.02827321
2482.37508911,0.02831932
2484.30389648,0.02837634
2486.23270386,0.02828488
2488.16151123,0.02824776
2490.09031860,0.02822921
2492.01912598,0.02815193
2493.94793335,0.02822514
2495.87674072,0.02824377
2497.80554810,0.02811444
2499.73435547,0.02811838
2501.66316284,0.02811219
2503.59197021,0.02812413
2505.52077759,0.02808018
2507.44958496,0.02804429
2509.37839233,0.02801146
2511.30719971,0.02804933
2513.23600708,0.02811136
2515.16481445,0.02795556
2517.09362183,0.02800258
2519.02242920,0.02798069
2520.95123657,0.02789447
2522.88004395,0.02794147
2524.80885132,0.02794436
2526.73765869,0.02788733
2528.66646606,0.02780022
2530.59527344,0.02798399
2532.52408081,0.02786004
2534.45288818,0.02773062
2536.38169556,0.02779593
2538.31050293,0.02766629
2540.23931030,0.02780671
2542.16811768,0.02770126
2544.09692505,0.02762437
2546.02573242,0.02770931
2547.95453979,0.02756036
2549.88334717,0.02760514
2551.81215454,0.02757419
2553.74096191,0.02750359
2555.66976929,0.02751077
2557.59857666,0.02753506
2559.52738403,0.02754580
2561.45619141,0.02746274
2563.38499878,0.02747521
2565.31380615,0.02740344
2567.24261353,0.02734519
2569.17142090,0.02747890
2571.10022827,0.02744634
2573.02903564,0.02731638
2574.95784302,0.02733695
2576.88665039,0.02727018
2578.81545776,0.02720239
2580.74426514,0.02724316
2582.67307251,0.02713207
2584.60187988,0.02700426
2586.53068726,0.02708188
2588.45949463,0.02706963
2590.38830200,0.02699287
2592.31710937,0.02721018
2594.24591675,0.02711489
2596.17472412,0.02690303
2598.10353149,0.02698802
2600.03233887,0.02686855
2601.96114624,0.02692505
2603.88995361,0.02691467
2605.81876099,0.02677763
2607.74756836,0.02679517
2609.67637573,0.02671005
2611.60518311,0.02676253
2613.53399048,0.02672648
2615.46279785,0.02668181
2617.39160522,0.02661402
2619.32041260,0.02656922
2621.24921997,0.02665643
2623.17802734,0.02645953
2625.10683472,0.02649413
2627.03564209,0.02651522
2628.96444946,0.02639614
2630.89325684,0.02649790
2632.82206421,0.02641966
2634.75087158,0.02643197
2636.67967895,0.02641361
2638.60848633,0.02637755
2640.53729370,0.02635779
2642.46610107,0.02607600
2644.39490845,0.02618161
2646.32371582,0.02628255
2648.25252319,0.02612124
2650.18133057,0.02611319
2652.11013794,0.02595976
2654.03894531,0.02598620
2655.96775269,0.02601814
2657.89656006,0.02593837
2659.82536743,0.02599584
2661.75417480,0.02580084
2663.68298218,0.02582463
2665.61178955,0.02593942
2667.54059692,0.02577850
2669.46940430,0.02581893
2671.39821167,0.02578228
2673.32701904,0.02555523
2675.25582642,0.02554458
2677.18463379,0.02561179
2679.11344116,0.02549394
2681.04224854,0.02553897
2682.97105591,0.02556867
2684.89986328,0.02545800
2686.82867065,0.02553760
2688.75747803,0.02534432
2690.68628540,0.02521184
2692.61509277,0.02535974
2694.54390015,0.02527494
2696.47270752,0.02523025
2698.40151489,0.02529486
2700.33032227,0.02517094
2702.25912964,0.02501026
2704.18793701,0.02505690
2706.11674438,0.02497947
2708.04555176,0.02487393
2709.97435913,0.02486752
2711.90316650,0.02484646
2713.83197388,0.02492221
2715.76078125,0.02482601
2717.68958862,0.02474421
2719.61839600,0.02461911
2721.54720337,0.02457358
2723.47601074,0.02471344
2725.40481812,0.02457500
2727.33362549,0.02450939
2729.26243286,0.02449450
2731.19124023,0.02449523
2733.12004761,0.02444312
2735.04885498,0.02432952
2736.97766235,0.02425098
2738.90646973,0.02405294
2740.83527710,0.02418386
2742.76408447,0.02414261
2744.69289185,0.02401400
2746.62169922,0.02413383
2748.55050659,0.02403971
2750.47931396,0.02397824
2752.40812134,0.02383644
2754.33692871,0.02381638
2756.26573608,0.02375303
2758.19454346,0.02363170
2760.12335083,0.02371105
2762.05215820,0.02355443
2763.98096558,0.02358651
2765.90977295,0.02357977
2767.83858032,0.02341504
2769.76738770,0.02339646
2771.69619507,0.02332111
2773.62500244,0.02328568
2775.55380981,0.02318148
2777.48261719,0.02326132
2779.41142456,0.02320300
2781.34023193,0.02292039
2783.26903931,0.02299147
2785.19784668,0.02297686
2787.12665405,0.02291508
2789.05546143,0.02286156
2790.98426880,0.02264583
2792.91307617,0.02268816
2794.84188354,0.02275344
2796.77069092,0.02260666
2798.69949829,0.02261472
2800.62830566,0.02256642
2802.55711304,0.02241645
2804.48592041,0.02242864
2806.41472778,0.02227721
2808.34353516,0.02217776
2810.27234253,0.02220449
2812.20114990,0.02208736
2814.12995728,0.02211304
2816.05876465,0.02207870
2817.98757202,0.02186334
2819.91637939,0.02174010
2821.84518677,0.02173004
2823.77399414,0.02167628
2825.70280151,0.02153961
2827.63160889,0.02148694
2829.56041626,0.02146735
2831.48922363,0.02139729
2833.41803101,0.02131285
2835.34683838,0.02127355
2837.27564575,0.02113522
2839.20445312,0.02099697
2841.13326050,0.02100033
2843.06206787,0.02093122
2844.99087524,0.02085639
2846.91968262,0.02066197
2848.84848999,0.02054173
2850.77729736,0.02047853
2852.70610474,0.02029508
2854.63491211,0.02036789
2856.56371948,0.02026422
2858.49252686,0.02016914
2860.42133423,0.02020200
2862.35014160,0.01998610
2864.27894897,0.01998277
2866.20775635,0.01991515
2868.13656372,0.01985705
2870.06537109,0.01982983
2871.99417847,0.01958360
2873.92298584,0.01967292
2875.85179321,0.01965228
2877.78060059,0.01943943
2879.70940796,0.01950631
2881.63821533,0.01942452
2883.56702270,0.01924189
2885.49583008,0.01925521
2887.42463745,0.01925618
2889.35344482,0.01914229
2891.28225220,0.01899441
2893.21105957,0.01887719
2895.13986694,0.01880471
2897.06867432,0.01870887
2898.99748169,0.01867133
2900.92628906,0.01861535
2902.85509644,0.01848104
2904.78390381,0.01842620
2906.71271118,0.01829942
2908.64151855,0.01821555
2910.57032593,0.01816410
2912.49913330,0.01791089
2914.42794067,0.01774048
2916.35674805,0.01768465
2918.28555542,0.01761620
2920.21436279,0.01757986
2922.14317017,0.01752369
2924.07197754,0.01740802
2926.00078491,0.01728721
2927.92959229,0.01721398
2929.85839966,0.01715956
2931.78720703,0.01713320
2933.71601440,0.01704705
2935.64482178,0.01692322
2937.57362915,0.01694191
2939.50243652,0.01695262
2941.43124390,0.01676896
2943.36005127,0.01664220
2945.28885864,0.01665620
2947.21766602,0.01653735
2949.14647339,0.01642435
2951.07528076,0.01639026
2953.00408813,0.01628537
2954.93289551,0.01619634
2956.86170288,0.01609624
2958.79051025,0.01601815
2960.71931763,0.01591244
2962.64812500,0.01572522
2964.57693237,0.01564729
2966.50573975,0.01555482
2968.43454712,0.01543936
2970.36335449,0.01550991
2972.29216187,0.01551860
2974.22096924,0.01538263
2976.14977661,0.01535562
2978.07858398,0.01531999
2980.00739136,0.01518269
2981.93619873,0.01505870
2983.86500610,0.01503573
2985.79381348,0.01508085
2987.72262085,0.01494085
2989.65142822,0.01476400
2991.58023560,0.01472425
2993.50904297,0.01462742
2995.43785034,0.01450180
2997.36665771,0.01437689
2999.29546509,0.01429921
3001.22427246,0.01424809
3003.15307983,0.01411863
3005.08188721,0.01404848
3007.01069458,0.01398887
3008.93950195,0.01381967
3010.86830933,0.01368975
3012.79711670,0.01365556
3014.72592407,0.01356395
3016.65473145,0.01350429
3018.58353882,0.01346860
3020.51234619,0.01322965
3022.44115356,0.01310219
3024.36996094,0.01313883
3026.29876831,0.01304475
3028.22757568,0.01293065
3030.15638306,0.01278731
3032.08519043,0.01262449
3034.01399780,0.01258748
3035.94280518,0.01256535
3037.87161255,0.01238102
3039.80041992,0.01226683
3041.72922729,0.01226643
3043.65803467,0.01207717
3045.58684204,0.01197637
3047.51564941,0.01198300
3049.44445679,0.01184048
3051.37326416,0.01176282
3053.30207153,0.01169331
3055.23087891,0.01150973
3057.15968628,0.01145851
3059.08849365,0.01145081
3061.01730103,0.01125835
3062.94610840,0.01117367
3064.87491577,0.01113215
3066.80372314,0.01098718
3068.73253052,0.01089153
3070.66133789,0.01081625
3072.59014526,0.01083111
3074.51895264,0.01068808
3076.44776001,0.01051685
3078.37656738,0.01048275
3080.30537476,0.01036852
3082.23418213,0.01035126
3084.16298950,0.01025052
3086.09179687,0.01014209
3088.02060425,0.01009342
3089.94941162,0.01001860
3091.87821899,0.00999316
3093.80702637,0.00978575
3095.73583374,0.00969237
3097.66464111,0.00965812
3099.59344849,0.00954210
3101.52225586,0.00952179
3103.45106323,0.00943969
3105.37987061,0.00941996
3107.30867798,0.00934657
3109.23748535,0.00922962
3111.16629272,0.00913740
3113.09510010,0.00896680
3115.02390747,0.00897583
3116.95271484,0.00894628
3118.88152222,0.00877861
3120.81032959,0.00876160
3122.73913696,0.00868960
3124.66794434,0.00850653
3126.59675171,0.00845436
3128.52555908,0.00845371
3130.45436645,0.00837430
3132.38317383,0.00827937
3134.31198120,0.00820283
3136.24078857,0.00811816
3138.16959595,0.00808004
3140.09840332,0.00807134
3142.02721069,0.00799109
3143.95601807,0.00789206
3145.88482544,0.00783025
3147.81363281,0.00785211
3149.74244019,0.00782909
3151.67124756,0.00771158
3153.60005493,0.00770953
3155.52886230,0.00767220
3157.45766968,0.00756570
3159.38647705,0.00757416
3161.31528442,0.00752419
3163.24409180,0.00734187
3165.17289917,0.00726071
3167.10170654,0.00727453
3169.03051392,0.00732055
3170.95932129,0.00732406
3172.88812866,0.00713346
3174.81693604,0.00705998
3176.74574341,0.00710129
3178.67455078,0.00711055
3180.60335815,0.00713874
3182.53216553,0.00706984
3184.46097290,0.00708252
3186.38978027,0.00707298
3188.31858765,0.00695091
3190.24739502,0.00690220
3192.17620239,0.00690427
3194.10500977,0.00683734
3196.03381714,0.00677679
3197.96262451,0.00682145
3199.89143188,0.00679586
3201.82023926,0.00682550
3203.74904663,0.00676814
3205.67785400,0.00669798
3207.60666138,0.00674258
3209.53546875,0.00662627
3211.46427612,0.00665979
3213.39308350,0.00670053
3215.32189087,0.00669502
3217.25069824,0.00673827
3219.17950562,0.00671100
3221.10831299,0.00667247
3223.03712036,0.00660944
3224.96592773,0.00668478
3226.89473511,0.00666493
3228.82354248,0.00666776
3230.75234985,0.00666254
3232.68115723,0.00660702
3234.60996460,0.00670851
3236.53877197,0.00665707
3238.46757935,0.00674316
3240.39638672,0.00672766
3242.32519409,0.00664968
3244.25400146,0.00676446
3246.18280884,0.00668076
3248.11161621,0.00674574
3250.04042358,0.00683460
3251.96923096,0.00675565
3253.89803833,0.00670691
3255.82684570,0.00676458
3257.75565308,0.00682292
3259.68446045,0.00680869
3261.61326782,0.00679586
3263.54207520,0.00674422
3265.47088257,0.00688832
3267.39968994,0.00687303
3269.32849731,0.00676144
3271.25730469,0.00684651
3273.18611206,0.00677389
3275.11491943,0.00681586
3277.04372681,0.00693709
3278.97253418,0.00687734
3280.90134155,0.00679643
3282.83014893,0.00684644
3284.75895630,0.00686280
3286.68776367,0.00690085
3288.61657104,0.00704544
3290.54537842,0.00689068
3292.47418579,0.00679923
3294.40299316,0.00689487
3296.33180054,0.00692280
3298.26060791,0.00698867
3300.18941528,0.00693455
3302.11822266,0.00699579
3304.04703003,0.00710893
3305.97583740,0.00702277
3307.90464478,0.00704409
3309.83345215,0.00704693
3311.76225952,0.00702253
3313.69106689,0.00709758
3315.61987427,0.00703452
3317.54868164,0.00702344
3319.47748901,0.00707384
3321.40629639,0.00709001
3323.33510376,0.00711818
3325.26391113,0.00708487
3327.19271851,0.00715275
3329.12152588,0.00710784
3331.05033325,0.00704145
3332.97914062,0.00712684
3334.90794800,0.00714780
3336.83675537,0.00719888
3338.76556274,0.00716957
3340.69437012,0.00715635
3342.62317749,0.00726126
3344.55198486,0.00724220
3346.48079224,0.00714409
3348.40959961,0.00724111
3350.33840698,0.00729464
3352.26721436,0.00719763
3354.19602173,0.00738587
3356.12482910,0.00746243
3358.05363647,0.00734145
3359.98244385,0.00738290
3361.91125122,0.00739024
3363.84005859,0.00735902
3365.76886597,0.00743749
3367.69767334,0.00751042
3369.62648071,0.00749286
3371.55528809,0.00755895
3373.48409546,0.00759347
3375.41290283,0.00768105
3377.34171020,0.00767914
3379.27051758,0.00755108
3381.19932495,0.00763607
3383.12813232,0.00765871
3385.05693970,0.00767016
3386.98574707,0.00764696
3388.91455444,0.00772903
3390.84336182,0.00778432
3392.77216919,0.00773767
3394.70097656,0.00791601
3396.62978394,0.00784451
3398.55859131,0.00787338
3400.48739868,0.00798471
3402.41620605,0.00797872
3404.34501343,0.00799877
3406.27382080,0.00792919
3408.20262817,0.00807609
3410.13143555,0.00810885
3412.06024292,0.00816512
3413.98905029,0.00817460
3415.91785767,0.00808735
3417.84666504,0.00820555
3419.77547241,0.00812627
3421.70427979,0.00825010
3423.63308716,0.00846274
3425.56189453,0.00836566
3427.49070190,0.00838749
3429.41950928,0.00842396
3431.34831665,0.00838554
3433.27712402,0.00855225
3435.20593140,0.00849596
3437.13473877,0.00840315
3439.06354614,0.00866887
3440.99235352,0.00864188
3442.92116089,0.00864390
3444.84996826,0.00870802
3446.77877563,0.00864137
3448.70758301,0.00874796
3450.63639038,0.00884189
3452.56519775,0.00887234
3454.49400513,0.00887692
3456.42281250,0.00898810
3458.35161987,0.00890730
3460.28042725,0.00895791
3462.20923462,0.00910338
3464.13804199,0.00903322
3466.06684937,0.00914985
3467.99565674,0.00910934
3469.92446411,0.00919561
3471.85327148,0.00926779
3473.78207886,0.00923233
3475.71088623,0.00932883
3477.63969360,0.00936618
3479.56850098,0.00940708
3481.49730835,0.00924720
3483.42611572,0.00936499
3485.35492310,0.00951236
3487.28373047,0.00954834
3489.21253784,0.00963825
3491.14134521,0.00959423
3493.07015259,0.00971002
3494.99895996,0.00970501
3496.92776733,0.00975807
3498.85657471,0.00984049
3500.78538208,0.00980709
3502.71418945,0.00970934
3504.64299683,0.00981710
3506.57180420,0.01010531
3508.50061157,0.00994463
3510.42941895,0.00994342
3512.35822632,0.01009782
3514.28703369,0.01020725
3516.21584106,0.01026982
3518.14464844,0.01022712
3520.07345581,0.01033036
3522.00226318,0.01025362
3523.93107056,0.01018736
3525.85987793,0.01025089
3527.78868530,0.01032874
3529.71749268,0.01036844
3531.64630005,0.01055904
3533.57510742,0.01070703
3535.50391479,0.01055660
3537.43272217,0.01060736
3539.36152954,0.01077042
3541.29033691,0.01087740
3543.21914429,0.01078257
3545.14795166,0.01055849
3547.07675903,0.01054812
3549.00556641,0.01096217
3550.93437378,0.01098887
3552.86318115,0.01067295
3554.79198853,0.01106909
3556.72079590,0.01121506
3558.64960327,0.01115054
3560.57841064,0.01113761
3562.50721802,0.01121662
3564.43602539,0.01123752
3566.36483276,0.01047475
3568.29364014,0.01045837
3570.22244751,0.01129340
3572.15125488,0.01157910
3574.08006226,0.01146987
3576.00886963,0.01165873
3577.93767700,0.01169558
3579.86648437,0.01159724
3581.79529175,0.01171166
3583.72409912,0.01175799
3585.65290649,0.01161372
3587.58171387,0.01069713
3589.51052124,0.01101078
3591.43932861,0.01200481
3593.36813599,0.01166913
3595.29694336,0.01156377
3597.22575073,0.01179760
3599.15455811,0.01206001
3601.08336548,0.01195754
3603.01217285,0.01210376
3604.94098022,0.01240019
3606.86978760,0.01193099
3608.79859497,0.01133324
3610.72740234,0.01161907
3612.65620972,0.01192801
3614.58501709,0.01153375
3616.51382446,0.01249042
3618.44263184,0.01160429
3620.37143921,0.01115885
3622.30024658,0.01279745
3624.22905395,0.01239550
3626.15786133,0.01303579
3628.08666870,0.01114296
3630.01547607,0.01020903
3631.94428345,0.01295704
3633.87309082,0.01258427
3635.80189819,0.01291000
3637.73070557,0.01330465
3639.65951294,0.01319502
3641.58832031,0.01329526
3643.51712769,0.01312714
3645.44593506,0.01332329
3647.37474243,0.01199021
3649.30354980,0.01114504
3651.23235718,0.01127454
3653.16116455,0.01347324
3655.08997192,0.01343533
3657.01877930,0.01201743
3658.94758667,0.01394580
3660.87639404,0.01369366
3662.80520142,0.01391849
3664.73400879,0.01400287
3666.66281616,0.01393035
3668.59162354,0.01363965
3670.52043091,0.01122205
3672.44923828,0.01359401
3674.37804565,0.01297170
3676.30685303,0.01080766
3678.23566040,0.01378551
3680.16446777,0.01406272
3682.09327515,0.01416244
3684.02208252,0.01476792
3685.95088989,0.01441820
3687.87969727,0.01308339
3689.80850464,0.01202527
3691.73731201,0.01381593
3693.66611938,0.01438082
3695.59492676,0.01455995
3697.52373413,0.01467298
3699.45254150,0.01462664
3701.38134888,0.01420860
3703.31015625,0.01373943
3705.23896362,0.01517694
3707.16777100,0.01445818
3709.09657837,0.01418685
3711.02538574,0.01330776
3712.95419312,0.01240143
3714.88300049,0.01481109
3716.81180786,0.01450181
3718.74061523,0.01453199
3720.66942261,0.01428803
3722.59822998,0.01378104
3724.52703735,0.01446571
3726.45584473,0.01332879
3728.38465210,0.01448837
3730.31345947,0.01431023
3732.24226685,0.01308753
3734.17107422,0.01288819
3736.09988159,0.01214669
3738.02868896,0.01293606
3739.95749634,0.01401504
3741.88630371,0.01474630
3743.81511108,0.01150815
3745.74391846,0.01068020
3747.67272583,0.01399352
3749.60153320,0.01211694
3751.53034058,0.01112346
3753.45914795,0.01276249
3755.38795532,0.01375336
3757.31676270,0.01432503
3759.24557007,0.01334402
3761.17437744,0.01377868
3763.10318481,0.01448257
3765.03199219,0.01354866
3766.96079956,0.01386287
3768.88960693,0.01376096
3770.81841431,0.01308068
3772.74722168,0.01412817
3774.67602905,0.01422025
3776.60483643,0.01421598
3778.53364380,0.01386945
3780.46245117,0.01327853
3782.39125854,0.01416168
3784.32006592,0.01383385
3786.24887329,0.01378796
3788.17768066,0.01408873
3790.10648804,0.01400199
3792.03529541,0.01398760
3793.96410278,0.01408468
3795.89291016,0.01329864
3797.82171753,0.01315167
3799.75052490,0.01384171
3801.67933228,0.01099077
3803.60813965,0.01275145
3805.53694702,0.01402123
3807.46575439,0.01141083
3809.39456177,0.01371574
3811.32336914,0.01353549
3813.25217651,0.01396759
3815.18098389,0.01259726
3817.10979126,0.01101990
3819.03859863,0.01391596
3820.96740601,0.01128623
3822.89621338,0.01194333
3824.82502075,0.01387727
3826.75382812,0.01250977
3828.68263550,0.01350467
3830.61144287,0.01301922
3832.54025024,0.01263814
3834.46905762,0.01283195
3836.39786499,0.01216418
3838.32667236,0.01099005
3840.25547974,0.01191043
3842.18428711,0.01280789
3844.11309448,0.01230206
3846.04190186,0.01331542
3847.97070923,0.01297899
3849.89951660,0.01314221
3851.82832397,0.01176457
3853.75713135,0.00879815
3855.68593872,0.01052180
3857.61474609,0.01313076
3859.54355347,0.01278810
3861.47236084,0.01257401
3863.40116821,0.01237664
3865.32997559,0.01139608
3867.25878296,0.01277057
3869.18759033,0.01175060
3871.11639770,0.01077954
3873.04520508,0.01294357
3874.97401245,0.01176901
3876.90281982,0.01271307
3878.83162720,0.01302224
3880.76043457,0.01099375
3882.68924194,0.01275767
3884.61804932,0.01195730
3886.54685669,0.01093677
3888.47566406,0.01287600
3890.40447144,0.01215611
3892.33327881,0.01130343
3894.26208618,0.01247096
3896.19089355,0.01266822
3898.11970093,0.01203119
3900.04850830,0.01148741
3901.97731567,0.01126335
3903.90612305,0.01116861
3905.83493042,0.01144931
3907.76373779,0.01250059
3909.69254517,0.01241048
3911.62135254,0.01227735
3913.55015991,0.01257830
3915.47896728,0.01208598
3917.40777466,0.01175787
3919.33658203,0.01169872
3921.26538940,0.01210294
3923.19419678,0.01207727
3925.12300415,0.01178033
3927.05181152,0.01198991
3928.98061890,0.01218249
3930.90942627,0.01185063
3932.83823364,0.01140586
3934.76704102,0.01196904
3936.69584839,0.01208364
3938.62465576,0.01197017
3940.55346313,0.01205519
3942.48227051,0.01160003
3944.41107788,0.01169617
3946.33988525,0.01189246
3948.26869263,0.01169123
3950.19750000,0.01163885
3952.12630737,0.01183366
3954.05511475,0.01184232
3955.98392212,0.01175447
3957.91272949,0.01178305
3959.84153687,0.01177755
3961.77034424,0.01167049
3963.69915161,0.01157968
3965.62795898,0.01169270
3967.55676636,0.01154226
3969.48557373,0.01155745
3971.41438110,0.01168155
3973.34318848,0.01164055
3975.27199585,0.01155198
3977.20080322,0.01152498
3979.12961060,0.01168186
3981.05841797,0.01142665
3982.98722534,0.01146482
3984.91603271,0.01147259
3986.84484009,0.01135576
3988.77364746,0.01148005
3990.70245483,0.01135568
3992.63126221,0.01145646
3994.56006958,0.01135000
3996.48887695,0.01130579
3998.41768433,0.01133480
4000.34649170,0.01126174
4002.27529907,0.01126917
4004.20410645,0.01116082
4006.13291382,0.01123656
4008.06172119,0.01115182
4009.99052856,0.01121974
4011.91933594,0.01122414
4013.84814331,0.01111013
4015.77695068,0.01119863
4017.70575806,0.01110265
4019.63456543,0.01102414
4021.56337280,0.01108660
4023.49218018,0.01114727
4025.42098755,0.01094798
4027.34979492,0.01099322
4029.27860229,0.01099298
4031.20740967,0.01092180
4033.13621704,0.01100844
4035.06502441,0.01085364
4036.99383179,0.01095106
4038.92263916,0.01083079
4040.85144653,0.01078305
4042.78025391,0.01083069
4044.70906128,0.01067747
4046.63786865,0.01078970
4048.56667603,0.01077794
4050.49548340,0.01077944
4052.42429077,0.01073334
4054.35309814,0.01070770
4056.28190552,0.01066429
4058.21071289,0.01060935
4060.13952026,0.01063700
4062.06832764,0.01055891
4063.99713501,0.01057448
4065.92594238,0.01055391
4067.85474976,0.01056612
4069.78355713,0.01050254
4071.71236450,0.01049949
4073.64117187,0.01051565
4075.56997925,0.01053546
4077.49878662,0.01050927
4079.42759399,0.01033717
4081.35640137,0.01046258
4083.28520874,0.01034216
4085.21401611,0.01027052
4087.14282349,0.01034129
4089.07163086,0.01033657
4091.00043823,0.01033146
4092.92924561,0.01018648
4094.85805298,0.01029173
4096.78686035,0.01020530
4098.71566772,0.01020643
4100.64447510,0.01025245
4102.57328247,0.01021126
4104.50208984,0.01019611
4106.43089722,0.01003664
4108.35970459,0.01013442
4110.28851196,0.01006296
4112.21731934,0.01012986
4114.14612671,0.01013653
4116.07493408,0.01003837
4118.00374145,0.01011747
4119.93254883,0.00996997
4121.86135620,0.01001844
4123.79016357,0.00997496
4125.71897095,0.00996990
4127.64777832,0.00993932
4129.57658569,0.00982273
4131.50539307,0.00982546
4133.43420044,0.00972128
4135.36300781,0.00984264
4137.29181519,0.00984891
4139.22062256,0.00976666
4141.14942993,0.00980169
4143.07823730,0.00982117
4145.00704468,0.00972026
4146.93585205,0.00965833
4148.86465942,0.00972474
4150.79346680,0.00967149
4152.72227417,0.00973040
4154.65108154,0.00967520
4156.57988892,0.00957858
4158.50869629,0.00956620
4160.43750366,0.00956544
4162.36631103,0.00949720
4164.29511841,0.00948791
4166.22392578,0.00966943
4168.15273315,0.00950423
4170.08154053,0.00942375
4172.01034790,0.00946149
4173.93915527,0.00947414
4175.86796265,0.00946272
4177.79677002,0.00938273
4179.72557739,0.00940584
4181.65438477,0.00925355
4183.58319214,0.00934016
4185.51199951,0.00933237
4187.44080688,0.00932085
4189.36961426,0.00939244
4191.29842163,0.00921367
4193.22722900,0.00931676
4195.15603638,0.00922679
4197.08484375,0.00916983
4199.01365112,0.00925125
4200.94245850,0.00913107
4202.87126587,0.00912722
4204.80007324,0.00914545
4206.72888062,0.00902131
4208.65768799,0.00893183
4210.58649536,0.00911405
4212.51530273,0.00912152
4214.44411011,0.00908776
4216.37291748,0.00905810
4218.30172485,0.00896130
4220.23053223,0.00897636
4222.15933960,0.00887984
4224.08814697,0.00896517
4226.01695435,0.00895205
4227.94576172,0.00883079
4229.87456909,0.00890084
4231.80337646,0.00889201
4233.73218384,0.00879989
4235.66099121,0.00884244
4237.58979858,0.00890094
4239.51860596,0.00872269
4241.44741333,0.00869905
4243.37622070,0.00871286
4245.30502808,0.00869505
4247.23383545,0.00873591
4249.16264282,0.00872774
4251.09145020,0.00869958
4253.02025757,0.00856361
4254.94906494,0.00862122
4256.87787231,0.00867444
4258.80667969,0.00864517
4260.73548706,0.00857137
4262.66429443,0.00855897
4264.59310181,0.00861547
4266.52190918,0.00844961
4268.45071655,0.00855369
4270.37952393,0.00854170
4272.30833130,0.00839741
4274.23713867,0.00848442
4276.16594604,0.00839300
4278.09475342,0.00838321
4280.02356079,0.00843355
4281.95236816,0.00841296
4283.88117554,0.00842872
4285.80998291,0.00839811
4287.73879028,0.00832904
4289.66759766,0.00834941
4291.59640503,0.00834445
4293.52521240,0.00829742
4295.45401978,0.00828897
4297.38282715,0.00819707
4299.31163452,0.00821037
4301.24044189,0.00819794
4303.16924927,0.00817592
4305.09805664,0.00817670
4307.02686401,0.00808991
4308.95567139,0.00816196
4310.88447876,0.00818064
4312.81328613,0.00815239
4314.74209351,0.00817332
4316.67090088,0.00811334
4318.59970825,0.00806950
4320.52851562,0.00801784
4322.45732300,0.00798438
4324.38613037,0.00806943
4326.31493774,0.00802594
4328.24374512,0.00790481
4330.17255249,0.00795911
4332.10135986,0.00795767
4334.03016724,0.00794646
4335.95897461,0.00788875
4337.88778198,0.00781817
4339.81658936,0.00784287
4341.74539673,0.00783791
4343.67420410,0.00784881
4345.60301147,0.00781614
4347.53181885,0.00785720
4349.46062622,0.00778179
4351.38943359,0.00775068
4353.31824097,0.00778033
4355.24704834,0.00766954
4357.17585571,0.00778268
4359.10466309,0.00774419
4361.03347046,0.00770011
4362.96227783,0.00767411
4364.89108520,0.00754514
4366.81989258,0.00767593
4368.74869995,0.00769303
4370.67750732,0.00762956
4372.60631470,0.00760295
4374.53512207,0.00756709
4376.46392944,0.00751024
4378.39273682,0.00746572
4380.32154419,0.00750064
4382.25035156,0.00746836
4384.17915894,0.00742312
4386.10796631,0.00745437
4388.03677368,0.00749802
4389.96558105,0.00740970
4391.89438843,0.00739191
4393.82319580,0.00733785
4395.75200317,0.00733701
4397.68081055,0.00745633
4399.60961792,0.00730865
4401.53842529,0.00725912
4403.46723267,0.00725832
4405.39604004,0.00726769
4407.32484741,0.00728931
4409.25365478,0.00720889
4411.18246216,0.00721059
4413.11126953,0.00718415
4415.04007690,0.00723842
4416.96888428,0.00719750
4418.89769165,0.00719058
4420.82649902,0.00725976
4422.75530640,0.00716023
4424.68411377,0.00716142
4426.61292114,0.00714444
4428.54172852,0.00702215
4430.47053589,0.00701118
4432.39934326,0.00709348
4434.32815063,0.00701866
4436.25695801,0.00702227
4438.18576538,0.00704130
4440.11457275,0.00694377
4442.04338013,0.00703234
4443.97218750,0.00698835
4445.90099487,0.00690080
4447.82980225,0.00687236
4449.75860962,0.00689029
4451.68741699,0.00693881
4453.61622437,0.00689975
4455.54503174,0.00692213
4457.47383911,0.00681039
4459.40264648,0.00677390
4461.33145386,0.00680466
4463.26026123,0.00678641
4465.18906860,0.00681307
4467.11787598,0.00674149
4469.04668335,0.00674360
4470.97549072,0.00672723
4472.90429810,0.00666271
4474.83310547,0.00669759
4476.76191284,0.00671237
4478.69072021,0.00662275
4480.61952759,0.00665958
4482.54833496,0.00670169
4484.47714233,0.00661168
4486.40594971,0.00661793
4488.33475708,0.00652680
4490.26356445,0.00657239
4492.19237183,0.00659632
4494.12117920,0.00648459
4496.04998657,0.00656972
4497.97879395,0.00648643
4499.90760132,0.00648315
4501.83640869,0.00651769
4503.76521606,0.00643499
4505.69402344,0.00647958
4507.62283081,0.00646660
4509.55163818,0.00652116
4511.48044556,0.00649378
4513.40925293,0.00636774
4515.33806030,0.00642493
4517.26686768,0.00644348
4519.19567505,0.00639383
4521.12448242,0.00640153
4523.05328979,0.00638987
4524.98209717,0.00633209
4526.91090454,0.00628353
4528.83971191,0.00630846
4530.76851929,0.00631706
4532.69732666,0.00623227
4534.62613403,0.00626947
4536.55494141,0.00632402
4538.48374878,0.00620057
4540.41255615,0.00621095
4542.34136353,0.00629858
4544.27017090,0.00617264
4546.19897827,0.00613147
4548.12778564,0.00620583
4550.05659302,0.00612818
4551.98540039,0.00607468
4553.91420776,0.00605127
4555.84301514,0.00604070
4557.77182251,0.00609662
4559.70062988,0.00607721
4561.62943726,0.00603348
4563.55824463,0.00600132
4565.48705200,0.00598178
4567.41585937,0.00600347
4569.34466675,0.00599745
4571.27347412,0.00598948
4573.20228149,0.00604160
4575.13108887,0.00595429
4577.05989624,0.00587805
4578.98870361,0.00596663
4580.91751099,0.00585199
4582.84631836,0.00578909
4584.77512573,0.00587734
4586.70393311,0.00592001
4588.63274048,0.00593442
4590.56154785,0.00581623
4592.49035522,0.00581585
4594.41916260,0.00585336
4596.34796997,0.00578188
4598.27677734,0.00575033
4600.20558472,0.00580956
4602.13439209,0.00577419
4604.06319946,0.00555854
4605.99200684,0.00563684
4607.92081421,0.00576034
4609.84962158,0.00569626
4611.77842895,0.00570701
4613.70723633,0.00568641
4615.63604370,0.00569410
4617.56485107,0.00561938
4619.49365845,0.00558385
4621.42246582,0.00563697
4623.35127319,0.00554855
4625.28008057,0.00557588
4627.20888794,0.00556795
4629.13769531,0.00553478
4631.06650269,0.00557763
4632.99531006,0.00546047
4634.92411743,0.00549994
4636.85292480,0.00552565
4638.78173218,0.00544765
4640.71053955,0.00552266
4642.63934692,0.00546040
4644.56815430,0.00541951
4646.49696167,0.00545503
4648.42576904,0.00542875
4650.35457642,0.00541320
4652.28338379,0.00536514
4654.21219116,0.00531666
4656.14099853,0.00532531
4658.06980591,0.00536066
4659.99861328,0.00529320
4661.92742065,0.00532542
4663.85622803,0.00534119
4665.78503540,0.00535127
4667.71384277,0.00540467
4669.64265015,0.00522648
4671.57145752,0.00530976
4673.50026489,0.00530329
4675.42907227,0.00517869
4677.35787964,0.00533296
4679.28668701,0.00521408
4681.21549438,0.00514953
4683.14430176,0.00519473
4685.07310913,0.00519778
4687.00191650,0.00524439
4688.93072388,0.00520281
4690.85953125,0.00520656
4692.78833862,0.00514796
4694.71714600,0.00511108
4696.64595337,0.00515979
4698.57476074,0.00514814
4700.50356812,0.00508732
4702.43237549,0.00505691
4704.36118286,0.00503764
4706.28999023,0.00505775
4708.21879761,0.00510547
4710.14760498,0.00499958
4712.07641235,0.00498935
4714.00521973,0.00507007
4715.93402710,0.00502852
4717.86283447,0.00496074
4719.79164185,0.00495004
4721.72044922,0.00496035
4723.64925659,0.00490339
4725.57806396,0.00495554
4727.50687134,0.00498534
4729.43567871,0.00483418
4731.36448608,0.00484240
4733.29329346,0.00494503
4735.22210083,0.00485049
4737.15090820,0.00486809
4739.07971558,0.00490889
4741.00852295,0.00479503
4742.93733032,0.00486698
4744.86613770,0.00479270
4746.79494507,0.00469161
4748.72375244,0.00479606
4750.65255981,0.00482107
4752.58136719,0.00482109
4754.51017456,0.00472145
4756.43898193,0.00470456
4758.36778931,0.00478605
4760.29659668,0.00479108
4762.22540405,0.00474240
4764.15421143,0.00474282
4766.08301880,0.00476066
4768.01182617,0.00466149
4769.94063354,0.00468438
4771.86944092,0.00470229
4773.79824829,0.00463693
4775.72705566,0.00459498
4777.65586304,0.00463454
4779.58467041,0.00467938
4781.51347778,0.00459443
4783.44228516,0.00458603
4785.37109253,0.00452938
4787.29989990,0.00452780
4789.22870728,0.00456158
4791.15751465,0.00452465
4793.08632202,0.00456704
4795.01512939,0.00455484
4796.94393677,0.00452375
4798.87274414,0.00447849
4800.80155151,0.00450220
4802.73035889,0.00449205
4804.65916626,0.00447343
4806.58797363,0.00450002
4808.51678101,0.00444279
4810.44558838,0.00444448
4812.37439575,0.00438984
4814.30320312,0.00441655
4816.23201050,0.00448080
4818.16081787,0.00445858
4820.08962524,0.00443781
4822.01843262,0.00435182
4823.94723999,0.00431615
4825.87604736,0.00432949
4827.80485474,0.00436788
4829.73366211,0.00432222
4831.66246948,0.00425184
4833.59127686,0.00422398
4835.52008423,0.00430216
4837.44889160,0.00436843
4839.37769897,0.00425732
4841.30650635,0.00425769
4843.23531372,0.00418545
4845.16412109,0.00417483
4847.09292847,0.00422612
4849.02173584,0.00415508
4850.95054321,0.00420549
4852.87935059,0.00418951
4854.80815796,0.00418364
4856.73696533,0.00418074
4858.66577270,0.00417892
4860.59458008,0.00420717
4862.52338745,0.00414608
4864.45219482,0.00410895
4866.38100220,0.00413355
4868.30980957,0.00416332
4870.23861694,0.00408704
4872.16742432,0.00411793
4874.09623169,0.00412996
4876.02503906,0.00410538
4877.95384644,0.00414638
4879.88265381,0.00403700
4881.81146118,0.00403066
4883.74026855,0.00403102
4885.66907593,0.00402926
4887.59788330,0.00404397
4889.52669067,0.00394136
4891.45549805,0.00395678
4893.38430542,0.00397384
4895.31311279,0.00394880
4897.24192017,0.00393815
4899.17072754,0.00392651
4901.09953491,0.00399532
4903.02834228,0.00398647
4904.95714966,0.00387355
4906.88595703,0.00386649
4908.81476440,0.00386088
4910.74357178,0.00385012
4912.67237915,0.00384554
4914.60118652,0.00381309
4916.52999390,0.00387975
4918.45880127,0.00382241
4920.38760864,0.00384300
4922.31641602,0.00392732
4924.24522339,0.00382502
4926.17403076,0.00384582
4928.10283813,0.00385377
4930.03164551,0.00377653
4931.96045288,0.00371513
4933.88926025,0.00371456
4935.81806763,0.00373624
4937.74687500,0.00373760
4939.67568237,0.00374319
4941.60448975,0.00368812
4943.53329712,0.00367856
4945.46210449,0.00364580
4947.39091187,0.00368930
4949.31971924,0.00374004
4951.24852661,0.00370402
4953.17733398,0.00369134
4955.10614136,0.00363163
4957.03494873,0.00367692
4958.96375610,0.00369655
4960.89256348,0.00362897
4962.82137085,0.00360480
4964.75017822,0.00361779
4966.67898560,0.00359695
4968.60779297,0.00361542
4970.53660034,0.00364884
4972.46540771,0.00359963
4974.39421509,0.00366329
4976.32302246,0.00354787
4978.25182983,0.00350446
4980.18063721,0.00358637
4982.10944458,0.00351055
4984.03825195,0.00359537
4985.96705933,0.00352630
4987.89586670,0.00347044
4989.82467407,0.00352491
4991.75348145,0.00351641
4993.68228882,0.00348141
4995.61109619,0.00337903
4997.53990356,0.00346908
4999.46871094,0.00346955
5001.39751831,0.00340946
5003.32632568,0.00343758
5005.25513306,0.00343180
5007.18394043,0.00343811
5009.11274780,0.00341924
5011.04155518,0.00340019
5012.97036255,0.00334232
5014.89916992,0.00336557
5016.82797729,0.00339903
5018.75678467,0.00337907
5020.68559204,0.00334819
5022.61439941,0.00336508
5024.54320679,0.00340093
5026.47201416,0.00336767
5028.40082153,0.00335603
5030.32962891,0.00325134
5032.25843628,0.00332656
5034.18724365,0.00335583
5036.11605103,0.00315615
5038.04485840,0.00321741
5039.97366577,0.00332775
5041.90247314,0.00330747
5043.83128052,0.00320139
5045.76008789,0.00319599
5047.68889526,0.00323852
5049.61770264,0.00323483
5051.54651001,0.00326288
5053.47531738,0.00320626
5055.40412476,0.00318517
5057.33293213,0.00317546
5059.26173950,0.00324286
5061.19054687,0.00323477
5063.11935425,0.00314500
5065.04816162,0.00315830
5066.97696899,0.00308573
5068.90577637,0.00308876
5070.83458374,0.00309513
5072.76339111,0.00313149
5074.69219849,0.00314869
5076.62100586,0.00303978
5078.54981323,0.00311015
5080.47862061,0.00309369
5082.40742798,0.00302745
5084.33623535,0.00307020
5086.26504272,0.00304821
5088.19385010,0.00310303
5090.12265747,0.00305369
5092.05146484,0.00296764
5093.98027222,0.00306232
5095.90907959,0.00302687
5097.83788696,0.00300205
5099.76669434,0.00300060
5101.69550171,0.00291910
5103.62430908,0.00297734
5105.55311645,0.00300762
5107.48192383,0.00302341
5109.41073120,0.00299629
5111.33953857,0.00295710
5113.26834595,0.00297186
5115.19715332,0.00292338
5117.12596069,0.00298321
5119.05476807,0.00298031
5120.98357544,0.00290085
5122.91238281,0.00287160
5124.84119019,0.00291119
5126.76999756,0.00295565
5128.69880493,0.00288358
5130.62761230,0.00288407
5132.55641968,0.00281528
5134.48522705,0.00282584
5136.41403442,0.00292905
5138.34284180,0.00283633
5140.27164917,0.00282610
5142.20045654,0.00283854
5144.12926392,0.00280268
5146.05807129,0.00286009
5147.98687866,0.00280437
5149.91568603,0.00272386
5151.84449341,0.00283564
5153.77330078,0.00280079
5155.70210815,0.00274037
5157.63091553,0.00282177
5159.55972290,0.00279321
5161.48853027,0.00277400
5163.41733765,0.00273399
5165.34614502,0.00278758
5167.27495239,0.00282763
5169.20375977,0.00276947
5171.13256714,0.00275839
5173.06137451,0.00268141
5174.99018188,0.00268600
5176.91898926,0.00265353
5178.84779663,0.00269933
5180.77660400,0.00273411
5182.70541138,0.00264361
5184.63421875,0.00265563
5186.56302612,0.00258811
5188.49183350,0.00263219
5190.42064087,0.00265967
5192.34944824,0.00267084
5194.27825562,0.00268375
5196.20706299,0.00256925
5198.13587036,0.00265787
5200.06467773,0.00264245
5201.99348511,0.00257485
5203.92229248,0.00260592
5205.85109985,0.00256032
5207.77990723,0.00260502
5209.70871460,0.00261977
5211.63752197,0.00253043
5213.56632935,0.00254147
5215.49513672,0.00261751
5217.42394409,0.00255653
5219.35275146,0.00250210
5221.28155884,0.00254333
5223.21036621,0.00255141
5225.13917358,0.00245123
5227.06798096,0.00243075
5228.99678833,0.00253858
5230.92559570,0.00250366
5232.85440308,0.00253733
5234.78321045,0.00259876
5236.71201782,0.00254628
5238.64082520,0.00249567
5240.56963257,0.00248179
5242.49843994,0.00247935
5244.42724731,0.00240349
5246.35605469,0.00246918
5248.28486206,0.00242134
5250.21366943,0.00232992
5252.14247681,0.00245923
5254.07128418,0.00243614
5256.00009155,0.00238492
5257.92889893,0.00239902
5259.85770630,0.00243976
5261.78651367,0.00238677
5263.71532104,0.00227867
5265.64412842,0.00230966
5267.57293579,0.00232701
5269.50174316,0.00240666
5271.43055054,0.00243479
5273.35935791,0.00242153
5275.28816528,0.00244254
5277.21697266,0.00239059
5279.14578003,0.00236288
5281.07458740,0.00233503
5283.00339478,0.00240898
5284.93220215,0.00239407
5286.86100952,0.00228444
5288.78981689,0.00236772
5290.71862427,0.00239467
5292.64743164,0.00236011
5294.57623901,0.00231821
5296.50504639,0.00229370
5298.43385376,0.00235862
5300.36266113,0.00233674
5302.29146851,0.00228081
5304.22027588,0.00229452
5306.14908325,0.00234802
5308.07789062,0.00229132
5310.00669800,0.00226632
5311.93550537,0.00236914
5313.86431274,0.00229707
5315.79312012,0.00227320
5317.72192749,0.00230111
5319.65073486,0.00222544
5321.57954224,0.00224637
5323.50834961,0.00226887
5325.43715698,0.00223480
5327.36596436,0.00212989
5329.29477173,0.00211336
5331.22357910,0.00220494
5333.15238647,0.00220582
5335.08119385,0.00222206
5337.01000122,0.00220522
5338.93880859,0.00210000
5340.86761597,0.00209178
5342.79642334,0.00220468
5344.72523071,0.00215865
5346.65403809,0.00208448
5348.58284546,0.00218290
5350.51165283,0.00218457
5352.44046020,0.00210505
5354.36926758,0.00209204
5356.29807495,0.00215935
5358.22688232,0.00213842
5360.15568970,0.00208598
5362.08449707,0.00208631
5364.01330444,0.00204091
5365.94211182,0.00212192
5367.87091919,0.00213999
5369.79972656,0.00207832
5371.72853394,0.00211915
5373.65734131,0.00212482
5375.58614868,0.00209666
5377.51495605,0.00208048
5379.44376343,0.00206894
5381.37257080,0.00209598
5383.30137817,0.00214739
5385.23018555,0.00206755
5387.15899292,0.00208004
5389.08780029,0.00210606
5391.01660767,0.00201995
5392.94541504,0.00209792
5394.87422241,0.00206814
5396.80302978,0.00201056
5398.73183716,0.00202902
5400.66064453,0.00203683
5402.58945190,0.00200127
5404.51825928,0.00195845
5406.44706665,0.00206180
5408.37587402,0.00197998
5410.30468140,0.00196453
5412.23348877,0.00199819
5414.16229614,0.00194273
5416.09110352,0.00201203
5418.01991089,0.00192243
5419.94871826,0.00196719
5421.87752563,0.00200780
5423.80633301,0.00189096
5425.73514038,0.00194448
5427.66394775,0.00196062
5429.59275513,0.00190268
5431.52156250,0.00190498
5433.45036987,0.00198997
5435.37917725,0.00191932
5437.30798462,0.00187624
5439.23679199,0.00196429
5441.16559936,0.00191417
5443.09440674,0.00190365
5445.02321411,0.00186784
5446.95202148,0.00184349
5448.88082886,0.00185327
5450.80963623,0.00184606
5452.73844360,0.00190585
5454.66725098,0.00187299
5456.59605835,0.00188540
5458.52486572,0.00185797
5460.45367310,0.00174666
5462.38248047,0.00183096
5464.31128784,0.00186912
5466.24009521,0.00185275
5468.16890259,0.00184472
5470.09770996,0.00174479
5472.02651733,0.00184102
5473.95532471,0.00185345
5475.88413208,0.00172485
5477.81293945,0.00184912
5479.74174683,0.00183233
5481.67055420,0.00175359
5483.59936157,0.00178969
5485.52816895,0.00173709
5487.45697632,0.00176724
5489.38578369,0.00180025
5491.31459106,0.00179605
5493.24339844,0.00174348
5495.17220581,0.00172039
5497.10101318,0.00180938
5499.02982056,0.00176093
5500.95862793,0.00170055
5502.88743530,0.00169707
5504.81624268,0.00170512
5506.74505005,0.00175389
5508.67385742,0.00176668
5510.60266479,0.00176300
5512.53147217,0.00172651
5514.46027954,0.00177100
5516.38908691,0.00176016
5518.31789429,0.00163815
5520.24670166,0.00170552
5522.17550903,0.00172837
5524.10431641,0.00164213
5526.03312378,0.00164589
5527.96193115,0.00168551
5529.89073853,0.00173430
5531.81954590,0.00166448
5533.74835327,0.00162541
5535.67716064,0.00166491
5537.60596802,0.00161953
5539.53477539,0.00167378
5541.46358276,0.00170752
5543.39239014,0.00167074
5545.32119751,0.00170645
5547.25000488,0.00162836
5549.17881226,0.00156668
5551.10761963,0.00163019
5553.03642700,0.00162062
5554.96523437,0.00160950
5556.89404175,0.00164414
5558.82284912,0.00165357
5560.75165649,0.00165049
5562.68046387,0.00159760
5564.60927124,0.00154247
5566.53807861,0.00156580
5568.46688599,0.00158716
5570.39569336,0.00157546
5572.32450073,0.00162186
5574.25330811,0.00162893
5576.18211548,0.00158427
5578.11092285,0.00161332
5580.03973022,0.00152702
5581.96853760,0.00150230
5583.89734497,0.00159472
5585.82615234,0.00150373
5587.75495972,0.00155481
5589.68376709,0.00160175
5591.61257446,0.00149287
5593.54138184,0.00153367
5595.47018921,0.00153803
5597.39899658,0.00155358
5599.32780395,0.00155383
5601.25661133,0.00151864
5603.18541870,0.00155452
5605.11422607,0.00149917
5607.04303345,0.00147640
5608.97184082,0.00148717
5610.90064819,0.00150466
5612.82945557,0.00148687
5614.75826294,0.00144981
5616.68707031,0.00153378
5618.61587769,0.00149361
5620.54468506,0.00145810
5622.47349243,0.00149092
5624.40229980,0.00147151
5626.33110718,0.00149456
5628.25991455,0.00144323
5630.18872192,0.00145360
5632.11752930,0.00146823
5634.04633667,0.00142102
5635.97514404,0.00145499
5637.90395142,0.00142448
5639.83275879,0.00136908
5641.76156616,0.00136962
5643.69037353,0.00146587
5645.61918091,0.00153669
5647.54798828,0.00145015
5649.47679565,0.00137618
5651.40560303,0.00140484
5653.33441040,0.00139727
5655.26321777,0.00135935
5657.19202515,0.00145995
5659.12083252,0.00141493
5661.04963989,0.00136676
5662.97844727,0.00144152
5664.90725464,0.00136502
5666.83606201,0.00143775
5668.76486938,0.00143855
5670.69367676,0.00137298
5672.62248413,0.00141324
5674.55129150,0.00133226
5676.48009888,0.00137781
5678.40890625,0.00136670
5680.33771362,0.00127532
5682.26652100,0.00132402
5684.19532837,0.00137577
5686.12413574,0.00139055
5688.05294311,0.00138050
5689.98175049,0.00130902
5691.91055786,0.00126600
5693.83936523,0.00137846
5695.76817261,0.00128349
5697.69697998,0.00126441
5699.62578735,0.00140747
5701.55459473,0.00129273
5703.48340210,0.00135045
5705.41220947,0.00133815
5707.34101685,0.00125563
5709.26982422,0.00132861
5711.19863159,0.00128461
5713.12743896,0.00136376
5715.05624634,0.00134571
5716.98505371,0.00123876
5718.91386108,0.00128675
5720.84266846,0.00128278
5722.77147583,0.00122331
5724.70028320,0.00120192
5726.62909058,0.00128352
5728.55789795,0.00131250
5730.48670532,0.00129598
5732.41551270,0.00129154
5734.34432007,0.00124342
5736.27312744,0.00127646
5738.20193481,0.00126608
5740.13074219,0.00120426
5742.05954956,0.00124370
5743.98835693,0.00124105
5745.91716431,0.00122595
5747.84597168,0.00125930
5749.77477905,0.00124173
5751.70358643,0.00123990
5753.63239380,0.00124055
5755.56120117,0.00123680
5757.49000854,0.00122456
5759.41881592,0.00119217
5761.34762329,0.00121446
5763.27643066,0.00121148
5765.20523804,0.00123047
5767.13404541,0.00122486
5769.06285278,0.00120120
5770.99166016,0.00123465
5772.92046753,0.00117046
5774.84927490,0.00116388
5776.77808228,0.00116901
5778.70688965,0.00113778
5780.63569702,0.00121144
5782.56450439,0.00120798
5784.49331177,0.00117445
5786.42211914,0.00114903
5788.35092651,0.00111972
5790.27973389,0.00115969
5792.20854126,0.00114341
5794.13734863,0.00110094
5796.06615601,0.00110897
5797.99496338,0.00109067
5799.92377075,0.00106787
5801.85257812,0.00109428
5803.78138550,0.00112042
5805.71019287,0.00114971
5807.63900024,0.00116040
5809.56780762,0.00114436
5811.49661499,0.00113230
5813.42542236,0.00106453
5815.35422974,0.00103788
5817.28303711,0.00104547
5819.21184448,0.00106963
5821.14065186,0.00111246
5823.06945923,0.00103003
5824.99826660,0.00106546
5826.92707397,0.00112310
5828.85588135,0.00104102
5830.78468872,0.00108017
5832.71349609,0.00107645
5834.64230347,0.00106130
5836.57111084,0.00108164
5838.49991821,0.00103623
5840.42872559,0.00101593
5842.35753296,0.00099270
5844.28634033,0.00102013
5846.21514770,0.00101941
5848.14395508,0.00105153
5850.07276245,0.00108332
5852.00156982,0.00099795
5853.93037720,0.00104701
5855.85918457,0.00107695
5857.78799194,0.00098181
5859.71679932,0.00099879
5861.64560669,0.00105503
5863.57441406,0.00100104
5865.50322144,0.00103596
5867.43202881,0.00105290
5869.36083618,0.00091026
5871.28964355,0.00099288
5873.21845093,0.00107717
5875.14725830,0.00102407
5877.07606567,0.00099823
5879.00487305,0.00093700
5880.93368042,0.00098345
5882.86248779,0.00099625
5884.79129517,0.00098510
5886.72010254,0.00099834
5888.64890991,0.00095938
5890.57771728,0.00099619
5892.50652466,0.00098467
5894.43533203,0.00095519
5896.36413940,0.00100724
5898.29294678,0.00095487
5900.22175415,0.00089903
5902.15056152,0.00097318
5904.07936890,0.00095962
5906.00817627,0.00093219
5907.93698364,0.00093705
5909.86579102,0.00092259
5911.79459839,0.00100158
5913.72340576,0.00098738
5915.65221313,0.00090619
5917.58102051,0.00091554
5919.50982788,0.00096264
5921.43863525,0.00095585
5923.36744263,0.00093337
5925.29625000,0.00091076
5927.22505737,0.00083466
5929.15386475,0.00088579
5931.08267212,0.00094168
5933.01147949,0.00087328
5934.94028686,0.00079262
5936.86909424,0.00088080
5938.79790161,0.00096944
5940.72670898,0.00085625
5942.65551636,0.00090965
5944.58432373,0.00093325
5946.51313110,0.00088863
5948.44193848,0.00091589
5950.37074585,0.00091744
5952.29955322,0.00094014
5954.22836060,0.00087009
5956.15716797,0.00090769
5958.08597534,0.00089773
5960.01478271,0.00083948
5961.94359009,0.00085660
5963.87239746,0.00083561
5965.80120483,0.00089546
5967.73001221,0.00083364
5969.65881958,0.00084872
5971.58762695,0.00088274
5973.51643433,0.00081441
5975.44524170,0.00087083
5977.37404907,0.00081789
5979.30285645,0.00078958
5981.23166382,0.00083891
5983.16047119,0.00079934
5985.08927856,0.00082917
5987.01808594,0.00088172
5988.94689331,0.00081005
5990.87570068,0.00084131
5992.80450806,0.00088229
5994.73331543,0.00079709
5996.66212280,0.00082057
5998.59093018,0.00080330
6000.51973755,0.00080741
