399.26312622,-0.00003051
401.19193359,0.00049606
403.12074097,0.00050194
405.04954834,0.00031794
406.97835571,0.00064762
408.90716309,0.00061778
410.83597046,0.00020672
412.76477783,-0.00000509
414.69358521,0.00024122
416.62239258,0.00050051
418.55119995,0.00064696
420.48000732,0.00048053
422.40881470,0.00019368
424.33762207,0.00018950
426.26642944,0.00019511
428.19523682,0.00007264
430.12404419,-0.00000199
432.05285156,0.00061103
433.98165894,0.00057329
435.91046631,0.00025796
437.83927368,0.00035437
439.76808105,0.00042056
441.69688843,0.00082288
443.62569580,0.00023543
445.55450317,0.00022321
447.48331055,0.00052478
449.41211792,0.00005109
451.34092529,0.00001295
453.26973267,-0.00023430
455.19854004,0.00033351
457.12734741,0.00044689
459.05615479,-0.00001319
460.98496216,0.00016585
462.91376953,0.00002518
464.84257690,0.00028608
466.77138428,0.00013387
468.70019165,-0.00002684
470.62899902,0.00021736
472.55780640,0.00035692
474.48661377,0.00058453
476.41542114,0.00037372
478.34422852,0.00014759
480.27303589,-0.00005392
482.20184326,0.00010795
484.13065063,0.00035580
486.05945801,0.00022617
487.98826538,-0.00008359
489.91707275,0.00009885
491.84588013,0.00027831
493.77468750,0.00014739
495.70349487,0.00079958
497.63230225,0.00054023
499.56110962,0.00019657
501.48991699,0.00033135
503.41872437,0.00023882
505.34753174,0.00048192
507.27633911,0.00006836
509.20514648,0.00036246
511.13395386,0.00047551
513.06276123,0.00001802
514.99156860,0.00033580
516.92037598,0.00054194
518.84918335,0.00050513
520.77799072,0.00004869
522.70679810,0.00034338
524.63560547,0.00036464
526.56441284,-0.00004235
528.49322021,0.00014326
530.42202759,-0.00022595
532.35083496,0.00024426
534.27964233,0.00052278
536.20844971,-0.00012532
538.13725708,0.00004105
540.06606445,0.00041100
541.99487183,0.00052146
543.92367920,0.00043492
545.85248657,0.00049646
547.78129395,0.00040474
549.71010132,0.00005429
551.63890869,0.00030676
553.56771606,0.00039273
555.49652344,0.00020957
557.42533081,0.00055944
559.35413818,0.00034161
561.28294556,-0.00007661
563.21175293,0.00018172
565.14056030,0.00030135
567.06936768,0.00049641
568.99817505,0.00046801
570.92698242,0.00033922
572.85578979,0.00066351
574.78459717,0.00055062
576.71340454,-0.00000093
578.64221191,-0.00009650
580.57101929,0.00012234
582.49982666,-0.00002382
584.42863403,-0.00003046
586.35744141,0.00033362
588.28624878,0.00043102
590.21505615,0.00028988
592.14386353,0.00027868
594.07267090,0.00018332
596.00147827,0.00009295
597.93028564,0.00012773
599.85909302,-0.00006357
601.78790039,-0.00008943
603.71670776,0.00023141
605.64551514,0.00044422
607.57432251,0.00036242
609.50312988,0.00043381
611.43193726,0.00058983
613.36074463,0.00014301
615.28955200,0.00014550
617.21835938,0.00039434
619.14716675,-0.00010728
621.07597412,0.00012601
623.00478149,0.00036639
624.93358887,0.00001836
626.86239624,0.00007623
628.79120361,0.00007443
630.72001099,0.00047820
632.64881836,0.00042778
634.57762573,-0.00029161
636.50643311,-0.00023856
638.43524048,0.00010443
640.36404785,0.00055697
642.29285522,0.00031610
644.22166260,-0.00011344
646.15046997,0.00031272
648.07927734,0.00038990
650.00808472,0.00027470
651.93689209,0.00036358
653.86569946,0.00036668
655.79450684,0.00048728
657.72331421,0.00048847
659.65212158,0.00022524
661.58092896,0.00032344
663.50973633,0.00032199
665.43854370,0.00009702
667.36735107,0.00043827
669.29615845,0.00044849
671.22496582,0.00022708
673.15377319,0.00032926
675.08258057,0.00031297
677.01138794,0.00052286
678.94019531,0.00036787
680.86900269,0.00020145
682.79781006,0.00080908
684.72661743,0.00060061
686.65542480,0.00011060
688.58423218,0.00044657
690.51303955,0.00049635
692.44184692,0.00036644
694.37065430,0.00043560
696.29946167,0.00043669
698.22826904,0.00054706
700.15707642,0.00070818
702.08588379,0.00085445
704.01469116,0.00093366
705.94349854,0.00068046
707.87230591,0.00064571
709.80111328,0.00058910
711.72992065,0.00025335
713.65872803,0.00048634
715.58753540,0.00025716
717.51634277,-0.00013209
719.44515015,0.00010512
721.37395752,-0.00010569
723.30276489,0.00003920
725.23157227,0.00046260
727.16037964,0.00005870
729.08918701,0.00030878
731.01799438,0.00041782
732.94680176,0.00004808
734.87560913,0.00028123
736.80441650,-0.00005639
738.73322388,0.00018700
740.66203125,0.00054347
742.59083862,0.00009960
744.51964600,0.00017886
746.44845337,0.00042801
748.37726074,0.00035688
750.30606812,0.00036877
752.23487549,0.00019851
754.16368286,0.00014008
756.09249023,0.00036961
758.02129761,0.00012630
759.95010498,0.00017297
761.87891235,0.00046954
763.80771973,0.00024588
765.73652710,0.00044440
767.66533447,0.00027081
769.59414185,-0.00008567
771.52294922,0.00043983
773.45175659,0.00029703
775.38056396,-0.00003397
777.30937134,0.00016296
779.23817871,0.00015196
781.16698608,0.00015589
783.09579346,0.00005671
785.02460083,0.00013485
786.95340820,0.00028343
788.88221558,0.00009146
790.81102295,0.00012837
792.73983032,0.00040523
794.66863770,0.00017524
796.59744507,-0.00003919
798.52625244,0.00018913
800.45505981,0.00024659
802.38386719,0.00038546
804.31267456,0.00020747
806.24148193,-0.00009766
808.17028931,0.00024473
810.09909668,0.00051112
812.02790405,0.00019567
813.95671143,-0.00001072
815.88551880,0.00022699
817.81432617,0.00015293
819.74313354,0.00018471
821.67194092,0.00044173
823.60074829,0.00016020
825.52955566,0.00014424
827.45836304,0.00039246
829.38717041,0.00030280
831.31597778,0.00053866
833.24478516,0.00073783
835.17359253,0.00036276
837.10239990,0.00038501
839.03120728,0.00051797
840.96001465,0.00033473
842.88882202,0.00054539
844.81762939,0.00069203
846.74643677,0.00040348
848.67524414,0.00011422
850.60405151,0.00021115
852.53285889,0.00036658
854.46166626,0.00039726
856.39047363,0.00029071
858.31928101,0.00004118
860.24808838,0.00018302
862.17689575,0.00023115
864.10570313,0.00041798
866.03451050,0.00035427
867.96331787,-0.00002889
869.89212524,0.00043648
871.82093262,0.00039515
873.74973999,0.00016272
875.67854736,0.00043396
877.60735474,0.00039042
879.53616211,0.00029019
881.46496948,0.00024828
883.39377686,0.00034151
885.32258423,0.00021208
887.25139160,0.00024993
889.18019897,0.00035368
891.10900635,0.00020815
893.03781372,0.00042251
894.96662109,0.00028479
896.89542847,0.00029200
898.82423584,0.00044704
900.75304321,0.00028943
902.68185059,0.00033635
904.61065796,0.00024483
906.53946533,0.00025980
908.46827271,0.00019674
910.39708008,0.00033734
912.32588745,0.00050908
914.25469482,0.00038904
916.18350220,0.00040392
918.11230957,0.00028446
920.04111694,0.00039806
921.96992432,0.00035154
923.89873169,0.00034083
925.82753906,0.00057749
927.75634644,0.00051677
929.68515381,0.00046458
931.61396118,0.00051605
933.54276855,0.00051337
935.47157593,0.00046116
937.40038330,0.00064171
939.32919067,0.00061419
941.25799805,0.00069646
943.18680542,0.00088165
945.11561279,0.00066813
947.04442017,0.00056786
948.97322754,0.00054635
950.90203491,0.00070946
952.83084229,0.00057610
954.75964966,0.00052157
956.68845703,0.00069461
958.61726440,0.00047963
960.54607178,0.00051437
962.47487915,0.00070265
964.40368652,0.00082685
966.33249390,0.00070553
968.26130127,0.00073799
970.19010864,0.00070853
972.11891602,0.00045640
974.04772339,0.00082507
975.97653076,0.00093906
977.90533813,0.00076825
979.83414551,0.00082913
981.76295288,0.00110034
983.69176025,0.00129636
985.62056763,0.00122615
987.54937500,0.00141184
989.47818237,0.00150176
991.40698975,0.00162138
993.33579712,0.00185905
995.26460449,0.00199459
997.19341187,0.00215813
999.12221924,0.00225479
1001.05102661,0.00236744
1002.97983398,0.00249018
1004.90864136,0.00267062
1006.83744873,0.00270458
1008.76625610,0.00276741
1010.69506348,0.00307087
1012.62387085,0.00329621
1014.55267822,0.00355223
1016.48148560,0.00387475
1018.41029297,0.00397304
1020.33910034,0.00412621
1022.26790771,0.00438945
1024.19671509,0.00432343
1026.12552246,0.00464536
1028.05432983,0.00495264
1029.98313721,0.00471198
1031.91194458,0.00484684
1033.84075195,0.00508063
1035.76955933,0.00525738
1037.69836670,0.00535879
1039.62717407,0.00540688
1041.55598145,0.00540069
1043.48478882,0.00529969
1045.41359619,0.00541814
1047.34240356,0.00529709
1049.27121094,0.00510645
1051.20001831,0.00499289
1053.12882568,0.00498410
1055.05763306,0.00495390
1056.98644043,0.00466875
1058.91524780,0.00461466
1060.84405518,0.00450971
1062.77286255,0.00441251
1064.70166992,0.00435351
1066.63047729,0.00422972
1068.55928467,0.00410870
1070.48809204,0.00377403
1072.41689941,0.00354593
1074.34570679,0.00348964
1076.27451416,0.00339894
1078.20332153,0.00319385
1080.13212891,0.00322958
1082.06093628,0.00296972
1083.98974365,0.00257144
1085.91855103,0.00277420
1087.84735840,0.00263299
1089.77616577,0.00248360
1091.70497314,0.00233517
1093.63378052,0.00225085
1095.56258789,0.00236853
1097.49139526,0.00212672
1099.42020264,0.00212748
1101.34901001,0.00200075
1103.27781738,0.00213057
1105.20662476,0.00228713
1107.13543213,0.00204912
1109.06423950,0.00201112
1110.99304687,0.00179105
1112.92185425,0.00176391
1114.85066162,0.00168606
1116.77946899,0.00203225
1118.70827637,0.00218781
1120.63708374,0.00174103
1122.56589111,0.00210336
1124.49469849,0.00201010
1126.42350586,0.00190848
1128.35231323,0.00209648
1130.28112061,0.00204027
1132.20992798,0.00233965
1134.13873535,0.00233418
1136.06754272,0.00239061
1137.99635010,0.00237702
1139.92515747,0.00246961
1141.85396484,0.00277037
1143.78277222,0.00282350
1145.71157959,0.00311108
1147.64038696,0.00315349
1149.56919434,0.00324927
1151.49800171,0.00337531
1153.42680908,0.00352210
1155.35561646,0.00393661
1157.28442383,0.00402592
1159.21323120,0.00421432
1161.14203857,0.00427569
1163.07084595,0.00435457
1164.99965332,0.00473995
1166.92846069,0.00484823
1168.85726807,0.00500559
1170.78607544,0.00525956
1172.71488281,0.00537763
1174.64369019,0.00548482
1176.57249756,0.00575259
1178.50130493,0.00603159
1180.43011230,0.00625958
1182.35891968,0.00655931
1184.28772705,0.00678690
1186.21653442,0.00721969
1188.14534180,0.00760793
1190.07414917,0.00776610
1192.00295654,0.00815481
1193.93176392,0.00851312
1195.86057129,0.00886919
1197.78937866,0.00920110
1199.71818604,0.00963609
1201.64699341,0.01030797
1203.57580078,0.01045609
1205.50460815,0.01086470
1207.43341553,0.01152055
1209.36222290,0.01166112
1211.29103027,0.01224373
1213.21983765,0.01260806
1215.14864502,0.01260987
1217.07745239,0.01315160
1219.00625977,0.01351846
1220.93506714,0.01361838
1222.86387451,0.01382847
1224.79268188,0.01392973
1226.72148926,0.01391954
1228.65029663,0.01392893
1230.57910400,0.01392897
1232.50791138,0.01401016
1234.43671875,0.01407086
1236.36552612,0.01421860
1238.29433350,0.01432552
1240.22314087,0.01416560
1242.15194824,0.01413008
1244.08075562,0.01397927
1246.00956299,0.01403777
1247.93837036,0.01411033
1249.86717773,0.01393233
1251.79598511,0.01398345
1253.72479248,0.01360258
1255.65359985,0.01341793
1257.58240723,0.01351292
1259.51121460,0.01326226
1261.44002197,0.01297127
1263.36882935,0.01260895
1265.29763672,0.01264641
1267.22644409,0.01263891
1269.15525146,0.01237738
1271.08405884,0.01236437
1273.01286621,0.01211876
1274.94167358,0.01172092
1276.87048096,0.01171556
1278.79928833,0.01160463
1280.72809570,0.01130001
1282.65690308,0.01122863
1284.58571045,0.01085114
1286.51451782,0.01050474
1288.44332520,0.01038101
1290.37213257,0.01039649
1292.30093994,0.01049384
1294.22974731,0.01020616
1296.15855469,0.01024479
1298.08736206,0.01023541
1300.01616943,0.01010697
1301.94497681,0.01030932
1303.87378418,0.01038321
1305.80259155,0.01042436
1307.73139893,0.01046591
1309.66020630,0.01076785
1311.58901367,0.01090457
1313.51782104,0.01112254
1315.44662842,0.01158250
1317.37543579,0.01154082
1319.30424316,0.01200927
1321.23305054,0.01255893
1323.16185791,0.01260774
1325.09066528,0.01322888
1327.01947266,0.01372905
1328.94828003,0.01390572
1330.87708740,0.01443315
1332.80589478,0.01478021
1334.73470215,0.01510825
1336.66350952,0.01507049
1338.59231689,0.01446930
1340.52112427,0.01484069
1342.44993164,0.01559708
1344.37873901,0.01577967
1346.30754639,0.01592287
1348.23635376,0.01579986
1350.16516113,0.01560150
1352.09396851,0.01562469
1354.02277588,0.01552939
1355.95158325,0.01547686
1357.88039062,0.01539701
1359.80919800,0.01501524
1361.73800537,0.01439427
1363.66681274,0.01421279
1365.59562012,0.01484045
1367.52442749,0.01464940
1369.45323486,0.01450620
1371.38204224,0.01487063
1373.31084961,0.01398205
1375.23965698,0.01387625
1377.16846436,0.01437731
1379.09727173,0.01442853
1381.02607910,0.01461311
1382.95488647,0.01448678
1384.88369385,0.01437490
1386.81250122,0.01386187
1388.74130859,0.01408594
1390.67011597,0.01512434
1392.59892334,0.01492126
1394.52773071,0.01399535
1396.45653809,0.01423992
1398.38534546,0.01449154
1400.31415283,0.01456931
1402.24296021,0.01563148
1404.17176758,0.01468541
1406.10057495,0.01453841
1408.02938232,0.01552759
1409.95818970,0.01489905
1411.88699707,0.01508731
1413.81580444,0.01471305
1415.74461182,0.01486885
1417.67341919,0.01358184
1419.60222656,0.01211484
1421.53103394,0.01395153
1423.45984131,0.01351386
1425.38864868,0.01305029
1427.31745605,0.01331084
1429.24626343,0.01220408
1431.17507080,0.01203207
1433.10387817,0.01232579
1435.03268555,0.01108455
1436.96149292,0.00932563
1438.89030029,0.01071895
1440.81910767,0.01106009
1442.74791504,0.01008830
1444.67672241,0.01069243
1446.60552979,0.01002800
1448.53433716,0.00995199
1450.46314453,0.01027249
1452.39195190,0.01065792
1454.32075928,0.01091426
1456.24956665,0.00898958
1458.17837402,0.00948266
1460.10718140,0.01255311
1462.03598877,0.01334841
1463.96479614,0.01339394
1465.89360352,0.01387511
1467.82241089,0.01562001
1469.75121826,0.01692247
1471.68002563,0.01504583
1473.60883301,0.01585902
1475.53764038,0.01808373
1477.46644775,0.01932104
1479.39525513,0.02124679
1481.32406250,0.02142706
1483.25286987,0.02286557
1485.18167725,0.02360718
1487.11048462,0.02309912
1489.03929199,0.02307638
1490.96809937,0.02309510
1492.89690674,0.02693721
1494.82571411,0.02651269
1496.75452148,0.02362631
1498.68332886,0.02663975
1500.61213623,0.02755298
1502.54094360,0.02935888
1504.46975098,0.02785530
1506.39855835,0.02028811
1508.32736572,0.02454155
1510.25617310,0.02890831
1512.18498047,0.02798034
1514.11378784,0.03025393
1516.04259521,0.02719115
1517.97140259,0.02847836
1519.90020996,0.02751261
1521.82901733,0.02382031
1523.75782471,0.02929931
1525.68663208,0.02860216
1527.61543945,0.02841180
1529.54424683,0.03143526
1531.47305420,0.03024347
1533.40186157,0.02771592
1535.33066895,0.02924650
1537.25947632,0.03123223
1539.18828369,0.02238078
1541.11709106,0.02344331
1543.04589844,0.02799406
1544.97470581,0.02691397
1546.90351318,0.03178401
1548.83232056,0.02957841
1550.76112793,0.03036329
1552.68993530,0.02996767
1554.61874268,0.02714767
1556.54755005,0.02900069
1558.47635742,0.02052306
1560.40516479,0.02197005
1562.33397217,0.03123540
1564.26277954,0.02950560
1566.19158691,0.03009826
1568.12039429,0.02982974
1570.04920166,0.02627184
1571.97800903,0.03027414
1573.90681641,0.03043536
1575.83562378,0.02395263
1577.76443115,0.02701044
1579.69323853,0.03007179
1581.62204590,0.02860194
1583.55085327,0.02928798
1585.47966064,0.02886046
1587.40846802,0.02879748
1589.33727539,0.02818606
1591.26608276,0.02808683
1593.19489014,0.02786194
1595.12369751,0.02734464
1597.05250488,0.02744327
1598.98131226,0.02696244
1600.91011963,0.02692962
1602.83892700,0.02630851
1604.76773437,0.02645760
1606.69654175,0.02550709
1608.62534912,0.02529254
1610.55415649,0.02507080
1612.48296387,0.02484166
1614.41177124,0.02510998
1616.34057861,0.02044358
1618.26938599,0.02188536
1620.19819336,0.02508395
1622.12700073,0.02208624
1624.05580811,0.02208218
1625.98461548,0.02296227
1627.91342285,0.02270028
1629.84223022,0.02239481
1631.77103760,0.02411224
1633.69984497,0.02237047
1635.62865234,0.01840201
1637.55745972,0.02162798
1639.48626709,0.02403647
1641.41507446,0.02349576
1643.34388184,0.02428691
1645.27268921,0.02208461
1647.20149658,0.01961764
1649.13030396,0.02477387
1651.05911133,0.02353372
1652.98791870,0.01535202
1654.91672607,0.02111312
1656.84553345,0.02662854
1658.77434082,0.02577187
1660.70314819,0.02675059
1662.63195557,0.02471420
1664.56076294,0.02640250
1666.48957031,0.02875140
1668.41837769,0.02523220
1670.34718506,0.02470531
1672.27599243,0.02850800
1674.20479980,0.02652035
1676.13360718,0.02580721
1678.06241455,0.03008136
1679.99122192,0.02940188
1681.92002930,0.02940955
1683.84883667,0.02409098
1685.77764404,0.02410901
1687.70645142,0.03334542
1689.63525879,0.02922814
1691.56406616,0.03235436
1693.49287354,0.03340986
1695.42168091,0.02463146
1697.35048828,0.03058045
1699.27929565,0.02715917
1701.20810303,0.02461311
1703.13691040,0.03383897
1705.06571777,0.03125186
1706.99452515,0.03189884
1708.92333252,0.03499025
1710.85213989,0.03375759
1712.78094727,0.03450375
1714.70975464,0.03217692
1716.63856201,0.02903934
1718.56736938,0.02877362
1720.49617676,0.03456515
1722.42498413,0.03610350
1724.35379150,0.03362364
1726.28259888,0.03677808
1728.21140625,0.03406760
1730.14021362,0.03452824
1732.06902100,0.03383627
1733.99782837,0.02588261
1735.92663574,0.03233948
1737.85544312,0.03578738
1739.78425049,0.03202340
1741.71305786,0.03513079
1743.64186523,0.03551006
1745.57067261,0.03584791
1747.49947998,0.03640258
1749.42828735,0.03484554
1751.35709473,0.03348617
1753.28590210,0.03714763
1755.21470947,0.03901368
1757.14351685,0.03554806
1759.07232422,0.03918894
1761.00113159,0.03696842
1762.92993896,0.03576893
1764.85874634,0.04115938
1766.78755371,0.03715821
1768.71636108,0.03764999
1770.64516846,0.03737534
1772.57397583,0.03370844
1774.50278320,0.03776029
1776.43159058,0.03991030
1778.36039795,0.03939928
1780.28920532,0.03890466
1782.21801270,0.03938676
1784.14682007,0.03935378
1786.07562744,0.03864298
1788.00443481,0.04076939
1789.93324219,0.03979319
1791.86204956,0.03596042
1793.79085693,0.03767325
1795.71966431,0.04068989
1797.64847168,0.04010941
1799.57727905,0.03966089
1801.50608643,0.03876157
1803.43489380,0.04012300
1805.36370117,0.04130442
1807.29250854,0.04042954
1809.22131592,0.04080210
1811.15012329,0.03979644
1813.07893066,0.04100512
1815.00773804,0.04132259
1816.93654541,0.04078630
1818.86535278,0.04127671
1820.79416016,0.04106304
1822.72296753,0.04162724
1824.65177490,0.03911906
1826.58058228,0.04053494
1828.50938965,0.04047605
1830.43819702,0.03819832
1832.36700439,0.04161888
1834.29581177,0.04128993
1836.22461914,0.04136742
1838.15342651,0.04120470
1840.08223389,0.04162536
1842.01104126,0.04151576
1843.93984863,0.03679585
1845.86865601,0.03948030
1847.79746338,0.04162592
1849.72627075,0.04083488
1851.65507812,0.04202788
1853.58388550,0.04132403
1855.51269287,0.04176907
1857.44150024,0.04134114
1859.37030762,0.04122268
1861.29911499,0.04149574
1863.22792236,0.04109400
1865.15672974,0.04168643
1867.08553711,0.04020697
1869.01434448,0.03855417
1870.94315186,0.04010569
1872.87195923,0.04162826
1874.80076660,0.04112332
1876.72957397,0.04134298
1878.65838135,0.04109686
1880.58718872,0.04096132
1882.51599609,0.04140349
1884.44480347,0.04072938
1886.37361084,0.04131220
1888.30241821,0.04044049
1890.23122559,0.03962654
1892.16003296,0.04103559
1894.08884033,0.04049227
1896.01764771,0.04031765
1897.94645508,0.04083785
1899.87526245,0.04070709
1901.80406982,0.04072015
1903.73287720,0.04051416
1905.66168457,0.04080371
1907.59049194,0.04036995
1909.51929932,0.04019076
1911.44810669,0.04044368
1913.37691406,0.04049104
1915.30572144,0.04089813
1917.23452881,0.03887638
1919.16333618,0.03900727
1921.09214355,0.04072208
1923.02095093,0.03933775
1924.94975830,0.04024483
1926.87856567,0.04076087
1928.80737305,0.04014802
1930.73618042,0.04060432
1932.66498779,0.04013816
1934.59379517,0.04047770
1936.52260254,0.04011272
1938.45140991,0.04038487
1940.38021729,0.04039887
1942.30902466,0.03896456
1944.23783203,0.03971609
1946.16663940,0.04030389
1948.09544678,0.04021877
1950.02425415,0.04022408
1951.95306152,0.04012870
1953.88186890,0.04016575
1955.81067627,0.03997869
1957.73948364,0.04026377
1959.66829102,0.04013909
1961.59709839,0.03995429
1963.52590576,0.04024073
1965.45471313,0.03990924
1967.38352051,0.03938122
1969.31232788,0.03985073
1971.24113525,0.04006588
1973.16994263,0.03974741
1975.09875000,0.03993967
1977.02755737,0.03969964
1978.95636475,0.03974086
1980.88517212,0.03980794
1982.81397949,0.03972455
1984.74278687,0.03986243
1986.67159424,0.03945584
1988.60040161,0.03946719
1990.52920898,0.03913522
1992.45801636,0.03872248
1994.38682373,0.03922223
1996.31563110,0.03935308
1998.24443848,0.03928655
2000.17324585,0.03923641
2002.10205322,0.03897897
2004.03086060,0.03896356
2005.95966797,0.03893045
2007.88847534,0.03874912
2009.81728271,0.03870036
2011.74609009,0.03862764
2013.67489746,0.03875894
2015.60370483,0.03845556
2017.53251221,0.03802457
2019.46131958,0.03826813
2021.39012695,0.03816475
2023.31893433,0.03816982
2025.24774170,0.03816611
2027.17654907,0.03792154
2029.10535645,0.03797075
2031.03416382,0.03795765
2032.96297119,0.03790644
2034.89177856,0.03762686
2036.82058594,0.03758700
2038.74939331,0.03760857
2040.67820068,0.03739841
2042.60700806,0.03736984
2044.53581543,0.03737592
2046.46462280,0.03745304
2048.39343018,0.03734064
2050.32223755,0.03717703
2052.25104492,0.03709789
2054.17985229,0.03707153
2056.10865967,0.03696191
2058.03746704,0.03684928
2059.96627441,0.03688804
2061.89508179,0.03668580
2063.82388916,0.03660765
2065.75269653,0.03658204
2067.68150391,0.03656152
2069.61031128,0.03660822
2071.53911865,0.03649872
2073.46792603,0.03633110
2075.39673340,0.03622201
2077.32554077,0.03640793
2079.25434814,0.03625491
2081.18315552,0.03606088
2083.11196289,0.03617353
2085.04077026,0.03597493
2086.96957764,0.03586117
2088.89838501,0.03590374
2090.82719238,0.03596917
2092.75599976,0.03588503
2094.68480713,0.03566831
2096.61361450,0.03568395
2098.54242187,0.03563017
2100.47122925,0.03557221
2102.40003662,0.03568915
2104.32884399,0.03560648
2106.25765137,0.03556418
2108.18645874,0.03568102
2110.11526611,0.03547657
2112.04407349,0.03540262
2113.97288086,0.03548899
2115.90168823,0.03534925
2117.83049561,0.03536063
2119.75930298,0.03531656
2121.68811035,0.03523036
2123.61691772,0.03522340
2125.54572510,0.03508629
2127.47453247,0.03513560
2129.40333984,0.03521621
2131.33214722,0.03519156
2133.26095459,0.03515143
2135.18976196,0.03499006
2137.11856934,0.03507089
2139.04737671,0.03509632
2140.97618408,0.03503079
2142.90499146,0.03517911
2144.83379883,0.03502825
2146.76260620,0.03494079
2148.69141357,0.03489520
2150.62022095,0.03483024
2152.54902832,0.03501348
2154.47783569,0.03488087
2156.40664307,0.03484797
2158.33545044,0.03495277
2160.26425781,0.03482732
2162.19306519,0.03483796
2164.12187256,0.03491132
2166.05067993,0.03490272
2167.97948730,0.03489441
2169.90829468,0.03479991
2171.83710205,0.03471285
2173.76590942,0.03489999
2175.69471680,0.03487338
2177.62352417,0.03476856
2179.55233154,0.03489620
2181.48113892,0.03482635
2183.40994629,0.03475096
2185.33875366,0.03474674
2187.26756104,0.03471240
2189.19636841,0.03467892
2191.12517578,0.03486980
2193.05398315,0.03493676
2194.98279053,0.03474372
2196.91159790,0.03477857
2198.84040527,0.03471243
2200.76921265,0.03469959
2202.69802002,0.03470739
2204.62682739,0.03474560
2206.55563477,0.03487789
2208.48444214,0.03476901
2210.41324951,0.03475459
2212.34205688,0.03475411
2214.27086426,0.03479751
2216.19967163,0.03477174
2218.12847900,0.03471886
2220.05728638,0.03477951
2221.98609375,0.03476823
2223.91490112,0.03483668
2225.84370850,0.03465114
2227.77251587,0.03464577
2229.70132324,0.03481989
2231.63013062,0.03464748
2233.55893799,0.03463619
2235.48774536,0.03470182
2237.41655273,0.03466655
2239.34536011,0.03467196
2241.27416748,0.03462082
2243.20297485,0.03452030
2245.13178223,0.03456816
2247.06058960,0.03461469
2248.98939697,0.03462756
2250.91820435,0.03464336
2252.84701172,0.03459118
2254.77581909,0.03462853
2256.70462646,0.03449640
2258.63343384,0.03445772
2260.56224121,0.03453886
2262.49104858,0.03444515
2264.41985596,0.03448542
2266.34866333,0.03452896
2268.27747070,0.03453481
2270.20627808,0.03448599
2272.13508545,0.03442512
2274.06389282,0.03446346
2275.99270020,0.03450459
2277.92150757,0.03450047
2279.85031494,0.03445742
2281.77912231,0.03443858
2283.70792969,0.03440804
2285.63673706,0.03449836
2287.56554443,0.03447907
2289.49435181,0.03435558
2291.42315918,0.03431412
2293.35196655,0.03421635
2295.28077393,0.03419814
2297.20958130,0.03412664
2299.13838867,0.03407281
2301.06719604,0.03394207
2302.99600342,0.03382603
2304.92481079,0.03382941
2306.85361816,0.03338017
2308.78242554,0.03315222
2310.71123291,0.03323893
2312.64004028,0.03288371
2314.56884766,0.03247844
2316.49765503,0.03211889
2318.42646240,0.03179013
2320.35526978,0.03137884
2322.28407715,0.03087422
2324.21288452,0.03064559
2326.14169189,0.03025699
2328.07049927,0.02991178
2329.99930664,0.02972716
2331.92811401,0.02942624
2333.85692139,0.02939706
2335.78572876,0.02922640
2337.71453613,0.02916126
2339.64334351,0.02922849
2341.57215088,0.02923595
2343.50095825,0.02975602
2345.42976562,0.03034044
2347.35857300,0.03165044
2349.28738037,0.03267150
2351.21618774,0.03153059
2353.14499512,0.02995706
2355.07380249,0.02883863
2357.00260986,0.02812149
2358.93141724,0.02767749
2360.86022461,0.02719971
2362.78903198,0.02729756
2364.71783936,0.02750506
2366.64664673,0.02780770
2368.57545410,0.02850229
2370.50426147,0.02910471
2372.43306885,0.02996961
2374.36187622,0.03090132
2376.29068359,0.03157799
2378.21949097,0.03229026
2380.14829834,0.03291434
2382.07710571,0.03346966
2384.00591309,0.03366951
2385.93472046,0.03375632
2387.86352783,0.03401227
2389.79233521,0.03385228
2391.72114258,0.03377435
2393.64994995,0.03386229
2395.57875732,0.03381446
2397.50756470,0.03382991
2399.43637207,0.03365286
2401.36517944,0.03359764
2403.29398682,0.03378606
2405.22279419,0.03387367
2407.15160156,0.03376669
2409.08040894,0.03362742
2411.00921631,0.03358439
2412.93802368,0.03354125
2414.86683105,0.03365219
2416.79563843,0.03367733
2418.72444580,0.03354025
2420.65325317,0.03348585
2422.58206055,0.03346254
2424.51086792,0.03355348
2426.43967529,0.03355175
2428.36848267,0.03342298
2430.29729004,0.03346288
2432.22609741,0.03342233
2434.15490479,0.03341268
2436.08371216,0.03353337
2438.01251953,0.03325064
2439.94132690,0.03323491
2441.87013428,0.03352789
2443.79894165,0.03334735
2445.72774902,0.03334400
2447.65655640,0.03342916
2449.58536377,0.03341062
2451.51417114,0.03333320
2453.44297852,0.03307572
2455.37178589,0.03321730
2457.30059326,0.03329808
2459.22940063,0.03311695
2461.15820801,0.03310738
2463.08701538,0.03314391
2465.01582275,0.03315560
2466.94463013,0.03304978
2468.87343750,0.03301106
2470.80224487,0.03305988
2472.73105225,0.03305442
2474.65985962,0.03297788
2476.58866699,0.03294143
2478.51747437,0.03296762
2480.44628174,0.03291090
2482.37508911,0.03301919
2484.30389648,0.03300642
2486.23270386,0.03284165
2488.16151123,0.03292201
2490.09031860,0.03293200
2492.01912598,0.03288075
2493.94793335,0.03279972
2495.87674072,0.03277428
2497.80554810,0.03285163
2499.73435547,0.03278856
2501.66316284,0.03281299
2503.59197021,0.03283433
2505.52077759,0.03275690
2507.44958496,0.03267092
2509.37839233,0.03259664
2511.30719971,0.03265936
2513.23600708,0.03268878
2515.16481445,0.03263184
2517.09362183,0.03257643
2519.02242920,0.03264805
2520.95123657,0.03260067
2522.88004395,0.03242169
2524.80885132,0.03249539
2526.73765869,0.03249212
2528.66646606,0.03244777
2530.59527344,0.03249498
2532.52408081,0.03251516
2534.45288818,0.03245523
2536.38169556,0.03233360
2538.31050293,0.03240212
2540.23931030,0.03230751
2542.16811768,0.03224488
2544.09692505,0.03242739
2546.02573242,0.03231579
2547.95453979,0.03217117
2549.88334717,0.03224901
2551.81215454,0.03222249
2553.74096191,0.03209205
2555.66976929,0.03214424
2557.59857666,0.03208733
2559.52738403,0.03189776
2561.45619141,0.03195395
2563.38499878,0.03203031
2565.31380615,0.03204300
2567.24261353,0.03200494
2569.17142090,0.03193181
2571.10022827,0.03192184
2573.02903564,0.03190148
2574.95784302,0.03182792
2576.88665039,0.03179991
2578.81545776,0.03183557
2580.74426514,0.03182126
2582.67307251,0.03177473
2584.60187988,0.03167249
2586.53068726,0.03160158
2588.45949463,0.03160693
2590.38830200,0.03169236
2592.31710937,0.03163523
2594.24591675,0.03145010
2596.17472412,0.03154267
2598.10353149,0.03156974
2600.03233887,0.03159259
2601.96114624,0.03156886
2603.88995361,0.03141912
2605.81876099,0.03146901
2607.74756836,0.03136791
2609.67637573,0.03139908
2611.60518311,0.03139898
2613.53399048,0.03122748
2615.46279785,0.03134615
2617.39160522,0.03131925
2619.32041260,0.03126069
2621.24921997,0.03127190
2623.17802734,0.03118612
2625.10683472,0.03119190
2627.03564209,0.03113273
2628.96444946,0.03102487
2630.89325684,0.03100027
2632.82206421,0.03092557
2634.75087158,0.03093137
2636.67967895,0.03103833
2638.60848633,0.03092333
2640.53729370,0.03080943
2642.46610107,0.03079190
2644.39490845,0.03072452
2646.32371582,0.03076056
2648.25252319,0.03077544
2650.18133057,0.03064569
2652.11013794,0.03051215
2654.03894531,0.03047701
2655.96775269,0.03052742
2657.89656006,0.03059565
2659.82536743,0.03049613
2661.75417480,0.03042718
2663.68298218,0.03043730
2665.61178955,0.03038920
2667.54059692,0.03046900
2669.46940430,0.03031603
2671.39821167,0.03020389
2673.32701904,0.03027016
2675.25582642,0.03017037
2677.18463379,0.03028559
2679.11344116,0.03027646
2681.04224854,0.03011407
2682.97105591,0.03009483
2684.89986328,0.03003202
2686.82867065,0.03000551
2688.75747803,0.02998941
2690.68628540,0.02995491
2692.61509277,0.02986943
2694.54390015,0.02978390
2696.47270752,0.02976018
2698.40151489,0.02979889
2700.33032227,0.02980087
2702.25912964,0.02966891
2704.18793701,0.02962489
2706.11674438,0.02969139
2708.04555176,0.02962393
2709.97435913,0.02941191
2711.90316650,0.02938461
2713.83197388,0.02940542
2715.76078125,0.02927087
2717.68958862,0.02915840
2719.61839600,0.02912953
2721.54720337,0.02927950
2723.47601074,0.02930161
2725.40481812,0.02910512
2727.33362549,0.02902865
2729.26243286,0.02907675
2731.19124023,0.02907746
2733.12004761,0.02899223
2735.04885498,0.02892624
2736.97766235,0.02883888
2738.90646973,0.02883837
2740.83527710,0.02880293
2742.76408447,0.02867961
2744.69289185,0.02869808
2746.62169922,0.02869542
2748.55050659,0.02865845
2750.47931396,0.02854729
2752.40812134,0.02844626
2754.33692871,0.02844441
2756.26573608,0.02843909
2758.19454346,0.02840833
2760.12335083,0.02824035
2762.05215820,0.02821806
2763.98096558,0.02818367
2765.90977295,0.02804025
2767.83858032,0.02814469
2769.76738770,0.02812310
2771.69619507,0.02791539
2773.62500244,0.02777139
2775.55380981,0.02778715
2777.48261719,0.02783858
2779.41142456,0.02772949
2781.34023193,0.02765104
2783.26903931,0.02755101
2785.19784668,0.02755049
2787.12665405,0.02755955
2789.05546143,0.02739313
2790.98426880,0.02734567
2792.91307617,0.02729994
2794.84188354,0.02729952
2796.77069092,0.02726429
2798.69949829,0.02708091
2800.62830566,0.02707952
2802.55711304,0.02710120
2804.48592041,0.02695736
2806.41472778,0.02685497
2808.34353516,0.02688672
2810.27234253,0.02676566
2812.20114990,0.02662347
2814.12995728,0.02662099
2816.05876465,0.02651907
2817.98757202,0.02648492
2819.91637939,0.02646119
2821.84518677,0.02641132
2823.77399414,0.02629283
2825.70280151,0.02614862
2827.63160889,0.02619968
2829.56041626,0.02609648
2831.48922363,0.02592757
2833.41803101,0.02588404
2835.34683838,0.02585374
2837.27564575,0.02571336
2839.20445312,0.02557328
2841.13326050,0.02563551
2843.06206787,0.02543395
2844.99087524,0.02519061
2846.91968262,0.02513560
2848.84848999,0.02492789
2850.77729736,0.02488538
2852.70610474,0.02490827
2854.63491211,0.02480207
2856.56371948,0.02479484
2858.49252686,0.02475657
2860.42133423,0.02468013
2862.35014160,0.02463600
2864.27894897,0.02451206
2866.20775635,0.02434514
2868.13656372,0.02425924
2870.06537109,0.02436242
2871.99417847,0.02435096
2873.92298584,0.02411826
2875.85179321,0.02401824
2877.78060059,0.02393078
2879.70940796,0.02381911
2881.63821533,0.02378058
2883.56702270,0.02376241
2885.49583008,0.02370267
2887.42463745,0.02369134
2889.35344482,0.02368948
2891.28225220,0.02348772
2893.21105957,0.02339491
2895.13986694,0.02328477
2897.06867432,0.02323677
2898.99748169,0.02322597
2900.92628906,0.02296025
2902.85509644,0.02291129
2904.78390381,0.02276596
2906.71271118,0.02266131
2908.64151855,0.02261822
2910.57032593,0.02238650
2912.49913330,0.02236439
2914.42794067,0.02208779
2916.35674805,0.02189571
2918.28555542,0.02194591
2920.21436279,0.02186028
2922.14317017,0.02180020
2924.07197754,0.02169211
2926.00078491,0.02161949
2927.92959229,0.02153951
2929.85839966,0.02161186
2931.78720703,0.02151519
2933.71601440,0.02127238
2935.64482178,0.02131913
2937.57362915,0.02119244
2939.50243652,0.02112440
2941.43124390,0.02115438
2943.36005127,0.02101047
2945.28885864,0.02093786
2947.21766602,0.02090309
2949.14647339,0.02078622
2951.07528076,0.02060961
2953.00408813,0.02052695
2954.93289551,0.02047369
2956.86170288,0.02030916
2958.79051025,0.02014520
2960.71931763,0.02011823
2962.64812500,0.02003555
2964.57693237,0.01985015
2966.50573975,0.01976188
2968.43454712,0.01971880
2970.36335449,0.01967056
2972.29216187,0.01963362
2974.22096924,0.01966383
2976.14977661,0.01955250
2978.07858398,0.01944670
2980.00739136,0.01950243
2981.93619873,0.01933299
2983.86500610,0.01918055
2985.79381348,0.01908377
2987.72262085,0.01892840
2989.65142822,0.01896548
2991.58023560,0.01893876
2993.50904297,0.01874145
2995.43785034,0.01864948
2997.36665771,0.01857457
2999.29546509,0.01850265
3001.22427246,0.01849737
3003.15307983,0.01833999
3005.08188721,0.01815360
3007.01069458,0.01795575
3008.93950195,0.01785120
3010.86830933,0.01780855
3012.79711670,0.01752191
3014.72592407,0.01745748
3016.65473145,0.01751754
3018.58353882,0.01735126
3020.51234619,0.01718816
3022.44115356,0.01713381
3024.36996094,0.01701599
3026.29876831,0.01684051
3028.22757568,0.01683058
3030.15638306,0.01664573
3032.08519043,0.01646902
3034.01399780,0.01643908
3035.94280518,0.01634409
3037.87161255,0.01623970
3039.80041992,0.01605546
3041.72922729,0.01603527
3043.65803467,0.01589201
3045.58684204,0.01568396
3047.51564941,0.01561000
3049.44445679,0.01557336
3051.37326416,0.01558319
3053.30207153,0.01525593
3055.23087891,0.01514488
3057.15968628,0.01515264
3059.08849365,0.01492681
3061.01730103,0.01484876
3062.94610840,0.01473520
3064.87491577,0.01467948
3066.80372314,0.01453828
3068.73253052,0.01436653
3070.66133789,0.01435828
3072.59014526,0.01427990
3074.51895264,0.01403899
3076.44776001,0.01388562
3078.37656738,0.01401423
3080.30537476,0.01383816
3082.23418213,0.01353954
3084.16298950,0.01350897
3086.09179687,0.01347404
3088.02060425,0.01336358
3089.94941162,0.01321043
3091.87821899,0.01313275
3093.80702637,0.01302806
3095.73583374,0.01297752
3097.66464111,0.01287573
3099.59344849,0.01274345
3101.52225586,0.01268621
3103.45106323,0.01247239
3105.37987061,0.01238924
3107.30867798,0.01231328
3109.23748535,0.01222075
3111.16629272,0.01215325
3113.09510010,0.01199738
3115.02390747,0.01196431
3116.95271484,0.01173527
3118.88152222,0.01157327
3120.81032959,0.01156416
3122.73913696,0.01140284
3124.66794434,0.01143938
3126.59675171,0.01133371
3128.52555908,0.01108473
3130.45436645,0.01111947
3132.38317383,0.01107886
3134.31198120,0.01097726
3136.24078857,0.01087202
3138.16959595,0.01063164
3140.09840332,0.01063226
3142.02721069,0.01066871
3143.95601807,0.01040037
3145.88482544,0.01030471
3147.81363281,0.01037410
3149.74244019,0.01021877
3151.67124756,0.01008542
3153.60005493,0.01004840
3155.52886230,0.00994550
3157.45766968,0.01000236
3159.38647705,0.00999052
3161.31528442,0.00976251
3163.24409180,0.00969048
3165.17289917,0.00964336
3167.10170654,0.00956736
3169.03051392,0.00958840
3170.95932129,0.00954331
3172.88812866,0.00937487
3174.81693604,0.00927930
3176.74574341,0.00926984
3178.67455078,0.00920737
3180.60335815,0.00917774
3182.53216553,0.00912755
3184.46097290,0.00905743
3186.38978027,0.00901963
3188.31858765,0.00896578
3190.24739502,0.00890084
3192.17620239,0.00886992
3194.10500977,0.00885742
3196.03381714,0.00872588
3197.96262451,0.00871280
3199.89143188,0.00870004
3201.82023926,0.00861207
3203.74904663,0.00873631
3205.67785400,0.00867353
3207.60666138,0.00853356
3209.53546875,0.00854896
3211.46427612,0.00853898
3213.39308350,0.00861212
3215.32189087,0.00858110
3217.25069824,0.00846294
3219.17950562,0.00848314
3221.10831299,0.00849301
3223.03712036,0.00847943
3224.96592773,0.00845448
3226.89473511,0.00839485
3228.82354248,0.00841743
3230.75234985,0.00839812
3232.68115723,0.00839462
3234.60996460,0.00840984
3236.53877197,0.00833421
3238.46757935,0.00841808
3240.39638672,0.00839677
3242.32519409,0.00831949
3244.25400146,0.00844263
3246.18280884,0.00843366
3248.11161621,0.00835085
3250.04042358,0.00833214
3251.96923096,0.00842820
3253.89803833,0.00845456
3255.82684570,0.00839199
3257.75565308,0.00845552
3259.68446045,0.00838442
3261.61326782,0.00837235
3263.54207520,0.00847846
3265.47088257,0.00840870
3267.39968994,0.00843121
3269.32849731,0.00849786
3271.25730469,0.00845482
3273.18611206,0.00841944
3275.11491943,0.00840235
3277.04372681,0.00848963
3278.97253418,0.00853739
3280.90134155,0.00851740
3282.83014893,0.00850021
3284.75895630,0.00849958
3286.68776367,0.00858076
3288.61657104,0.00855752
3290.54537842,0.00860367
3292.47418579,0.00855704
3294.40299316,0.00848013
3296.33180054,0.00861180
3298.26060791,0.00853735
3300.18941528,0.00859516
3302.11822266,0.00859371
3304.04703003,0.00851200
3305.97583740,0.00855850
3307.90464478,0.00846726
3309.83345215,0.00860664
3311.76225952,0.00863026
3313.69106689,0.00863884
3315.61987427,0.00864673
3317.54868164,0.00855091
3319.47748901,0.00870330
3321.40629639,0.00866829
3323.33510376,0.00870293
3325.26391113,0.00869326
3327.19271851,0.00861194
3329.12152588,0.00870829
3331.05033325,0.00866729
3332.97914062,0.00872928
3334.90794800,0.00877035
3336.83675537,0.00873854
3338.76556274,0.00870166
3340.69437012,0.00872014
3342.62317749,0.00884421
3344.55198486,0.00880195
3346.48079224,0.00878218
3348.40959961,0.00882989
3350.33840698,0.00875060
3352.26721436,0.00877635
3354.19602173,0.00890057
3356.12482910,0.00882148
3358.05363647,0.00886347
3359.98244385,0.00897783
3361.91125122,0.00895195
3363.84005859,0.00894890
3365.76886597,0.00889019
3367.69767334,0.00887895
3369.62648071,0.00893718
3371.55528809,0.00910058
3373.48409546,0.00904275
3375.41290283,0.00891975
3377.34171020,0.00902951
3379.27051758,0.00905558
3381.19932495,0.00914079
3383.12813232,0.00908241
3385.05693970,0.00909754
3386.98574707,0.00919035
3388.91455444,0.00924717
3390.84336182,0.00936352
3392.77216919,0.00920719
3394.70097656,0.00929646
3396.62978394,0.00941375
3398.55859131,0.00930760
3400.48739868,0.00935316
3402.41620605,0.00946048
3404.34501343,0.00948094
3406.27382080,0.00946847
3408.20262817,0.00954719
3410.13143555,0.00950403
3412.06024292,0.00954409
3413.98905029,0.00959637
3415.91785767,0.00967630
3417.84666504,0.00973057
3419.77547241,0.00965428
3421.70427979,0.00982672
3423.63308716,0.00992061
3425.56189453,0.00992393
3427.49070190,0.00984144
3429.41950928,0.00992114
3431.34831665,0.01007338
3433.27712402,0.01002758
3435.20593140,0.01008795
3437.13473877,0.01007601
3439.06354614,0.01024476
3440.99235352,0.01019396
3442.92116089,0.01016198
3444.84996826,0.01034397
3446.77877563,0.01012635
3448.70758301,0.01023495
3450.63639038,0.01049324
3452.56519775,0.01050774
3454.49400513,0.01044029
3456.42281250,0.01041086
3458.35161987,0.01053186
3460.28042725,0.01059861
3462.20923462,0.01058158
3464.13804199,0.01064092
3466.06684937,0.01072097
3467.99565674,0.01070103
3469.92446411,0.01083455
3471.85327148,0.01084621
3473.78207886,0.01084659
3475.71088623,0.01080398
3477.63969360,0.01078608
3479.56850098,0.01093041
3481.49730835,0.01076148
3483.42611572,0.01095259
3485.35492310,0.01106386
3487.28373047,0.01107694
3489.21253784,0.01113820
3491.14134521,0.01103352
3493.07015259,0.01137150
3494.99895996,0.01131661
3496.92776733,0.01131577
3498.85657471,0.01144962
3500.78538208,0.01142201
3502.71418945,0.01145927
3504.64299683,0.01138035
3506.57180420,0.01169791
3508.50061157,0.01160414
3510.42941895,0.01150211
3512.35822632,0.01177494
3514.28703369,0.01181392
3516.21584106,0.01184914
3518.14464844,0.01182149
3520.07345581,0.01195851
3522.00226318,0.01189420
3523.93107056,0.01180902
3525.85987793,0.01194752
3527.78868530,0.01192689
3529.71749268,0.01198716
3531.64630005,0.01221129
3533.57510742,0.01234039
3535.50391479,0.01225281
3537.43272217,0.01228943
3539.36152954,0.01239923
3541.29033691,0.01246184
3543.21914429,0.01248689
3545.14795166,0.01221381
3547.07675903,0.01201627
3549.00556641,0.01253308
3550.93437378,0.01270757
3552.86318115,0.01240557
3554.79198853,0.01275999
3556.72079590,0.01286748
3558.64960327,0.01282162
3560.57841064,0.01273875
3562.50721802,0.01276303
3564.43602539,0.01295437
3566.36483276,0.01202916
3568.29364014,0.01180637
3570.22244751,0.01285248
3572.15125488,0.01320672
3574.08006226,0.01306809
3576.00886963,0.01319744
3577.93767700,0.01328294
3579.86648437,0.01327818
3581.79529175,0.01337123
3583.72409912,0.01345865
3585.65290649,0.01316915
3587.58171387,0.01214820
3589.51052124,0.01251863
3591.43932861,0.01363461
3593.36813599,0.01334233
3595.29694336,0.01315761
3597.22575073,0.01346861
3599.15455811,0.01362241
3601.08336548,0.01342219
3603.01217285,0.01365269
3604.94098022,0.01400492
3606.86978760,0.01357927
3608.79859497,0.01281147
3610.72740234,0.01311682
3612.65620972,0.01350870
3614.58501709,0.01304058
3616.51382446,0.01408135
3618.44263184,0.01307645
3620.37143921,0.01262751
3622.30024658,0.01438844
3624.22905395,0.01395677
3626.15786133,0.01473375
3628.08666870,0.01257807
3630.01547607,0.01144575
3631.94428345,0.01446375
3633.87309082,0.01418101
3635.80189819,0.01452667
3637.73070557,0.01475439
3639.65951294,0.01464212
3641.58832031,0.01481135
3643.51712769,0.01454396
3645.44593506,0.01484209
3647.37474243,0.01342794
3649.30354980,0.01246395
3651.23235718,0.01259763
3653.16116455,0.01496129
3655.08997192,0.01490174
3657.01877930,0.01332176
3658.94758667,0.01547547
3660.87639404,0.01522786
3662.80520142,0.01545771
3664.73400879,0.01546706
3666.66281616,0.01530937
3668.59162354,0.01499730
3670.52043091,0.01220045
3672.44923828,0.01481832
3674.37804565,0.01431277
3676.30685303,0.01180928
3678.23566040,0.01494946
3680.16446777,0.01532969
3682.09327515,0.01539274
3684.02208252,0.01604269
3685.95088989,0.01564198
3687.87969727,0.01409331
3689.80850464,0.01304689
3691.73731201,0.01488066
3693.66611938,0.01539442
3695.59492676,0.01575479
3697.52373413,0.01577027
3699.45254150,0.01561972
3701.38134888,0.01531093
3703.31015625,0.01478565
3705.23896362,0.01617493
3707.16777100,0.01552100
3709.09657837,0.01523112
3711.02538574,0.01427491
3712.95419312,0.01332679
3714.88300049,0.01565479
3716.81180786,0.01550521
3718.74061523,0.01552520
3720.66942261,0.01516860
3722.59822998,0.01476957
3724.52703735,0.01527546
3726.45584473,0.01420980
3728.38465210,0.01549540
3730.31345947,0.01522861
3732.24226685,0.01403842
3734.17107422,0.01373587
3736.09988159,0.01304443
3738.02868896,0.01384766
3739.95749634,0.01491329
3741.88630371,0.01574972
3743.81511108,0.01228903
3745.74391846,0.01148408
3747.67272583,0.01495995
3749.60153320,0.01278055
3751.53034058,0.01179998
3753.45914795,0.01364401
3755.38795532,0.01467728
3757.31676270,0.01528883
3759.24557007,0.01399797
3761.17437744,0.01460355
3763.10318481,0.01567257
3765.03199219,0.01453051
3766.96079956,0.01479855
3768.88960693,0.01467555
3770.81841431,0.01404115
3772.74722168,0.01511898
3774.67602905,0.01518118
3776.60483643,0.01519265
3778.53364380,0.01474652
3780.46245117,0.01425009
3782.39125854,0.01510940
3784.32006592,0.01478110
3786.24887329,0.01467688
3788.17768066,0.01500491
3790.10648804,0.01504922
3792.03529541,0.01480119
3793.96410278,0.01512137
3795.89291016,0.01429875
3797.82171753,0.01408378
3799.75052490,0.01495868
3801.67933228,0.01172486
3803.60813965,0.01376323
3805.53694702,0.01503617
3807.46575439,0.01215340
3809.39456177,0.01479556
3811.32336914,0.01447548
3813.25217651,0.01499698
3815.18098389,0.01356172
3817.10979126,0.01184419
3819.03859863,0.01502930
3820.96740601,0.01202158
3822.89621338,0.01274404
3824.82502075,0.01508226
3826.75382812,0.01355076
3828.68263550,0.01461058
3830.61144287,0.01403527
3832.54025024,0.01342636
3834.46905762,0.01380277
3836.39786499,0.01328709
3838.32667236,0.01188520
3840.25547974,0.01281265
3842.18428711,0.01395376
3844.11309448,0.01318520
3846.04190186,0.01426727
3847.97070923,0.01417492
3849.89951660,0.01414382
3851.82832397,0.01274249
3853.75713135,0.00952365
3855.68593872,0.01123683
3857.61474609,0.01416829
3859.54355347,0.01374572
3861.47236084,0.01359843
3863.40116821,0.01338245
3865.32997559,0.01232123
3867.25878296,0.01384309
3869.18759033,0.01269672
3871.11639770,0.01174227
3873.04520508,0.01405486
3874.97401245,0.01272816
3876.90281982,0.01375586
3878.83162720,0.01413087
3880.76043457,0.01199241
3882.68924194,0.01390564
3884.61804932,0.01298816
3886.54685669,0.01188937
3888.47566406,0.01404626
3890.40447144,0.01329314
3892.33327881,0.01240183
3894.26208618,0.01357619
3896.19089355,0.01383287
3898.11970093,0.01312733
3900.04850830,0.01243692
3901.97731567,0.01231083
3903.90612305,0.01212876
3905.83493042,0.01237740
3907.76373779,0.01356705
3909.69254517,0.01356344
3911.62135254,0.01348625
3913.55015991,0.01364731
3915.47896728,0.01320375
3917.40777466,0.01288581
3919.33658203,0.01274813
3921.26538940,0.01329965
3923.19419678,0.01319221
3925.12300415,0.01295231
3927.05181152,0.01323241
3928.98061890,0.01332264
3930.90942627,0.01310770
3932.83823364,0.01255680
3934.76704102,0.01310427
3936.69584839,0.01327270
3938.62465576,0.01310358
3940.55346313,0.01329173
3942.48227051,0.01274909
3944.41107788,0.01287246
3946.33988525,0.01305051
3948.26869263,0.01267658
3950.19750000,0.01268432
3952.12630737,0.01292765
3954.05511475,0.01298917
3955.98392212,0.01289181
3957.91272949,0.01287037
3959.84153687,0.01283793
3961.77034424,0.01275884
3963.69915161,0.01277182
3965.62795898,0.01291295
3967.55676636,0.01275814
3969.48557373,0.01271829
3971.41438110,0.01281078
3973.34318848,0.01273357
3975.27199585,0.01270823
3977.20080322,0.01267460
3979.12961060,0.01271059
3981.05841797,0.01265537
3982.98722534,0.01279398
3984.91603271,0.01272087
3986.84484009,0.01259043
3988.77364746,0.01265224
3990.70245483,0.01249215
3992.63126221,0.01257565
3994.56006958,0.01243707
3996.48887695,0.01247391
3998.41768433,0.01258208
4000.34649170,0.01240036
4002.27529907,0.01246467
4004.20410645,0.01238897
4006.13291382,0.01236478
4008.06172119,0.01232750
4009.99052856,0.01236906
4011.91933594,0.01236378
4013.84814331,0.01224753
4015.77695068,0.01228035
4017.70575806,0.01220086
4019.63456543,0.01225780
4021.56337280,0.01224555
4023.49218018,0.01221953
4025.42098755,0.01222273
4027.34979492,0.01211747
4029.27860229,0.01205282
4031.20740967,0.01205228
4033.13621704,0.01210229
4035.06502441,0.01203120
4036.99383179,0.01200889
4038.92263916,0.01200823
4040.85144653,0.01205259
4042.78025391,0.01197778
4044.70906128,0.01188673
4046.63786865,0.01193442
4048.56667603,0.01189945
4050.49548340,0.01194445
4052.42429077,0.01184279
4054.35309814,0.01187102
4056.28190552,0.01187974
4058.21071289,0.01173920
4060.13952026,0.01184550
4062.06832764,0.01182977
4063.99713501,0.01177309
4065.92594238,0.01168214
4067.85474976,0.01163247
4069.78355713,0.01166144
4071.71236450,0.01161665
4073.64117187,0.01161075
4075.56997925,0.01157241
4077.49878662,0.01152858
4079.42759399,0.01148801
4081.35640137,0.01150229
4083.28520874,0.01151596
4085.21401611,0.01146898
4087.14282349,0.01144858
4089.07163086,0.01149969
4091.00043823,0.01143813
4092.92924561,0.01140453
4094.85805298,0.01144428
4096.78686035,0.01132364
4098.71566772,0.01141546
4100.64447510,0.01139967
4102.57328247,0.01130665
4104.50208984,0.01133642
4106.43089722,0.01119200
4108.35970459,0.01120632
4110.28851196,0.01122940
4112.21731934,0.01120677
4114.14612671,0.01117763
4116.07493408,0.01119452
4118.00374145,0.01122642
4119.93254883,0.01109429
4121.86135620,0.01111363
4123.79016357,0.01113127
4125.71897095,0.01106895
4127.64777832,0.01104871
4129.57658569,0.01101654
4131.50539307,0.01096007
4133.43420044,0.01089470
4135.36300781,0.01087229
4137.29181519,0.01090189
4139.22062256,0.01088439
4141.14942993,0.01087792
4143.07823730,0.01095748
4145.00704468,0.01080480
4146.93585205,0.01076397
4148.86465942,0.01076142
4150.79346680,0.01069616
4152.72227417,0.01086221
4154.65108154,0.01070339
4156.57988892,0.01059761
4158.50869629,0.01065515
4160.43750366,0.01056297
4162.36631103,0.01058778
4164.29511841,0.01061520
4166.22392578,0.01060117
4168.15273315,0.01056830
4170.08154053,0.01052998
4172.01034790,0.01043745
4173.93915527,0.01052514
4175.86796265,0.01060283
4177.79677002,0.01049058
4179.72557739,0.01047406
4181.65438477,0.01039246
4183.58319214,0.01042303
4185.51199951,0.01046064
4187.44080688,0.01035590
4189.36961426,0.01032615
4191.29842163,0.01031012
4193.22722900,0.01028900
4195.15603638,0.01032104
4197.08484375,0.01026827
4199.01365112,0.01017475
4200.94245850,0.01031492
4202.87126587,0.01026929
4204.80007324,0.01018925
4206.72888062,0.01023224
4208.65768799,0.01007627
4210.58649536,0.01012062
4212.51530273,0.01017543
4214.44411011,0.01012440
4216.37291748,0.01013437
4218.30172485,0.01010376
4220.23053223,0.01008110
4222.15933960,0.01004004
4224.08814697,0.01000601
4226.01695435,0.01000706
4227.94576172,0.01002759
4229.87456909,0.00995013
4231.80337646,0.00985889
4233.73218384,0.00984516
4235.66099121,0.00986699
4237.58979858,0.00984338
4239.51860596,0.00981001
4241.44741333,0.00984709
4243.37622070,0.00980104
4245.30502808,0.00982693
4247.23383545,0.00982587
4249.16264282,0.00970384
4251.09145020,0.00961655
4253.02025757,0.00962278
4254.94906494,0.00972264
4256.87787231,0.00966703
4258.80667969,0.00962431
4260.73548706,0.00965932
4262.66429443,0.00964926
4264.59310181,0.00964165
4266.52190918,0.00963431
4268.45071655,0.00956622
4270.37952393,0.00951089
4272.30833130,0.00960420
4274.23713867,0.00954011
4276.16594604,0.00949441
4278.09475342,0.00949462
4280.02356079,0.00934994
4281.95236816,0.00938150
4283.88117554,0.00945077
4285.80998291,0.00942106
4287.73879028,0.00935087
4289.66759766,0.00931551
4291.59640503,0.00930144
4293.52521240,0.00930598
4295.45401978,0.00931024
4297.38282715,0.00924491
4299.31163452,0.00930294
4301.24044189,0.00928122
4303.16924927,0.00918371
4305.09805664,0.00919658
4307.02686401,0.00916917
4308.95567139,0.00914327
4310.88447876,0.00908939
4312.81328613,0.00908867
4314.74209351,0.00911408
4316.67090088,0.00900203
4318.59970825,0.00903689
4320.52851562,0.00906348
4322.45732300,0.00894525
4324.38613037,0.00901124
4326.31493774,0.00900009
4328.24374512,0.00893619
4330.17255249,0.00888542
4332.10135986,0.00884126
4334.03016724,0.00895022
4335.95897461,0.00891363
4337.88778198,0.00896247
4339.81658936,0.00891564
4341.74539673,0.00874012
4343.67420410,0.00880226
4345.60301147,0.00877562
4347.53181885,0.00879541
4349.46062622,0.00880494
4351.38943359,0.00878760
4353.31824097,0.00879063
4355.24704834,0.00870254
4357.17585571,0.00867611
4359.10466309,0.00866137
4361.03347046,0.00869341
4362.96227783,0.00866101
4364.89108520,0.00860093
4366.81989258,0.00858225
4368.74869995,0.00858685
4370.67750732,0.00852530
4372.60631470,0.00850128
4374.53512207,0.00860475
4376.46392944,0.00843139
4378.39273682,0.00841260
4380.32154419,0.00852033
4382.25035156,0.00843641
4384.17915894,0.00844591
4386.10796631,0.00842328
4388.03677368,0.00842771
4389.96558105,0.00841892
4391.89438843,0.00837946
4393.82319580,0.00830057
4395.75200317,0.00827740
4397.68081055,0.00835210
4399.60961792,0.00826536
4401.53842529,0.00819544
4403.46723267,0.00820997
4405.39604004,0.00823592
4407.32484741,0.00819064
4409.25365478,0.00815401
4411.18246216,0.00820001
4413.11126953,0.00820034
4415.04007690,0.00811700
4416.96888428,0.00804896
4418.89769165,0.00806696
4420.82649902,0.00803010
4422.75530640,0.00811848
4424.68411377,0.00808193
4426.61292114,0.00799760
4428.54172852,0.00811529
4430.47053589,0.00801117
4432.39934326,0.00800255
4434.32815063,0.00799698
4436.25695801,0.00796235
4438.18576538,0.00799529
4440.11457275,0.00784379
4442.04338013,0.00787012
4443.97218750,0.00788703
4445.90099487,0.00784018
4447.82980225,0.00784820
4449.75860962,0.00781278
4451.68741699,0.00784184
4453.61622437,0.00782178
4455.54503174,0.00778842
4457.47383911,0.00771799
4459.40264648,0.00771357
4461.33145386,0.00776070
4463.26026123,0.00769246
4465.18906860,0.00768897
4467.11787598,0.00767496
4469.04668335,0.00770511
4470.97549072,0.00773391
4472.90429810,0.00760850
4474.83310547,0.00761173
4476.76191284,0.00763875
4478.69072021,0.00754755
4480.61952759,0.00752731
4482.54833496,0.00754596
4484.47714233,0.00746174
4486.40594971,0.00746669
4488.33475708,0.00756329
4490.26356445,0.00747441
4492.19237183,0.00748921
4494.12117920,0.00747851
4496.04998657,0.00738409
4497.97879395,0.00744575
4499.90760132,0.00740521
4501.83640869,0.00741088
4503.76521606,0.00733927
4505.69402344,0.00729504
4507.62283081,0.00732880
4509.55163818,0.00726393
4511.48044556,0.00733760
4513.40925293,0.00724156
4515.33806030,0.00723257
4517.26686768,0.00727036
4519.19567505,0.00721185
4521.12448242,0.00723014
4523.05328979,0.00710845
4524.98209717,0.00719580
4526.91090454,0.00718523
4528.83971191,0.00708551
4530.76851929,0.00713422
4532.69732666,0.00704966
4534.62613403,0.00705680
4536.55494141,0.00706713
4538.48374878,0.00699657
4540.41255615,0.00699996
4542.34136353,0.00707610
4544.27017090,0.00702927
4546.19897827,0.00701360
4548.12778564,0.00697727
4550.05659302,0.00687715
4551.98540039,0.00700306
4553.91420776,0.00698674
4555.84301514,0.00694057
4557.77182251,0.00695469
4559.70062988,0.00696363
4561.62943726,0.00695296
4563.55824463,0.00685428
4565.48705200,0.00684517
4567.41585937,0.00679242
4569.34466675,0.00681011
4571.27347412,0.00678224
4573.20228149,0.00682799
4575.13108887,0.00683970
4577.05989624,0.00671808
4578.98870361,0.00679688
4580.91751099,0.00670562
4582.84631836,0.00667536
4584.77512573,0.00665892
4586.70393311,0.00666436
4588.63274048,0.00671940
4590.56154785,0.00657925
4592.49035522,0.00663265
4594.41916260,0.00663333
4596.34796997,0.00662439
4598.27677734,0.00659427
4600.20558472,0.00656023
4602.13439209,0.00660009
4604.06319946,0.00649954
4605.99200684,0.00651385
4607.92081421,0.00648070
4609.84962158,0.00643438
4611.77842895,0.00640297
4613.70723633,0.00643649
4615.63604370,0.00649182
4617.56485107,0.00644503
4619.49365845,0.00651385
4621.42246582,0.00641472
4623.35127319,0.00630224
4625.28008057,0.00634261
4627.20888794,0.00639897
4629.13769531,0.00637339
4631.06650269,0.00630895
4632.99531006,0.00632447
4634.92411743,0.00627476
4636.85292480,0.00631365
4638.78173218,0.00626741
4640.71053955,0.00620168
4642.63934692,0.00625124
4644.56815430,0.00620074
4646.49696167,0.00624161
4648.42576904,0.00631713
4650.35457642,0.00622701
4652.28338379,0.00608303
4654.21219116,0.00612453
4656.14099853,0.00611356
4658.06980591,0.00601952
4659.99861328,0.00611839
4661.92742065,0.00611440
4663.85622803,0.00599691
4665.78503540,0.00604328
4667.71384277,0.00612360
4669.64265015,0.00612965
4671.57145752,0.00610389
4673.50026489,0.00594150
4675.42907227,0.00592366
4677.35787964,0.00597818
4679.28668701,0.00590550
4681.21549438,0.00600017
4683.14430176,0.00598880
4685.07310913,0.00592736
4687.00191650,0.00591295
4688.93072388,0.00587952
4690.85953125,0.00590150
4692.78833862,0.00586680
4694.71714600,0.00588202
4696.64595337,0.00577132
4698.57476074,0.00573271
4700.50356812,0.00586326
4702.43237549,0.00580590
4704.36118286,0.00574531
4706.28999023,0.00581875
4708.21879761,0.00586540
4710.14760498,0.00576046
4712.07641235,0.00569140
4714.00521973,0.00573213
4715.93402710,0.00570902
4717.86283447,0.00565444
4719.79164185,0.00571748
4721.72044922,0.00570863
4723.64925659,0.00559716
4725.57806396,0.00565309
4727.50687134,0.00565641
4729.43567871,0.00561337
4731.36448608,0.00564134
4733.29329346,0.00564603
4735.22210083,0.00560488
4737.15090820,0.00556703
4739.07971558,0.00564620
4741.00852295,0.00568009
4742.93733032,0.00556624
4744.86613770,0.00541994
4746.79494507,0.00544238
4748.72375244,0.00546044
4750.65255981,0.00543211
4752.58136719,0.00548666
4754.51017456,0.00542387
4756.43898193,0.00538672
4758.36778931,0.00538983
4760.29659668,0.00541431
4762.22540405,0.00541760
4764.15421143,0.00537686
4766.08301880,0.00537154
4768.01182617,0.00535210
4769.94063354,0.00537696
4771.86944092,0.00535164
4773.79824829,0.00537851
4775.72705566,0.00533383
4777.65586304,0.00529130
4779.58467041,0.00534320
4781.51347778,0.00527323
4783.44228516,0.00524264
4785.37109253,0.00518288
4787.29989990,0.00527284
4789.22870728,0.00526328
4791.15751465,0.00513127
4793.08632202,0.00524170
4795.01512939,0.00521173
4796.94393677,0.00517709
4798.87274414,0.00517698
4800.80155151,0.00516114
4802.73035889,0.00516749
4804.65916626,0.00513224
4806.58797363,0.00512786
4808.51678101,0.00510481
4810.44558838,0.00511609
4812.37439575,0.00510243
4814.30320312,0.00507928
4816.23201050,0.00503293
4818.16081787,0.00505517
4820.08962524,0.00502607
4822.01843262,0.00496322
4823.94723999,0.00503714
4825.87604736,0.00496050
4827.80485474,0.00500388
4829.73366211,0.00501943
4831.66246948,0.00495314
4833.59127686,0.00497568
4835.52008423,0.00487717
4837.44889160,0.00496145
4839.37769897,0.00495663
4841.30650635,0.00485501
4843.23531372,0.00489170
4845.16412109,0.00486471
4847.09292847,0.00486016
4849.02173584,0.00483967
4850.95054321,0.00489359
4852.87935059,0.00489843
4854.80815796,0.00478776
4856.73696533,0.00481280
4858.66577270,0.00475397
4860.59458008,0.00470973
4862.52338745,0.00482428
4864.45219482,0.00474478
4866.38100220,0.00470269
4868.30980957,0.00475878
4870.23861694,0.00466885
4872.16742432,0.00467695
4874.09623169,0.00471299
4876.02503906,0.00470210
4877.95384644,0.00470045
4879.88265381,0.00469436
4881.81146118,0.00467293
4883.74026855,0.00462652
4885.66907593,0.00464408
4887.59788330,0.00462773
4889.52669067,0.00458417
4891.45549805,0.00454186
4893.38430542,0.00455635
4895.31311279,0.00459918
4897.24192017,0.00461014
4899.17072754,0.00456652
4901.09953491,0.00446356
4903.02834228,0.00454834
4904.95714966,0.00456485
4906.88595703,0.00448740
4908.81476440,0.00451834
4910.74357178,0.00451175
4912.67237915,0.00444570
4914.60118652,0.00439163
4916.52999390,0.00447067
4918.45880127,0.00448235
4920.38760864,0.00444883
4922.31641602,0.00436956
4924.24522339,0.00438900
4926.17403076,0.00449495
4928.10283813,0.00437711
4930.03164551,0.00444770
4931.96045288,0.00442107
4933.88926025,0.00431440
4935.81806763,0.00436285
4937.74687500,0.00426537
4939.67568237,0.00429254
4941.60448975,0.00430184
4943.53329712,0.00429536
4945.46210449,0.00430243
4947.39091187,0.00422228
4949.31971924,0.00423774
4951.24852661,0.00426841
4953.17733398,0.00428163
4955.10614136,0.00430506
4957.03494873,0.00428180
4958.96375610,0.00417591
4960.89256348,0.00418599
4962.82137085,0.00420711
4964.75017822,0.00420518
4966.67898560,0.00420001
4968.60779297,0.00408724
4970.53660034,0.00408888
4972.46540771,0.00409464
4974.39421509,0.00415928
4976.32302246,0.00412103
4978.25182983,0.00403252
4980.18063721,0.00411822
4982.10944458,0.00404357
4984.03825195,0.00407267
4985.96705933,0.00407707
4987.89586670,0.00400476
4989.82467407,0.00407843
4991.75348145,0.00408097
4993.68228882,0.00407428
4995.61109619,0.00402811
4997.53990356,0.00399645
4999.46871094,0.00398191
5001.39751831,0.00399157
5003.32632568,0.00396604
5005.25513306,0.00390143
5007.18394043,0.00389821
5009.11274780,0.00383372
5011.04155518,0.00396632
5012.97036255,0.00402096
5014.89916992,0.00392482
5016.82797729,0.00396836
5018.75678467,0.00387196
5020.68559204,0.00390202
5022.61439941,0.00392995
5024.54320679,0.00382271
5026.47201416,0.00385652
5028.40082153,0.00380607
5030.32962891,0.00381144
5032.25843628,0.00383598
5034.18724365,0.00378765
5036.11605103,0.00383242
5038.04485840,0.00380890
5039.97366577,0.00374940
5041.90247314,0.00375871
5043.83128052,0.00378248
5045.76008789,0.00370892
5047.68889526,0.00370685
5049.61770264,0.00379373
5051.54651001,0.00369685
5053.47531738,0.00370472
5055.40412476,0.00377479
5057.33293213,0.00367344
5059.26173950,0.00366583
5061.19054687,0.00370193
5063.11935425,0.00366162
5065.04816162,0.00366130
5066.97696899,0.00365221
5068.90577637,0.00365059
5070.83458374,0.00365875
5072.76339111,0.00358545
5074.69219849,0.00364043
5076.62100586,0.00362148
5078.54981323,0.00353389
5080.47862061,0.00363553
5082.40742798,0.00362534
5084.33623535,0.00363054
5086.26504272,0.00356345
5088.19385010,0.00350424
5090.12265747,0.00356291
5092.05146484,0.00350949
5093.98027222,0.00354278
5095.90907959,0.00344123
5097.83788696,0.00347283
5099.76669434,0.00355177
5101.69550171,0.00343348
5103.62430908,0.00350641
5105.55311645,0.00344102
5107.48192383,0.00341227
5109.41073120,0.00344535
5111.33953857,0.00340410
5113.26834595,0.00340591
5115.19715332,0.00334898
5117.12596069,0.00340122
5119.05476807,0.00338570
5120.98357544,0.00335269
5122.91238281,0.00337727
5124.84119019,0.00339503
5126.76999756,0.00335314
5128.69880493,0.00329094
5130.62761230,0.00340435
5132.55641968,0.00335990
5134.48522705,0.00334589
5136.41403442,0.00341600
5138.34284180,0.00332950
5140.27164917,0.00334537
5142.20045654,0.00330482
5144.12926392,0.00323025
5146.05807129,0.00326304
5147.98687866,0.00325557
5149.91568603,0.00322382
5151.84449341,0.00321613
5153.77330078,0.00329217
5155.70210815,0.00329883
5157.63091553,0.00315378
5159.55972290,0.00318895
5161.48853027,0.00325742
5163.41733765,0.00318303
5165.34614502,0.00320120
5167.27495239,0.00319649
5169.20375977,0.00317573
5171.13256714,0.00320876
5173.06137451,0.00322477
5174.99018188,0.00315109
5176.91898926,0.00310641
5178.84779663,0.00314962
5180.77660400,0.00309359
5182.70541138,0.00314018
5184.63421875,0.00309443
5186.56302612,0.00302803
5188.49183350,0.00314091
5190.42064087,0.00308263
5192.34944824,0.00309015
5194.27825562,0.00307486
5196.20706299,0.00300781
5198.13587036,0.00307504
5200.06467773,0.00306161
5201.99348511,0.00307462
5203.92229248,0.00311490
5205.85109985,0.00302917
5207.77990723,0.00295249
5209.70871460,0.00302800
5211.63752197,0.00303161
5213.56632935,0.00297344
5215.49513672,0.00303321
5217.42394409,0.00306995
5219.35275146,0.00298111
5221.28155884,0.00294560
5223.21036621,0.00302670
5225.13917358,0.00290326
5227.06798096,0.00284565
5228.99678833,0.00296192
5230.92559570,0.00298211
5232.85440308,0.00298330
5234.78321045,0.00289167
5236.71201782,0.00288803
5238.64082520,0.00295381
5240.56963257,0.00296139
5242.49843994,0.00293422
5244.42724731,0.00285855
5246.35605469,0.00288632
5248.28486206,0.00287750
5250.21366943,0.00281263
5252.14247681,0.00284739
5254.07128418,0.00285500
5256.00009155,0.00276786
5257.92889893,0.00281398
5259.85770630,0.00283780
5261.78651367,0.00275087
5263.71532104,0.00277912
5265.64412842,0.00276672
5267.57293579,0.00282905
5269.50174316,0.00281123
5271.43055054,0.00274184
5273.35935791,0.00283068
5275.28816528,0.00273692
5277.21697266,0.00274660
5279.14578003,0.00278017
5281.07458740,0.00271632
5283.00339478,0.00281464
5284.93220215,0.00276320
5286.86100952,0.00273078
5288.78981689,0.00281715
5290.71862427,0.00275356
5292.64743164,0.00273850
5294.57623901,0.00280298
5296.50504639,0.00278144
5298.43385376,0.00270113
5300.36266113,0.00268592
5302.29146851,0.00275041
5304.22027588,0.00268213
5306.14908325,0.00262235
5308.07789062,0.00269885
5310.00669800,0.00267648
5311.93550537,0.00262354
5313.86431274,0.00261412
5315.79312012,0.00264491
5317.72192749,0.00269330
5319.65073486,0.00267419
5321.57954224,0.00261940
5323.50834961,0.00263031
5325.43715698,0.00264715
5327.36596436,0.00256035
5329.29477173,0.00256394
5331.22357910,0.00257448
5333.15238647,0.00253925
5335.08119385,0.00261417
5337.01000122,0.00265529
5338.93880859,0.00256342
5340.86761597,0.00254739
5342.79642334,0.00259978
5344.72523071,0.00242447
5346.65403809,0.00246051
5348.58284546,0.00260729
5350.51165283,0.00251610
5352.44046020,0.00253320
5354.36926758,0.00248298
5356.29807495,0.00252591
5358.22688232,0.00256200
5360.15568970,0.00247120
5362.08449707,0.00252607
5364.01330444,0.00248284
5365.94211182,0.00247198
5367.87091919,0.00246143
5369.79972656,0.00240132
5371.72853394,0.00243900
5373.65734131,0.00243888
5375.58614868,0.00235471
5377.51495605,0.00230950
5379.44376343,0.00236979
5381.37257080,0.00240573
5383.30137817,0.00244912
5385.23018555,0.00241576
5387.15899292,0.00237822
5389.08780029,0.00243773
5391.01660767,0.00242442
5392.94541504,0.00237174
5394.87422241,0.00236449
5396.80302978,0.00236419
5398.73183716,0.00231503
5400.66064453,0.00242054
5402.58945190,0.00241006
5404.51825928,0.00231636
5406.44706665,0.00242345
5408.37587402,0.00232359
5410.30468140,0.00227675
5412.23348877,0.00231873
5414.16229614,0.00229165
5416.09110352,0.00237957
5418.01991089,0.00235725
5419.94871826,0.00228369
5421.87752563,0.00228131
5423.80633301,0.00227928
5425.73514038,0.00230099
5427.66394775,0.00228046
5429.59275513,0.00217011
5431.52156250,0.00227688
5433.45036987,0.00235243
5435.37917725,0.00217458
5437.30798462,0.00224936
5439.23679199,0.00227298
5441.16559936,0.00219616
5443.09440674,0.00226015
5445.02321411,0.00214695
5446.95202148,0.00211184
5448.88082886,0.00223474
5450.80963623,0.00220326
5452.73844360,0.00220865
5454.66725098,0.00226237
5456.59605835,0.00220767
5458.52486572,0.00220736
5460.45367310,0.00215149
5462.38248047,0.00214693
5464.31128784,0.00221543
5466.24009521,0.00216598
5468.16890259,0.00220010
5470.09770996,0.00218642
5472.02651733,0.00212955
5473.95532471,0.00208686
5475.88413208,0.00212510
5477.81293945,0.00217994
5479.74174683,0.00211720
5481.67055420,0.00219486
5483.59936157,0.00214965
5485.52816895,0.00212294
5487.45697632,0.00213666
5489.38578369,0.00204408
5491.31459106,0.00212972
5493.24339844,0.00204587
5495.17220581,0.00199956
5497.10101318,0.00210604
5499.02982056,0.00209681
5500.95862793,0.00212986
5502.88743530,0.00208674
5504.81624268,0.00204815
5506.74505005,0.00213051
5508.67385742,0.00209391
5510.60266479,0.00200545
5512.53147217,0.00205651
5514.46027954,0.00204506
5516.38908691,0.00204020
5518.31789429,0.00203784
5520.24670166,0.00197634
5522.17550903,0.00207414
5524.10431641,0.00205921
5526.03312378,0.00199469
5527.96193115,0.00201644
5529.89073853,0.00200990
5531.81954590,0.00203093
5533.74835327,0.00200245
5535.67716064,0.00201588
5537.60596802,0.00204440
5539.53477539,0.00202042
5541.46358276,0.00199883
5543.39239014,0.00199322
5545.32119751,0.00196828
5547.25000488,0.00196164
5549.17881226,0.00194640
5551.10761963,0.00190284
5553.03642700,0.00202913
5554.96523437,0.00199699
5556.89404175,0.00189215
5558.82284912,0.00196735
5560.75165649,0.00191558
5562.68046387,0.00193471
5564.60927124,0.00196572
5566.53807861,0.00189971
5568.46688599,0.00189484
5570.39569336,0.00189717
5572.32450073,0.00191748
5574.25330811,0.00192129
5576.18211548,0.00191094
5578.11092285,0.00183851
5580.03973022,0.00178934
5581.96853760,0.00184155
5583.89734497,0.00188429
5585.82615234,0.00187257
5587.75495972,0.00180351
5589.68376709,0.00183695
5591.61257446,0.00186277
5593.54138184,0.00178963
5595.47018921,0.00182002
5597.39899658,0.00180424
5599.32780395,0.00176103
5601.25661133,0.00182991
5603.18541870,0.00181257
5605.11422607,0.00178604
5607.04303345,0.00182690
5608.97184082,0.00179318
5610.90064819,0.00173862
5612.82945557,0.00172795
5614.75826294,0.00173324
5616.68707031,0.00172705
5618.61587769,0.00174753
5620.54468506,0.00177523
5622.47349243,0.00178778
5624.40229980,0.00179516
5626.33110718,0.00177445
5628.25991455,0.00176158
5630.18872192,0.00171293
5632.11752930,0.00166555
5634.04633667,0.00165985
5635.97514404,0.00170195
5637.90395142,0.00173108
5639.83275879,0.00167849
5641.76156616,0.00169388
5643.69037353,0.00171468
5645.61918091,0.00173684
5647.54798828,0.00170835
5649.47679565,0.00165765
5651.40560303,0.00171651
5653.33441040,0.00165429
5655.26321777,0.00169200
5657.19202515,0.00174385
5659.12083252,0.00165808
5661.04963989,0.00170144
5662.97844727,0.00164207
5664.90725464,0.00163915
5666.83606201,0.00170722
5668.76486938,0.00167109
5670.69367676,0.00170502
5672.62248413,0.00168287
5674.55129150,0.00164568
5676.48009888,0.00159924
5678.40890625,0.00158407
5680.33771362,0.00162269
5682.26652100,0.00156031
5684.19532837,0.00158754
5686.12413574,0.00166293
5688.05294311,0.00164459
5689.98175049,0.00163009
5691.91055786,0.00163680
5693.83936523,0.00160172
5695.76817261,0.00158597
5697.69697998,0.00162263
5699.62578735,0.00155687
5701.55459473,0.00157675
5703.48340210,0.00162833
5705.41220947,0.00152671
5707.34101685,0.00156384
5709.26982422,0.00159835
5711.19863159,0.00154641
5713.12743896,0.00159613
5715.05624634,0.00163357
5716.98505371,0.00161264
5718.91386108,0.00158686
5720.84266846,0.00158220
5722.77147583,0.00152326
5724.70028320,0.00150099
5726.62909058,0.00155151
5728.55789795,0.00151630
5730.48670532,0.00150837
5732.41551270,0.00152845
5734.34432007,0.00151645
5736.27312744,0.00149489
5738.20193481,0.00146276
5740.13074219,0.00146011
5742.05954956,0.00144595
5743.98835693,0.00148213
5745.91716431,0.00149619
5747.84597168,0.00145090
5749.77477905,0.00148511
5751.70358643,0.00148057
5753.63239380,0.00147705
5755.56120117,0.00150915
5757.49000854,0.00144241
5759.41881592,0.00141850
5761.34762329,0.00144606
5763.27643066,0.00142563
5765.20523804,0.00144221
5767.13404541,0.00141940
5769.06285278,0.00137135
5770.99166016,0.00142970
5772.92046753,0.00143179
5774.84927490,0.00138611
5776.77808228,0.00138231
5778.70688965,0.00138888
5780.63569702,0.00144419
5782.56450439,0.00140547
5784.49331177,0.00136062
5786.42211914,0.00136552
5788.35092651,0.00134703
5790.27973389,0.00139944
5792.20854126,0.00137842
5794.13734863,0.00140695
5796.06615601,0.00143868
5797.99496338,0.00138713
5799.92377075,0.00139741
5801.85257812,0.00129965
5803.78138550,0.00137245
5805.71019287,0.00143906
5807.63900024,0.00130691
5809.56780762,0.00134436
5811.49661499,0.00131897
5813.42542236,0.00130164
5815.35422974,0.00130718
5817.28303711,0.00128636
5819.21184448,0.00132535
5821.14065186,0.00127823
5823.06945923,0.00133004
5824.99826660,0.00134721
5826.92707397,0.00131152
5828.85588135,0.00129622
5830.78468872,0.00124591
5832.71349609,0.00132476
5834.64230347,0.00130549
5836.57111084,0.00124581
5838.49991821,0.00128433
5840.42872559,0.00131819
5842.35753296,0.00135520
5844.28634033,0.00125939
5846.21514770,0.00117675
5848.14395508,0.00123596
5850.07276245,0.00126044
5852.00156982,0.00124800
5853.93037720,0.00125149
5855.85918457,0.00123312
5857.78799194,0.00122849
5859.71679932,0.00122905
5861.64560669,0.00120150
5863.57441406,0.00120533
5865.50322144,0.00125428
5867.43202881,0.00127731
5869.36083618,0.00118306
5871.28964355,0.00118328
5873.21845093,0.00131657
5875.14725830,0.00124979
5877.07606567,0.00115566
5879.00487305,0.00122822
5880.93368042,0.00120810
5882.86248779,0.00110178
5884.79129517,0.00112366
5886.72010254,0.00117410
5888.64890991,0.00118775
5890.57771728,0.00119099
5892.50652466,0.00114385
5894.43533203,0.00116759
5896.36413940,0.00117418
5898.29294678,0.00112298
5900.22175415,0.00117261
5902.15056152,0.00116754
5904.07936890,0.00110193
5906.00817627,0.00113628
5907.93698364,0.00116413
5909.86579102,0.00116864
5911.79459839,0.00117382
5913.72340576,0.00110445
5915.65221313,0.00106767
5917.58102051,0.00106946
5919.50982788,0.00111153
5921.43863525,0.00115910
5923.36744263,0.00106292
5925.29625000,0.00105675
5927.22505737,0.00111402
5929.15386475,0.00108229
5931.08267212,0.00109290
5933.01147949,0.00109459
5934.94028686,0.00110973
5936.86909424,0.00112026
5938.79790161,0.00112391
5940.72670898,0.00115283
5942.65551636,0.00109856
5944.58432373,0.00104599
5946.51313110,0.00102832
5948.44193848,0.00102781
5950.37074585,0.00108004
5952.29955322,0.00104077
5954.22836060,0.00100684
5956.15716797,0.00109325
5958.08597534,0.00108813
5960.01478271,0.00109524
5961.94359009,0.00109793
5963.87239746,0.00100245
5965.80120483,0.00102598
5967.73001221,0.00103134
5969.65881958,0.00102694
5971.58762695,0.00103959
5973.51643433,0.00100143
5975.44524170,0.00107592
5977.37404907,0.00108481
5979.30285645,0.00104268
5981.23166382,0.00105165
5983.16047119,0.00100354
5985.08927856,0.00100142
5987.01808594,0.00101405
5988.94689331,0.00098059
5990.87570068,0.00098172
5992.80450806,0.00100269
5994.73331543,0.00101694
5996.66212280,0.00102552
5998.59093018,0.00100813
6000.51973755,0.00103734
