399.26312622,0.00054306
401.19193359,0.00083705
403.12074097,0.00045401
405.04954834,0.00029272
406.97835571,-0.00006778
408.90716309,0.00017550
410.83597046,0.00061675
412.76477783,0.00032275
414.69358521,0.00031097
416.62239258,0.00018381
418.55119995,0.00024250
420.48000732,0.00040221
422.40881470,0.00042882
424.33762207,0.00007639
426.26642944,0.00004893
428.19523682,0.00057961
430.12404419,0.00054820
432.05285156,0.00062595
433.98165894,0.00051234
435.91046631,0.00065367
437.83927368,0.00064540
439.76808105,0.00008725
441.69688843,0.00050548
443.62569580,0.00046985
445.55450317,0.00017588
447.48331055,0.00041534
449.41211792,0.00025325
451.34092529,-0.00022592
453.26973267,-0.00001967
455.19854004,0.00032792
457.12734741,0.00021176
459.05615479,0.00069458
460.98496216,0.00045700
462.91376953,-0.00009698
464.84257690,0.00027676
466.77138428,0.00038447
468.70019165,-0.00002188
470.62899902,0.00022555
472.55780640,0.00056255
474.48661377,0.00001197
476.41542114,0.00023568
478.34422852,0.00054927
480.27303589,0.00027634
482.20184326,0.00011664
484.13065063,-0.00014527
486.05945801,0.00029067
487.98826538,0.00035319
489.91707275,-0.00024182
491.84588013,0.00037285
493.77468750,0.00060874
495.70349487,0.00023766
497.63230225,0.00012745
499.56110962,-0.00010214
501.48991699,0.00043063
503.41872437,0.00028122
505.34753174,0.00012755
507.27633911,0.00052237
509.20514648,0.00023909
511.13395386,0.00025191
513.06276123,0.00027785
514.99156860,0.00048156
516.92037598,0.00023263
518.84918335,-0.00008840
520.77799072,-0.00002380
522.70679810,-0.00007353
524.63560547,0.00009729
526.56441284,-0.00002230
528.49322021,0.00020741
530.42202759,0.00022182
532.35083496,0.00026502
534.27964233,0.00036920
536.20844971,0.00039928
538.13725708,0.00069504
540.06606445,0.00025969
541.99487183,0.00023851
543.92367920,0.00024653
545.85248657,0.00000608
547.78129395,0.00032483
549.71010132,0.00035865
551.63890869,-0.00008585
553.56771606,0.00021832
555.49652344,0.00059127
557.42533081,-0.00009344
559.35413818,0.00002691
561.28294556,0.00021136
563.21175293,0.00019606
565.14056030,0.00013596
567.06936768,-0.00042809
568.99817505,0.00017822
570.92698242,0.00009765
572.85578979,-0.00009504
574.78459717,0.00034047
576.71340454,0.00007791
578.64221191,0.00031957
580.57101929,0.00016587
582.49982666,0.00024438
584.42863403,0.00011638
586.35744141,-0.00016453
588.28624878,0.00047810
590.21505615,0.00011015
592.14386353,-0.00005159
594.07267090,0.00047195
596.00147827,0.00042079
597.93028564,0.00012327
599.85909302,0.00013067
601.78790039,0.00002960
603.71670776,-0.00002528
605.64551514,0.00025006
607.57432251,0.00022226
609.50312988,0.00044347
611.43193726,0.00027272
613.36074463,0.00008339
615.28955200,0.00050677
617.21835938,0.00033579
619.14716675,-0.00002786
621.07597412,-0.00023465
623.00478149,-0.00026307
624.93358887,0.00013773
626.86239624,0.00023677
628.79120361,0.00001149
630.72001099,-0.00000821
632.64881836,0.00048608
634.57762573,0.00045276
636.50643311,-0.00005028
638.43524048,0.00051126
640.36404785,0.00040249
642.29285522,0.00037844
644.22166260,0.00077726
646.15046997,0.00055731
648.07927734,0.00028132
650.00808472,0.00014279
651.93689209,0.00032402
653.86569946,0.00060600
655.79450684,0.00080375
657.72331421,0.00066932
659.65212158,0.00074401
661.58092896,0.00067185
663.50973633,0.00072609
665.43854370,0.00100778
667.36735107,0.00059584
669.29615845,0.00071444
671.22496582,0.00076129
673.15377319,0.00088516
675.08258057,0.00122771
677.01138794,0.00112026
678.94019531,0.00102585
680.86900269,0.00081214
682.79781006,0.00105324
684.72661743,0.00110177
686.65542480,0.00095826
688.58423218,0.00060943
690.51303955,0.00067436
692.44184692,0.00119724
694.37065430,0.00108781
696.29946167,0.00142828
698.22826904,0.00132175
700.15707642,0.00165501
702.08588379,0.00189116
704.01469116,0.00119438
705.94349854,0.00144728
707.87230591,0.00116912
709.80111328,0.00095275
711.72992065,0.00081025
713.65872803,0.00033133
715.58753540,0.00049719
717.51634277,0.00048045
719.44515015,0.00019043
721.37395752,0.00005824
723.30276489,0.00019448
725.23157227,0.00005538
727.16037964,0.00012424
729.08918701,0.00017259
731.01799438,0.00014482
732.94680176,0.00036446
734.87560913,0.00017349
736.80441650,0.00022436
738.73322388,0.00027283
740.66203125,0.00041946
742.59083862,0.00041766
744.51964600,0.00001817
746.44845337,0.00027726
748.37726074,0.00032822
750.30606812,0.00039148
752.23487549,0.00050766
754.16368286,0.00007494
756.09249023,0.00018528
758.02129761,0.00000074
759.95010498,0.00002916
761.87891235,0.00047031
763.80771973,0.00006849
765.73652710,0.00018149
767.66533447,0.00034625
769.59414185,0.00003776
771.52294922,0.00020950
773.45175659,0.00035187
775.38056396,0.00039858
777.30937134,0.00024373
779.23817871,0.00033385
781.16698608,0.00052260
783.09579346,0.00017953
785.02460083,0.00049637
786.95340820,0.00039576
788.88221558,0.00013524
790.81102295,0.00041183
792.73983032,-0.00003286
794.66863770,0.00035009
796.59744507,0.00056512
798.52625244,0.00021465
800.45505981,0.00028860
802.38386719,-0.00004345
804.31267456,0.00039068
806.24148193,0.00053432
808.17028931,0.00013471
810.09909668,0.00038749
812.02790405,0.00040423
813.95671143,0.00040271
815.88551880,0.00042544
817.81432617,0.00027521
819.74313354,0.00002143
821.67194092,0.00001933
823.60074829,0.00019430
825.52955566,0.00040673
827.45836304,0.00049627
829.38717041,0.00015018
831.31597778,0.00030517
833.24478516,0.00050950
835.17359253,0.00048323
837.10239990,0.00058419
839.03120728,0.00050814
840.96001465,0.00065180
842.88882202,0.00055900
844.81762939,0.00018280
846.74643677,0.00032060
848.67524414,0.00054272
850.60405151,0.00039241
852.53285889,0.00023128
854.46166626,0.00018635
856.39047363,0.00049364
858.31928101,0.00055998
860.24808838,0.00024194
862.17689575,0.00051782
864.10570313,0.00045839
866.03451050,0.00039727
867.96331787,0.00034918
869.89212524,-0.00003368
871.82093262,0.00039892
873.74973999,0.00006819
875.67854736,-0.00008915
877.60735474,0.00052943
879.53616211,0.00027160
881.46496948,0.00037634
883.39377686,0.00029397
885.32258423,0.00016552
887.25139160,0.00050898
889.18019897,0.00045001
891.10900635,0.00044977
893.03781372,0.00047502
894.96662109,0.00055446
896.89542847,0.00041485
898.82423584,0.00018904
900.75304321,0.00043119
902.68185059,0.00059739
904.61065796,0.00054886
906.53946533,0.00040470
908.46827271,0.00041779
910.39708008,0.00052205
912.32588745,0.00041714
914.25469482,0.00053865
916.18350220,0.00066210
918.11230957,0.00046475
920.04111694,0.00053043
921.96992432,0.00072269
923.89873169,0.00064491
925.82753906,0.00066901
927.75634644,0.00075096
929.68515381,0.00063970
931.61396118,0.00061846
933.54276855,0.00078650
935.47157593,0.00079403
937.40038330,0.00088983
939.32919067,0.00110788
941.25799805,0.00075939
943.18680542,0.00071917
945.11561279,0.00082769
947.04442017,0.00054633
948.97322754,0.00097760
950.90203491,0.00104548
952.83084229,0.00073015
954.75964966,0.00103796
956.68845703,0.00098052
958.61726440,0.00088103
960.54607178,0.00094468
962.47487915,0.00083511
964.40368652,0.00083215
966.33249390,0.00074995
968.26130127,0.00071880
970.19010864,0.00089716
972.11891602,0.00115286
974.04772339,0.00094473
975.97653076,0.00078916
977.90533813,0.00130694
979.83414551,0.00119457
981.76295288,0.00120672
983.69176025,0.00178418
985.62056763,0.00174665
987.54937500,0.00178191
989.47818237,0.00183401
991.40698975,0.00212704
993.33579712,0.00255825
995.26460449,0.00260609
997.19341187,0.00295733
999.12221924,0.00321455
1001.05102661,0.00352238
1002.97983398,0.00352107
1004.90864136,0.00346351
1006.83744873,0.00412646
1008.76625610,0.00445060
1010.69506348,0.00455356
1012.62387085,0.00467570
1014.55267822,0.00500602
1016.48148560,0.00509215
1018.41029297,0.00524607
1020.33910034,0.00590471
1022.26790771,0.00579320
1024.19671509,0.00609465
1026.12552246,0.00661433
1028.05432983,0.00666399
1029.98313721,0.00676200
1031.91194458,0.00688357
1033.84075195,0.00740625
1035.76955933,0.00737052
1037.69836670,0.00731949
1039.62717407,0.00735388
1041.55598145,0.00725671
1043.48478882,0.00747351
1045.41359619,0.00724271
1047.34240356,0.00707936
1049.27121094,0.00692163
1051.20001831,0.00690651
1053.12882568,0.00687085
1055.05763306,0.00660220
1056.98644043,0.00649599
1058.91524780,0.00620779
1060.84405518,0.00616918
1062.77286255,0.00595257
1064.70166992,0.00587494
1066.63047729,0.00579643
1068.55928467,0.00522665
1070.48809204,0.00524607
1072.41689941,0.00523947
1074.34570679,0.00480562
1076.27451416,0.00442782
1078.20332153,0.00419813
1080.13212891,0.00411524
1082.06093628,0.00408244
1083.98974365,0.00387083
1085.91855103,0.00381830
1087.84735840,0.00381032
1089.77616577,0.00347841
1091.70497314,0.00350586
1093.63378052,0.00311476
1095.56258789,0.00278209
1097.49139526,0.00304887
1099.42020264,0.00307136
1101.34901001,0.00303424
1103.27781738,0.00268923
1105.20662476,0.00272610
1107.13543213,0.00263050
1109.06423950,0.00233864
1110.99304687,0.00265419
1112.92185425,0.00258085
1114.85066162,0.00250154
1116.77946899,0.00258018
1118.70827637,0.00265090
1120.63708374,0.00252292
1122.56589111,0.00246723
1124.49469849,0.00283817
1126.42350586,0.00265454
1128.35231323,0.00259493
1130.28112061,0.00279635
1132.20992798,0.00287775
1134.13873535,0.00309572
1136.06754272,0.00305993
1137.99635010,0.00335155
1139.92515747,0.00359666
1141.85396484,0.00347186
1143.78277222,0.00395140
1145.71157959,0.00434811
1147.64038696,0.00440576
1149.56919434,0.00452744
1151.49800171,0.00472141
1153.42680908,0.00528669
1155.35561646,0.00536741
1157.28442383,0.00535434
1159.21323120,0.00577049
1161.14203857,0.00589579
1163.07084595,0.00601498
1164.99965332,0.00609833
1166.92846069,0.00639937
1168.85726807,0.00681565
1170.78607544,0.00714679
1172.71488281,0.00724854
1174.64369019,0.00738285
1176.57249756,0.00808393
1178.50130493,0.00813126
1180.43011230,0.00825821
1182.35891968,0.00872661
1184.28772705,0.00904904
1186.21653442,0.00953795
1188.14534180,0.00966203
1190.07414917,0.01048896
1192.00295654,0.01112927
1193.93176392,0.01122909
1195.86057129,0.01195546
1197.78937866,0.01252792
1199.71818604,0.01317389
1201.64699341,0.01378967
1203.57580078,0.01427865
1205.50460815,0.01481233
1207.43341553,0.01521149
1209.36222290,0.01566061
1211.29103027,0.01612607
1213.21983765,0.01671419
1215.14864502,0.01713271
1217.07745239,0.01750123
1219.00625977,0.01793707
1220.93506714,0.01803793
1222.86387451,0.01831402
1224.79268188,0.01874675
1226.72148926,0.01871733
1228.65029663,0.01867706
1230.57910400,0.01883959
1232.50791138,0.01902202
1234.43671875,0.01897739
1236.36552612,0.01892379
1238.29433350,0.01904769
1240.22314087,0.01868124
1242.15194824,0.01876119
1244.08075562,0.01889457
1246.00956299,0.01859317
1247.93837036,0.01866540
1249.86717773,0.01830547
1251.79598511,0.01844228
1253.72479248,0.01849809
1255.65359985,0.01789540
1257.58240723,0.01795155
1259.51121460,0.01769662
1261.44002197,0.01724750
1263.36882935,0.01707937
1265.29763672,0.01699040
1267.22644409,0.01683538
1269.15525146,0.01658903
1271.08405884,0.01642400
1273.01286621,0.01594932
1274.94167358,0.01555489
1276.87048096,0.01550694
1278.79928833,0.01525924
1280.72809570,0.01489717
1282.65690308,0.01492166
1284.58571045,0.01449820
1286.51451782,0.01393621
1288.44332520,0.01402563
1290.37213257,0.01387586
1292.30093994,0.01363251
1294.22974731,0.01347087
1296.15855469,0.01341602
1298.08736206,0.01325835
1300.01616943,0.01333334
1301.94497681,0.01369525
1303.87378418,0.01363418
1305.80259155,0.01384071
1307.73139893,0.01397353
1309.66020630,0.01429860
1311.58901367,0.01464331
1313.51782104,0.01464095
1315.44662842,0.01518258
1317.37543579,0.01554047
1319.30424316,0.01597867
1321.23305054,0.01654072
1323.16185791,0.01687739
1325.09066528,0.01731246
1327.01947266,0.01774908
1328.94828003,0.01833880
1330.87708740,0.01888248
1332.80589478,0.01938116
1334.73470215,0.01978295
1336.66350952,0.01988150
1338.59231689,0.01959903
1340.52112427,0.01982616
1342.44993164,0.02061741
1344.37873901,0.02089324
1346.30754639,0.02091522
1348.23635376,0.02072867
1350.16516113,0.02078235
1352.09396851,0.02077220
1354.02277588,0.02036849
1355.95158325,0.02027082
1357.88039062,0.02007839
1359.80919800,0.01983828
1361.73800537,0.01900634
1363.66681274,0.01876795
1365.59562012,0.01974643
1367.52442749,0.01934379
1369.45323486,0.01926924
1371.38204224,0.01963236
1373.31084961,0.01855152
1375.23965698,0.01855219
1377.16846436,0.01906132
1379.09727173,0.01902271
1381.02607910,0.01917974
1382.95488647,0.01917731
1384.88369385,0.01904961
1386.81250122,0.01817079
1388.74130859,0.01825349
1390.67011597,0.01979150
1392.59892334,0.01941644
1394.52773071,0.01828303
1396.45653809,0.01915047
1398.38534546,0.01915313
1400.31415283,0.01917009
1402.24296021,0.02051029
1404.17176758,0.01939858
1406.10057495,0.01947805
1408.02938232,0.02030636
1409.95818970,0.01979413
1411.88699707,0.02023758
1413.81580444,0.01951054
1415.74461182,0.01976535
1417.67341919,0.01793044
1419.60222656,0.01597374
1421.53103394,0.01833440
1423.45984131,0.01786187
1425.38864868,0.01745776
1427.31745605,0.01778583
1429.24626343,0.01619194
1431.17507080,0.01579623
1433.10387817,0.01620545
1435.03268555,0.01481453
1436.96149292,0.01251061
1438.89030029,0.01395830
1440.81910767,0.01446810
1442.74791504,0.01357419
1444.67672241,0.01422591
1446.60552979,0.01311204
1448.53433716,0.01317255
1450.46314453,0.01368529
1452.39195190,0.01408989
1454.32075928,0.01456824
1456.24956665,0.01218059
1458.17837402,0.01252477
1460.10718140,0.01658279
1462.03598877,0.01787936
1463.96479614,0.01752080
1465.89360352,0.01824383
1467.82241089,0.02086863
1469.75121826,0.02245987
1471.68002563,0.01990024
1473.60883301,0.02060424
1475.53764038,0.02372928
1477.46644775,0.02572566
1479.39525513,0.02835922
1481.32406250,0.02869742
1483.25286987,0.03029951
1485.18167725,0.03139713
1487.11048462,0.03088864
1489.03929199,0.03066078
1490.96809937,0.03067616
1492.89690674,0.03574584
1494.82571411,0.03515085
1496.75452148,0.03141947
1498.68332886,0.03550843
1500.61213623,0.03672940
1502.54094360,0.03931349
1504.46975098,0.03740355
1506.39855835,0.02696191
1508.32736572,0.03267568
1510.25617310,0.03892666
1512.18498047,0.03767592
1514.11378784,0.04096368
1516.04259521,0.03669934
1517.97140259,0.03825342
1519.90020996,0.03728912
1521.82901733,0.03177281
1523.75782471,0.03944735
1525.68663208,0.03876613
1527.61543945,0.03820348
1529.54424683,0.04273705
1531.47305420,0.04115530
1533.40186157,0.03771134
1535.33066895,0.03962962
1537.25947632,0.04283117
1539.18828369,0.03055184
1541.11709106,0.03142262
1543.04589844,0.03838501
1544.97470581,0.03656628
1546.90351318,0.04361610
1548.83232056,0.04083793
1550.76112793,0.04172623
1552.68993530,0.04174850
1554.61874268,0.03778317
1556.54755005,0.04085705
1558.47635742,0.02865265
1560.40516479,0.03031874
1562.33397217,0.04392948
1564.26277954,0.04144087
1566.19158691,0.04250057
1568.12039429,0.04243467
1570.04920166,0.03724108
1571.97800903,0.04297369
1573.90681641,0.04390442
1575.83562378,0.03438976
1577.76443115,0.03879261
1579.69323853,0.04433490
1581.62204590,0.04237828
1583.55085327,0.04335921
1585.47966064,0.04281348
1587.40846802,0.04302670
1589.33727539,0.04232895
1591.26608276,0.04231260
1593.19489014,0.04240453
1595.12369751,0.04190084
1597.05250488,0.04250950
1598.98131226,0.04203381
1600.91011963,0.04235548
1602.83892700,0.04142490
1604.76773437,0.04203705
1606.69654175,0.04152261
1608.62534912,0.04124413
1610.55415649,0.04112720
1612.48296387,0.04109028
1614.41177124,0.04170690
1616.34057861,0.03393956
1618.26938599,0.03641912
1620.19819336,0.04283295
1622.12700073,0.03788353
1624.05580811,0.03780164
1625.98461548,0.03983086
1627.91342285,0.03960906
1629.84223022,0.03929960
1631.77103760,0.04205791
1633.69984497,0.03883816
1635.62865234,0.03166386
1637.55745972,0.03693607
1639.48626709,0.04117905
1641.41507446,0.04007530
1643.34388184,0.04125554
1645.27268921,0.03736893
1647.20149658,0.03236883
1649.13030396,0.04077896
1651.05911133,0.03936920
1652.98791870,0.02486774
1654.91672607,0.03363460
1656.84553345,0.04316557
1658.77434082,0.04157660
1660.70314819,0.04268911
1662.63195557,0.03881072
1664.56076294,0.04117233
1666.48957031,0.04476231
1668.41837769,0.03903554
1670.34718506,0.03776165
1672.27599243,0.04333789
1674.20479980,0.04027646
1676.13360718,0.03847656
1678.06241455,0.04465051
1679.99122192,0.04320170
1681.92002930,0.04270668
1683.84883667,0.03493253
1685.77764404,0.03422880
1687.70645142,0.04767228
1689.63525879,0.04170336
1691.56406616,0.04546573
1693.49287354,0.04723021
1695.42168091,0.03418043
1697.35048828,0.04202144
1699.27929565,0.03738757
1701.20810303,0.03303797
1703.13691040,0.04593823
1705.06571777,0.04235879
1706.99452515,0.04249647
1708.92333252,0.04667746
1710.85213989,0.04475522
1712.78094727,0.04570246
1714.70975464,0.04235161
1716.63856201,0.03793941
1718.56736938,0.03738640
1720.49617676,0.04443845
1722.42498413,0.04657876
1724.35379150,0.04317000
1726.28259888,0.04709731
1728.21140625,0.04348157
1730.14021362,0.04363769
1732.06902100,0.04298198
1733.99782837,0.03240475
1735.92663574,0.04026368
1737.85544312,0.04522517
1739.78425049,0.04014470
1741.71305786,0.04361827
1743.64186523,0.04426941
1745.57067261,0.04437261
1747.49947998,0.04480387
1749.42828735,0.04299138
1751.35709473,0.04106174
1753.28590210,0.04536246
1755.21470947,0.04783618
1757.14351685,0.04348794
1759.07232422,0.04791908
1761.00113159,0.04518220
1762.92993896,0.04340067
1764.85874634,0.05008753
1766.78755371,0.04492774
1768.71636108,0.04530407
1770.64516846,0.04523143
1772.57397583,0.04030588
1774.50278320,0.04513521
1776.43159058,0.04790515
1778.36039795,0.04711177
1780.28920532,0.04658227
1782.21801270,0.04721816
1784.14682007,0.04705172
1786.07562744,0.04604428
1788.00443481,0.04869167
1789.93324219,0.04744058
1791.86204956,0.04275824
1793.79085693,0.04454178
1795.71966431,0.04792563
1797.64847168,0.04750974
1799.57727905,0.04691923
1801.50608643,0.04584928
1803.43489380,0.04735313
1805.36370117,0.04867902
1807.29250854,0.04790206
1809.22131592,0.04822185
1811.15012329,0.04689625
1813.07893066,0.04824178
1815.00773804,0.04860364
1816.93654541,0.04810852
1818.86535278,0.04853524
1820.79416016,0.04821429
1822.72296753,0.04912481
1824.65177490,0.04572733
1826.58058228,0.04740744
1828.50938965,0.04789254
1830.43819702,0.04467808
1832.36700439,0.04873846
1834.29581177,0.04847994
1836.22461914,0.04840580
1838.15342651,0.04828034
1840.08223389,0.04847688
1842.01104126,0.04883805
1843.93984863,0.04320963
1845.86865601,0.04598662
1847.79746338,0.04883415
1849.72627075,0.04766785
1851.65507812,0.04908256
1853.58388550,0.04821969
1855.51269287,0.04869585
1857.44150024,0.04843961
1859.37030762,0.04818884
1861.29911499,0.04863556
1863.22792236,0.04804356
1865.15672974,0.04848833
1867.08553711,0.04693293
1869.01434448,0.04482797
1870.94315186,0.04670998
1872.87195923,0.04865230
1874.80076660,0.04784273
1876.72957397,0.04827680
1878.65838135,0.04797800
1880.58718872,0.04771902
1882.51599609,0.04832444
1884.44480347,0.04751402
1886.37361084,0.04822316
1888.30241821,0.04703618
1890.23122559,0.04609793
1892.16003296,0.04798828
1894.08884033,0.04747973
1896.01764771,0.04720397
1897.94645508,0.04783135
1899.87526245,0.04771638
1901.80406982,0.04765988
1903.73287720,0.04744480
1905.66168457,0.04763723
1907.59049194,0.04721218
1909.51929932,0.04690349
1911.44810669,0.04724348
1913.37691406,0.04743753
1915.30572144,0.04776806
1917.23452881,0.04578157
1919.16333618,0.04566646
1921.09214355,0.04762347
1923.02095093,0.04618353
1924.94975830,0.04687282
1926.87856567,0.04762152
1928.80737305,0.04694445
1930.73618042,0.04758979
1932.66498779,0.04687975
1934.59379517,0.04730098
1936.52260254,0.04706338
1938.45140991,0.04712548
1940.38021729,0.04745381
1942.30902466,0.04574081
1944.23783203,0.04652846
1946.16663940,0.04724444
1948.09544678,0.04699279
1950.02425415,0.04717424
1951.95306152,0.04710940
1953.88186890,0.04726518
1955.81067627,0.04703868
1957.73948364,0.04716922
1959.66829102,0.04705233
1961.59709839,0.04697550
1963.52590576,0.04721854
1965.45471313,0.04689813
1967.38352051,0.04648945
1969.31232788,0.04698266
1971.24113525,0.04725678
1973.16994263,0.04689078
1975.09875000,0.04719082
1977.02755737,0.04680859
1978.95636475,0.04688819
1980.88517212,0.04708827
1982.81397949,0.04685365
1984.74278687,0.04714824
1986.67159424,0.04663336
1988.60040161,0.04681845
1990.52920898,0.04649118
1992.45801636,0.04582434
1994.38682373,0.04654866
1996.31563110,0.04665667
1998.24443848,0.04655825
2000.17324585,0.04644778
2002.10205322,0.04636712
2004.03086060,0.04640663
2005.95966797,0.04616308
2007.88847534,0.04626020
2009.81728271,0.04631370
2011.74609009,0.04608408
2013.67489746,0.04611943
2015.60370483,0.04586286
2017.53251221,0.04546102
2019.46131958,0.04575912
2021.39012695,0.04575849
2023.31893433,0.04560069
2025.24774170,0.04559877
2027.17654907,0.04557554
2029.10535645,0.04558387
2031.03416382,0.04529974
2032.96297119,0.04535651
2034.89177856,0.04534084
2036.82058594,0.04526002
2038.74939331,0.04515406
2040.67820068,0.04490635
2042.60700806,0.04497251
2044.53581543,0.04487624
2046.46462280,0.04492793
2048.39343018,0.04497643
2050.32223755,0.04481694
2052.25104492,0.04465310
2054.17985229,0.04456545
2056.10865967,0.04463475
2058.03746704,0.04454472
2059.96627441,0.04446830
2061.89508179,0.04447624
2063.82388916,0.04432700
2065.75269653,0.04408384
2067.68150391,0.04427341
2069.61031128,0.04424944
2071.53911865,0.04403536
2073.46792603,0.04422911
2075.39673340,0.04408229
2077.32554077,0.04391142
2079.25434814,0.04385684
2081.18315552,0.04389466
2083.11196289,0.04389834
2085.04077026,0.04378210
2086.96957764,0.04376013
2088.89838501,0.04358328
2090.82719238,0.04348356
2092.75599976,0.04341731
2094.68480713,0.04358752
2096.61361450,0.04351124
2098.54242187,0.04319955
2100.47122925,0.04332209
2102.40003662,0.04329889
2104.32884399,0.04316689
2106.25765137,0.04319885
2108.18645874,0.04329979
2110.11526611,0.04321185
2112.04407349,0.04323277
2113.97288086,0.04314925
2115.90168823,0.04301129
2117.83049561,0.04309722
2119.75930298,0.04279476
2121.68811035,0.04288606
2123.61691772,0.04303985
2125.54572510,0.04288999
2127.47453247,0.04283298
2129.40333984,0.04274065
2131.33214722,0.04279812
2133.26095459,0.04272963
2135.18976196,0.04273002
2137.11856934,0.04257895
2139.04737671,0.04256046
2140.97618408,0.04261808
2142.90499146,0.04252376
2144.83379883,0.04265084
2146.76260620,0.04246972
2148.69141357,0.04253725
2150.62022095,0.04250960
2152.54902832,0.04229820
2154.47783569,0.04230644
2156.40664307,0.04226787
2158.33545044,0.04249255
2160.26425781,0.04228383
2162.19306519,0.04218908
2164.12187256,0.04239952
2166.05067993,0.04226075
2167.97948730,0.04221957
2169.90829468,0.04222394
2171.83710205,0.04232018
2173.76590942,0.04220942
2175.69471680,0.04207115
2177.62352417,0.04223660
2179.55233154,0.04209593
2181.48113892,0.04195932
2183.40994629,0.04211374
2185.33875366,0.04208981
2187.26756104,0.04201513
2189.19636841,0.04196739
2191.12517578,0.04190372
2193.05398315,0.04194883
2194.98279053,0.04197983
2196.91159790,0.04201441
2198.84040527,0.04189115
2200.76921265,0.04182667
2202.69802002,0.04185357
2204.62682739,0.04179665
2206.55563477,0.04184516
2208.48444214,0.04174980
2210.41324951,0.04178438
2212.34205688,0.04183835
2214.27086426,0.04172765
2216.19967163,0.04170025
2218.12847900,0.04172280
2220.05728638,0.04174062
2221.98609375,0.04154087
2223.91490112,0.04154631
2225.84370850,0.04159893
2227.77251587,0.04153496
2229.70132324,0.04150869
2231.63013062,0.04137792
2233.55893799,0.04140797
2235.48774536,0.04138222
2237.41655273,0.04133511
2239.34536011,0.04124635
2241.27416748,0.04118454
2243.20297485,0.04117493
2245.13178223,0.04110634
2247.06058960,0.04121749
2248.98939697,0.04107711
2250.91820435,0.04100394
2252.84701172,0.04105254
2254.77581909,0.04097912
2256.70462646,0.04105841
2258.63343384,0.04095365
2260.56224121,0.04087267
2262.49104858,0.04094813
2264.41985596,0.04095542
2266.34866333,0.04094771
2268.27747070,0.04091145
2270.20627808,0.04078078
2272.13508545,0.04079915
2274.06389282,0.04083358
2275.99270020,0.04061913
2277.92150757,0.04070083
2279.85031494,0.04063856
2281.77912231,0.04052916
2283.70792969,0.04080046
2285.63673706,0.04058461
2287.56554443,0.04047750
2289.49435181,0.04055655
2291.42315918,0.04035573
2293.35196655,0.04046584
2295.28077393,0.04033697
2297.20958130,0.04011818
2299.13838867,0.04005752
2301.06719604,0.03976341
2302.99600342,0.03977986
2304.92481079,0.03960639
2306.85361816,0.03923324
2308.78242554,0.03909982
2310.71123291,0.03877218
2312.64004028,0.03850794
2314.56884766,0.03811729
2316.49765503,0.03770986
2318.42646240,0.03729988
2320.35526978,0.03659578
2322.28407715,0.03619954
2324.21288452,0.03578430
2326.14169189,0.03527037
2328.07049927,0.03498819
2329.99930664,0.03450852
2331.92811401,0.03419869
2333.85692139,0.03428335
2335.78572876,0.03415035
2337.71453613,0.03411045
2339.64334351,0.03412062
2341.57215088,0.03408510
2343.50095825,0.03466968
2345.42976562,0.03537302
2347.35857300,0.03682465
2349.28738037,0.03817374
2351.21618774,0.03692613
2353.14499512,0.03496622
2355.07380249,0.03376843
2357.00260986,0.03272602
2358.93141724,0.03208913
2360.86022461,0.03176098
2362.78903198,0.03169043
2364.71783936,0.03186528
2366.64664673,0.03231668
2368.57545410,0.03299083
2370.50426147,0.03378267
2372.43306885,0.03480643
2374.36187622,0.03579247
2376.29068359,0.03663018
2378.21949097,0.03750101
2380.14829834,0.03813469
2382.07710571,0.03865898
2384.00591309,0.03907698
2385.93472046,0.03908116
2387.86352783,0.03923029
2389.79233521,0.03919483
2391.72114258,0.03902609
2393.64994995,0.03914367
2395.57875732,0.03908007
2397.50756470,0.03918924
2399.43637207,0.03912421
2401.36517944,0.03891539
2403.29398682,0.03899435
2405.22279419,0.03899018
2407.15160156,0.03897498
2409.08040894,0.03890119
2411.00921631,0.03897095
2412.93802368,0.03898275
2414.86683105,0.03880799
2416.79563843,0.03876918
2418.72444580,0.03876573
2420.65325317,0.03879525
2422.58206055,0.03871323
2424.51086792,0.03869137
2426.43967529,0.03876867
2428.36848267,0.03867254
2430.29729004,0.03856172
2432.22609741,0.03858699
2434.15490479,0.03855548
2436.08371216,0.03848299
2438.01251953,0.03850736
2439.94132690,0.03838609
2441.87013428,0.03833400
2443.79894165,0.03845157
2445.72774902,0.03848721
2447.65655640,0.03844073
2449.58536377,0.03828587
2451.51417114,0.03817277
2453.44297852,0.03828182
2455.37178589,0.03832852
2457.30059326,0.03818283
2459.22940063,0.03819889
2461.15820801,0.03806495
2463.08701538,0.03800888
2465.01582275,0.03815734
2466.94463013,0.03801369
2468.87343750,0.03803111
2470.80224487,0.03791958
2472.73105225,0.03788074
2474.65985962,0.03801547
2476.58866699,0.03782652
2478.51747437,0.03785558
2480.44628174,0.03782344
2482.37508911,0.03778145
2484.30389648,0.03775420
2486.23270386,0.03767616
2488.16151123,0.03778485
2490.09031860,0.03757492
2492.01912598,0.03755179
2493.94793335,0.03764946
2495.87674072,0.03753606
2497.80554810,0.03761663
2499.73435547,0.03749571
2501.66316284,0.03743249
2503.59197021,0.03750500
2505.52077759,0.03741381
2507.44958496,0.03761831
2509.37839233,0.03756512
2511.30719971,0.03725584
2513.23600708,0.03735978
2515.16481445,0.03725242
2517.09362183,0.03728879
2519.02242920,0.03741083
2520.95123657,0.03711331
2522.88004395,0.03717554
2524.80885132,0.03718866
2526.73765869,0.03714157
2528.66646606,0.03726184
2530.59527344,0.03713017
2532.52408081,0.03707185
2534.45288818,0.03696570
2536.38169556,0.03698325
2538.31050293,0.03713648
2540.23931030,0.03703804
2542.16811768,0.03691229
2544.09692505,0.03686211
2546.02573242,0.03687616
2547.95453979,0.03682357
2549.88334717,0.03681912
2551.81215454,0.03682671
2553.74096191,0.03669380
2555.66976929,0.03666086
2557.59857666,0.03673527
2559.52738403,0.03674974
2561.45619141,0.03665211
2563.38499878,0.03664079
2565.31380615,0.03654929
2567.24261353,0.03641312
2569.17142090,0.03650861
2571.10022827,0.03655827
2573.02903564,0.03650597
2574.95784302,0.03627559
2576.88665039,0.03620997
2578.81545776,0.03641140
2580.74426514,0.03635821
2582.67307251,0.03627392
2584.60187988,0.03628189
2586.53068726,0.03630945
2588.45949463,0.03626721
2590.38830200,0.03619585
2592.31710937,0.03614359
2594.24591675,0.03605353
2596.17472412,0.03602651
2598.10353149,0.03595012
2600.03233887,0.03604233
2601.96114624,0.03599539
2603.88995361,0.03589279
2605.81876099,0.03594323
2607.74756836,0.03577277
2609.67637573,0.03591683
2611.60518311,0.03587367
2613.53399048,0.03573565
2615.46279785,0.03579649
2617.39160522,0.03560408
2619.32041260,0.03576859
2621.24921997,0.03567358
2623.17802734,0.03552771
2625.10683472,0.03573783
2627.03564209,0.03563929
2628.96444946,0.03561235
2630.89325684,0.03556824
2632.82206421,0.03545992
2634.75087158,0.03546093
2636.67967895,0.03552294
2638.60848633,0.03540221
2640.53729370,0.03531833
2642.46610107,0.03541490
2644.39490845,0.03524574
2646.32371582,0.03530041
2648.25252319,0.03527870
2650.18133057,0.03515297
2652.11013794,0.03520999
2654.03894531,0.03502515
2655.96775269,0.03504249
2657.89656006,0.03506985
2659.82536743,0.03503058
2661.75417480,0.03510473
2663.68298218,0.03492901
2665.61178955,0.03478604
2667.54059692,0.03493613
2669.46940430,0.03500565
2671.39821167,0.03483327
2673.32701904,0.03475844
2675.25582642,0.03481521
2677.18463379,0.03480574
2679.11344116,0.03467654
2681.04224854,0.03471714
2682.97105591,0.03468552
2684.89986328,0.03447722
2686.82867065,0.03454880
2688.75747803,0.03453253
2690.68628540,0.03447500
2692.61509277,0.03437179
2694.54390015,0.03432654
2696.47270752,0.03443424
2698.40151489,0.03433701
2700.33032227,0.03437028
2702.25912964,0.03426094
2704.18793701,0.03419522
2706.11674438,0.03434613
2708.04555176,0.03423584
2709.97435913,0.03408315
2711.90316650,0.03408000
2713.83197388,0.03413130
2715.76078125,0.03399974
2717.68958862,0.03399812
2719.61839600,0.03400924
2721.54720337,0.03396421
2723.47601074,0.03396582
2725.40481812,0.03383321
2727.33362549,0.03386014
2729.26243286,0.03379633
2731.19124023,0.03379146
2733.12004761,0.03363867
2735.04885498,0.03356512
2736.97766235,0.03380383
2738.90646973,0.03355519
2740.83527710,0.03353665
2742.76408447,0.03356123
2744.69289185,0.03347868
2746.62169922,0.03346417
2748.55050659,0.03331224
2750.47931396,0.03347007
2752.40812134,0.03327776
2754.33692871,0.03318110
2756.26573608,0.03333469
2758.19454346,0.03323643
2760.12335083,0.03320110
2762.05215820,0.03310607
2763.98096558,0.03315193
2765.90977295,0.03301322
2767.83858032,0.03294808
2769.76738770,0.03308671
2771.69619507,0.03303622
2773.62500244,0.03297608
2775.55380981,0.03278404
2777.48261719,0.03284913
2779.41142456,0.03282790
2781.34023193,0.03270821
2783.26903931,0.03277805
2785.19784668,0.03264708
2787.12665405,0.03263139
2789.05546143,0.03246457
2790.98426880,0.03239236
2792.91307617,0.03255596
2794.84188354,0.03245478
2796.77069092,0.03236903
2798.69949829,0.03228281
2800.62830566,0.03228220
2802.55711304,0.03223719
2804.48592041,0.03212481
2806.41472778,0.03211780
2808.34353516,0.03203801
2810.27234253,0.03202759
2812.20114990,0.03192098
2814.12995728,0.03183752
2816.05876465,0.03189930
2817.98757202,0.03190415
2819.91637939,0.03182931
2821.84518677,0.03167855
2823.77399414,0.03171200
2825.70280151,0.03165755
2827.63160889,0.03160201
2829.56041626,0.03161896
2831.48922363,0.03143563
2833.41803101,0.03147040
2835.34683838,0.03134351
2837.27564575,0.03119566
2839.20445312,0.03131210
2841.13326050,0.03113018
2843.06206787,0.03105661
2844.99087524,0.03103609
2846.91968262,0.03080037
2848.84848999,0.03060436
2850.77729736,0.03057304
2852.70610474,0.03066148
2854.63491211,0.03054450
2856.56371948,0.03045271
2858.49252686,0.03044437
2860.42133423,0.03041552
2862.35014160,0.03041518
2864.27894897,0.03030511
2866.20775635,0.03028575
2868.13656372,0.03023652
2870.06537109,0.03011685
2871.99417847,0.03010020
2873.92298584,0.03008809
2875.85179321,0.03007744
2877.78060059,0.03006331
2879.70940796,0.03005182
2881.63821533,0.02995767
2883.56702270,0.02992305
2885.49583008,0.02995619
2887.42463745,0.02991389
2889.35344482,0.02991400
2891.28225220,0.02984496
2893.21105957,0.02967663
2895.13986694,0.02947714
2897.06867432,0.02949341
2898.99748169,0.02949980
2900.92628906,0.02930816
2902.85509644,0.02939267
2904.78390381,0.02929974
2906.71271118,0.02914860
2908.64151855,0.02919206
2910.57032593,0.02899883
2912.49913330,0.02895691
2914.42794067,0.02888997
2916.35674805,0.02869690
2918.28555542,0.02864415
2920.21436279,0.02861955
2922.14317017,0.02859189
2924.07197754,0.02845213
2926.00078491,0.02839728
2927.92959229,0.02845447
2929.85839966,0.02849010
2931.78720703,0.02841210
2933.71601440,0.02838257
2935.64482178,0.02841002
2937.57362915,0.02822654
2939.50243652,0.02826089
2941.43124390,0.02835256
2943.36005127,0.02830094
2945.28885864,0.02823440
2947.21766602,0.02809609
2949.14647339,0.02812531
2951.07528076,0.02809069
2953.00408813,0.02799525
2954.93289551,0.02793756
2956.86170288,0.02791936
2958.79051025,0.02791132
2960.71931763,0.02772569
2962.64812500,0.02763005
2964.57693237,0.02756525
2966.50573975,0.02752950
2968.43454712,0.02754970
2970.36335449,0.02753682
2972.29216187,0.02756894
2974.22096924,0.02758187
2976.14977661,0.02765252
2978.07858398,0.02763607
2980.00739136,0.02754503
2981.93619873,0.02747379
2983.86500610,0.02744428
2985.79381348,0.02748821
2987.72262085,0.02743015
2989.65142822,0.02737944
2991.58023560,0.02731181
2993.50904297,0.02724925
2995.43785034,0.02721109
2997.36665771,0.02710562
2999.29546509,0.02711986
3001.22427246,0.02710090
3003.15307983,0.02700868
3005.08188721,0.02695402
3007.01069458,0.02687167
3008.93950195,0.02696255
3010.86830933,0.02696075
3012.79711670,0.02672309
3014.72592407,0.02670676
3016.65473145,0.02663186
3018.58353882,0.02643889
3020.51234619,0.02640788
3022.44115356,0.02635304
3024.36996094,0.02627160
3026.29876831,0.02625294
3028.22757568,0.02627057
3030.15638306,0.02610178
3032.08519043,0.02603447
3034.01399780,0.02599214
3035.94280518,0.02577232
3037.87161255,0.02591527
3039.80041992,0.02589933
3041.72922729,0.02564818
3043.65803467,0.02559023
3045.58684204,0.02556343
3047.51564941,0.02547837
3049.44445679,0.02531266
3051.37326416,0.02541334
3053.30207153,0.02541526
3055.23087891,0.02523855
3057.15968628,0.02523606
3059.08849365,0.02517083
3061.01730103,0.02506701
3062.94610840,0.02499938
3064.87491577,0.02493009
3066.80372314,0.02477593
3068.73253052,0.02476523
3070.66133789,0.02476228
3072.59014526,0.02463533
3074.51895264,0.02461432
3076.44776001,0.02452075
3078.37656738,0.02444831
3080.30537476,0.02437163
3082.23418213,0.02429060
3084.16298950,0.02432718
3086.09179687,0.02428507
3088.02060425,0.02404508
3089.94941162,0.02397895
3091.87821899,0.02402123
3093.80702637,0.02380374
3095.73583374,0.02375659
3097.66464111,0.02366398
3099.59344849,0.02358481
3101.52225586,0.02355316
3103.45106323,0.02338674
3105.37987061,0.02349566
3107.30867798,0.02330707
3109.23748535,0.02314394
3111.16629272,0.02329305
3113.09510010,0.02314476
3115.02390747,0.02292915
3116.95271484,0.02286048
3118.88152222,0.02282388
3120.81032959,0.02264568
3122.73913696,0.02257816
3124.66794434,0.02253060
3126.59675171,0.02241655
3128.52555908,0.02239055
3130.45436645,0.02231360
3132.38317383,0.02216419
3134.31198120,0.02201215
3136.24078857,0.02206787
3138.16959595,0.02196407
3140.09840332,0.02180307
3142.02721069,0.02183592
3143.95601807,0.02168352
3145.88482544,0.02148234
3147.81363281,0.02139121
3149.74244019,0.02139727
3151.67124756,0.02131128
3153.60005493,0.02113747
3155.52886230,0.02102020
3157.45766968,0.02094198
3159.38647705,0.02087536
3161.31528442,0.02088059
3163.24409180,0.02085024
3165.17289917,0.02064826
3167.10170654,0.02053542
3169.03051392,0.02037054
3170.95932129,0.02027641
3172.88812866,0.02025855
3174.81693604,0.02016978
3176.74574341,0.02012367
3178.67455078,0.02006702
3180.60335815,0.02000377
3182.53216553,0.01975121
3184.46097290,0.01977474
3186.38978027,0.01969253
3188.31858765,0.01951211
3190.24739502,0.01969502
3192.17620239,0.01944377
3194.10500977,0.01932535
3196.03381714,0.01933014
3197.96262451,0.01913860
3199.89143188,0.01912628
3201.82023926,0.01913932
3203.74904663,0.01906646
3205.67785400,0.01893266
3207.60666138,0.01891583
3209.53546875,0.01877378
3211.46427612,0.01882922
3213.39308350,0.01884320
3215.32189087,0.01867484
3217.25069824,0.01863239
3219.17950562,0.01845632
3221.10831299,0.01851033
3223.03712036,0.01850590
3224.96592773,0.01844807
3226.89473511,0.01831205
3228.82354248,0.01822191
3230.75234985,0.01827812
3232.68115723,0.01811889
3234.60996460,0.01817355
3236.53877197,0.01811072
3238.46757935,0.01811184
3240.39638672,0.01807406
3242.32519409,0.01798562
3244.25400146,0.01801883
3246.18280884,0.01790758
3248.11161621,0.01805238
3250.04042358,0.01785783
3251.96923096,0.01784004
3253.89803833,0.01794728
3255.82684570,0.01776479
3257.75565308,0.01785659
3259.68446045,0.01777039
3261.61326782,0.01773013
3263.54207520,0.01769713
3265.47088257,0.01771656
3267.39968994,0.01765408
3269.32849731,0.01757502
3271.25730469,0.01769769
3273.18611206,0.01761048
3275.11491943,0.01766826
3277.04372681,0.01760528
3278.97253418,0.01760207
3280.90134155,0.01766187
3282.83014893,0.01763517
3284.75895630,0.01769850
3286.68776367,0.01753791
3288.61657104,0.01750528
3290.54537842,0.01744013
3292.47418579,0.01741141
3294.40299316,0.01745337
3296.33180054,0.01741835
3298.26060791,0.01746311
3300.18941528,0.01738840
3302.11822266,0.01736844
3304.04703003,0.01741637
3305.97583740,0.01737869
3307.90464478,0.01726999
3309.83345215,0.01729017
3311.76225952,0.01726947
3313.69106689,0.01719846
3315.61987427,0.01721875
3317.54868164,0.01725837
3319.47748901,0.01734370
3321.40629639,0.01718628
3323.33510376,0.01716268
3325.26391113,0.01724147
3327.19271851,0.01718570
3329.12152588,0.01716214
3331.05033325,0.01710553
3332.97914062,0.01709808
3334.90794800,0.01707234
3336.83675537,0.01706224
3338.76556274,0.01695521
3340.69437012,0.01700330
3342.62317749,0.01703180
3344.55198486,0.01691573
3346.48079224,0.01700104
3348.40959961,0.01694856
3350.33840698,0.01691032
3352.26721436,0.01687873
3354.19602173,0.01681504
3356.12482910,0.01679510
3358.05363647,0.01683335
3359.98244385,0.01685368
3361.91125122,0.01677173
3363.84005859,0.01672783
3365.76886597,0.01671861
3367.69767334,0.01689556
3369.62648071,0.01675611
3371.55528809,0.01670545
3373.48409546,0.01681146
3375.41290283,0.01666305
3377.34171020,0.01673029
3379.27051758,0.01671499
3381.19932495,0.01683245
3383.12813232,0.01675379
3385.05693970,0.01657625
3386.98574707,0.01662487
3388.91455444,0.01662795
3390.84336182,0.01677514
3392.77216919,0.01670538
3394.70097656,0.01670700
3396.62978394,0.01661550
3398.55859131,0.01658764
3400.48739868,0.01674360
3402.41620605,0.01666872
3404.34501343,0.01665396
3406.27382080,0.01661829
3408.20262817,0.01665742
3410.13143555,0.01657783
3412.06024292,0.01666534
3413.98905029,0.01673638
3415.91785767,0.01669403
3417.84666504,0.01671666
3419.77547241,0.01648616
3421.70427979,0.01659497
3423.63308716,0.01669421
3425.56189453,0.01683510
3427.49070190,0.01683350
3429.41950928,0.01667344
3431.34831665,0.01677784
3433.27712402,0.01669841
3435.20593140,0.01678049
3437.13473877,0.01670608
3439.06354614,0.01679520
3440.99235352,0.01686995
3442.92116089,0.01672913
3444.84996826,0.01685915
3446.77877563,0.01662989
3448.70758301,0.01670681
3450.63639038,0.01695278
3452.56519775,0.01688474
3454.49400513,0.01693388
3456.42281250,0.01694088
3458.35161987,0.01690698
3460.28042725,0.01691739
3462.20923462,0.01683780
3464.13804199,0.01686813
3466.06684937,0.01707776
3467.99565674,0.01696819
3469.92446411,0.01700560
3471.85327148,0.01715945
3473.78207886,0.01711965
3475.71088623,0.01708696
3477.63969360,0.01711641
3479.56850098,0.01711822
3481.49730835,0.01691760
3483.42611572,0.01716664
3485.35492310,0.01723474
3487.28373047,0.01708160
3489.21253784,0.01719728
3491.14134521,0.01729346
3493.07015259,0.01741265
3494.99895996,0.01717880
3496.92776733,0.01723230
3498.85657471,0.01740297
3500.78538208,0.01741220
3502.71418945,0.01718096
3504.64299683,0.01711237
3506.57180420,0.01758888
3508.50061157,0.01740483
3510.42941895,0.01741466
3512.35822632,0.01754034
3514.28703369,0.01749291
3516.21584106,0.01766732
3518.14464844,0.01760778
3520.07345581,0.01769200
3522.00226318,0.01750296
3523.93107056,0.01734336
3525.85987793,0.01746115
3527.78868530,0.01750643
3529.71749268,0.01755918
3531.64630005,0.01776634
3533.57510742,0.01790357
3535.50391479,0.01771929
3537.43272217,0.01776847
3539.36152954,0.01794459
3541.29033691,0.01805754
3543.21914429,0.01785598
3545.14795166,0.01750318
3547.07675903,0.01738388
3549.00556641,0.01791519
3550.93437378,0.01818557
3552.86318115,0.01768674
3554.79198853,0.01807803
3556.72079590,0.01820721
3558.64960327,0.01809202
3560.57841064,0.01806951
3562.50721802,0.01796440
3564.43602539,0.01815863
3566.36483276,0.01692811
3568.29364014,0.01652697
3570.22244751,0.01796380
3572.15125488,0.01855754
3574.08006226,0.01828199
3576.00886963,0.01824246
3577.93767700,0.01838218
3579.86648437,0.01837918
3581.79529175,0.01843365
3583.72409912,0.01850841
3585.65290649,0.01807155
3587.58171387,0.01663074
3589.51052124,0.01714223
3591.43932861,0.01865313
3593.36813599,0.01812859
3595.29694336,0.01795480
3597.22575073,0.01826900
3599.15455811,0.01845409
3601.08336548,0.01834254
3603.01217285,0.01842143
3604.94098022,0.01877530
3606.86978760,0.01813650
3608.79859497,0.01714381
3610.72740234,0.01752567
3612.65620972,0.01799829
3614.58501709,0.01751841
3616.51382446,0.01877644
3618.44263184,0.01743865
3620.37143921,0.01675518
3622.30024658,0.01904369
3624.22905395,0.01851715
3626.15786133,0.01935623
3628.08666870,0.01649211
3630.01547607,0.01487078
3631.94428345,0.01885612
3633.87309082,0.01843511
3635.80189819,0.01882539
3637.73070557,0.01928451
3639.65951294,0.01894286
3641.58832031,0.01918679
3643.51712769,0.01893140
3645.44593506,0.01927061
3647.37474243,0.01727337
3649.30354980,0.01570420
3651.23235718,0.01592436
3653.16116455,0.01899416
3655.08997192,0.01902459
3657.01877930,0.01703887
3658.94758667,0.01949167
3660.87639404,0.01916122
3662.80520142,0.01947011
3664.73400879,0.01941450
3666.66281616,0.01919771
3668.59162354,0.01878856
3670.52043091,0.01523944
3672.44923828,0.01834845
3674.37804565,0.01765494
3676.30685303,0.01452167
3678.23566040,0.01837416
3680.16446777,0.01890509
3682.09327515,0.01888871
3684.02208252,0.01955792
3685.95088989,0.01921639
3687.87969727,0.01731499
3689.80850464,0.01584464
3691.73731201,0.01819176
3693.66611938,0.01878714
3695.59492676,0.01903538
3697.52373413,0.01918282
3699.45254150,0.01907999
3701.38134888,0.01857211
3703.31015625,0.01784460
3705.23896362,0.01962384
3707.16777100,0.01874011
3709.09657837,0.01819574
3711.02538574,0.01715849
3712.95419312,0.01597695
3714.88300049,0.01880459
3716.81180786,0.01872614
3718.74061523,0.01878052
3720.66942261,0.01836719
3722.59822998,0.01768424
3724.52703735,0.01838144
3726.45584473,0.01701564
3728.38465210,0.01843878
3730.31345947,0.01842185
3732.24226685,0.01688622
3734.17107422,0.01639358
3736.09988159,0.01554542
3738.02868896,0.01653782
3739.95749634,0.01798808
3741.88630371,0.01881232
3743.81511108,0.01453943
3745.74391846,0.01365625
3747.67272583,0.01795647
3749.60153320,0.01542169
3751.53034058,0.01402824
3753.45914795,0.01618863
3755.38795532,0.01744292
3757.31676270,0.01819604
3759.24557007,0.01689597
3761.17437744,0.01751601
3763.10318481,0.01862549
3765.03199219,0.01730960
3766.96079956,0.01772017
3768.88960693,0.01757927
3770.81841431,0.01667780
3772.74722168,0.01812459
3774.67602905,0.01821279
3776.60483643,0.01821889
3778.53364380,0.01762650
3780.46245117,0.01680589
3782.39125854,0.01810842
3784.32006592,0.01765756
3786.24887329,0.01755005
3788.17768066,0.01801586
3790.10648804,0.01785627
3792.03529541,0.01775069
3793.96410278,0.01802956
3795.89291016,0.01706261
3797.82171753,0.01674135
3799.75052490,0.01770761
3801.67933228,0.01404914
3803.60813965,0.01625772
3805.53694702,0.01791256
3807.46575439,0.01451348
3809.39456177,0.01762294
3811.32336914,0.01737042
3813.25217651,0.01786418
3815.18098389,0.01623164
3817.10979126,0.01412340
3819.03859863,0.01800205
3820.96740601,0.01451246
3822.89621338,0.01514206
3824.82502075,0.01788030
3826.75382812,0.01608620
3828.68263550,0.01736793
3830.61144287,0.01666422
3832.54025024,0.01605722
3834.46905762,0.01652493
3836.39786499,0.01571750
3838.32667236,0.01416885
3840.25547974,0.01536372
3842.18428711,0.01651344
3844.11309448,0.01568091
3846.04190186,0.01708201
3847.97070923,0.01681763
3849.89951660,0.01691000
3851.82832397,0.01526449
3853.75713135,0.01133444
3855.68593872,0.01337354
3857.61474609,0.01680578
3859.54355347,0.01653250
3861.47236084,0.01625750
3863.40116821,0.01581561
3865.32997559,0.01474141
3867.25878296,0.01645964
3869.18759033,0.01512837
3871.11639770,0.01395909
3873.04520508,0.01656609
3874.97401245,0.01524261
3876.90281982,0.01640721
3878.83162720,0.01679889
3880.76043457,0.01433991
3882.68924194,0.01643127
3884.61804932,0.01550187
3886.54685669,0.01419690
3888.47566406,0.01657135
3890.40447144,0.01577062
3892.33327881,0.01469397
3894.26208618,0.01613994
3896.19089355,0.01648748
3898.11970093,0.01566415
3900.04850830,0.01479806
3901.97731567,0.01457597
3903.90612305,0.01442052
3905.83493042,0.01465213
3907.76373779,0.01612167
3909.69254517,0.01608741
3911.62135254,0.01596656
3913.55015991,0.01627532
3915.47896728,0.01568965
3917.40777466,0.01531327
3919.33658203,0.01508932
3921.26538940,0.01578358
3923.19419678,0.01568790
3925.12300415,0.01531104
3927.05181152,0.01571057
3928.98061890,0.01573516
3930.90942627,0.01553548
3932.83823364,0.01503274
3934.76704102,0.01559101
3936.69584839,0.01576595
3938.62465576,0.01559739
3940.55346313,0.01580443
3942.48227051,0.01509761
3944.41107788,0.01522060
3946.33988525,0.01554486
3948.26869263,0.01517398
3950.19750000,0.01513240
3952.12630737,0.01542468
3954.05511475,0.01548603
3955.98392212,0.01535093
3957.91272949,0.01542728
3959.84153687,0.01540418
3961.77034424,0.01524590
3963.69915161,0.01517268
3965.62795898,0.01533354
3967.55676636,0.01527165
3969.48557373,0.01513236
3971.41438110,0.01514903
3973.34318848,0.01517086
3975.27199585,0.01508025
3977.20080322,0.01498563
3979.12961060,0.01522791
3981.05841797,0.01510181
3982.98722534,0.01504701
3984.91603271,0.01509907
3986.84484009,0.01501283
3988.77364746,0.01499667
3990.70245483,0.01483665
3992.63126221,0.01497336
3994.56006958,0.01490142
3996.48887695,0.01490333
3998.41768433,0.01496890
4000.34649170,0.01478335
4002.27529907,0.01482771
4004.20410645,0.01484489
4006.13291382,0.01480902
4008.06172119,0.01473021
4009.99052856,0.01478447
4011.91933594,0.01468436
4013.84814331,0.01464604
4015.77695068,0.01469438
4017.70575806,0.01457223
4019.63456543,0.01458725
4021.56337280,0.01454317
4023.49218018,0.01462758
4025.42098755,0.01446984
4027.34979492,0.01443728
4029.27860229,0.01454873
4031.20740967,0.01441831
4033.13621704,0.01445781
4035.06502441,0.01433845
4036.99383179,0.01436514
4038.92263916,0.01432162
4040.85144653,0.01427854
4042.78025391,0.01431331
4044.70906128,0.01416975
4046.63786865,0.01427623
4048.56667603,0.01425045
4050.49548340,0.01417282
4052.42429077,0.01417478
4054.35309814,0.01415844
4056.28190552,0.01412073
4058.21071289,0.01409161
4060.13952026,0.01409697
4062.06832764,0.01405665
4063.99713501,0.01410300
4065.92594238,0.01405767
4067.85474976,0.01401244
4069.78355713,0.01399490
4071.71236450,0.01397513
4073.64117187,0.01389574
4075.56997925,0.01384051
4077.49878662,0.01386119
4079.42759399,0.01376658
4081.35640137,0.01379927
4083.28520874,0.01382381
4085.21401611,0.01376317
4087.14282349,0.01367624
4089.07163086,0.01368803
4091.00043823,0.01367792
4092.92924561,0.01360763
4094.85805298,0.01362938
4096.78686035,0.01356899
4098.71566772,0.01364856
4100.64447510,0.01355537
4102.57328247,0.01341858
4104.50208984,0.01345690
4106.43089722,0.01350092
4108.35970459,0.01350276
4110.28851196,0.01336708
4112.21731934,0.01340015
4114.14612671,0.01337420
4116.07493408,0.01343432
4118.00374145,0.01334784
4119.93254883,0.01320931
4121.86135620,0.01327857
4123.79016357,0.01314202
4125.71897095,0.01325048
4127.64777832,0.01322550
4129.57658569,0.01313756
4131.50539307,0.01314663
4133.43420044,0.01307135
4135.36300781,0.01309204
4137.29181519,0.01308059
4139.22062256,0.01312073
4141.14942993,0.01299502
4143.07823730,0.01304057
4145.00704468,0.01306492
4146.93585205,0.01302867
4148.86465942,0.01304589
4150.79346680,0.01290613
4152.72227417,0.01295922
4154.65108154,0.01286924
4156.57988892,0.01288646
4158.50869629,0.01284979
4160.43750366,0.01275852
4162.36631103,0.01280492
4164.29511841,0.01269861
4166.22392578,0.01271158
4168.15273315,0.01263328
4170.08154053,0.01268356
4172.01034790,0.01262656
4173.93915527,0.01259254
4175.86796265,0.01273191
4177.79677002,0.01260194
4179.72557739,0.01254176
4181.65438477,0.01251486
4183.58319214,0.01258092
4185.51199951,0.01244904
4187.44080688,0.01243056
4189.36961426,0.01251219
4191.29842163,0.01232720
4193.22722900,0.01241664
4195.15603638,0.01233685
4197.08484375,0.01227273
4199.01365112,0.01235533
4200.94245850,0.01233109
4202.87126587,0.01231478
4204.80007324,0.01224090
4206.72888062,0.01229533
4208.65768799,0.01229434
4210.58649536,0.01219677
4212.51530273,0.01210825
4214.44411011,0.01213609
4216.37291748,0.01214412
4218.30172485,0.01206491
4220.23053223,0.01209644
4222.15933960,0.01207552
4224.08814697,0.01200717
4226.01695435,0.01198502
4227.94576172,0.01202912
4229.87456909,0.01197573
4231.80337646,0.01191756
4233.73218384,0.01194485
4235.66099121,0.01191191
4237.58979858,0.01189452
4239.51860596,0.01186000
4241.44741333,0.01175220
4243.37622070,0.01167604
4245.30502808,0.01172581
4247.23383545,0.01169391
4249.16264282,0.01168027
4251.09145020,0.01169635
4253.02025757,0.01166655
4254.94906494,0.01169388
4256.87787231,0.01162816
4258.80667969,0.01162432
4260.73548706,0.01166877
4262.66429443,0.01164085
4264.59310181,0.01152517
4266.52190918,0.01155777
4268.45071655,0.01157404
4270.37952393,0.01145089
4272.30833130,0.01153844
4274.23713867,0.01147337
4276.16594604,0.01145853
4278.09475342,0.01144352
4280.02356079,0.01134513
4281.95236816,0.01134529
4283.88117554,0.01132314
4285.80998291,0.01140819
4287.73879028,0.01127343
4289.66759766,0.01129762
4291.59640503,0.01135608
4293.52521240,0.01131099
4295.45401978,0.01129566
4297.38282715,0.01110405
4299.31163452,0.01118840
4301.24044189,0.01110522
4303.16924927,0.01110122
4305.09805664,0.01117187
4307.02686401,0.01104473
4308.95567139,0.01111034
4310.88447876,0.01098092
4312.81328613,0.01099767
4314.74209351,0.01101409
4316.67090088,0.01095171
4318.59970825,0.01100020
4320.52851562,0.01086954
4322.45732300,0.01086370
4324.38613037,0.01091993
4326.31493774,0.01090489
4328.24374512,0.01086023
4330.17255249,0.01084848
4332.10135986,0.01079173
4334.03016724,0.01074237
4335.95897461,0.01074588
4337.88778198,0.01070681
4339.81658936,0.01077737
4341.74539673,0.01076630
4343.67420410,0.01070120
4345.60301147,0.01060991
4347.53181885,0.01055484
4349.46062622,0.01064340
4351.38943359,0.01063791
4353.31824097,0.01057345
4355.24704834,0.01052190
4357.17585571,0.01052958
4359.10466309,0.01054304
4361.03347046,0.01052127
4362.96227783,0.01043931
4364.89108520,0.01037591
4366.81989258,0.01047484
4368.74869995,0.01048772
4370.67750732,0.01038188
4372.60631470,0.01034923
4374.53512207,0.01033425
4376.46392944,0.01028593
4378.39273682,0.01022783
4380.32154419,0.01019664
4382.25035156,0.01023190
4384.17915894,0.01017963
4386.10796631,0.01022733
4388.03677368,0.01034930
4389.96558105,0.01021366
4391.89438843,0.01013163
4393.82319580,0.01013337
4395.75200317,0.01018268
4397.68081055,0.01017189
4399.60961792,0.01007388
4401.53842529,0.01008313
4403.46723267,0.01000889
4405.39604004,0.01000731
4407.32484741,0.01002428
4409.25365478,0.00996380
4411.18246216,0.00994317
4413.11126953,0.00997980
4415.04007690,0.00998919
4416.96888428,0.00993561
4418.89769165,0.00993287
4420.82649902,0.00983861
4422.75530640,0.00985495
4424.68411377,0.00985640
4426.61292114,0.00980735
4428.54172852,0.00980557
4430.47053589,0.00972262
4432.39934326,0.00977674
4434.32815063,0.00967994
4436.25695801,0.00962186
4438.18576538,0.00972329
4440.11457275,0.00975144
4442.04338013,0.00970514
4443.97218750,0.00958981
4445.90099487,0.00963339
4447.82980225,0.00962129
4449.75860962,0.00959235
4451.68741699,0.00952028
4453.61622437,0.00951334
4455.54503174,0.00956693
4457.47383911,0.00944559
4459.40264648,0.00949023
4461.33145386,0.00941801
4463.26026123,0.00938906
4465.18906860,0.00943766
4467.11787598,0.00934462
4469.04668335,0.00943646
4470.97549072,0.00934680
4472.90429810,0.00924879
4474.83310547,0.00936044
4476.76191284,0.00930811
4478.69072021,0.00925853
4480.61952759,0.00926851
4482.54833496,0.00925461
4484.47714233,0.00928641
4486.40594971,0.00924248
4488.33475708,0.00923164
4490.26356445,0.00918324
4492.19237183,0.00909983
4494.12117920,0.00920110
4496.04998657,0.00914493
4497.97879395,0.00912253
4499.90760132,0.00913618
4501.83640869,0.00900380
4503.76521606,0.00896254
4505.69402344,0.00895740
4507.62283081,0.00900104
4509.55163818,0.00897164
4511.48044556,0.00897276
4513.40925293,0.00890270
4515.33806030,0.00887714
4517.26686768,0.00893231
4519.19567505,0.00888236
4521.12448242,0.00896194
4523.05328979,0.00879257
4524.98209717,0.00876539
4526.91090454,0.00885043
4528.83971191,0.00876864
4530.76851929,0.00882390
4532.69732666,0.00874626
4534.62613403,0.00872797
4536.55494141,0.00862362
4538.48374878,0.00868177
4540.41255615,0.00877727
4542.34136353,0.00857615
4544.27017090,0.00857134
4546.19897827,0.00859531
4548.12778564,0.00866975
4550.05659302,0.00863875
4551.98540039,0.00860826
4553.91420776,0.00859986
4555.84301514,0.00851091
4557.77182251,0.00861209
4559.70062988,0.00857784
4561.62943726,0.00851300
4563.55824463,0.00848014
4565.48705200,0.00843411
4567.41585937,0.00838741
4569.34466675,0.00838826
4571.27347412,0.00838853
4573.20228149,0.00831936
4575.13108887,0.00842126
4577.05989624,0.00839534
4578.98870361,0.00835741
4580.91751099,0.00829853
4582.84631836,0.00821006
4584.77512573,0.00827887
4586.70393311,0.00827480
4588.63274048,0.00830324
4590.56154785,0.00824589
4592.49035522,0.00816201
4594.41916260,0.00809247
4596.34796997,0.00813395
4598.27677734,0.00819476
4600.20558472,0.00811395
4602.13439209,0.00817022
4604.06319946,0.00812359
4605.99200684,0.00815256
4607.92081421,0.00815058
4609.84962158,0.00802691
4611.77842895,0.00806065
4613.70723633,0.00802278
4615.63604370,0.00801891
4617.56485107,0.00800146
4619.49365845,0.00801748
4621.42246582,0.00799067
4623.35127319,0.00790010
4625.28008057,0.00792080
4627.20888794,0.00787963
4629.13769531,0.00787844
4631.06650269,0.00784978
4632.99531006,0.00786148
4634.92411743,0.00789249
4636.85292480,0.00778986
4638.78173218,0.00776245
4640.71053955,0.00777229
4642.63934692,0.00775718
4644.56815430,0.00775017
4646.49696167,0.00775215
4648.42576904,0.00770844
4650.35457642,0.00770820
4652.28338379,0.00769217
4654.21219116,0.00765292
4656.14099853,0.00775314
4658.06980591,0.00770107
4659.99861328,0.00765685
4661.92742065,0.00768031
4663.85622803,0.00756923
4665.78503540,0.00759537
4667.71384277,0.00761000
4669.64265015,0.00758145
4671.57145752,0.00755138
4673.50026489,0.00750026
4675.42907227,0.00753843
4677.35787964,0.00746626
4679.28668701,0.00748427
4681.21549438,0.00749922
4683.14430176,0.00742953
4685.07310913,0.00751645
4687.00191650,0.00742829
4688.93072388,0.00738689
4690.85953125,0.00743438
4692.78833862,0.00732416
4694.71714600,0.00730500
4696.64595337,0.00732190
4698.57476074,0.00730064
4700.50356812,0.00724101
4702.43237549,0.00725023
4704.36118286,0.00728703
4706.28999023,0.00725241
4708.21879761,0.00721887
4710.14760498,0.00719699
4712.07641235,0.00726093
4714.00521973,0.00726121
4715.93402710,0.00718531
4717.86283447,0.00715127
4719.79164185,0.00716404
4721.72044922,0.00715029
4723.64925659,0.00712588
4725.57806396,0.00716841
4727.50687134,0.00716484
4729.43567871,0.00710054
4731.36448608,0.00696204
4733.29329346,0.00701017
4735.22210083,0.00705574
4737.15090820,0.00692684
4739.07971558,0.00697970
4741.00852295,0.00696127
4742.93733032,0.00702509
4744.86613770,0.00708660
4746.79494507,0.00691682
4748.72375244,0.00691678
4750.65255981,0.00691714
4752.58136719,0.00688245
4754.51017456,0.00689652
4756.43898193,0.00686039
4758.36778931,0.00689439
4760.29659668,0.00686423
4762.22540405,0.00674691
4764.15421143,0.00679848
4766.08301880,0.00679835
4768.01182617,0.00671701
4769.94063354,0.00672943
4771.86944092,0.00675000
4773.79824829,0.00679223
4775.72705566,0.00667353
4777.65586304,0.00664801
4779.58467041,0.00671068
4781.51347778,0.00666475
4783.44228516,0.00665730
4785.37109253,0.00657544
4787.29989990,0.00666266
4789.22870728,0.00663058
4791.15751465,0.00657285
4793.08632202,0.00668458
4795.01512939,0.00658503
4796.94393677,0.00661161
4798.87274414,0.00659822
4800.80155151,0.00652740
4802.73035889,0.00648009
4804.65916626,0.00639442
4806.58797363,0.00647196
4808.51678101,0.00647701
4810.44558838,0.00641619
4812.37439575,0.00642174
4814.30320312,0.00648612
4816.23201050,0.00641409
4818.16081787,0.00638811
4820.08962524,0.00647610
4822.01843262,0.00639818
4823.94723999,0.00639964
4825.87604736,0.00642259
4827.80485474,0.00635555
4829.73366211,0.00625467
4831.66246948,0.00622650
4833.59127686,0.00624343
4835.52008423,0.00625403
4837.44889160,0.00629799
4839.37769897,0.00625291
4841.30650635,0.00628038
4843.23531372,0.00625692
4845.16412109,0.00622066
4847.09292847,0.00621701
4849.02173584,0.00616781
4850.95054321,0.00621933
4852.87935059,0.00613890
4854.80815796,0.00611241
4856.73696533,0.00617558
4858.66577270,0.00612404
4860.59458008,0.00609546
4862.52338745,0.00608324
4864.45219482,0.00608093
4866.38100220,0.00611238
4868.30980957,0.00611437
4870.23861694,0.00600638
4872.16742432,0.00601105
4874.09623169,0.00611914
4876.02503906,0.00611195
4877.95384644,0.00599694
4879.88265381,0.00596311
4881.81146118,0.00602645
4883.74026855,0.00590322
4885.66907593,0.00587062
4887.59788330,0.00595250
4889.52669067,0.00594513
4891.45549805,0.00592836
4893.38430542,0.00585155
4895.31311279,0.00589477
4897.24192017,0.00592748
4899.17072754,0.00582892
4901.09953491,0.00582201
4903.02834228,0.00586738
4904.95714966,0.00585995
4906.88595703,0.00584361
4908.81476440,0.00579291
4910.74357178,0.00572835
4912.67237915,0.00577541
4914.60118652,0.00578392
4916.52999390,0.00574210
4918.45880127,0.00571174
4920.38760864,0.00568028
4922.31641602,0.00572112
4924.24522339,0.00570601
4926.17403076,0.00564251
4928.10283813,0.00568100
4930.03164551,0.00566617
4931.96045288,0.00554784
4933.88926025,0.00561155
4935.81806763,0.00561277
4937.74687500,0.00551912
4939.67568237,0.00563502
4941.60448975,0.00557211
4943.53329712,0.00548408
4945.46210449,0.00556456
4947.39091187,0.00549053
4949.31971924,0.00547570
4951.24852661,0.00556120
4953.17733398,0.00555894
4955.10614136,0.00554033
4957.03494873,0.00547280
4958.96375610,0.00540897
4960.89256348,0.00541948
4962.82137085,0.00537896
4964.75017822,0.00540081
4966.67898560,0.00541739
4968.60779297,0.00535035
4970.53660034,0.00542909
4972.46540771,0.00546746
4974.39421509,0.00536499
4976.32302246,0.00529433
4978.25182983,0.00534915
4980.18063721,0.00539259
4982.10944458,0.00529999
4984.03825195,0.00531783
4985.96705933,0.00531412
4987.89586670,0.00523938
4989.82467407,0.00526801
4991.75348145,0.00520362
4993.68228882,0.00519601
4995.61109619,0.00525538
4997.53990356,0.00519658
4999.46871094,0.00519496
5001.39751831,0.00516197
5003.32632568,0.00514530
5005.25513306,0.00520493
5007.18394043,0.00518563
5009.11274780,0.00512614
5011.04155518,0.00504343
5012.97036255,0.00509181
5014.89916992,0.00513656
5016.82797729,0.00511472
5018.75678467,0.00510639
5020.68559204,0.00503566
5022.61439941,0.00508554
5024.54320679,0.00506798
5026.47201416,0.00506318
5028.40082153,0.00505586
5030.32962891,0.00490225
5032.25843628,0.00497332
5034.18724365,0.00502682
5036.11605103,0.00498992
5038.04485840,0.00494922
5039.97366577,0.00492084
5041.90247314,0.00498670
5043.83128052,0.00496504
5045.76008789,0.00495769
5047.68889526,0.00490061
5049.61770264,0.00483505
5051.54651001,0.00487640
5053.47531738,0.00489692
5055.40412476,0.00493929
5057.33293213,0.00491377
5059.26173950,0.00479273
5061.19054687,0.00480483
5063.11935425,0.00487613
5065.04816162,0.00482016
5066.97696899,0.00483647
5068.90577637,0.00484421
5070.83458374,0.00478779
5072.76339111,0.00481434
5074.69219849,0.00480733
5076.62100586,0.00477270
5078.54981323,0.00472267
5080.47862061,0.00473655
5082.40742798,0.00471155
5084.33623535,0.00461603
5086.26504272,0.00465380
5088.19385010,0.00469960
5090.12265747,0.00467925
5092.05146484,0.00467862
5093.98027222,0.00470431
5095.90907959,0.00465632
5097.83788696,0.00464080
5099.76669434,0.00464669
5101.69550171,0.00461343
5103.62430908,0.00462736
5105.55311645,0.00457809
5107.48192383,0.00460518
5109.41073120,0.00464103
5111.33953857,0.00454635
5113.26834595,0.00452134
5115.19715332,0.00451783
5117.12596069,0.00448381
5119.05476807,0.00451417
5120.98357544,0.00449192
5122.91238281,0.00448636
5124.84119019,0.00451851
5126.76999756,0.00436912
5128.69880493,0.00446685
5130.62761230,0.00456529
5132.55641968,0.00440163
5134.48522705,0.00442804
5136.41403442,0.00438037
5138.34284180,0.00439337
5140.27164917,0.00438034
5142.20045654,0.00433011
5144.12926392,0.00444623
5146.05807129,0.00437463
5147.98687866,0.00436301
5149.91568603,0.00433847
5151.84449341,0.00428788
5153.77330078,0.00432063
5155.70210815,0.00424064
5157.63091553,0.00423303
5159.55972290,0.00429550
5161.48853027,0.00427162
5163.41733765,0.00419014
5165.34614502,0.00426438
5167.27495239,0.00436667
5169.20375977,0.00431319
5171.13256714,0.00420239
5173.06137451,0.00419683
5174.99018188,0.00422448
5176.91898926,0.00420394
5178.84779663,0.00428361
5180.77660400,0.00421938
5182.70541138,0.00420913
5184.63421875,0.00421206
5186.56302612,0.00411443
5188.49183350,0.00416624
5190.42064087,0.00410602
5192.34944824,0.00418033
5194.27825562,0.00414359
5196.20706299,0.00396988
5198.13587036,0.00410486
5200.06467773,0.00413164
5201.99348511,0.00414184
5203.92229248,0.00417819
5205.85109985,0.00399625
5207.77990723,0.00386557
5209.70871460,0.00399161
5211.63752197,0.00409738
5213.56632935,0.00410845
5215.49513672,0.00406161
5217.42394409,0.00397179
5219.35275146,0.00405758
5221.28155884,0.00402910
5223.21036621,0.00398076
5225.13917358,0.00401586
5227.06798096,0.00394256
5228.99678833,0.00396390
5230.92559570,0.00394173
5232.85440308,0.00384940
5234.78321045,0.00392595
5236.71201782,0.00404117
5238.64082520,0.00392022
5240.56963257,0.00393214
5242.49843994,0.00398201
5244.42724731,0.00381158
5246.35605469,0.00386835
5248.28486206,0.00383503
5250.21366943,0.00381339
5252.14247681,0.00391929
5254.07128418,0.00383111
5256.00009155,0.00379115
5257.92889893,0.00381298
5259.85770630,0.00383710
5261.78651367,0.00371338
5263.71532104,0.00365190
5265.64412842,0.00370843
5267.57293579,0.00375564
5269.50174316,0.00382259
5271.43055054,0.00370871
5273.35935791,0.00373590
5275.28816528,0.00378064
5277.21697266,0.00375416
5279.14578003,0.00373813
5281.07458740,0.00368547
5283.00339478,0.00377008
5284.93220215,0.00362799
5286.86100952,0.00363064
5288.78981689,0.00372903
5290.71862427,0.00357533
5292.64743164,0.00367749
5294.57623901,0.00368933
5296.50504639,0.00360055
5298.43385376,0.00363487
5300.36266113,0.00364156
5302.29146851,0.00373140
5304.22027588,0.00376857
5306.14908325,0.00366372
5308.07789062,0.00356470
5310.00669800,0.00356461
5311.93550537,0.00351469
5313.86431274,0.00356690
5315.79312012,0.00365705
5317.72192749,0.00354842
5319.65073486,0.00350396
5321.57954224,0.00346597
5323.50834961,0.00353212
5325.43715698,0.00358548
5327.36596436,0.00345346
5329.29477173,0.00347934
5331.22357910,0.00354602
5333.15238647,0.00351412
5335.08119385,0.00347845
5337.01000122,0.00347110
5338.93880859,0.00338023
5340.86761597,0.00344255
5342.79642334,0.00351195
5344.72523071,0.00331736
5346.65403809,0.00341671
5348.58284546,0.00344596
5350.51165283,0.00339667
5352.44046020,0.00345011
5354.36926758,0.00324861
5356.29807495,0.00333516
5358.22688232,0.00348569
5360.15568970,0.00340739
5362.08449707,0.00333966
5364.01330444,0.00331912
5365.94211182,0.00337396
5367.87091919,0.00334226
5369.79972656,0.00334753
5371.72853394,0.00333582
5373.65734131,0.00329372
5375.58614868,0.00326248
5377.51495605,0.00323597
5379.44376343,0.00329079
5381.37257080,0.00333767
5383.30137817,0.00335269
5385.23018555,0.00320316
5387.15899292,0.00323121
5389.08780029,0.00339329
5391.01660767,0.00326946
5392.94541504,0.00318188
5394.87422241,0.00316663
5396.80302978,0.00317274
5398.73183716,0.00325424
5400.66064453,0.00327849
5402.58945190,0.00322646
5404.51825928,0.00318865
5406.44706665,0.00317928
5408.37587402,0.00318892
5410.30468140,0.00317953
5412.23348877,0.00309946
5414.16229614,0.00312124
5416.09110352,0.00311112
5418.01991089,0.00311946
5419.94871826,0.00319771
5421.87752563,0.00312597
5423.80633301,0.00318485
5425.73514038,0.00320385
5427.66394775,0.00310584
5429.59275513,0.00309289
5431.52156250,0.00305671
5433.45036987,0.00310072
5435.37917725,0.00305044
5437.30798462,0.00301017
5439.23679199,0.00307454
5441.16559936,0.00303129
5443.09440674,0.00304848
5445.02321411,0.00299126
5446.95202148,0.00298167
5448.88082886,0.00306212
5450.80963623,0.00301940
5452.73844360,0.00305819
5454.66725098,0.00294158
5456.59605835,0.00288694
5458.52486572,0.00297696
5460.45367310,0.00288513
5462.38248047,0.00299349
5464.31128784,0.00307285
5466.24009521,0.00305404
5468.16890259,0.00301238
5470.09770996,0.00287993
5472.02651733,0.00301174
5473.95532471,0.00299244
5475.88413208,0.00282708
5477.81293945,0.00290417
5479.74174683,0.00295514
5481.67055420,0.00293311
5483.59936157,0.00298174
5485.52816895,0.00298603
5487.45697632,0.00282833
5489.38578369,0.00286559
5491.31459106,0.00296373
5493.24339844,0.00281131
5495.17220581,0.00281886
5497.10101318,0.00292690
5499.02982056,0.00287406
5500.95862793,0.00281698
5502.88743530,0.00279594
5504.81624268,0.00281320
5506.74505005,0.00279112
5508.67385742,0.00279058
5510.60266479,0.00292091
5512.53147217,0.00287658
5514.46027954,0.00281715
5516.38908691,0.00282101
5518.31789429,0.00272946
5520.24670166,0.00277146
5522.17550903,0.00276074
5524.10431641,0.00274380
5526.03312378,0.00273559
5527.96193115,0.00271816
5529.89073853,0.00277293
5531.81954590,0.00270027
5533.74835327,0.00273078
5535.67716064,0.00271852
5537.60596802,0.00267173
5539.53477539,0.00271246
5541.46358276,0.00269417
5543.39239014,0.00274944
5545.32119751,0.00278629
5547.25000488,0.00281051
5549.17881226,0.00269404
5551.10761963,0.00259726
5553.03642700,0.00267269
5554.96523437,0.00270309
5556.89404175,0.00267759
5558.82284912,0.00262963
5560.75165649,0.00269449
5562.68046387,0.00266974
5564.60927124,0.00265000
5566.53807861,0.00265581
5568.46688599,0.00261121
5570.39569336,0.00262816
5572.32450073,0.00256003
5574.25330811,0.00264313
5576.18211548,0.00266376
5578.11092285,0.00262586
5580.03973022,0.00266175
5581.96853760,0.00257043
5583.89734497,0.00256207
5585.82615234,0.00259024
5587.75495972,0.00261845
5589.68376709,0.00255784
5591.61257446,0.00252696
5593.54138184,0.00252878
5595.47018921,0.00248789
5597.39899658,0.00253942
5599.32780395,0.00252260
5601.25661133,0.00256312
5603.18541870,0.00254010
5605.11422607,0.00250658
5607.04303345,0.00253956
5608.97184082,0.00249702
5610.90064819,0.00248595
5612.82945557,0.00245719
5614.75826294,0.00253364
5616.68707031,0.00249854
5618.61587769,0.00244635
5620.54468506,0.00250591
5622.47349243,0.00244710
5624.40229980,0.00247394
5626.33110718,0.00245214
5628.25991455,0.00239196
5630.18872192,0.00240085
5632.11752930,0.00239584
5634.04633667,0.00240938
5635.97514404,0.00243689
5637.90395142,0.00245502
5639.83275879,0.00244624
5641.76156616,0.00248110
5643.69037353,0.00247568
5645.61918091,0.00244121
5647.54798828,0.00238379
5649.47679565,0.00233096
5651.40560303,0.00233336
5653.33441040,0.00235118
5655.26321777,0.00240478
5657.19202515,0.00240168
5659.12083252,0.00242437
5661.04963989,0.00237530
5662.97844727,0.00232563
5664.90725464,0.00232716
5666.83606201,0.00224744
5668.76486938,0.00234469
5670.69367676,0.00233444
5672.62248413,0.00227789
5674.55129150,0.00236609
5676.48009888,0.00232000
5678.40890625,0.00236529
5680.33771362,0.00235740
5682.26652100,0.00226062
5684.19532837,0.00229348
5686.12413574,0.00227920
5688.05294311,0.00228098
5689.98175049,0.00224154
5691.91055786,0.00219487
5693.83936523,0.00227821
5695.76817261,0.00225859
5697.69697998,0.00223448
5699.62578735,0.00223915
5701.55459473,0.00216512
5703.48340210,0.00219861
5705.41220947,0.00220904
5707.34101685,0.00214997
5709.26982422,0.00219299
5711.19863159,0.00228365
5713.12743896,0.00224565
5715.05624634,0.00213273
5716.98505371,0.00216095
5718.91386108,0.00214979
5720.84266846,0.00213638
5722.77147583,0.00221370
5724.70028320,0.00217938
5726.62909058,0.00214571
5728.55789795,0.00213749
5730.48670532,0.00212501
5732.41551270,0.00214462
5734.34432007,0.00215860
5736.27312744,0.00216454
5738.20193481,0.00214279
5740.13074219,0.00216533
5742.05954956,0.00218640
5743.98835693,0.00213970
5745.91716431,0.00212246
5747.84597168,0.00212417
5749.77477905,0.00210871
5751.70358643,0.00213195
5753.63239380,0.00212931
5755.56120117,0.00207911
5757.49000854,0.00209229
5759.41881592,0.00205351
5761.34762329,0.00200584
5763.27643066,0.00206916
5765.20523804,0.00206793
5767.13404541,0.00201780
5769.06285278,0.00198267
5770.99166016,0.00202597
5772.92046753,0.00210673
5774.84927490,0.00209392
5776.77808228,0.00207874
5778.70688965,0.00198203
5780.63569702,0.00194403
5782.56450439,0.00203362
5784.49331177,0.00202309
5786.42211914,0.00197205
5788.35092651,0.00192585
5790.27973389,0.00200233
5792.20854126,0.00201545
5794.13734863,0.00193369
5796.06615601,0.00195821
5797.99496338,0.00191727
5799.92377075,0.00197514
5801.85257812,0.00197128
5803.78138550,0.00186036
5805.71019287,0.00191270
5807.63900024,0.00194844
5809.56780762,0.00195419
5811.49661499,0.00189466
5813.42542236,0.00188372
5815.35422974,0.00193573
5817.28303711,0.00190198
5819.21184448,0.00186474
5821.14065186,0.00186198
5823.06945923,0.00189825
5824.99826660,0.00184217
5826.92707397,0.00185663
5828.85588135,0.00198445
5830.78468872,0.00194909
5832.71349609,0.00185886
5834.64230347,0.00186280
5836.57111084,0.00184346
5838.49991821,0.00183893
5840.42872559,0.00190304
5842.35753296,0.00181270
5844.28634033,0.00177555
5846.21514770,0.00183084
5848.14395508,0.00180690
5850.07276245,0.00181108
5852.00156982,0.00178948
5853.93037720,0.00182757
5855.85918457,0.00182084
5857.78799194,0.00179298
5859.71679932,0.00178571
5861.64560669,0.00177335
5863.57441406,0.00181998
5865.50322144,0.00173878
5867.43202881,0.00171339
5869.36083618,0.00170022
5871.28964355,0.00172622
5873.21845093,0.00177109
5875.14725830,0.00171234
5877.07606567,0.00180222
5879.00487305,0.00173327
5880.93368042,0.00170914
5882.86248779,0.00177621
5884.79129517,0.00168842
5886.72010254,0.00174656
5888.64890991,0.00169466
5890.57771728,0.00165650
5892.50652466,0.00174697
5894.43533203,0.00171116
5896.36413940,0.00165504
5898.29294678,0.00161253
5900.22175415,0.00164319
5902.15056152,0.00165326
5904.07936890,0.00164563
5906.00817627,0.00168701
5907.93698364,0.00165744
5909.86579102,0.00165396
5911.79459839,0.00168720
5913.72340576,0.00169731
5915.65221313,0.00169109
5917.58102051,0.00164500
5919.50982788,0.00162601
5921.43863525,0.00161289
5923.36744263,0.00160191
5925.29625000,0.00157292
5927.22505737,0.00157866
5929.15386475,0.00171972
5931.08267212,0.00172066
5933.01147949,0.00162205
5934.94028686,0.00160538
5936.86909424,0.00159558
5938.79790161,0.00157148
5940.72670898,0.00156284
5942.65551636,0.00167590
5944.58432373,0.00163135
5946.51313110,0.00157886
5948.44193848,0.00170068
5950.37074585,0.00160880
5952.29955322,0.00156066
5954.22836060,0.00156517
5956.15716797,0.00150809
5958.08597534,0.00156377
5960.01478271,0.00158734
5961.94359009,0.00162234
5963.87239746,0.00163454
5965.80120483,0.00157552
5967.73001221,0.00156508
5969.65881958,0.00157116
5971.58762695,0.00154920
5973.51643433,0.00149453
5975.44524170,0.00145129
5977.37404907,0.00151476
5979.30285645,0.00154682
5981.23166382,0.00149181
5983.16047119,0.00159959
5985.08927856,0.00159891
5987.01808594,0.00141060
5988.94689331,0.00144502
5990.87570068,0.00152115
5992.80450806,0.00148720
5994.73331543,0.00146358
5996.66212280,0.00148803
5998.59093018,0.00152113
6000.51973755,0.00150388
