399.26312622,0.00039950
401.19193359,-0.00003222
403.12074097,0.00029098
405.04954834,0.00008119
406.97835571,0.00035309
408.90716309,0.00051270
410.83597046,0.00005074
412.76477783,0.00006553
414.69358521,0.00008662
416.62239258,0.00010184
418.55119995,0.00035640
420.48000732,0.00053038
422.40881470,0.00061391
424.33762207,0.00036165
426.26642944,0.00021769
428.19523682,0.00043352
430.12404419,0.00062306
432.05285156,0.00050560
433.98165894,0.00031944
435.91046631,0.00057231
437.83927368,0.00033718
439.76808105,0.00030651
441.69688843,0.00047651
443.62569580,0.00024568
445.55450317,0.00034821
447.48331055,0.00007709
449.41211792,0.00036667
451.34092529,0.00029796
453.26973267,0.00001892
455.19854004,0.00067567
457.12734741,0.00029823
459.05615479,-0.00003733
460.98496216,0.00011453
462.91376953,0.00024146
464.84257690,0.00041082
466.77138428,0.00045609
468.70019165,0.00012359
470.62899902,-0.00004115
472.55780640,0.00020875
474.48661377,-0.00011967
476.41542114,0.00030694
478.34422852,0.00033908
480.27303589,-0.00003150
482.20184326,0.00007664
484.13065063,0.00003970
486.05945801,0.00028011
487.98826538,0.00014753
489.91707275,0.00018591
491.84588013,-0.00019717
493.77468750,-0.00003225
495.70349487,0.00035672
497.63230225,0.00013184
499.56110962,0.00026005
501.48991699,0.00012812
503.41872437,-0.00004720
505.34753174,0.00011413
507.27633911,0.00035709
509.20514648,0.00030655
511.13395386,0.00021279
513.06276123,0.00011033
514.99156860,0.00005134
516.92037598,0.00042882
518.84918335,0.00027385
520.77799072,-0.00012090
522.70679810,0.00023579
524.63560547,0.00036523
526.56441284,0.00041882
528.49322021,0.00057825
530.42202759,0.00006999
532.35083496,0.00010083
534.27964233,0.00016032
536.20844971,0.00015355
538.13725708,0.00019883
540.06606445,-0.00012159
541.99487183,-0.00003453
543.92367920,-0.00012740
545.85248657,0.00013580
547.78129395,-0.00008928
549.71010132,-0.00066974
551.63890869,0.00019601
553.56771606,0.00005486
555.49652344,-0.00010940
557.42533081,0.00025502
559.35413818,-0.00010787
561.28294556,0.00006574
563.21175293,0.00000423
565.14056030,0.00045656
567.06936768,0.00033879
568.99817505,-0.00014166
570.92698242,0.00019450
572.85578979,0.00021537
574.78459717,-0.00000263
576.71340454,-0.00013270
578.64221191,0.00036654
580.57101929,0.00017609
582.49982666,0.00017667
584.42863403,0.00023952
586.35744141,0.00006053
588.28624878,0.00009261
590.21505615,-0.00009199
592.14386353,0.00036302
594.07267090,0.00003957
596.00147827,-0.00018927
597.93028564,0.00044766
599.85909302,0.00030320
601.78790039,-0.00014308
603.71670776,0.00022888
605.64551514,0.00019018
607.57432251,-0.00008860
609.50312988,0.00030857
611.43193726,0.00003029
613.36074463,-0.00029776
615.28955200,-0.00009849
617.21835938,0.00011336
619.14716675,-0.00002819
621.07597412,0.00011902
623.00478149,0.00013336
624.93358887,0.00008574
626.86239624,-0.00004689
628.79120361,-0.00007299
630.72001099,0.00024343
632.64881836,0.00025075
634.57762573,0.00031633
636.50643311,0.00031780
638.43524048,0.00049379
640.36404785,0.00040758
642.29285522,0.00069428
644.22166260,0.00081509
646.15046997,0.00024310
648.07927734,0.00053003
650.00808472,0.00043820
651.93689209,0.00055065
653.86569946,0.00085327
655.79450684,0.00046712
657.72331421,0.00041581
659.65212158,0.00042654
661.58092896,0.00075222
663.50973633,0.00095340
665.43854370,0.00071493
667.36735107,0.00056621
669.29615845,0.00077517
671.22496582,0.00104895
673.15377319,0.00077649
675.08258057,0.00097006
677.01138794,0.00128839
678.94019531,0.00089546
680.86900269,0.00093705
682.79781006,0.00107010
684.72661743,0.00082012
686.65542480,0.00096599
688.58423218,0.00092137
690.51303955,0.00108376
692.44184692,0.00137119
694.37065430,0.00106324
696.29946167,0.00137933
698.22826904,0.00159034
700.15707642,0.00156613
702.08588379,0.00173075
704.01469116,0.00150591
705.94349854,0.00131329
707.87230591,0.00110506
709.80111328,0.00107350
711.72992065,0.00072273
713.65872803,0.00043171
715.58753540,0.00066473
717.51634277,0.00035839
719.44515015,0.00005746
721.37395752,0.00000635
723.30276489,0.00001735
725.23157227,0.00030562
727.16037964,0.00030832
729.08918701,0.00009086
731.01799438,0.00025749
732.94680176,0.00011543
734.87560913,0.00033075
736.80441650,-0.00001371
738.73322388,0.00005377
740.66203125,0.00054574
742.59083862,0.00012829
744.51964600,-0.00009979
746.44845337,0.00030046
748.37726074,0.00027640
750.30606812,-0.00001713
752.23487549,0.00014574
754.16368286,0.00032440
756.09249023,0.00032443
758.02129761,0.00014687
759.95010498,0.00026727
761.87891235,0.00017480
763.80771973,0.00002613
765.73652710,0.00010357
767.66533447,-0.00004564
769.59414185,-0.00007083
771.52294922,-0.00007949
773.45175659,0.00020876
775.38056396,0.00025020
777.30937134,0.00027884
779.23817871,0.00033452
781.16698608,0.00015484
783.09579346,0.00022051
785.02460083,0.00004253
786.95340820,0.00036926
788.88221558,0.00036095
790.81102295,-0.00003742
792.73983032,0.00018028
794.66863770,0.00026037
796.59744507,0.00030836
798.52625244,0.00012593
800.45505981,0.00007830
802.38386719,0.00035670
804.31267456,0.00053476
806.24148193,0.00044547
808.17028931,0.00023856
810.09909668,0.00007707
812.02790405,0.00020609
813.95671143,0.00036201
815.88551880,0.00009509
817.81432617,0.00033728
819.74313354,0.00024559
821.67194092,0.00019473
823.60074829,0.00036816
825.52955566,0.00005788
827.45836304,0.00035370
829.38717041,0.00032707
831.31597778,0.00021689
833.24478516,0.00045720
835.17359253,0.00044962
837.10239990,0.00049290
839.03120728,0.00033220
840.96001465,0.00043068
842.88882202,0.00044213
844.81762939,0.00024178
846.74643677,0.00038793
848.67524414,0.00053812
850.60405151,0.00065967
852.53285889,0.00048147
854.46166626,0.00029278
856.39047363,0.00047980
858.31928101,0.00057536
860.24808838,0.00028402
862.17689575,0.00018944
864.10570313,0.00034747
866.03451050,0.00014892
867.96331787,0.00025368
869.89212524,0.00037704
871.82093262,0.00028136
873.74973999,0.00013025
875.67854736,0.00011674
877.60735474,0.00055244
879.53616211,0.00034497
881.46496948,0.00017497
883.39377686,0.00028472
885.32258423,0.00018357
887.25139160,0.00025589
889.18019897,0.00041823
891.10900635,0.00058653
893.03781372,0.00022087
894.96662109,0.00001143
896.89542847,0.00023872
898.82423584,0.00029757
900.75304321,0.00046414
902.68185059,0.00020968
904.61065796,0.00007069
906.53946533,0.00031235
908.46827271,0.00023690
910.39708008,0.00039222
912.32588745,0.00024611
914.25469482,0.00028520
916.18350220,0.00031158
918.11230957,0.00022879
920.04111694,0.00059358
921.96992432,0.00040678
923.89873169,0.00066405
925.82753906,0.00067969
927.75634644,0.00056350
929.68515381,0.00083086
931.61396118,0.00048314
933.54276855,0.00063623
935.47157593,0.00047314
937.40038330,0.00047080
939.32919067,0.00102930
941.25799805,0.00094128
943.18680542,0.00108057
945.11561279,0.00102610
947.04442017,0.00087261
948.97322754,0.00099568
950.90203491,0.00075609
952.83084229,0.00070534
954.75964966,0.00094616
956.68845703,0.00085252
958.61726440,0.00074400
960.54607178,0.00090303
962.47487915,0.00075820
964.40368652,0.00066043
966.33249390,0.00078324
968.26130127,0.00065594
970.19010864,0.00078751
972.11891602,0.00104816
974.04772339,0.00105590
975.97653076,0.00123966
977.90533813,0.00130829
979.83414551,0.00128978
981.76295288,0.00159353
983.69176025,0.00174938
985.62056763,0.00164490
987.54937500,0.00159930
989.47818237,0.00187190
991.40698975,0.00227903
993.33579712,0.00259395
995.26460449,0.00283375
997.19341187,0.00296448
999.12221924,0.00330288
1001.05102661,0.00360707
1002.97983398,0.00357866
1004.90864136,0.00360957
1006.83744873,0.00399046
1008.76625610,0.00445635
1010.69506348,0.00465372
1012.62387085,0.00468606
1014.55267822,0.00484410
1016.48148560,0.00517112
1018.41029297,0.00543960
1020.33910034,0.00577877
1022.26790771,0.00602407
1024.19671509,0.00623965
1026.12552246,0.00643924
1028.05432983,0.00657080
1029.98313721,0.00686069
1031.91194458,0.00689907
1033.84075195,0.00715017
1035.76955933,0.00723758
1037.69836670,0.00717985
1039.62717407,0.00745016
1041.55598145,0.00722768
1043.48478882,0.00726499
1045.41359619,0.00750537
1047.34240356,0.00729344
1049.27121094,0.00685256
1051.20001831,0.00690650
1053.12882568,0.00705389
1055.05763306,0.00653885
1056.98644043,0.00655858
1058.91524780,0.00641914
1060.84405518,0.00613327
1062.77286255,0.00617186
1064.70166992,0.00588619
1066.63047729,0.00569785
1068.55928467,0.00553425
1070.48809204,0.00527340
1072.41689941,0.00472481
1074.34570679,0.00481261
1076.27451416,0.00488238
1078.20332153,0.00430273
1080.13212891,0.00427218
1082.06093628,0.00399990
1083.98974365,0.00381782
1085.91855103,0.00366276
1087.84735840,0.00337865
1089.77616577,0.00336193
1091.70497314,0.00317703
1093.63378052,0.00329987
1095.56258789,0.00325102
1097.49139526,0.00305364
1099.42020264,0.00298775
1101.34901001,0.00276325
1103.27781738,0.00264384
1105.20662476,0.00267708
1107.13543213,0.00273310
1109.06423950,0.00281087
1110.99304687,0.00289913
1112.92185425,0.00263082
1114.85066162,0.00242762
1116.77946899,0.00259976
1118.70827637,0.00277681
1120.63708374,0.00256779
1122.56589111,0.00239421
1124.49469849,0.00270071
1126.42350586,0.00271764
1128.35231323,0.00267511
1130.28112061,0.00266615
1132.20992798,0.00273953
1134.13873535,0.00294668
1136.06754272,0.00296930
1137.99635010,0.00325255
1139.92515747,0.00344749
1141.85396484,0.00358792
1143.78277222,0.00379954
1145.71157959,0.00405798
1147.64038696,0.00433209
1149.56919434,0.00433097
1151.49800171,0.00454417
1153.42680908,0.00489028
1155.35561646,0.00517278
1157.28442383,0.00541215
1159.21323120,0.00565747
1161.14203857,0.00596016
1163.07084595,0.00616958
1164.99965332,0.00623866
1166.92846069,0.00641761
1168.85726807,0.00676101
1170.78607544,0.00673675
1172.71488281,0.00706898
1174.64369019,0.00759502
1176.57249756,0.00756911
1178.50130493,0.00782342
1180.43011230,0.00824723
1182.35891968,0.00867766
1184.28772705,0.00913645
1186.21653442,0.00963743
1188.14534180,0.01016500
1190.07414917,0.01026895
1192.00295654,0.01065584
1193.93176392,0.01140018
1195.86057129,0.01190759
1197.78937866,0.01233775
1199.71818604,0.01276650
1201.64699341,0.01345502
1203.57580078,0.01412578
1205.50460815,0.01460869
1207.43341553,0.01516793
1209.36222290,0.01565417
1211.29103027,0.01627650
1213.21983765,0.01674488
1215.14864502,0.01714976
1217.07745239,0.01748488
1219.00625977,0.01743524
1220.93506714,0.01791481
1222.86387451,0.01832905
1224.79268188,0.01828962
1226.72148926,0.01848652
1228.65029663,0.01871392
1230.57910400,0.01880442
1232.50791138,0.01877841
1234.43671875,0.01893838
1236.36552612,0.01896740
1238.29433350,0.01893604
1240.22314087,0.01888384
1242.15194824,0.01876378
1244.08075562,0.01888682
1246.00956299,0.01869532
1247.93837036,0.01856008
1249.86717773,0.01846710
1251.79598511,0.01833163
1253.72479248,0.01830555
1255.65359985,0.01792511
1257.58240723,0.01769109
1259.51121460,0.01765654
1261.44002197,0.01745245
1263.36882935,0.01701027
1265.29763672,0.01673948
1267.22644409,0.01664560
1269.15525146,0.01647386
1271.08405884,0.01625411
1273.01286621,0.01581372
1274.94167358,0.01575623
1276.87048096,0.01555039
1278.79928833,0.01478742
1280.72809570,0.01454630
1282.65690308,0.01466711
1284.58571045,0.01435245
1286.51451782,0.01396675
1288.44332520,0.01392251
1290.37213257,0.01363371
1292.30093994,0.01329803
1294.22974731,0.01336190
1296.15855469,0.01346777
1298.08736206,0.01329194
1300.01616943,0.01333233
1301.94497681,0.01358590
1303.87378418,0.01358016
1305.80259155,0.01382663
1307.73139893,0.01395669
1309.66020630,0.01412030
1311.58901367,0.01448908
1313.51782104,0.01473558
1315.44662842,0.01518156
1317.37543579,0.01546150
1319.30424316,0.01578145
1321.23305054,0.01621725
1323.16185791,0.01677465
1325.09066528,0.01728639
1327.01947266,0.01770834
1328.94828003,0.01819313
1330.87708740,0.01854476
1332.80589478,0.01921256
1334.73470215,0.01942995
1336.66350952,0.01943097
1338.59231689,0.01937233
1340.52112427,0.01951786
1342.44993164,0.02066040
1344.37873901,0.02086111
1346.30754639,0.02058136
1348.23635376,0.02046619
1350.16516113,0.02033396
1352.09396851,0.02063062
1354.02277588,0.02041989
1355.95158325,0.02022586
1357.88039062,0.02007472
1359.80919800,0.01972472
1361.73800537,0.01882023
1363.66681274,0.01859973
1365.59562012,0.01978667
1367.52442749,0.01921437
1369.45323486,0.01877872
1371.38204224,0.01913959
1373.31084961,0.01820074
1375.23965698,0.01842168
1377.16846436,0.01907078
1379.09727173,0.01890885
1381.02607910,0.01882096
1382.95488647,0.01887565
1384.88369385,0.01878222
1386.81250122,0.01794809
1388.74130859,0.01825829
1390.67011597,0.01988127
1392.59892334,0.01927567
1394.52773071,0.01794226
1396.45653809,0.01912246
1398.38534546,0.01894608
1400.31415283,0.01875954
1402.24296021,0.02037742
1404.17176758,0.01925985
1406.10057495,0.01936841
1408.02938232,0.02001633
1409.95818970,0.01940376
1411.88699707,0.01990428
1413.81580444,0.01929770
1415.74461182,0.01963403
1417.67341919,0.01766258
1419.60222656,0.01585742
1421.53103394,0.01811416
1423.45984131,0.01772530
1425.38864868,0.01726899
1427.31745605,0.01735599
1429.24626343,0.01623514
1431.17507080,0.01569627
1433.10387817,0.01596662
1435.03268555,0.01462155
1436.96149292,0.01217609
1438.89030029,0.01412361
1440.81910767,0.01447087
1442.74791504,0.01327099
1444.67672241,0.01411682
1446.60552979,0.01302862
1448.53433716,0.01338436
1450.46314453,0.01361609
1452.39195190,0.01378871
1454.32075928,0.01457443
1456.24956665,0.01189068
1458.17837402,0.01227662
1460.10718140,0.01637855
1462.03598877,0.01752333
1463.96479614,0.01749575
1465.89360352,0.01811492
1467.82241089,0.02063247
1469.75121826,0.02221964
1471.68002563,0.01974357
1473.60883301,0.02075833
1475.53764038,0.02360128
1477.46644775,0.02536134
1479.39525513,0.02786833
1481.32406250,0.02816230
1483.25286987,0.03008281
1485.18167725,0.03107933
1487.11048462,0.03048973
1489.03929199,0.03038208
1490.96809937,0.03037004
1492.89690674,0.03544979
1494.82571411,0.03469461
1496.75452148,0.03091924
1498.68332886,0.03513354
1500.61213623,0.03638343
1502.54094360,0.03895834
1504.46975098,0.03696363
1506.39855835,0.02659664
1508.32736572,0.03235115
1510.25617310,0.03851336
1512.18498047,0.03724985
1514.11378784,0.04066169
1516.04259521,0.03652819
1517.97140259,0.03781787
1519.90020996,0.03691136
1521.82901733,0.03151287
1523.75782471,0.03885442
1525.68663208,0.03838822
1527.61543945,0.03805530
1529.54424683,0.04238590
1531.47305420,0.04069619
1533.40186157,0.03727639
1535.33066895,0.03921738
1537.25947632,0.04253025
1539.18828369,0.03038681
1541.11709106,0.03105459
1543.04589844,0.03786968
1544.97470581,0.03607531
1546.90351318,0.04321456
1548.83232056,0.04032984
1550.76112793,0.04116827
1552.68993530,0.04142354
1554.61874268,0.03716219
1556.54755005,0.04028708
1558.47635742,0.02824173
1560.40516479,0.02957089
1562.33397217,0.04334168
1564.26277954,0.04109177
1566.19158691,0.04209253
1568.12039429,0.04187152
1570.04920166,0.03691091
1571.97800903,0.04272096
1573.90681641,0.04341955
1575.83562378,0.03409391
1577.76443115,0.03843808
1579.69323853,0.04401099
1581.62204590,0.04211048
1583.55085327,0.04289057
1585.47966064,0.04233214
1587.40846802,0.04267622
1589.33727539,0.04227466
1591.26608276,0.04216602
1593.19489014,0.04212656
1595.12369751,0.04158350
1597.05250488,0.04211681
1598.98131226,0.04181030
1600.91011963,0.04199041
1602.83892700,0.04100659
1604.76773437,0.04174534
1606.69654175,0.04118938
1608.62534912,0.04092306
1610.55415649,0.04089255
1612.48296387,0.04100630
1614.41177124,0.04163035
1616.34057861,0.03390724
1618.26938599,0.03647447
1620.19819336,0.04286352
1622.12700073,0.03778154
1624.05580811,0.03752111
1625.98461548,0.03976978
1627.91342285,0.03970688
1629.84223022,0.03923351
1631.77103760,0.04202355
1633.69984497,0.03885753
1635.62865234,0.03169404
1637.55745972,0.03692711
1639.48626709,0.04117581
1641.41507446,0.04014308
1643.34388184,0.04121384
1645.27268921,0.03753285
1647.20149658,0.03247383
1649.13030396,0.04048224
1651.05911133,0.03937040
1652.98791870,0.02484739
1654.91672607,0.03344736
1656.84553345,0.04316113
1658.77434082,0.04139149
1660.70314819,0.04278618
1662.63195557,0.03901923
1664.56076294,0.04080884
1666.48957031,0.04437486
1668.41837769,0.03877671
1670.34718506,0.03735480
1672.27599243,0.04289495
1674.20479980,0.03994694
1676.13360718,0.03812952
1678.06241455,0.04414778
1679.99122192,0.04279284
1681.92002930,0.04239645
1683.84883667,0.03449190
1685.77764404,0.03363363
1687.70645142,0.04692663
1689.63525879,0.04100372
1691.56406616,0.04491647
1693.49287354,0.04654729
1695.42168091,0.03346182
1697.35048828,0.04150725
1699.27929565,0.03689111
1701.20810303,0.03245633
1703.13691040,0.04527660
1705.06571777,0.04170954
1706.99452515,0.04187015
1708.92333252,0.04592530
1710.85213989,0.04397672
1712.78094727,0.04503752
1714.70975464,0.04172876
1716.63856201,0.03724832
1718.56736938,0.03678376
1720.49617676,0.04386054
1722.42498413,0.04587896
1724.35379150,0.04248122
1726.28259888,0.04637635
1728.21140625,0.04285911
1730.14021362,0.04309975
1732.06902100,0.04248574
1733.99782837,0.03178082
1735.92663574,0.03941713
1737.85544312,0.04456216
1739.78425049,0.03928347
1741.71305786,0.04276428
1743.64186523,0.04363541
1745.57067261,0.04353885
1747.49947998,0.04406889
1749.42828735,0.04204234
1751.35709473,0.04011082
1753.28590210,0.04459663
1755.21470947,0.04696642
1757.14351685,0.04268764
1759.07232422,0.04699004
1761.00113159,0.04439475
1762.92993896,0.04249366
1764.85874634,0.04905569
1766.78755371,0.04413045
1768.71636108,0.04428817
1770.64516846,0.04430549
1772.57397583,0.03959674
1774.50278320,0.04424308
1776.43159058,0.04685613
1778.36039795,0.04645833
1780.28920532,0.04596032
1782.21801270,0.04623856
1784.14682007,0.04633857
1786.07562744,0.04510852
1788.00443481,0.04767571
1789.93324219,0.04661107
1791.86204956,0.04176456
1793.79085693,0.04380208
1795.71966431,0.04726541
1797.64847168,0.04657794
1799.57727905,0.04589863
1801.50608643,0.04512496
1803.43489380,0.04650996
1805.36370117,0.04763635
1807.29250854,0.04710980
1809.22131592,0.04728353
1811.15012329,0.04593647
1813.07893066,0.04734111
1815.00773804,0.04765635
1816.93654541,0.04711662
1818.86535278,0.04755156
1820.79416016,0.04730676
1822.72296753,0.04810964
1824.65177490,0.04478008
1826.58058228,0.04642747
1828.50938965,0.04686241
1830.43819702,0.04363998
1832.36700439,0.04782755
1834.29581177,0.04753248
1836.22461914,0.04726624
1838.15342651,0.04746853
1840.08223389,0.04755992
1842.01104126,0.04789060
1843.93984863,0.04223434
1845.86865601,0.04483136
1847.79746338,0.04797357
1849.72627075,0.04669844
1851.65507812,0.04808610
1853.58388550,0.04714475
1855.51269287,0.04763827
1857.44150024,0.04749583
1859.37030762,0.04695920
1861.29911499,0.04752156
1863.22792236,0.04704627
1865.15672974,0.04754889
1867.08553711,0.04609296
1869.01434448,0.04396024
1870.94315186,0.04576924
1872.87195923,0.04776202
1874.80076660,0.04685859
1876.72957397,0.04717279
1878.65838135,0.04718279
1880.58718872,0.04666598
1882.51599609,0.04719439
1884.44480347,0.04651708
1886.37361084,0.04714466
1888.30241821,0.04625054
1890.23122559,0.04528518
1892.16003296,0.04716788
1894.08884033,0.04653702
1896.01764771,0.04622696
1897.94645508,0.04677229
1899.87526245,0.04642813
1901.80406982,0.04666802
1903.73287720,0.04640911
1905.66168457,0.04662494
1907.59049194,0.04620186
1909.51929932,0.04581433
1911.44810669,0.04619459
1913.37691406,0.04630794
1915.30572144,0.04683109
1917.23452881,0.04476825
1919.16333618,0.04465524
1921.09214355,0.04658270
1923.02095093,0.04512689
1924.94975830,0.04596832
1926.87856567,0.04662149
1928.80737305,0.04595811
1930.73618042,0.04644283
1932.66498779,0.04592641
1934.59379517,0.04650702
1936.52260254,0.04612170
1938.45140991,0.04620878
1940.38021729,0.04630513
1942.30902466,0.04462407
1944.23783203,0.04544231
1946.16663940,0.04606912
1948.09544678,0.04590953
1950.02425415,0.04618944
1951.95306152,0.04620733
1953.88186890,0.04625862
1955.81067627,0.04593032
1957.73948364,0.04605500
1959.66829102,0.04603957
1961.59709839,0.04595714
1963.52590576,0.04624857
1965.45471313,0.04602040
1967.38352051,0.04546294
1969.31232788,0.04594181
1971.24113525,0.04619860
1973.16994263,0.04572777
1975.09875000,0.04613226
1977.02755737,0.04597371
1978.95636475,0.04596150
1980.88517212,0.04611241
1982.81397949,0.04592090
1984.74278687,0.04594413
1986.67159424,0.04552871
1988.60040161,0.04587532
1990.52920898,0.04539086
1992.45801636,0.04472225
1994.38682373,0.04559899
1996.31563110,0.04560167
1998.24443848,0.04533672
2000.17324585,0.04552579
2002.10205322,0.04536974
2004.03086060,0.04533057
2005.95966797,0.04543195
2007.88847534,0.04522907
2009.81728271,0.04505935
2011.74609009,0.04508559
2013.67489746,0.04510312
2015.60370483,0.04475964
2017.53251221,0.04440493
2019.46131958,0.04471557
2021.39012695,0.04472167
2023.31893433,0.04465361
2025.24774170,0.04473675
2027.17654907,0.04464345
2029.10535645,0.04458730
2031.03416382,0.04437132
2032.96297119,0.04443852
2034.89177856,0.04430235
2036.82058594,0.04420818
2038.74939331,0.04429266
2040.67820068,0.04403053
2042.60700806,0.04403242
2044.53581543,0.04393794
2046.46462280,0.04387243
2048.39343018,0.04393618
2050.32223755,0.04379349
2052.25104492,0.04377295
2054.17985229,0.04376185
2056.10865967,0.04361182
2058.03746704,0.04346287
2059.96627441,0.04355130
2061.89508179,0.04364379
2063.82388916,0.04333170
2065.75269653,0.04313913
2067.68150391,0.04339159
2069.61031128,0.04328729
2071.53911865,0.04303824
2073.46792603,0.04318607
2075.39673340,0.04320922
2077.32554077,0.04309537
2079.25434814,0.04300758
2081.18315552,0.04293749
2083.11196289,0.04296535
2085.04077026,0.04288128
2086.96957764,0.04266936
2088.89838501,0.04270304
2090.82719238,0.04276451
2092.75599976,0.04275014
2094.68480713,0.04271469
2096.61361450,0.04255818
2098.54242187,0.04249143
2100.47122925,0.04233763
2102.40003662,0.04247799
2104.32884399,0.04249061
2106.25765137,0.04218286
2108.18645874,0.04225681
2110.11526611,0.04222545
2112.04407349,0.04228115
2113.97288086,0.04220778
2115.90168823,0.04205798
2117.83049561,0.04206602
2119.75930298,0.04200896
2121.68811035,0.04215137
2123.61691772,0.04205147
2125.54572510,0.04194860
2127.47453247,0.04188612
2129.40333984,0.04192565
2131.33214722,0.04192363
2133.26095459,0.04168729
2135.18976196,0.04173319
2137.11856934,0.04168977
2139.04737671,0.04171170
2140.97618408,0.04164029
2142.90499146,0.04157143
2144.83379883,0.04165766
2146.76260620,0.04157574
2148.69141357,0.04157108
2150.62022095,0.04152213
2152.54902832,0.04155800
2154.47783569,0.04156075
2156.40664307,0.04161740
2158.33545044,0.04142413
2160.26425781,0.04132334
2162.19306519,0.04159813
2164.12187256,0.04132114
2166.05067993,0.04135361
2167.97948730,0.04146923
2169.90829468,0.04125737
2171.83710205,0.04127305
2173.76590942,0.04134796
2175.69471680,0.04139368
2177.62352417,0.04129237
2179.55233154,0.04131118
2181.48113892,0.04108575
2183.40994629,0.04105042
2185.33875366,0.04124878
2187.26756104,0.04097342
2189.19636841,0.04106642
2191.12517578,0.04125430
2193.05398315,0.04109841
2194.98279053,0.04107167
2196.91159790,0.04105593
2198.84040527,0.04101994
2200.76921265,0.04102544
2202.69802002,0.04090496
2204.62682739,0.04093326
2206.55563477,0.04094011
2208.48444214,0.04082189
2210.41324951,0.04088794
2212.34205688,0.04072046
2214.27086426,0.04069529
2216.19967163,0.04073086
2218.12847900,0.04068398
2220.05728638,0.04079186
2221.98609375,0.04069857
2223.91490112,0.04070986
2225.84370850,0.04062129
2227.77251587,0.04061195
2229.70132324,0.04064679
2231.63013062,0.04050519
2233.55893799,0.04054894
2235.48774536,0.04053839
2237.41655273,0.04049677
2239.34536011,0.04034664
2241.27416748,0.04043219
2243.20297485,0.04046704
2245.13178223,0.04027353
2247.06058960,0.04026844
2248.98939697,0.04018211
2250.91820435,0.04031878
2252.84701172,0.04015889
2254.77581909,0.03992404
2256.70462646,0.04007389
2258.63343384,0.03998109
2260.56224121,0.04001211
2262.49104858,0.04003207
2264.41985596,0.04001729
2266.34866333,0.04006776
2268.27747070,0.03987129
2270.20627808,0.03988106
2272.13508545,0.03992609
2274.06389282,0.03974875
2275.99270020,0.03981538
2277.92150757,0.03986550
2279.85031494,0.03984249
2281.77912231,0.03989948
2283.70792969,0.03977969
2285.63673706,0.03976162
2287.56554443,0.03969686
2289.49435181,0.03949174
2291.42315918,0.03945165
2293.35196655,0.03946298
2295.28077393,0.03930740
2297.20958130,0.03910112
2299.13838867,0.03909672
2301.06719604,0.03889961
2302.99600342,0.03870063
2304.92481079,0.03866150
2306.85361816,0.03842567
2308.78242554,0.03810820
2310.71123291,0.03763063
2312.64004028,0.03724834
2314.56884766,0.03714129
2316.49765503,0.03679579
2318.42646240,0.03625329
2320.35526978,0.03586954
2322.28407715,0.03529458
2324.21288452,0.03489992
2326.14169189,0.03465680
2328.07049927,0.03409154
2329.99930664,0.03378398
2331.92811401,0.03345888
2333.85692139,0.03335453
2335.78572876,0.03329628
2337.71453613,0.03311684
2339.64334351,0.03325990
2341.57215088,0.03334966
2343.50095825,0.03393161
2345.42976562,0.03449413
2347.35857300,0.03581468
2349.28738037,0.03727190
2351.21618774,0.03604030
2353.14499512,0.03420152
2355.07380249,0.03298157
2357.00260986,0.03184944
2358.93141724,0.03132153
2360.86022461,0.03103242
2362.78903198,0.03094663
2364.71783936,0.03112465
2366.64664673,0.03156430
2368.57545410,0.03217470
2370.50426147,0.03298549
2372.43306885,0.03392557
2374.36187622,0.03487502
2376.29068359,0.03591242
2378.21949097,0.03679101
2380.14829834,0.03731041
2382.07710571,0.03772301
2384.00591309,0.03811540
2385.93472046,0.03824852
2387.86352783,0.03835485
2389.79233521,0.03823975
2391.72114258,0.03818284
2393.64994995,0.03829471
2395.57875732,0.03812862
2397.50756470,0.03817651
2399.43637207,0.03810561
2401.36517944,0.03801722
2403.29398682,0.03821723
2405.22279419,0.03818787
2407.15160156,0.03799241
2409.08040894,0.03792689
2411.00921631,0.03797232
2412.93802368,0.03793775
2414.86683105,0.03793775
2416.79563843,0.03779361
2418.72444580,0.03783218
2420.65325317,0.03794111
2422.58206055,0.03776117
2424.51086792,0.03784366
2426.43967529,0.03782660
2428.36848267,0.03777283
2430.29729004,0.03778922
2432.22609741,0.03763581
2434.15490479,0.03760639
2436.08371216,0.03761354
2438.01251953,0.03754799
2439.94132690,0.03751509
2441.87013428,0.03753333
2443.79894165,0.03757514
2445.72774902,0.03759600
2447.65655640,0.03739924
2449.58536377,0.03743997
2451.51417114,0.03747127
2453.44297852,0.03731684
2455.37178589,0.03745196
2457.30059326,0.03728408
2459.22940063,0.03729550
2461.15820801,0.03736223
2463.08701538,0.03717081
2465.01582275,0.03721811
2466.94463013,0.03705733
2468.87343750,0.03699576
2470.80224487,0.03715586
2472.73105225,0.03717947
2474.65985962,0.03700091
2476.58866699,0.03699023
2478.51747437,0.03700684
2480.44628174,0.03685645
2482.37508911,0.03697613
2484.30389648,0.03688989
2486.23270386,0.03683908
2488.16151123,0.03690782
2490.09031860,0.03678622
2492.01912598,0.03678637
2493.94793335,0.03685294
2495.87674072,0.03680949
2497.80554810,0.03666925
2499.73435547,0.03673283
2501.66316284,0.03668199
2503.59197021,0.03659356
2505.52077759,0.03658486
2507.44958496,0.03649507
2509.37839233,0.03656578
2511.30719971,0.03655418
2513.23600708,0.03647616
2515.16481445,0.03646412
2517.09362183,0.03654483
2519.02242920,0.03647582
2520.95123657,0.03636903
2522.88004395,0.03628169
2524.80885132,0.03621436
2526.73765869,0.03638493
2528.66646606,0.03623321
2530.59527344,0.03614176
2532.52408081,0.03615040
2534.45288818,0.03613669
2536.38169556,0.03613774
2538.31050293,0.03594071
2540.23931030,0.03600483
2542.16811768,0.03591924
2544.09692505,0.03596979
2546.02573242,0.03608483
2547.95453979,0.03596203
2549.88334717,0.03599324
2551.81215454,0.03589252
2553.74096191,0.03588543
2555.66976929,0.03587378
2557.59857666,0.03587675
2559.52738403,0.03584120
2561.45619141,0.03578700
2563.38499878,0.03581534
2565.31380615,0.03567017
2567.24261353,0.03564683
2569.17142090,0.03561128
2571.10022827,0.03569432
2573.02903564,0.03571386
2574.95784302,0.03558564
2576.88665039,0.03554877
2578.81545776,0.03548621
2580.74426514,0.03549667
2582.67307251,0.03540421
2584.60187988,0.03551447
2586.53068726,0.03551235
2588.45949463,0.03532198
2590.38830200,0.03525824
2592.31710937,0.03516955
2594.24591675,0.03529997
2596.17472412,0.03525750
2598.10353149,0.03518366
2600.03233887,0.03511859
2601.96114624,0.03502288
2603.88995361,0.03519519
2605.81876099,0.03512871
2607.74756836,0.03496213
2609.67637573,0.03496026
2611.60518311,0.03495358
2613.53399048,0.03492477
2615.46279785,0.03499043
2617.39160522,0.03503417
2619.32041260,0.03493566
2621.24921997,0.03482220
2623.17802734,0.03468150
2625.10683472,0.03469504
2627.03564209,0.03480635
2628.96444946,0.03475827
2630.89325684,0.03471247
2632.82206421,0.03476476
2634.75087158,0.03470914
2636.67967895,0.03466558
2638.60848633,0.03457833
2640.53729370,0.03449362
2642.46610107,0.03453094
2644.39490845,0.03441446
2646.32371582,0.03445798
2648.25252319,0.03441842
2650.18133057,0.03435354
2652.11013794,0.03434957
2654.03894531,0.03417895
2655.96775269,0.03432389
2657.89656006,0.03422433
2659.82536743,0.03411399
2661.75417480,0.03419562
2663.68298218,0.03405391
2665.61178955,0.03403233
2667.54059692,0.03407121
2669.46940430,0.03409114
2671.39821167,0.03388446
2673.32701904,0.03392851
2675.25582642,0.03405886
2677.18463379,0.03388238
2679.11344116,0.03382177
2681.04224854,0.03381337
2682.97105591,0.03395149
2684.89986328,0.03380170
2686.82867065,0.03366780
2688.75747803,0.03378921
2690.68628540,0.03372892
2692.61509277,0.03363881
2694.54390015,0.03353491
2696.47270752,0.03361985
2698.40151489,0.03358908
2700.33032227,0.03353898
2702.25912964,0.03356457
2704.18793701,0.03350557
2706.11674438,0.03347441
2708.04555176,0.03329159
2709.97435913,0.03330488
2711.90316650,0.03336638
2713.83197388,0.03332929
2715.76078125,0.03325371
2717.68958862,0.03323667
2719.61839600,0.03324873
2721.54720337,0.03309401
2723.47601074,0.03319376
2725.40481812,0.03315220
2727.33362549,0.03298943
2729.26243286,0.03292406
2731.19124023,0.03287062
2733.12004761,0.03299488
2735.04885498,0.03287157
2736.97766235,0.03281008
2738.90646973,0.03283762
2740.83527710,0.03272931
2742.76408447,0.03276984
2744.69289185,0.03271260
2746.62169922,0.03262062
2748.55050659,0.03264799
2750.47931396,0.03257234
2752.40812134,0.03253567
2754.33692871,0.03258201
2756.26573608,0.03251309
2758.19454346,0.03255170
2760.12335083,0.03248012
2762.05215820,0.03235555
2763.98096558,0.03241815
2765.90977295,0.03227945
2767.83858032,0.03224830
2769.76738770,0.03227082
2771.69619507,0.03218641
2773.62500244,0.03216389
2775.55380981,0.03208683
2777.48261719,0.03209660
2779.41142456,0.03207675
2781.34023193,0.03204797
2783.26903931,0.03198738
2785.19784668,0.03183192
2787.12665405,0.03180299
2789.05546143,0.03179406
2790.98426880,0.03176021
2792.91307617,0.03172537
2794.84188354,0.03164778
2796.77069092,0.03159854
2798.69949829,0.03160437
2800.62830566,0.03158834
2802.55711304,0.03151448
2804.48592041,0.03139125
2806.41472778,0.03133049
2808.34353516,0.03130661
2810.27234253,0.03127813
2812.20114990,0.03124161
2814.12995728,0.03110910
2816.05876465,0.03117444
2817.98757202,0.03113948
2819.91637939,0.03098507
2821.84518677,0.03110748
2823.77399414,0.03098867
2825.70280151,0.03093263
2827.63160889,0.03101031
2829.56041626,0.03079947
2831.48922363,0.03073113
2833.41803101,0.03074421
2835.34683838,0.03065482
2837.27564575,0.03057202
2839.20445312,0.03055995
2841.13326050,0.03051746
2843.06206787,0.03030735
2844.99087524,0.03014779
2846.91968262,0.03009956
2848.84848999,0.02999618
2850.77729736,0.02985112
2852.70610474,0.02990295
2854.63491211,0.02994087
2856.56371948,0.02973541
2858.49252686,0.02973887
2860.42133423,0.02980963
2862.35014160,0.02970994
2864.27894897,0.02971373
2866.20775635,0.02967540
2868.13656372,0.02960624
2870.06537109,0.02959393
2871.99417847,0.02953937
2873.92298584,0.02950663
2875.85179321,0.02951162
2877.78060059,0.02948843
2879.70940796,0.02938220
2881.63821533,0.02933652
2883.56702270,0.02935413
2885.49583008,0.02939119
2887.42463745,0.02936394
2889.35344482,0.02918964
2891.28225220,0.02906764
2893.21105957,0.02900191
2895.13986694,0.02901795
2897.06867432,0.02892308
2898.99748169,0.02875432
2900.92628906,0.02873341
2902.85509644,0.02875440
2904.78390381,0.02878011
2906.71271118,0.02855016
2908.64151855,0.02845918
2910.57032593,0.02846632
2912.49913330,0.02829282
2914.42794067,0.02825412
2916.35674805,0.02800858
2918.28555542,0.02790561
2920.21436279,0.02798023
2922.14317017,0.02792856
2924.07197754,0.02793999
2926.00078491,0.02781895
2927.92959229,0.02777869
2929.85839966,0.02782762
2931.78720703,0.02789558
2933.71601440,0.02786877
2935.64482178,0.02777287
2937.57362915,0.02789516
2939.50243652,0.02784538
2941.43124390,0.02774563
2943.36005127,0.02783204
2945.28885864,0.02773827
2947.21766602,0.02758728
2949.14647339,0.02761640
2951.07528076,0.02758211
2953.00408813,0.02750500
2954.93289551,0.02741163
2956.86170288,0.02723554
2958.79051025,0.02725032
2960.71931763,0.02726978
2962.64812500,0.02713630
2964.57693237,0.02706265
2966.50573975,0.02709347
2968.43454712,0.02701598
2970.36335449,0.02696799
2972.29216187,0.02706238
2974.22096924,0.02696957
2976.14977661,0.02708848
2978.07858398,0.02716475
2980.00739136,0.02699323
2981.93619873,0.02706859
2983.86500610,0.02703740
2985.79381348,0.02702488
2987.72262085,0.02699341
2989.65142822,0.02689900
2991.58023560,0.02696871
2993.50904297,0.02684591
2995.43785034,0.02677498
2997.36665771,0.02673048
2999.29546509,0.02656330
3001.22427246,0.02662743
3003.15307983,0.02660320
3005.08188721,0.02645381
3007.01069458,0.02647421
3008.93950195,0.02640191
3010.86830933,0.02632622
3012.79711670,0.02629569
3014.72592407,0.02623891
3016.65473145,0.02622342
3018.58353882,0.02614349
3020.51234619,0.02614706
3022.44115356,0.02601255
3024.36996094,0.02589307
3026.29876831,0.02599749
3028.22757568,0.02590298
3030.15638306,0.02573756
3032.08519043,0.02558079
3034.01399780,0.02558078
3035.94280518,0.02557721
3037.87161255,0.02546551
3039.80041992,0.02548419
3041.72922729,0.02534812
3043.65803467,0.02530622
3045.58684204,0.02531498
3047.51564941,0.02518513
3049.44445679,0.02518059
3051.37326416,0.02516560
3053.30207153,0.02506830
3055.23087891,0.02495648
3057.15968628,0.02491285
3059.08849365,0.02482341
3061.01730103,0.02478338
3062.94610840,0.02485432
3064.87491577,0.02472808
3066.80372314,0.02460051
3068.73253052,0.02457421
3070.66133789,0.02449235
3072.59014526,0.02446632
3074.51895264,0.02444538
3076.44776001,0.02430436
3078.37656738,0.02421910
3080.30537476,0.02423001
3082.23418213,0.02411811
3084.16298950,0.02401586
3086.09179687,0.02400318
3088.02060425,0.02387051
3089.94941162,0.02386814
3091.87821899,0.02385769
3093.80702637,0.02360024
3095.73583374,0.02360765
3097.66464111,0.02359208
3099.59344849,0.02339276
3101.52225586,0.02335689
3103.45106323,0.02330456
3105.37987061,0.02332181
3107.30867798,0.02327007
3109.23748535,0.02306954
3111.16629272,0.02305386
3113.09510010,0.02311429
3115.02390747,0.02295256
3116.95271484,0.02281187
3118.88152222,0.02278091
3120.81032959,0.02260653
3122.73913696,0.02254269
3124.66794434,0.02246937
3126.59675171,0.02237786
3128.52555908,0.02233461
3130.45436645,0.02223684
3132.38317383,0.02221797
3134.31198120,0.02198977
3136.24078857,0.02195970
3138.16959595,0.02203989
3140.09840332,0.02177864
3142.02721069,0.02172247
3143.95601807,0.02172085
3145.88482544,0.02159427
3147.81363281,0.02152498
3149.74244019,0.02144662
3151.67124756,0.02130996
3153.60005493,0.02119990
3155.52886230,0.02115599
3157.45766968,0.02101381
3159.38647705,0.02084779
3161.31528442,0.02077641
3163.24409180,0.02073209
3165.17289917,0.02071317
3167.10170654,0.02072630
3169.03051392,0.02061237
3170.95932129,0.02048145
3172.88812866,0.02042470
3174.81693604,0.02025829
3176.74574341,0.02017792
3178.67455078,0.02022468
3180.60335815,0.02008498
3182.53216553,0.01993039
3184.46097290,0.01992064
3186.38978027,0.01980335
3188.31858765,0.01978233
3190.24739502,0.01974244
3192.17620239,0.01964583
3194.10500977,0.01965444
3196.03381714,0.01944507
3197.96262451,0.01941275
3199.89143188,0.01937429
3201.82023926,0.01930251
3203.74904663,0.01932247
3205.67785400,0.01911697
3207.60666138,0.01919942
3209.53546875,0.01913598
3211.46427612,0.01900451
3213.39308350,0.01909564
3215.32189087,0.01898192
3217.25069824,0.01885547
3219.17950562,0.01873088
3221.10831299,0.01878025
3223.03712036,0.01879904
3224.96592773,0.01871065
3226.89473511,0.01862674
3228.82354248,0.01853873
3230.75234985,0.01849995
3232.68115723,0.01841624
3234.60996460,0.01847506
3236.53877197,0.01843509
3238.46757935,0.01842474
3240.39638672,0.01842216
3242.32519409,0.01833044
3244.25400146,0.01836211
3246.18280884,0.01827192
3248.11161621,0.01824732
3250.04042358,0.01821516
3251.96923096,0.01815805
3253.89803833,0.01818923
3255.82684570,0.01817106
3257.75565308,0.01807884
3259.68446045,0.01803144
3261.61326782,0.01806992
3263.54207520,0.01803413
3265.47088257,0.01807210
3267.39968994,0.01800762
3269.32849731,0.01796952
3271.25730469,0.01794999
3273.18611206,0.01786299
3275.11491943,0.01795411
3277.04372681,0.01786203
3278.97253418,0.01777368
3280.90134155,0.01783617
3282.83014893,0.01786989
3284.75895630,0.01782648
3286.68776367,0.01787015
3288.61657104,0.01789520
3290.54537842,0.01775849
3292.47418579,0.01775703
3294.40299316,0.01769277
3296.33180054,0.01783901
3298.26060791,0.01788108
3300.18941528,0.01765775
3302.11822266,0.01762786
3304.04703003,0.01758672
3305.97583740,0.01766195
3307.90464478,0.01757035
3309.83345215,0.01749429
3311.76225952,0.01755203
3313.69106689,0.01753485
3315.61987427,0.01755156
3317.54868164,0.01750005
3319.47748901,0.01753737
3321.40629639,0.01746703
3323.33510376,0.01738121
3325.26391113,0.01738784
3327.19271851,0.01742461
3329.12152588,0.01740766
3331.05033325,0.01734592
3332.97914062,0.01732384
3334.90794800,0.01724117
3336.83675537,0.01733709
3338.76556274,0.01726345
3340.69437012,0.01723763
3342.62317749,0.01727827
3344.55198486,0.01712548
3346.48079224,0.01720052
3348.40959961,0.01720707
3350.33840698,0.01717666
3352.26721436,0.01716330
3354.19602173,0.01715365
3356.12482910,0.01708301
3358.05363647,0.01706697
3359.98244385,0.01710087
3361.91125122,0.01696192
3363.84005859,0.01709263
3365.76886597,0.01709973
3367.69767334,0.01694323
3369.62648071,0.01693388
3371.55528809,0.01702917
3373.48409546,0.01708026
3375.41290283,0.01701271
3377.34171020,0.01704223
3379.27051758,0.01694349
3381.19932495,0.01694009
3383.12813232,0.01685856
3385.05693970,0.01681535
3386.98574707,0.01694555
3388.91455444,0.01690231
3390.84336182,0.01690811
3392.77216919,0.01682445
3394.70097656,0.01685716
3396.62978394,0.01688458
3398.55859131,0.01681200
3400.48739868,0.01679494
3402.41620605,0.01684003
3404.34501343,0.01685907
3406.27382080,0.01676425
3408.20262817,0.01684007
3410.13143555,0.01673863
3412.06024292,0.01677153
3413.98905029,0.01682819
3415.91785767,0.01681753
3417.84666504,0.01696690
3419.77547241,0.01683912
3421.70427979,0.01683656
3423.63308716,0.01679977
3425.56189453,0.01679783
3427.49070190,0.01680422
3429.41950928,0.01675260
3431.34831665,0.01680554
3433.27712402,0.01682847
3435.20593140,0.01695596
3437.13473877,0.01684470
3439.06354614,0.01690933
3440.99235352,0.01683857
3442.92116089,0.01680226
3444.84996826,0.01696081
3446.77877563,0.01661449
3448.70758301,0.01675974
3450.63639038,0.01696367
3452.56519775,0.01691599
3454.49400513,0.01704320
3456.42281250,0.01705026
3458.35161987,0.01706256
3460.28042725,0.01697908
3462.20923462,0.01690330
3464.13804199,0.01695772
3466.06684937,0.01703252
3467.99565674,0.01702348
3469.92446411,0.01711703
3471.85327148,0.01709783
3473.78207886,0.01704575
3475.71088623,0.01706805
3477.63969360,0.01702857
3479.56850098,0.01711924
3481.49730835,0.01697009
3483.42611572,0.01709475
3485.35492310,0.01726937
3487.28373047,0.01712433
3489.21253784,0.01711038
3491.14134521,0.01718660
3493.07015259,0.01736004
3494.99895996,0.01724496
3496.92776733,0.01725992
3498.85657471,0.01738803
3500.78538208,0.01733725
3502.71418945,0.01705628
3504.64299683,0.01706789
3506.57180420,0.01756374
3508.50061157,0.01726427
3510.42941895,0.01717211
3512.35822632,0.01747945
3514.28703369,0.01751961
3516.21584106,0.01759583
3518.14464844,0.01753417
3520.07345581,0.01769772
3522.00226318,0.01755935
3523.93107056,0.01726088
3525.85987793,0.01729689
3527.78868530,0.01735738
3529.71749268,0.01740376
3531.64630005,0.01760822
3533.57510742,0.01783800
3535.50391479,0.01765240
3537.43272217,0.01770621
3539.36152954,0.01791856
3541.29033691,0.01779542
3543.21914429,0.01778271
3545.14795166,0.01743432
3547.07675903,0.01709749
3549.00556641,0.01782283
3550.93437378,0.01790237
3552.86318115,0.01748188
3554.79198853,0.01795652
3556.72079590,0.01793482
3558.64960327,0.01799808
3560.57841064,0.01790720
3562.50721802,0.01782714
3564.43602539,0.01804202
3566.36483276,0.01668626
3568.29364014,0.01638349
3570.22244751,0.01773247
3572.15125488,0.01816246
3574.08006226,0.01814338
3576.00886963,0.01820681
3577.93767700,0.01812950
3579.86648437,0.01815210
3581.79529175,0.01813018
3583.72409912,0.01817729
3585.65290649,0.01788980
3587.58171387,0.01649987
3589.51052124,0.01691737
3591.43932861,0.01833695
3593.36813599,0.01794455
3595.29694336,0.01770102
3597.22575073,0.01799799
3599.15455811,0.01814884
3601.08336548,0.01796305
3603.01217285,0.01823148
3604.94098022,0.01863254
3606.86978760,0.01801098
3608.79859497,0.01692384
3610.72740234,0.01725307
3612.65620972,0.01766291
3614.58501709,0.01714791
3616.51382446,0.01851678
3618.44263184,0.01714679
3620.37143921,0.01658767
3622.30024658,0.01874300
3624.22905395,0.01811912
3626.15786133,0.01916034
3628.08666870,0.01627535
3630.01547607,0.01460469
3631.94428345,0.01865100
3633.87309082,0.01827059
3635.80189819,0.01847046
3637.73070557,0.01895031
3639.65951294,0.01857611
3641.58832031,0.01881879
3643.51712769,0.01868802
3645.44593506,0.01871510
3647.37474243,0.01696131
3649.30354980,0.01560370
3651.23235718,0.01557471
3653.16116455,0.01870305
3655.08997192,0.01858133
3657.01877930,0.01651707
3658.94758667,0.01918687
3660.87639404,0.01885519
3662.80520142,0.01903200
3664.73400879,0.01903718
3666.66281616,0.01881142
3668.59162354,0.01837552
3670.52043091,0.01493520
3672.44923828,0.01809359
3674.37804565,0.01747041
3676.30685303,0.01429315
3678.23566040,0.01815454
3680.16446777,0.01859753
3682.09327515,0.01846922
3684.02208252,0.01919278
3685.95088989,0.01886493
3687.87969727,0.01711199
3689.80850464,0.01548128
3691.73731201,0.01769317
3693.66611938,0.01842549
3695.59492676,0.01868697
3697.52373413,0.01882090
3699.45254150,0.01860888
3701.38134888,0.01817070
3703.31015625,0.01745591
3705.23896362,0.01917081
3707.16777100,0.01826854
3709.09657837,0.01770317
3711.02538574,0.01683651
3712.95419312,0.01563182
3714.88300049,0.01840286
3716.81180786,0.01823549
3718.74061523,0.01827236
3720.66942261,0.01797641
3722.59822998,0.01722103
3724.52703735,0.01810205
3726.45584473,0.01677720
3728.38465210,0.01800431
3730.31345947,0.01796927
3732.24226685,0.01643550
3734.17107422,0.01608059
3736.09988159,0.01525427
3738.02868896,0.01613888
3739.95749634,0.01752191
3741.88630371,0.01842365
3743.81511108,0.01433483
3745.74391846,0.01326785
3747.67272583,0.01745162
3749.60153320,0.01513614
3751.53034058,0.01378017
3753.45914795,0.01587657
3755.38795532,0.01713077
3757.31676270,0.01789932
3759.24557007,0.01661249
3761.17437744,0.01717202
3763.10318481,0.01823229
3765.03199219,0.01694609
3766.96079956,0.01738697
3768.88960693,0.01723738
3770.81841431,0.01626125
3772.74722168,0.01771143
3774.67602905,0.01784857
3776.60483643,0.01776474
3778.53364380,0.01723957
3780.46245117,0.01654915
3782.39125854,0.01781362
3784.32006592,0.01740786
3786.24887329,0.01727944
3788.17768066,0.01763440
3790.10648804,0.01752290
3792.03529541,0.01743237
3793.96410278,0.01759581
3795.89291016,0.01670819
3797.82171753,0.01642579
3799.75052490,0.01724304
3801.67933228,0.01371870
3803.60813965,0.01590999
3805.53694702,0.01746161
3807.46575439,0.01420571
3809.39456177,0.01723953
3811.32336914,0.01698697
3813.25217651,0.01752554
3815.18098389,0.01590096
3817.10979126,0.01384088
3819.03859863,0.01763957
3820.96740601,0.01423125
3822.89621338,0.01484622
3824.82502075,0.01752934
3826.75382812,0.01578546
3828.68263550,0.01699925
3830.61144287,0.01638453
3832.54025024,0.01578763
3834.46905762,0.01615794
3836.39786499,0.01542606
3838.32667236,0.01380610
3840.25547974,0.01490881
3842.18428711,0.01623220
3844.11309448,0.01546575
3846.04190186,0.01672742
3847.97070923,0.01645622
3849.89951660,0.01662051
3851.82832397,0.01494456
3853.75713135,0.01100122
3855.68593872,0.01313951
3857.61474609,0.01659249
3859.54355347,0.01619744
3861.47236084,0.01590321
3863.40116821,0.01557243
3865.32997559,0.01452639
3867.25878296,0.01625603
3869.18759033,0.01489549
3871.11639770,0.01360804
3873.04520508,0.01627126
3874.97401245,0.01496345
3876.90281982,0.01612720
3878.83162720,0.01656622
3880.76043457,0.01403704
3882.68924194,0.01621441
3884.61804932,0.01522101
3886.54685669,0.01380573
3888.47566406,0.01620214
3890.40447144,0.01536056
3892.33327881,0.01441386
3894.26208618,0.01578365
3896.19089355,0.01608293
3898.11970093,0.01548284
3900.04850830,0.01454234
3901.97731567,0.01424551
3903.90612305,0.01422333
3905.83493042,0.01439817
3907.76373779,0.01580104
3909.69254517,0.01583065
3911.62135254,0.01565461
3913.55015991,0.01603220
3915.47896728,0.01540671
3917.40777466,0.01504927
3919.33658203,0.01500008
3921.26538940,0.01537842
3923.19419678,0.01538004
3925.12300415,0.01513961
3927.05181152,0.01528353
3928.98061890,0.01552332
3930.90942627,0.01528577
3932.83823364,0.01468527
3934.76704102,0.01528363
3936.69584839,0.01536447
3938.62465576,0.01531665
3940.55346313,0.01551321
3942.48227051,0.01481082
3944.41107788,0.01499694
3946.33988525,0.01522317
3948.26869263,0.01491008
3950.19750000,0.01494705
3952.12630737,0.01507533
3954.05511475,0.01514471
3955.98392212,0.01518086
3957.91272949,0.01513001
3959.84153687,0.01504683
3961.77034424,0.01501664
3963.69915161,0.01498498
3965.62795898,0.01512884
3967.55676636,0.01504519
3969.48557373,0.01491312
3971.41438110,0.01494658
3973.34318848,0.01495954
3975.27199585,0.01485477
3977.20080322,0.01480254
3979.12961060,0.01495424
3981.05841797,0.01476728
3982.98722534,0.01475280
3984.91603271,0.01478896
3986.84484009,0.01475816
3988.77364746,0.01475547
3990.70245483,0.01461791
3992.63126221,0.01468764
3994.56006958,0.01465893
3996.48887695,0.01468731
3998.41768433,0.01465840
4000.34649170,0.01470650
4002.27529907,0.01460359
4004.20410645,0.01453321
4006.13291382,0.01465829
4008.06172119,0.01431075
4009.99052856,0.01435400
4011.91933594,0.01441363
4013.84814331,0.01443181
4015.77695068,0.01441628
4017.70575806,0.01426995
4019.63456543,0.01433361
4021.56337280,0.01417935
4023.49218018,0.01429396
4025.42098755,0.01421852
4027.34979492,0.01426696
4029.27860229,0.01428897
4031.20740967,0.01409705
4033.13621704,0.01423920
4035.06502441,0.01409917
4036.99383179,0.01420539
4038.92263916,0.01414291
4040.85144653,0.01405757
4042.78025391,0.01413849
4044.70906128,0.01398391
4046.63786865,0.01397497
4048.56667603,0.01390868
4050.49548340,0.01400488
4052.42429077,0.01393219
4054.35309814,0.01378905
4056.28190552,0.01378864
4058.21071289,0.01389691
4060.13952026,0.01389846
4062.06832764,0.01373575
4063.99713501,0.01381952
4065.92594238,0.01370359
4067.85474976,0.01370269
4069.78355713,0.01367800
4071.71236450,0.01367407
4073.64117187,0.01368832
4075.56997925,0.01354416
4077.49878662,0.01362244
4079.42759399,0.01349404
4081.35640137,0.01354657
4083.28520874,0.01355541
4085.21401611,0.01349230
4087.14282349,0.01350698
4089.07163086,0.01340658
4091.00043823,0.01346629
4092.92924561,0.01344006
4094.85805298,0.01352398
4096.78686035,0.01336108
4098.71566772,0.01322944
4100.64447510,0.01333309
4102.57328247,0.01328210
4104.50208984,0.01329651
4106.43089722,0.01326529
4108.35970459,0.01327309
4110.28851196,0.01317286
4112.21731934,0.01314859
4114.14612671,0.01311499
4116.07493408,0.01311112
4118.00374145,0.01317503
4119.93254883,0.01307298
4121.86135620,0.01308281
4123.79016357,0.01294636
4125.71897095,0.01299034
4127.64777832,0.01298337
4129.57658569,0.01290028
4131.50539307,0.01307538
4133.43420044,0.01298463
4135.36300781,0.01293419
4137.29181519,0.01292963
4139.22062256,0.01284664
4141.14942993,0.01282489
4143.07823730,0.01281711
4145.00704468,0.01271296
4146.93585205,0.01270286
4148.86465942,0.01278188
4150.79346680,0.01267341
4152.72227417,0.01264529
4154.65108154,0.01266429
4156.57988892,0.01273178
4158.50869629,0.01265439
4160.43750366,0.01250489
4162.36631103,0.01253021
4164.29511841,0.01259426
4166.22392578,0.01258738
4168.15273315,0.01244923
4170.08154053,0.01248607
4172.01034790,0.01243835
4173.93915527,0.01245129
4175.86796265,0.01244840
4177.79677002,0.01232444
4179.72557739,0.01243131
4181.65438477,0.01234367
4183.58319214,0.01234397
4185.51199951,0.01234606
4187.44080688,0.01226775
4189.36961426,0.01226251
4191.29842163,0.01217267
4193.22722900,0.01215724
4195.15603638,0.01210382
4197.08484375,0.01215946
4199.01365112,0.01217315
4200.94245850,0.01212733
4202.87126587,0.01212568
4204.80007324,0.01208439
4206.72888062,0.01201960
4208.65768799,0.01200950
4210.58649536,0.01208315
4212.51530273,0.01199239
4214.44411011,0.01198955
4216.37291748,0.01189910
4218.30172485,0.01185711
4220.23053223,0.01197772
4222.15933960,0.01190891
4224.08814697,0.01193891
4226.01695435,0.01185522
4227.94576172,0.01173912
4229.87456909,0.01172310
4231.80337646,0.01169685
4233.73218384,0.01171841
4235.66099121,0.01173407
4237.58979858,0.01173635
4239.51860596,0.01169946
4241.44741333,0.01165363
4243.37622070,0.01156544
4245.30502808,0.01160112
4247.23383545,0.01158766
4249.16264282,0.01155379
4251.09145020,0.01153461
4253.02025757,0.01150157
4254.94906494,0.01155351
4256.87787231,0.01140893
4258.80667969,0.01146916
4260.73548706,0.01155170
4262.66429443,0.01142071
4264.59310181,0.01139050
4266.52190918,0.01144671
4268.45071655,0.01140333
4270.37952393,0.01127162
4272.30833130,0.01135945
4274.23713867,0.01127655
4276.16594604,0.01127333
4278.09475342,0.01125079
4280.02356079,0.01116293
4281.95236816,0.01130927
4283.88117554,0.01113019
4285.80998291,0.01112743
4287.73879028,0.01119514
4289.66759766,0.01116674
4291.59640503,0.01114252
4293.52521240,0.01106810
4295.45401978,0.01114758
4297.38282715,0.01102588
4299.31163452,0.01106058
4301.24044189,0.01112477
4303.16924927,0.01105217
4305.09805664,0.01097586
4307.02686401,0.01093999
4308.95567139,0.01098734
4310.88447876,0.01086465
4312.81328613,0.01088742
4314.74209351,0.01084720
4316.67090088,0.01083680
4318.59970825,0.01081502
4320.52851562,0.01068661
4322.45732300,0.01080388
4324.38613037,0.01078914
4326.31493774,0.01076249
4328.24374512,0.01074593
4330.17255249,0.01076191
4332.10135986,0.01072897
4334.03016724,0.01058203
4335.95897461,0.01068044
4337.88778198,0.01067399
4339.81658936,0.01054913
4341.74539673,0.01057007
4343.67420410,0.01054949
4345.60301147,0.01043986
4347.53181885,0.01046209
4349.46062622,0.01045090
4351.38943359,0.01043530
4353.31824097,0.01049628
4355.24704834,0.01039531
4357.17585571,0.01040625
4359.10466309,0.01045789
4361.03347046,0.01039457
4362.96227783,0.01032043
4364.89108520,0.01034216
4366.81989258,0.01032859
4368.74869995,0.01024813
4370.67750732,0.01029199
4372.60631470,0.01022465
4374.53512207,0.01022933
4376.46392944,0.01021916
4378.39273682,0.01015834
4380.32154419,0.01015806
4382.25035156,0.01012208
4384.17915894,0.01020093
4386.10796631,0.01013108
4388.03677368,0.01012970
4389.96558105,0.01014516
4391.89438843,0.01001044
4393.82319580,0.01000530
4395.75200317,0.01000310
4397.68081055,0.00996675
4399.60961792,0.00991032
4401.53842529,0.00991977
4403.46723267,0.00986346
4405.39604004,0.00985629
4407.32484741,0.00988608
4409.25365478,0.00982174
4411.18246216,0.00990228
4413.11126953,0.00982695
4415.04007690,0.00976417
4416.96888428,0.00984211
4418.89769165,0.00977172
4420.82649902,0.00975030
4422.75530640,0.00976741
4424.68411377,0.00970924
4426.61292114,0.00966614
4428.54172852,0.00965144
4430.47053589,0.00961479
4432.39934326,0.00960890
4434.32815063,0.00965505
4436.25695801,0.00963689
4438.18576538,0.00958540
4440.11457275,0.00963137
4442.04338013,0.00952985
4443.97218750,0.00942697
4445.90099487,0.00949794
4447.82980225,0.00947574
4449.75860962,0.00954302
4451.68741699,0.00947322
4453.61622437,0.00939629
4455.54503174,0.00950846
4457.47383911,0.00941081
4459.40264648,0.00936822
4461.33145386,0.00939263
4463.26026123,0.00936205
4465.18906860,0.00930656
4467.11787598,0.00926709
4469.04668335,0.00928561
4470.97549072,0.00928157
4472.90429810,0.00925115
4474.83310547,0.00918883
4476.76191284,0.00924481
4478.69072021,0.00924666
4480.61952759,0.00920185
4482.54833496,0.00921788
4484.47714233,0.00915162
4486.40594971,0.00906719
4488.33475708,0.00910527
4490.26356445,0.00916809
4492.19237183,0.00905722
4494.12117920,0.00907784
4496.04998657,0.00908703
4497.97879395,0.00908497
4499.90760132,0.00914614
4501.83640869,0.00899630
4503.76521606,0.00897394
4505.69402344,0.00891437
4507.62283081,0.00888064
4509.55163818,0.00892643
4511.48044556,0.00881042
4513.40925293,0.00881940
4515.33806030,0.00884312
4517.26686768,0.00882002
4519.19567505,0.00882394
4521.12448242,0.00879458
4523.05328979,0.00872199
4524.98209717,0.00877431
4526.91090454,0.00882889
4528.83971191,0.00874735
4530.76851929,0.00873506
4532.69732666,0.00865507
4534.62613403,0.00863587
4536.55494141,0.00871472
4538.48374878,0.00871520
4540.41255615,0.00864349
4542.34136353,0.00859155
4544.27017090,0.00861558
4546.19897827,0.00852523
4548.12778564,0.00848058
4550.05659302,0.00854033
4551.98540039,0.00853931
4553.91420776,0.00847075
4555.84301514,0.00839818
4557.77182251,0.00842964
4559.70062988,0.00852034
4561.62943726,0.00846985
4563.55824463,0.00836517
4565.48705200,0.00843649
4567.41585937,0.00838763
4569.34466675,0.00828666
4571.27347412,0.00833432
4573.20228149,0.00838097
4575.13108887,0.00835330
4577.05989624,0.00827959
4578.98870361,0.00833167
4580.91751099,0.00827653
4582.84631836,0.00820661
4584.77512573,0.00823721
4586.70393311,0.00816537
4588.63274048,0.00817985
4590.56154785,0.00823754
4592.49035522,0.00819307
4594.41916260,0.00814850
4596.34796997,0.00817135
4598.27677734,0.00809105
4600.20558472,0.00803631
4602.13439209,0.00806963
4604.06319946,0.00804393
4605.99200684,0.00800687
4607.92081421,0.00795865
4609.84962158,0.00803100
4611.77842895,0.00801145
4613.70723633,0.00794751
4615.63604370,0.00795771
4617.56485107,0.00792412
4619.49365845,0.00791606
4621.42246582,0.00783386
4623.35127319,0.00786635
4625.28008057,0.00788095
4627.20888794,0.00782281
4629.13769531,0.00786092
4631.06650269,0.00784692
4632.99531006,0.00781929
4634.92411743,0.00781807
4636.85292480,0.00784427
4638.78173218,0.00781482
4640.71053955,0.00778308
4642.63934692,0.00769127
4644.56815430,0.00766331
4646.49696167,0.00771501
4648.42576904,0.00759843
4650.35457642,0.00758451
4652.28338379,0.00761885
4654.21219116,0.00762879
4656.14099853,0.00763906
4658.06980591,0.00765493
4659.99861328,0.00764307
4661.92742065,0.00755125
4663.85622803,0.00756661
4665.78503540,0.00752248
4667.71384277,0.00750121
4669.64265015,0.00755896
4671.57145752,0.00753030
4673.50026489,0.00746172
4675.42907227,0.00746102
4677.35787964,0.00746944
4679.28668701,0.00743155
4681.21549438,0.00746037
4683.14430176,0.00737815
4685.07310913,0.00738921
4687.00191650,0.00741280
4688.93072388,0.00733652
4690.85953125,0.00738784
4692.78833862,0.00737689
4694.71714600,0.00737412
4696.64595337,0.00730250
4698.57476074,0.00727235
4700.50356812,0.00722926
4702.43237549,0.00715267
4704.36118286,0.00722351
4706.28999023,0.00715349
4708.21879761,0.00719476
4710.14760498,0.00722546
4712.07641235,0.00711104
4714.00521973,0.00711587
4715.93402710,0.00711237
4717.86283447,0.00711859
4719.79164185,0.00719267
4721.72044922,0.00717568
4723.64925659,0.00703069
4725.57806396,0.00705763
4727.50687134,0.00708439
4729.43567871,0.00701400
4731.36448608,0.00701911
4733.29329346,0.00704773
4735.22210083,0.00703613
4737.15090820,0.00694714
4739.07971558,0.00702047
4741.00852295,0.00700493
4742.93733032,0.00688349
4744.86613770,0.00690926
4746.79494507,0.00690136
4748.72375244,0.00689918
4750.65255981,0.00686065
4752.58136719,0.00684576
4754.51017456,0.00689293
4756.43898193,0.00688615
4758.36778931,0.00680765
4760.29659668,0.00679677
4762.22540405,0.00681399
4764.15421143,0.00677009
4766.08301880,0.00684223
4768.01182617,0.00680408
4769.94063354,0.00666232
4771.86944092,0.00666562
4773.79824829,0.00671211
4775.72705566,0.00668746
4777.65586304,0.00669293
4779.58467041,0.00669656
4781.51347778,0.00661212
4783.44228516,0.00664054
4785.37109253,0.00666514
4787.29989990,0.00665585
4789.22870728,0.00662710
4791.15751465,0.00664776
4793.08632202,0.00667496
4795.01512939,0.00656995
4796.94393677,0.00663745
4798.87274414,0.00657952
4800.80155151,0.00644877
4802.73035889,0.00650954
4804.65916626,0.00652354
4806.58797363,0.00650849
4808.51678101,0.00644154
4810.44558838,0.00643535
4812.37439575,0.00643917
4814.30320312,0.00642203
4816.23201050,0.00644786
4818.16081787,0.00644122
4820.08962524,0.00638340
4822.01843262,0.00635891
4823.94723999,0.00638305
4825.87604736,0.00633588
4827.80485474,0.00631264
4829.73366211,0.00626893
4831.66246948,0.00628392
4833.59127686,0.00623397
4835.52008423,0.00618794
4837.44889160,0.00630782
4839.37769897,0.00623012
4841.30650635,0.00626269
4843.23531372,0.00627841
4845.16412109,0.00620176
4847.09292847,0.00625694
4849.02173584,0.00616227
4850.95054321,0.00614501
4852.87935059,0.00616113
4854.80815796,0.00612284
4856.73696533,0.00612214
4858.66577270,0.00607080
4860.59458008,0.00606077
4862.52338745,0.00611760
4864.45219482,0.00608813
4866.38100220,0.00604988
4868.30980957,0.00607807
4870.23861694,0.00600345
4872.16742432,0.00604642
4874.09623169,0.00606071
4876.02503906,0.00596061
4877.95384644,0.00596310
4879.88265381,0.00594401
4881.81146118,0.00600706
4883.74026855,0.00600400
4885.66907593,0.00595296
4887.59788330,0.00601019
4889.52669067,0.00597352
4891.45549805,0.00587989
4893.38430542,0.00591417
4895.31311279,0.00592540
4897.24192017,0.00587737
4899.17072754,0.00591928
4901.09953491,0.00583255
4903.02834228,0.00581188
4904.95714966,0.00578797
4906.88595703,0.00569374
4908.81476440,0.00585921
4910.74357178,0.00591497
4912.67237915,0.00580486
4914.60118652,0.00567970
4916.52999390,0.00563305
4918.45880127,0.00568580
4920.38760864,0.00570106
4922.31641602,0.00568210
4924.24522339,0.00563216
4926.17403076,0.00564233
4928.10283813,0.00559845
4930.03164551,0.00560911
4931.96045288,0.00565394
4933.88926025,0.00558383
4935.81806763,0.00559566
4937.74687500,0.00566115
4939.67568237,0.00559291
4941.60448975,0.00550180
4943.53329712,0.00559248
4945.46210449,0.00553433
4947.39091187,0.00545295
4949.31971924,0.00554566
4951.24852661,0.00557876
4953.17733398,0.00552721
4955.10614136,0.00541038
4957.03494873,0.00549699
4958.96375610,0.00550926
4960.89256348,0.00544656
4962.82137085,0.00548132
4964.75017822,0.00540717
4966.67898560,0.00545165
4968.60779297,0.00539893
4970.53660034,0.00535682
4972.46540771,0.00540477
4974.39421509,0.00534950
4976.32302246,0.00541586
4978.25182983,0.00536148
4980.18063721,0.00527212
4982.10944458,0.00531209
4984.03825195,0.00524416
4985.96705933,0.00524388
4987.89586670,0.00531069
4989.82467407,0.00526220
4991.75348145,0.00525221
4993.68228882,0.00528296
4995.61109619,0.00529474
4997.53990356,0.00524250
4999.46871094,0.00515728
5001.39751831,0.00522717
5003.32632568,0.00527220
5005.25513306,0.00520253
5007.18394043,0.00515737
5009.11274780,0.00516243
5011.04155518,0.00510905
5012.97036255,0.00511176
5014.89916992,0.00518779
5016.82797729,0.00509662
5018.75678467,0.00513676
5020.68559204,0.00512809
5022.61439941,0.00505728
5024.54320679,0.00513626
5026.47201416,0.00501637
5028.40082153,0.00503392
5030.32962891,0.00512450
5032.25843628,0.00505620
5034.18724365,0.00503265
5036.11605103,0.00499576
5038.04485840,0.00499013
5039.97366577,0.00499195
5041.90247314,0.00494161
5043.83128052,0.00491412
5045.76008789,0.00499944
5047.68889526,0.00499026
5049.61770264,0.00492451
5051.54651001,0.00490936
5053.47531738,0.00483817
5055.40412476,0.00487065
5057.33293213,0.00487891
5059.26173950,0.00484043
5061.19054687,0.00483640
5063.11935425,0.00487346
5065.04816162,0.00488241
5066.97696899,0.00477892
5068.90577637,0.00481154
5070.83458374,0.00480985
5072.76339111,0.00473398
5074.69219849,0.00479903
5076.62100586,0.00482146
5078.54981323,0.00474406
5080.47862061,0.00469429
5082.40742798,0.00469435
5084.33623535,0.00472723
5086.26504272,0.00472367
5088.19385010,0.00465619
5090.12265747,0.00472796
5092.05146484,0.00475731
5093.98027222,0.00466873
5095.90907959,0.00468333
5097.83788696,0.00462676
5099.76669434,0.00460433
5101.69550171,0.00465640
5103.62430908,0.00461891
5105.55311645,0.00459576
5107.48192383,0.00460465
5109.41073120,0.00460372
5111.33953857,0.00457474
5113.26834595,0.00453414
5115.19715332,0.00454034
5117.12596069,0.00458310
5119.05476807,0.00460572
5120.98357544,0.00461345
5122.91238281,0.00454460
5124.84119019,0.00447662
5126.76999756,0.00450943
5128.69880493,0.00448285
5130.62761230,0.00443674
5132.55641968,0.00443984
5134.48522705,0.00444918
5136.41403442,0.00443635
5138.34284180,0.00441934
5140.27164917,0.00443009
5142.20045654,0.00439305
5144.12926392,0.00437407
5146.05807129,0.00434133
5147.98687866,0.00430449
5149.91568603,0.00436811
5151.84449341,0.00434817
5153.77330078,0.00435325
5155.70210815,0.00440541
5157.63091553,0.00433552
5159.55972290,0.00436716
5161.48853027,0.00435692
5163.41733765,0.00429451
5165.34614502,0.00433764
5167.27495239,0.00430435
5169.20375977,0.00432474
5171.13256714,0.00432564
5173.06137451,0.00430215
5174.99018188,0.00426434
5176.91898926,0.00419640
5178.84779663,0.00429150
5180.77660400,0.00423277
5182.70541138,0.00418331
5184.63421875,0.00422381
5186.56302612,0.00416024
5188.49183350,0.00423866
5190.42064087,0.00421803
5192.34944824,0.00414418
5194.27825562,0.00419727
5196.20706299,0.00414801
5198.13587036,0.00408640
5200.06467773,0.00413361
5201.99348511,0.00418253
5203.92229248,0.00416821
5205.85109985,0.00406956
5207.77990723,0.00400987
5209.70871460,0.00405916
5211.63752197,0.00405602
5213.56632935,0.00411214
5215.49513672,0.00410833
5217.42394409,0.00401919
5219.35275146,0.00404449
5221.28155884,0.00407565
5223.21036621,0.00411674
5225.13917358,0.00396571
5227.06798096,0.00389913
5228.99678833,0.00399788
5230.92559570,0.00393617
5232.85440308,0.00397598
5234.78321045,0.00399705
5236.71201782,0.00398484
5238.64082520,0.00395763
5240.56963257,0.00394779
5242.49843994,0.00400870
5244.42724731,0.00389435
5246.35605469,0.00386628
5248.28486206,0.00384575
5250.21366943,0.00384030
5252.14247681,0.00398654
5254.07128418,0.00386100
5256.00009155,0.00379652
5257.92889893,0.00395828
5259.85770630,0.00387804
5261.78651367,0.00376491
5263.71532104,0.00376757
5265.64412842,0.00382732
5267.57293579,0.00388234
5269.50174316,0.00378432
5271.43055054,0.00381860
5273.35935791,0.00385425
5275.28816528,0.00378343
5277.21697266,0.00381657
5279.14578003,0.00379990
5281.07458740,0.00380888
5283.00339478,0.00375432
5284.93220215,0.00365666
5286.86100952,0.00372552
5288.78981689,0.00376750
5290.71862427,0.00364082
5292.64743164,0.00361573
5294.57623901,0.00378001
5296.50504639,0.00374492
5298.43385376,0.00369634
5300.36266113,0.00368786
5302.29146851,0.00365212
5304.22027588,0.00375574
5306.14908325,0.00367782
5308.07789062,0.00359360
5310.00669800,0.00366802
5311.93550537,0.00367003
5313.86431274,0.00362071
5315.79312012,0.00357347
5317.72192749,0.00357657
5319.65073486,0.00358125
5321.57954224,0.00355450
5323.50834961,0.00357159
5325.43715698,0.00358663
5327.36596436,0.00351437
5329.29477173,0.00354833
5331.22357910,0.00360918
5333.15238647,0.00356170
5335.08119385,0.00357896
5337.01000122,0.00351223
5338.93880859,0.00337925
5340.86761597,0.00342634
5342.79642334,0.00343722
5344.72523071,0.00333196
5346.65403809,0.00341513
5348.58284546,0.00345311
5350.51165283,0.00346946
5352.44046020,0.00346281
5354.36926758,0.00326357
5356.29807495,0.00344019
5358.22688232,0.00352088
5360.15568970,0.00340431
5362.08449707,0.00349398
5364.01330444,0.00338400
5365.94211182,0.00342427
5367.87091919,0.00349306
5369.79972656,0.00338034
5371.72853394,0.00337682
5373.65734131,0.00337083
5375.58614868,0.00333361
5377.51495605,0.00331822
5379.44376343,0.00332723
5381.37257080,0.00333181
5383.30137817,0.00334146
5385.23018555,0.00321978
5387.15899292,0.00322333
5389.08780029,0.00336616
5391.01660767,0.00331509
5392.94541504,0.00325914
5394.87422241,0.00323103
5396.80302978,0.00327792
5398.73183716,0.00331921
5400.66064453,0.00331581
5402.58945190,0.00326145
5404.51825928,0.00324544
5406.44706665,0.00333408
5408.37587402,0.00318427
5410.30468140,0.00315828
5412.23348877,0.00319211
5414.16229614,0.00304689
5416.09110352,0.00312519
5418.01991089,0.00322428
5419.94871826,0.00319868
5421.87752563,0.00317411
5423.80633301,0.00316619
5425.73514038,0.00317926
5427.66394775,0.00311390
5429.59275513,0.00302610
5431.52156250,0.00312159
5433.45036987,0.00309945
5435.37917725,0.00299656
5437.30798462,0.00317607
5439.23679199,0.00316045
5441.16559936,0.00301656
5443.09440674,0.00309020
5445.02321411,0.00308307
5446.95202148,0.00299527
5448.88082886,0.00304244
5450.80963623,0.00308512
5452.73844360,0.00308977
5454.66725098,0.00311009
5456.59605835,0.00301882
5458.52486572,0.00303860
5460.45367310,0.00301559
5462.38248047,0.00300201
5464.31128784,0.00310615
5466.24009521,0.00301116
5468.16890259,0.00301826
5470.09770996,0.00300280
5472.02651733,0.00299173
5473.95532471,0.00304236
5475.88413208,0.00294426
5477.81293945,0.00293567
5479.74174683,0.00298336
5481.67055420,0.00303943
5483.59936157,0.00297337
5485.52816895,0.00295671
5487.45697632,0.00296279
5489.38578369,0.00291096
5491.31459106,0.00296237
5493.24339844,0.00285208
5495.17220581,0.00287401
5497.10101318,0.00294692
5499.02982056,0.00288936
5500.95862793,0.00294297
5502.88743530,0.00294093
5504.81624268,0.00288690
5506.74505005,0.00284993
5508.67385742,0.00286259
5510.60266479,0.00285062
5512.53147217,0.00282566
5514.46027954,0.00287267
5516.38908691,0.00291924
5518.31789429,0.00285576
5520.24670166,0.00282242
5522.17550903,0.00291455
5524.10431641,0.00281320
5526.03312378,0.00277144
5527.96193115,0.00285352
5529.89073853,0.00281157
5531.81954590,0.00283797
5533.74835327,0.00279649
5535.67716064,0.00271969
5537.60596802,0.00280090
5539.53477539,0.00278147
5541.46358276,0.00272376
5543.39239014,0.00285198
5545.32119751,0.00280325
5547.25000488,0.00270847
5549.17881226,0.00276259
5551.10761963,0.00271072
5553.03642700,0.00278071
5554.96523437,0.00280676
5556.89404175,0.00268899
5558.82284912,0.00264897
5560.75165649,0.00264751
5562.68046387,0.00277575
5564.60927124,0.00281730
5566.53807861,0.00270515
5568.46688599,0.00270315
5570.39569336,0.00266645
5572.32450073,0.00262051
5574.25330811,0.00274612
5576.18211548,0.00268274
5578.11092285,0.00257150
5580.03973022,0.00267438
5581.96853760,0.00266658
5583.89734497,0.00263452
5585.82615234,0.00265764
5587.75495972,0.00266179
5589.68376709,0.00261544
5591.61257446,0.00264142
5593.54138184,0.00266877
5595.47018921,0.00255145
5597.39899658,0.00257299
5599.32780395,0.00260658
5601.25661133,0.00260202
5603.18541870,0.00251976
5605.11422607,0.00251480
5607.04303345,0.00264334
5608.97184082,0.00249261
5610.90064819,0.00249813
5612.82945557,0.00258846
5614.75826294,0.00249765
5616.68707031,0.00245929
5618.61587769,0.00245807
5620.54468506,0.00255106
5622.47349243,0.00254757
5624.40229980,0.00250044
5626.33110718,0.00248885
5628.25991455,0.00248630
5630.18872192,0.00251500
5632.11752930,0.00246687
5634.04633667,0.00244586
5635.97514404,0.00247796
5637.90395142,0.00249645
5639.83275879,0.00243354
5641.76156616,0.00242575
5643.69037353,0.00249532
5645.61918091,0.00249974
5647.54798828,0.00243456
5649.47679565,0.00239404
5651.40560303,0.00248404
5653.33441040,0.00244318
5655.26321777,0.00241985
5657.19202515,0.00247321
5659.12083252,0.00241513
5661.04963989,0.00246977
5662.97844727,0.00240944
5664.90725464,0.00235396
5666.83606201,0.00246280
5668.76486938,0.00241588
5670.69367676,0.00241484
5672.62248413,0.00239797
5674.55129150,0.00230183
5676.48009888,0.00234570
5678.40890625,0.00230751
5680.33771362,0.00226842
5682.26652100,0.00231186
5684.19532837,0.00229993
5686.12413574,0.00235075
5688.05294311,0.00234774
5689.98175049,0.00234711
5691.91055786,0.00232667
5693.83936523,0.00220861
5695.76817261,0.00228390
5697.69697998,0.00233465
5699.62578735,0.00227564
5701.55459473,0.00227468
5703.48340210,0.00228003
5705.41220947,0.00227347
5707.34101685,0.00221804
5709.26982422,0.00224730
5711.19863159,0.00221898
5713.12743896,0.00216886
5715.05624634,0.00226394
5716.98505371,0.00224420
5718.91386108,0.00223202
5720.84266846,0.00222086
5722.77147583,0.00219799
5724.70028320,0.00224940
5726.62909058,0.00218348
5728.55789795,0.00220165
5730.48670532,0.00218069
5732.41551270,0.00209764
5734.34432007,0.00219826
5736.27312744,0.00220709
5738.20193481,0.00219558
5740.13074219,0.00218673
5742.05954956,0.00213714
5743.98835693,0.00217013
5745.91716431,0.00215558
5747.84597168,0.00212739
5749.77477905,0.00214173
5751.70358643,0.00216697
5753.63239380,0.00213803
5755.56120117,0.00212051
5757.49000854,0.00210879
5759.41881592,0.00207669
5761.34762329,0.00212253
5763.27643066,0.00211740
5765.20523804,0.00212216
5767.13404541,0.00212858
5769.06285278,0.00210279
5770.99166016,0.00206136
5772.92046753,0.00205155
5774.84927490,0.00212742
5776.77808228,0.00205720
5778.70688965,0.00205865
5780.63569702,0.00208373
5782.56450439,0.00203950
5784.49331177,0.00204713
5786.42211914,0.00197951
5788.35092651,0.00206672
5790.27973389,0.00205974
5792.20854126,0.00195225
5794.13734863,0.00199528
5796.06615601,0.00203671
5797.99496338,0.00206868
5799.92377075,0.00199793
5801.85257812,0.00201896
5803.78138550,0.00201896
5805.71019287,0.00195897
5807.63900024,0.00198103
5809.56780762,0.00191556
5811.49661499,0.00194454
5813.42542236,0.00199712
5815.35422974,0.00202922
5817.28303711,0.00200744
5819.21184448,0.00196017
5821.14065186,0.00202028
5823.06945923,0.00193677
5824.99826660,0.00191637
5826.92707397,0.00197843
5828.85588135,0.00193721
5830.78468872,0.00190635
5832.71349609,0.00188116
5834.64230347,0.00191064
5836.57111084,0.00189642
5838.49991821,0.00187825
5840.42872559,0.00190393
5842.35753296,0.00190925
5844.28634033,0.00191193
5846.21514770,0.00183883
5848.14395508,0.00184212
5850.07276245,0.00189517
5852.00156982,0.00187515
5853.93037720,0.00188521
5855.85918457,0.00186483
5857.78799194,0.00184025
5859.71679932,0.00188726
5861.64560669,0.00186313
5863.57441406,0.00182269
5865.50322144,0.00191627
5867.43202881,0.00183114
5869.36083618,0.00171796
5871.28964355,0.00185022
5873.21845093,0.00181409
5875.14725830,0.00178877
5877.07606567,0.00181697
5879.00487305,0.00175425
5880.93368042,0.00184675
5882.86248779,0.00185657
5884.79129517,0.00179970
5886.72010254,0.00177821
5888.64890991,0.00174920
5890.57771728,0.00176680
5892.50652466,0.00177670
5894.43533203,0.00183712
5896.36413940,0.00182819
5898.29294678,0.00172333
5900.22175415,0.00169248
5902.15056152,0.00177176
5904.07936890,0.00178286
5906.00817627,0.00173340
5907.93698364,0.00177942
5909.86579102,0.00178340
5911.79459839,0.00175447
5913.72340576,0.00174317
5915.65221313,0.00178279
5917.58102051,0.00176654
5919.50982788,0.00169709
5921.43863525,0.00172565
5923.36744263,0.00171246
5925.29625000,0.00172192
5927.22505737,0.00169645
5929.15386475,0.00167480
5931.08267212,0.00172767
5933.01147949,0.00167745
5934.94028686,0.00164464
5936.86909424,0.00168360
5938.79790161,0.00170583
5940.72670898,0.00165151
5942.65551636,0.00160520
5944.58432373,0.00160332
5946.51313110,0.00168182
5948.44193848,0.00170265
5950.37074585,0.00158438
5952.29955322,0.00164020
5954.22836060,0.00170241
5956.15716797,0.00170560
5958.08597534,0.00168584
5960.01478271,0.00164300
5961.94359009,0.00163556
5963.87239746,0.00155020
5965.80120483,0.00160496
5967.73001221,0.00163297
5969.65881958,0.00157456
5971.58762695,0.00162096
5973.51643433,0.00161793
5975.44524170,0.00159480
5977.37404907,0.00159622
5979.30285645,0.00161037
5981.23166382,0.00159310
5983.16047119,0.00153099
5985.08927856,0.00149134
5987.01808594,0.00154694
5988.94689331,0.00156015
5990.87570068,0.00155588
5992.80450806,0.00156241
5994.73331543,0.00149238
5996.66212280,0.00154429
5998.59093018,0.00150349
6000.51973755,0.00150658
