399.26312622,0.00040477
401.19193359,-0.00005810
403.12074097,0.00013346
405.04954834,0.00025683
406.97835571,0.00015337
408.90716309,-0.00024266
410.83597046,-0.00018759
412.76477783,0.00054562
414.69358521,0.00019532
416.62239258,-0.00007323
418.55119995,0.00032905
420.48000732,0.00055521
422.40881470,0.00070798
424.33762207,0.00027653
426.26642944,0.00042440
428.19523682,0.00078735
430.12404419,0.00019866
432.05285156,0.00047555
433.98165894,0.00027692
435.91046631,0.00005135
437.83927368,0.00077268
439.76808105,-0.00008552
441.69688843,0.00011671
443.62569580,0.00060500
445.55450317,0.00006573
447.48331055,0.00066556
449.41211792,0.00008252
451.34092529,-0.00009645
453.26973267,0.00023137
455.19854004,-0.00013302
457.12734741,0.00062125
459.05615479,0.00041317
460.98496216,0.00008980
462.91376953,0.00052177
464.84257690,0.00048434
466.77138428,0.00030499
468.70019165,0.00030010
470.62899902,0.00053331
472.55780640,0.00048887
474.48661377,0.00061648
476.41542114,0.00050435
478.34422852,0.00017605
480.27303589,0.00021811
482.20184326,0.00053761
484.13065063,0.00071126
486.05945801,0.00027435
487.98826538,0.00072164
489.91707275,0.00069585
491.84588013,-0.00011078
493.77468750,0.00051862
495.70349487,0.00075930
497.63230225,0.00031605
499.56110962,0.00035951
501.48991699,0.00003962
503.41872437,0.00006694
505.34753174,0.00066497
507.27633911,0.00040679
509.20514648,0.00032591
511.13395386,0.00055066
513.06276123,0.00028102
514.99156860,0.00045543
516.92037598,0.00049157
518.84918335,0.00025663
520.77799072,0.00014536
522.70679810,0.00036527
524.63560547,0.00051887
526.56441284,0.00002863
528.49322021,0.00000697
530.42202759,0.00017122
532.35083496,0.00021647
534.27964233,0.00036656
536.20844971,0.00018148
538.13725708,0.00024379
540.06606445,0.00036925
541.99487183,-0.00001530
543.92367920,0.00011156
545.85248657,0.00063453
547.78129395,0.00017355
549.71010132,-0.00009127
551.63890869,0.00036001
553.56771606,0.00016462
555.49652344,0.00003093
557.42533081,0.00003774
559.35413818,0.00001904
561.28294556,0.00036193
563.21175293,0.00018868
565.14056030,0.00021854
567.06936768,0.00048729
568.99817505,0.00016868
570.92698242,0.00025682
572.85578979,0.00038291
574.78459717,0.00027353
576.71340454,0.00013788
578.64221191,0.00011201
580.57101929,0.00040720
582.49982666,0.00067751
584.42863403,0.00083023
586.35744141,0.00018079
588.28624878,0.00018962
590.21505615,0.00045718
592.14386353,-0.00005724
594.07267090,0.00010747
596.00147827,0.00014037
597.93028564,0.00037441
599.85909302,0.00001899
601.78790039,-0.00011870
603.71670776,0.00050236
605.64551514,0.00001198
607.57432251,0.00051770
609.50312988,0.00050500
611.43193726,0.00008234
613.36074463,0.00062672
615.28955200,0.00048656
617.21835938,0.00039266
619.14716675,-0.00003725
621.07597412,0.00019803
623.00478149,0.00013863
624.93358887,0.00006697
626.86239624,0.00006304
628.79120361,-0.00004471
630.72001099,0.00029388
632.64881836,0.00007010
634.57762573,0.00060724
636.50643311,0.00031003
638.43524048,0.00009342
640.36404785,0.00051561
642.29285522,0.00027964
644.22166260,0.00028247
646.15046997,0.00049770
648.07927734,0.00056066
650.00808472,0.00029088
651.93689209,0.00023920
653.86569946,0.00046644
655.79450684,0.00046516
657.72331421,0.00051300
659.65212158,0.00059297
661.58092896,0.00038767
663.50973633,0.00064320
665.43854370,0.00079983
667.36735107,0.00058573
669.29615845,0.00074779
671.22496582,0.00047108
673.15377319,0.00057864
675.08258057,0.00060466
677.01138794,0.00048793
678.94019531,0.00107678
680.86900269,0.00074053
682.79781006,0.00062730
684.72661743,0.00063460
686.65542480,0.00034369
688.58423218,0.00061909
690.51303955,0.00065856
692.44184692,0.00105514
694.37065430,0.00111760
696.29946167,0.00090569
698.22826904,0.00121992
700.15707642,0.00123802
702.08588379,0.00105356
704.01469116,0.00099063
705.94349854,0.00122895
707.87230591,0.00113971
709.80111328,0.00077563
711.72992065,0.00047270
713.65872803,0.00027084
715.58753540,0.00037207
717.51634277,0.00010506
719.44515015,0.00008231
721.37395752,0.00025508
723.30276489,0.00010678
725.23157227,0.00011487
727.16037964,0.00003492
729.08918701,0.00018145
731.01799438,0.00042780
732.94680176,0.00000967
734.87560913,0.00032304
736.80441650,0.00016417
738.73322388,0.00030887
740.66203125,0.00046426
742.59083862,0.00009601
744.51964600,0.00029627
746.44845337,0.00010266
748.37726074,0.00034375
750.30606812,0.00030041
752.23487549,0.00012036
754.16368286,0.00032250
756.09249023,0.00001659
758.02129761,0.00026571
759.95010498,0.00017244
761.87891235,0.00018039
763.80771973,0.00030813
765.73652710,-0.00005760
767.66533447,0.00025383
769.59414185,0.00011334
771.52294922,0.00033938
773.45175659,0.00057758
775.38056396,0.00016866
777.30937134,0.00055699
779.23817871,0.00038753
781.16698608,0.00030050
783.09579346,0.00057011
785.02460083,0.00017504
786.95340820,0.00032004
788.88221558,0.00043133
790.81102295,0.00007766
792.73983032,0.00009398
794.66863770,0.00036173
796.59744507,0.00061328
798.52625244,0.00051077
800.45505981,0.00022549
802.38386719,0.00034964
804.31267456,0.00029269
806.24148193,0.00033433
808.17028931,0.00035308
810.09909668,-0.00011145
812.02790405,0.00016968
813.95671143,0.00033783
815.88551880,0.00028608
817.81432617,0.00027202
819.74313354,0.00007531
821.67194092,0.00032492
823.60074829,0.00024852
825.52955566,0.00032501
827.45836304,0.00029041
829.38717041,0.00018230
831.31597778,0.00053999
833.24478516,0.00040984
835.17359253,0.00043022
837.10239990,0.00047527
839.03120728,0.00064618
840.96001465,0.00078200
842.88882202,0.00022087
844.81762939,0.00032846
846.74643677,0.00051289
848.67524414,0.00028121
850.60405151,0.00034352
852.53285889,0.00044040
854.46166626,0.00028344
856.39047363,0.00013594
858.31928101,0.00035966
860.24808838,0.00031306
862.17689575,0.00013866
864.10570313,0.00032061
866.03451050,0.00051632
867.96331787,0.00034029
869.89212524,0.00030662
871.82093262,0.00049471
873.74973999,0.00031710
875.67854736,0.00044178
877.60735474,0.00059805
879.53616211,0.00047571
881.46496948,0.00037412
883.39377686,0.00041946
885.32258423,0.00046571
887.25139160,0.00028837
889.18019897,0.00049249
891.10900635,0.00038865
893.03781372,0.00009832
894.96662109,0.00041867
896.89542847,0.00049248
898.82423584,0.00029787
900.75304321,0.00052548
902.68185059,0.00070509
904.61065796,0.00036975
906.53946533,0.00033654
908.46827271,0.00030183
910.39708008,0.00025851
912.32588745,0.00056989
914.25469482,0.00059545
916.18350220,0.00069177
918.11230957,0.00063788
920.04111694,0.00028722
921.96992432,0.00030880
923.89873169,0.00054873
925.82753906,0.00063642
927.75634644,0.00061051
929.68515381,0.00054589
931.61396118,0.00055919
933.54276855,0.00084738
935.47157593,0.00086448
937.40038330,0.00053448
939.32919067,0.00053766
941.25799805,0.00068464
943.18680542,0.00049458
945.11561279,0.00066384
947.04442017,0.00088246
948.97322754,0.00049957
950.90203491,0.00075518
952.83084229,0.00076395
954.75964966,0.00042383
956.68845703,0.00083229
958.61726440,0.00081561
960.54607178,0.00078649
962.47487915,0.00081993
964.40368652,0.00070682
966.33249390,0.00068067
968.26130127,0.00059951
970.19010864,0.00100340
972.11891602,0.00083021
974.04772339,0.00056093
975.97653076,0.00097958
977.90533813,0.00100010
979.83414551,0.00107816
981.76295288,0.00124129
983.69176025,0.00114400
985.62056763,0.00119282
987.54937500,0.00161951
989.47818237,0.00197115
991.40698975,0.00200704
993.33579712,0.00211497
995.26460449,0.00226563
997.19341187,0.00242115
999.12221924,0.00246417
1001.05102661,0.00283961
1002.97983398,0.00314761
1004.90864136,0.00311480
1006.83744873,0.00351703
1008.76625610,0.00369087
1010.69506348,0.00383899
1012.62387085,0.00394310
1014.55267822,0.00413043
1016.48148560,0.00470153
1018.41029297,0.00463184
1020.33910034,0.00480167
1022.26790771,0.00518723
1024.19671509,0.00533802
1026.12552246,0.00556509
1028.05432983,0.00556238
1029.98313721,0.00572472
1031.91194458,0.00598525
1033.84075195,0.00621796
1035.76955933,0.00617000
1037.69836670,0.00627355
1039.62717407,0.00635351
1041.55598145,0.00600771
1043.48478882,0.00626688
1045.41359619,0.00621958
1047.34240356,0.00596303
1049.27121094,0.00612838
1051.20001831,0.00600937
1053.12882568,0.00591822
1055.05763306,0.00570341
1056.98644043,0.00551535
1058.91524780,0.00557758
1060.84405518,0.00537763
1062.77286255,0.00507901
1064.70166992,0.00511438
1066.63047729,0.00501026
1068.55928467,0.00468122
1070.48809204,0.00461219
1072.41689941,0.00441058
1074.34570679,0.00421271
1076.27451416,0.00411657
1078.20332153,0.00388107
1080.13212891,0.00365826
1082.06093628,0.00333503
1083.98974365,0.00308280
1085.91855103,0.00299353
1087.84735840,0.00277625
1089.77616577,0.00276072
1091.70497314,0.00300413
1093.63378052,0.00271490
1095.56258789,0.00246255
1097.49139526,0.00251794
1099.42020264,0.00236409
1101.34901001,0.00258742
1103.27781738,0.00272282
1105.20662476,0.00233838
1107.13543213,0.00217906
1109.06423950,0.00230338
1110.99304687,0.00221973
1112.92185425,0.00213524
1114.85066162,0.00212722
1116.77946899,0.00202213
1118.70827637,0.00234653
1120.63708374,0.00237594
1122.56589111,0.00213929
1124.49469849,0.00247459
1126.42350586,0.00243352
1128.35231323,0.00219631
1130.28112061,0.00234399
1132.20992798,0.00249613
1134.13873535,0.00256938
1136.06754272,0.00273615
1137.99635010,0.00308181
1139.92515747,0.00315968
1141.85396484,0.00307067
1143.78277222,0.00327065
1145.71157959,0.00339248
1147.64038696,0.00357315
1149.56919434,0.00414327
1151.49800171,0.00427661
1153.42680908,0.00437468
1155.35561646,0.00469851
1157.28442383,0.00467043
1159.21323120,0.00503121
1161.14203857,0.00515527
1163.07084595,0.00510373
1164.99965332,0.00547522
1166.92846069,0.00548804
1168.85726807,0.00577004
1170.78607544,0.00614951
1172.71488281,0.00615426
1174.64369019,0.00652183
1176.57249756,0.00688975
1178.50130493,0.00687540
1180.43011230,0.00730727
1182.35891968,0.00781101
1184.28772705,0.00783982
1186.21653442,0.00823244
1188.14534180,0.00868693
1190.07414917,0.00907337
1192.00295654,0.00952762
1193.93176392,0.00989660
1195.86057129,0.01039732
1197.78937866,0.01094379
1199.71818604,0.01147548
1201.64699341,0.01177226
1203.57580078,0.01233247
1205.50460815,0.01295345
1207.43341553,0.01343932
1209.36222290,0.01385729
1211.29103027,0.01402147
1213.21983765,0.01467846
1215.14864502,0.01500007
1217.07745239,0.01534788
1219.00625977,0.01581562
1220.93506714,0.01565747
1222.86387451,0.01598013
1224.79268188,0.01617391
1226.72148926,0.01629430
1228.65029663,0.01653825
1230.57910400,0.01671796
1232.50791138,0.01686470
1234.43671875,0.01669805
1236.36552612,0.01678544
1238.29433350,0.01648602
1240.22314087,0.01653085
1242.15194824,0.01673667
1244.08075562,0.01629222
1246.00956299,0.01642397
1247.93837036,0.01643023
1249.86717773,0.01633937
1251.79598511,0.01627933
1253.72479248,0.01603354
1255.65359985,0.01579440
1257.58240723,0.01538024
1259.51121460,0.01553203
1261.44002197,0.01543438
1263.36882935,0.01489492
1265.29763672,0.01477310
1267.22644409,0.01466060
1269.15525146,0.01440507
1271.08405884,0.01419116
1273.01286621,0.01408827
1274.94167358,0.01383120
1276.87048096,0.01353873
1278.79928833,0.01334700
1280.72809570,0.01323375
1282.65690308,0.01286315
1284.58571045,0.01242258
1286.51451782,0.01247379
1288.44332520,0.01232928
1290.37213257,0.01221233
1292.30093994,0.01207078
1294.22974731,0.01187536
1296.15855469,0.01201059
1298.08736206,0.01187717
1300.01616943,0.01192744
1301.94497681,0.01194673
1303.87378418,0.01198597
1305.80259155,0.01237256
1307.73139893,0.01246373
1309.66020630,0.01259765
1311.58901367,0.01276514
1313.51782104,0.01306966
1315.44662842,0.01339241
1317.37543579,0.01351926
1319.30424316,0.01392477
1321.23305054,0.01435223
1323.16185791,0.01490740
1325.09066528,0.01550776
1327.01947266,0.01581264
1328.94828003,0.01616418
1330.87708740,0.01659465
1332.80589478,0.01708562
1334.73470215,0.01749912
1336.66350952,0.01749904
1338.59231689,0.01731519
1340.52112427,0.01764777
1342.44993164,0.01833559
1344.37873901,0.01841871
1346.30754639,0.01834100
1348.23635376,0.01840841
1350.16516113,0.01836095
1352.09396851,0.01836998
1354.02277588,0.01796010
1355.95158325,0.01790758
1357.88039062,0.01802272
1359.80919800,0.01744097
1361.73800537,0.01671995
1363.66681274,0.01660120
1365.59562012,0.01748544
1367.52442749,0.01716609
1369.45323486,0.01694214
1371.38204224,0.01739304
1373.31084961,0.01640608
1375.23965698,0.01655142
1377.16846436,0.01688746
1379.09727173,0.01683353
1381.02607910,0.01704057
1382.95488647,0.01679721
1384.88369385,0.01693147
1386.81250122,0.01614624
1388.74130859,0.01633590
1390.67011597,0.01779059
1392.59892334,0.01722300
1394.52773071,0.01613565
1396.45653809,0.01681140
1398.38534546,0.01699724
1400.31415283,0.01714287
1402.24296021,0.01831236
1404.17176758,0.01719932
1406.10057495,0.01734636
1408.02938232,0.01808009
1409.95818970,0.01732797
1411.88699707,0.01775908
1413.81580444,0.01725936
1415.74461182,0.01759554
1417.67341919,0.01590283
1419.60222656,0.01410923
1421.53103394,0.01616429
1423.45984131,0.01578003
1425.38864868,0.01532064
1427.31745605,0.01549024
1429.24626343,0.01435545
1431.17507080,0.01389076
1433.10387817,0.01432396
1435.03268555,0.01314300
1436.96149292,0.01114382
1438.89030029,0.01272302
1440.81910767,0.01276143
1442.74791504,0.01197455
1444.67672241,0.01266282
1446.60552979,0.01144176
1448.53433716,0.01172103
1450.46314453,0.01216176
1452.39195190,0.01235498
1454.32075928,0.01297226
1456.24956665,0.01086018
1458.17837402,0.01104814
1460.10718140,0.01477739
1462.03598877,0.01580755
1463.96479614,0.01556038
1465.89360352,0.01647794
1467.82241089,0.01871786
1469.75121826,0.01991019
1471.68002563,0.01758351
1473.60883301,0.01836680
1475.53764038,0.02113247
1477.46644775,0.02296913
1479.39525513,0.02517638
1481.32406250,0.02537093
1483.25286987,0.02696935
1485.18167725,0.02799441
1487.11048462,0.02764263
1489.03929199,0.02727833
1490.96809937,0.02745535
1492.89690674,0.03196127
1494.82571411,0.03111228
1496.75452148,0.02802281
1498.68332886,0.03170847
1500.61213623,0.03288317
1502.54094360,0.03519468
1504.46975098,0.03324639
1506.39855835,0.02404149
1508.32736572,0.02922908
1510.25617310,0.03460388
1512.18498047,0.03340725
1514.11378784,0.03648967
1516.04259521,0.03287432
1517.97140259,0.03410877
1519.90020996,0.03307677
1521.82901733,0.02832833
1523.75782471,0.03474116
1525.68663208,0.03427431
1527.61543945,0.03414004
1529.54424683,0.03775959
1531.47305420,0.03641276
1533.40186157,0.03327679
1535.33066895,0.03511767
1537.25947632,0.03795158
1539.18828369,0.02718195
1541.11709106,0.02822200
1543.04589844,0.03382374
1544.97470581,0.03243146
1546.90351318,0.03852056
1548.83232056,0.03596173
1550.76112793,0.03707413
1552.68993530,0.03684838
1554.61874268,0.03351283
1556.54755005,0.03579292
1558.47635742,0.02494187
1560.40516479,0.02688541
1562.33397217,0.03874589
1564.26277954,0.03659412
1566.19158691,0.03756646
1568.12039429,0.03720419
1570.04920166,0.03269967
1571.97800903,0.03786168
1573.90681641,0.03819463
1575.83562378,0.03012712
1577.76443115,0.03402153
1579.69323853,0.03818971
1581.62204590,0.03663073
1583.55085327,0.03772121
1585.47966064,0.03716486
1587.40846802,0.03720921
1589.33727539,0.03665920
1591.26608276,0.03642541
1593.19489014,0.03634226
1595.12369751,0.03593383
1597.05250488,0.03634380
1598.98131226,0.03588595
1600.91011963,0.03578503
1602.83892700,0.03516267
1604.76773437,0.03554107
1606.69654175,0.03472530
1608.62534912,0.03463808
1610.55415649,0.03435171
1612.48296387,0.03438155
1614.41177124,0.03476069
1616.34057861,0.02826663
1618.26938599,0.03039636
1620.19819336,0.03540338
1622.12700073,0.03123374
1624.05580811,0.03099757
1625.98461548,0.03261407
1627.91342285,0.03229010
1629.84223022,0.03196323
1631.77103760,0.03426830
1633.69984497,0.03163044
1635.62865234,0.02597825
1637.55745972,0.03020551
1639.48626709,0.03355902
1641.41507446,0.03278265
1643.34388184,0.03390420
1645.27268921,0.03073088
1647.20149658,0.02688692
1649.13030396,0.03392586
1651.05911133,0.03234138
1652.98791870,0.02060122
1654.91672607,0.02826940
1656.84553345,0.03618688
1658.77434082,0.03487944
1660.70314819,0.03603439
1662.63195557,0.03288078
1664.56076294,0.03469645
1666.48957031,0.03807965
1668.41837769,0.03344445
1670.34718506,0.03237658
1672.27599243,0.03718896
1674.20479980,0.03448783
1676.13360718,0.03310783
1678.06241455,0.03846697
1679.99122192,0.03749739
1681.92002930,0.03724903
1683.84883667,0.03040228
1685.77764404,0.03018120
1687.70645142,0.04172076
1689.63525879,0.03624657
1691.56406616,0.04006432
1693.49287354,0.04142941
1695.42168091,0.02995741
1697.35048828,0.03733782
1699.27929565,0.03316814
1701.20810303,0.02958651
1703.13691040,0.04094861
1705.06571777,0.03758610
1706.99452515,0.03786031
1708.92333252,0.04160140
1710.85213989,0.04010633
1712.78094727,0.04090833
1714.70975464,0.03811673
1716.63856201,0.03430869
1718.56736938,0.03373881
1720.49617676,0.04026816
1722.42498413,0.04212632
1724.35379150,0.03914860
1726.28259888,0.04272610
1728.21140625,0.03948481
1730.14021362,0.03970882
1732.06902100,0.03909847
1733.99782837,0.02966251
1735.92663574,0.03685110
1737.85544312,0.04134892
1739.78425049,0.03655872
1741.71305786,0.03979570
1743.64186523,0.04054010
1745.57067261,0.04056332
1747.49947998,0.04099604
1749.42828735,0.03915010
1751.35709473,0.03744925
1753.28590210,0.04162046
1755.21470947,0.04375738
1757.14351685,0.03980202
1759.07232422,0.04388242
1761.00113159,0.04130389
1762.92993896,0.03975011
1764.85874634,0.04580395
1766.78755371,0.04117208
1768.71636108,0.04155327
1770.64516846,0.04123145
1772.57397583,0.03698932
1774.50278320,0.04154998
1776.43159058,0.04402841
1778.36039795,0.04348636
1780.28920532,0.04290137
1782.21801270,0.04346015
1784.14682007,0.04331343
1786.07562744,0.04239999
1788.00443481,0.04485989
1789.93324219,0.04358734
1791.86204956,0.03938509
1793.79085693,0.04113289
1795.71966431,0.04430163
1797.64847168,0.04382867
1799.57727905,0.04301012
1801.50608643,0.04228113
1803.43489380,0.04389207
1805.36370117,0.04489382
1807.29250854,0.04428461
1809.22131592,0.04451115
1811.15012329,0.04317911
1813.07893066,0.04479035
1815.00773804,0.04502033
1816.93654541,0.04412679
1818.86535278,0.04465173
1820.79416016,0.04465103
1822.72296753,0.04536343
1824.65177490,0.04221100
1826.58058228,0.04374978
1828.50938965,0.04410708
1830.43819702,0.04133292
1832.36700439,0.04502021
1834.29581177,0.04485109
1836.22461914,0.04484216
1838.15342651,0.04463528
1840.08223389,0.04498892
1842.01104126,0.04511455
1843.93984863,0.03985010
1845.86865601,0.04256019
1847.79746338,0.04507800
1849.72627075,0.04411042
1851.65507812,0.04548151
1853.58388550,0.04454456
1855.51269287,0.04503810
1857.44150024,0.04489604
1859.37030762,0.04451767
1861.29911499,0.04487976
1863.22792236,0.04444968
1865.15672974,0.04483954
1867.08553711,0.04349561
1869.01434448,0.04171496
1870.94315186,0.04331038
1872.87195923,0.04500613
1874.80076660,0.04425970
1876.72957397,0.04474982
1878.65838135,0.04463051
1880.58718872,0.04424722
1882.51599609,0.04482896
1884.44480347,0.04400741
1886.37361084,0.04458747
1888.30241821,0.04375031
1890.23122559,0.04282489
1892.16003296,0.04445114
1894.08884033,0.04378087
1896.01764771,0.04353225
1897.94645508,0.04422828
1899.87526245,0.04410101
1901.80406982,0.04429650
1903.73287720,0.04410076
1905.66168457,0.04425856
1907.59049194,0.04390178
1909.51929932,0.04355063
1911.44810669,0.04373452
1913.37691406,0.04388567
1915.30572144,0.04426244
1917.23452881,0.04235048
1919.16333618,0.04244004
1921.09214355,0.04413989
1923.02095093,0.04269947
1924.94975830,0.04347235
1926.87856567,0.04417136
1928.80737305,0.04353935
1930.73618042,0.04390358
1932.66498779,0.04351987
1934.59379517,0.04400044
1936.52260254,0.04364503
1938.45140991,0.04380644
1940.38021729,0.04392493
1942.30902466,0.04248538
1944.23783203,0.04318114
1946.16663940,0.04376469
1948.09544678,0.04361830
1950.02425415,0.04362879
1951.95306152,0.04364292
1953.88186890,0.04382358
1955.81067627,0.04356970
1957.73948364,0.04372716
1959.66829102,0.04372483
1961.59709839,0.04369335
1963.52590576,0.04377320
1965.45471313,0.04339423
1967.38352051,0.04301483
1969.31232788,0.04345728
1971.24113525,0.04382824
1973.16994263,0.04354132
1975.09875000,0.04369066
1977.02755737,0.04353582
1978.95636475,0.04354705
1980.88517212,0.04345254
1982.81397949,0.04335445
1984.74278687,0.04361130
1986.67159424,0.04313774
1988.60040161,0.04339176
1990.52920898,0.04299542
1992.45801636,0.04232752
1994.38682373,0.04328855
1996.31563110,0.04334833
1998.24443848,0.04292801
2000.17324585,0.04309923
2002.10205322,0.04292004
2004.03086060,0.04287053
2005.95966797,0.04292823
2007.88847534,0.04273498
2009.81728271,0.04279677
2011.74609009,0.04273139
2013.67489746,0.04270768
2015.60370483,0.04251323
2017.53251221,0.04197423
2019.46131958,0.04232141
2021.39012695,0.04244534
2023.31893433,0.04215195
2025.24774170,0.04212157
2027.17654907,0.04213210
2029.10535645,0.04221097
2031.03416382,0.04192324
2032.96297119,0.04191597
2034.89177856,0.04185152
2036.82058594,0.04172786
2038.74939331,0.04183455
2040.67820068,0.04159077
2042.60700806,0.04158466
2044.53581543,0.04159233
2046.46462280,0.04148879
2048.39343018,0.04147571
2050.32223755,0.04142359
2052.25104492,0.04137173
2054.17985229,0.04131518
2056.10865967,0.04127481
2058.03746704,0.04119242
2059.96627441,0.04116615
2061.89508179,0.04100818
2063.82388916,0.04081481
2065.75269653,0.04071741
2067.68150391,0.04075851
2069.61031128,0.04082198
2071.53911865,0.04078467
2073.46792603,0.04071589
2075.39673340,0.04052474
2077.32554077,0.04060477
2079.25434814,0.04060435
2081.18315552,0.04046372
2083.11196289,0.04040191
2085.04077026,0.04030558
2086.96957764,0.04040726
2088.89838501,0.04025957
2090.82719238,0.04012972
2092.75599976,0.04015600
2094.68480713,0.04020527
2096.61361450,0.04026414
2098.54242187,0.04005381
2100.47122925,0.04002932
2102.40003662,0.04004102
2104.32884399,0.04001566
2106.25765137,0.03997890
2108.18645874,0.03979100
2110.11526611,0.03975816
2112.04407349,0.03978716
2113.97288086,0.03970095
2115.90168823,0.03957960
2117.83049561,0.03970367
2119.75930298,0.03972946
2121.68811035,0.03960980
2123.61691772,0.03968121
2125.54572510,0.03958203
2127.47453247,0.03948182
2129.40333984,0.03954830
2131.33214722,0.03954690
2133.26095459,0.03948114
2135.18976196,0.03941627
2137.11856934,0.03935639
2139.04737671,0.03933918
2140.97618408,0.03939778
2142.90499146,0.03938714
2144.83379883,0.03929593
2146.76260620,0.03926354
2148.69141357,0.03929013
2150.62022095,0.03920439
2152.54902832,0.03916974
2154.47783569,0.03917884
2156.40664307,0.03908484
2158.33545044,0.03912655
2160.26425781,0.03903797
2162.19306519,0.03899610
2164.12187256,0.03914392
2166.05067993,0.03900117
2167.97948730,0.03902034
2169.90829468,0.03913358
2171.83710205,0.03898050
2173.76590942,0.03902213
2175.69471680,0.03901488
2177.62352417,0.03891449
2179.55233154,0.03899663
2181.48113892,0.03894231
2183.40994629,0.03889963
2185.33875366,0.03888226
2187.26756104,0.03883857
2189.19636841,0.03885714
2191.12517578,0.03880138
2193.05398315,0.03893536
2194.98279053,0.03888378
2196.91159790,0.03866465
2198.84040527,0.03877841
2200.76921265,0.03874535
2202.69802002,0.03866165
2204.62682739,0.03877945
2206.55563477,0.03881351
2208.48444214,0.03867786
2210.41324951,0.03873756
2212.34205688,0.03888112
2214.27086426,0.03867537
2216.19967163,0.03858448
2218.12847900,0.03860661
2220.05728638,0.03859012
2221.98609375,0.03857066
2223.91490112,0.03857566
2225.84370850,0.03862492
2227.77251587,0.03849743
2229.70132324,0.03857883
2231.63013062,0.03851562
2233.55893799,0.03838496
2235.48774536,0.03845906
2237.41655273,0.03834506
2239.34536011,0.03848984
2241.27416748,0.03837048
2243.20297485,0.03815501
2245.13178223,0.03825051
2247.06058960,0.03812735
2248.98939697,0.03823317
2250.91820435,0.03834584
2252.84701172,0.03818686
2254.77581909,0.03805425
2256.70462646,0.03806449
2258.63343384,0.03809547
2260.56224121,0.03813015
2262.49104858,0.03814249
2264.41985596,0.03797472
2266.34866333,0.03793638
2268.27747070,0.03788600
2270.20627808,0.03800353
2272.13508545,0.03802948
2274.06389282,0.03780974
2275.99270020,0.03789915
2277.92150757,0.03789843
2279.85031494,0.03794037
2281.77912231,0.03783716
2283.70792969,0.03780691
2285.63673706,0.03789605
2287.56554443,0.03767299
2289.49435181,0.03778622
2291.42315918,0.03767541
2293.35196655,0.03751616
2295.28077393,0.03756076
2297.20958130,0.03747385
2299.13838867,0.03741069
2301.06719604,0.03720013
2302.99600342,0.03714941
2304.92481079,0.03679796
2306.85361816,0.03655731
2308.78242554,0.03652515
2310.71123291,0.03609986
2312.64004028,0.03583832
2314.56884766,0.03539035
2316.49765503,0.03499928
2318.42646240,0.03464587
2320.35526978,0.03412980
2322.28407715,0.03371365
2324.21288452,0.03317742
2326.14169189,0.03294110
2328.07049927,0.03255563
2329.99930664,0.03202920
2331.92811401,0.03200366
2333.85692139,0.03190412
2335.78572876,0.03168084
2337.71453613,0.03175580
2339.64334351,0.03170495
2341.57215088,0.03172006
2343.50095825,0.03224529
2345.42976562,0.03285894
2347.35857300,0.03438582
2349.28738037,0.03555927
2351.21618774,0.03430894
2353.14499512,0.03258527
2355.07380249,0.03140853
2357.00260986,0.03050308
2358.93141724,0.02993237
2360.86022461,0.02955094
2362.78903198,0.02957065
2364.71783936,0.02969452
2366.64664673,0.03006264
2368.57545410,0.03076410
2370.50426147,0.03155163
2372.43306885,0.03236608
2374.36187622,0.03333725
2376.29068359,0.03445262
2378.21949097,0.03512312
2380.14829834,0.03565011
2382.07710571,0.03622064
2384.00591309,0.03648489
2385.93472046,0.03658691
2387.86352783,0.03662524
2389.79233521,0.03661868
2391.72114258,0.03662470
2393.64994995,0.03669757
2395.57875732,0.03661433
2397.50756470,0.03655243
2399.43637207,0.03659000
2401.36517944,0.03655313
2403.29398682,0.03654676
2405.22279419,0.03643844
2407.15160156,0.03652816
2409.08040894,0.03650441
2411.00921631,0.03631928
2412.93802368,0.03645217
2414.86683105,0.03633219
2416.79563843,0.03622360
2418.72444580,0.03632994
2420.65325317,0.03629295
2422.58206055,0.03627384
2424.51086792,0.03631414
2426.43967529,0.03625704
2428.36848267,0.03618127
2430.29729004,0.03627281
2432.22609741,0.03613717
2434.15490479,0.03607734
2436.08371216,0.03616218
2438.01251953,0.03605650
2439.94132690,0.03611437
2441.87013428,0.03608180
2443.79894165,0.03604542
2445.72774902,0.03598775
2447.65655640,0.03592616
2449.58536377,0.03595530
2451.51417114,0.03585419
2453.44297852,0.03591274
2455.37178589,0.03587836
2457.30059326,0.03590625
2459.22940063,0.03586846
2461.15820801,0.03576097
2463.08701538,0.03588811
2465.01582275,0.03572220
2466.94463013,0.03577603
2468.87343750,0.03584164
2470.80224487,0.03571093
2472.73105225,0.03572093
2474.65985962,0.03560188
2476.58866699,0.03568256
2478.51747437,0.03568415
2480.44628174,0.03554978
2482.37508911,0.03548728
2484.30389648,0.03546245
2486.23270386,0.03547262
2488.16151123,0.03533835
2490.09031860,0.03536803
2492.01912598,0.03536706
2493.94793335,0.03527227
2495.87674072,0.03530780
2497.80554810,0.03528691
2499.73435547,0.03524613
2501.66316284,0.03521915
2503.59197021,0.03520404
2505.52077759,0.03522393
2507.44958496,0.03514982
2509.37839233,0.03501561
2511.30719971,0.03517412
2513.23600708,0.03522522
2515.16481445,0.03501847
2517.09362183,0.03505923
2519.02242920,0.03508031
2520.95123657,0.03502222
2522.88004395,0.03501096
2524.80885132,0.03499986
2526.73765869,0.03500210
2528.66646606,0.03499229
2530.59527344,0.03485257
2532.52408081,0.03473968
2534.45288818,0.03493593
2536.38169556,0.03498155
2538.31050293,0.03485924
2540.23931030,0.03479291
2542.16811768,0.03475489
2544.09692505,0.03468071
2546.02573242,0.03461684
2547.95453979,0.03477464
2549.88334717,0.03476221
2551.81215454,0.03474030
2553.74096191,0.03467223
2555.66976929,0.03455925
2557.59857666,0.03462989
2559.52738403,0.03447250
2561.45619141,0.03456251
2563.38499878,0.03458625
2565.31380615,0.03442350
2567.24261353,0.03453599
2569.17142090,0.03440008
2571.10022827,0.03432178
2573.02903564,0.03440111
2574.95784302,0.03435718
2576.88665039,0.03425068
2578.81545776,0.03426051
2580.74426514,0.03434131
2582.67307251,0.03419060
2584.60187988,0.03407300
2586.53068726,0.03409164
2588.45949463,0.03419761
2590.38830200,0.03413701
2592.31710937,0.03396608
2594.24591675,0.03399528
2596.17472412,0.03397641
2598.10353149,0.03397395
2600.03233887,0.03396435
2601.96114624,0.03386445
2603.88995361,0.03384175
2605.81876099,0.03390990
2607.74756836,0.03386713
2609.67637573,0.03381624
2611.60518311,0.03386879
2613.53399048,0.03373192
2615.46279785,0.03362481
2617.39160522,0.03362976
2619.32041260,0.03369572
2621.24921997,0.03365552
2623.17802734,0.03349634
2625.10683472,0.03355230
2627.03564209,0.03352942
2628.96444946,0.03349084
2630.89325684,0.03343240
2632.82206421,0.03338537
2634.75087158,0.03342378
2636.67967895,0.03336690
2638.60848633,0.03339913
2640.53729370,0.03335347
2642.46610107,0.03335410
2644.39490845,0.03326368
2646.32371582,0.03316639
2648.25252319,0.03323818
2650.18133057,0.03320366
2652.11013794,0.03338500
2654.03894531,0.03325067
2655.96775269,0.03302009
2657.89656006,0.03310683
2659.82536743,0.03301691
2661.75417480,0.03303453
2663.68298218,0.03298518
2665.61178955,0.03291455
2667.54059692,0.03288829
2669.46940430,0.03281204
2671.39821167,0.03284392
2673.32701904,0.03270464
2675.25582642,0.03265166
2677.18463379,0.03273153
2679.11344116,0.03271018
2681.04224854,0.03277161
2682.97105591,0.03268353
2684.89986328,0.03243565
2686.82867065,0.03247127
2688.75747803,0.03251262
2690.68628540,0.03250448
2692.61509277,0.03257358
2694.54390015,0.03247535
2696.47270752,0.03248517
2698.40151489,0.03241982
2700.33032227,0.03235422
2702.25912964,0.03237661
2704.18793701,0.03225777
2706.11674438,0.03228810
2708.04555176,0.03217742
2709.97435913,0.03221051
2711.90316650,0.03227790
2713.83197388,0.03208350
2715.76078125,0.03218533
2717.68958862,0.03212756
2719.61839600,0.03197073
2721.54720337,0.03200758
2723.47601074,0.03198725
2725.40481812,0.03196154
2727.33362549,0.03183436
2729.26243286,0.03175059
2731.19124023,0.03179112
2733.12004761,0.03173098
2735.04885498,0.03170481
2736.97766235,0.03176195
2738.90646973,0.03164267
2740.83527710,0.03159414
2742.76408447,0.03166450
2744.69289185,0.03158944
2746.62169922,0.03149473
2748.55050659,0.03150969
2750.47931396,0.03150991
2752.40812134,0.03132679
2754.33692871,0.03123353
2756.26573608,0.03124125
2758.19454346,0.03130496
2760.12335083,0.03129279
2762.05215820,0.03117592
2763.98096558,0.03121313
2765.90977295,0.03102787
2767.83858032,0.03098051
2769.76738770,0.03102091
2771.69619507,0.03093690
2773.62500244,0.03102757
2775.55380981,0.03090510
2777.48261719,0.03085371
2779.41142456,0.03082069
2781.34023193,0.03081229
2783.26903931,0.03079693
2785.19784668,0.03066521
2787.12665405,0.03078837
2789.05546143,0.03064130
2790.98426880,0.03050310
2792.91307617,0.03048547
2794.84188354,0.03039939
2796.77069092,0.03036240
2798.69949829,0.03027735
2800.62830566,0.03043323
2802.55711304,0.03027125
2804.48592041,0.03016406
2806.41472778,0.03031641
2808.34353516,0.03010842
2810.27234253,0.03013359
2812.20114990,0.03010460
2814.12995728,0.02995687
2816.05876465,0.03003275
2817.98757202,0.02989880
2819.91637939,0.02974606
2821.84518677,0.02974389
2823.77399414,0.02972315
2825.70280151,0.02968829
2827.63160889,0.02958438
2829.56041626,0.02946740
2831.48922363,0.02952349
2833.41803101,0.02950956
2835.34683838,0.02934670
2837.27564575,0.02934122
2839.20445312,0.02927978
2841.13326050,0.02916669
2843.06206787,0.02911370
2844.99087524,0.02890234
2846.91968262,0.02881350
2848.84848999,0.02879268
2850.77729736,0.02866180
2852.70610474,0.02862830
2854.63491211,0.02859126
2856.56371948,0.02855941
2858.49252686,0.02845848
2860.42133423,0.02847009
2862.35014160,0.02851531
2864.27894897,0.02834611
2866.20775635,0.02838008
2868.13656372,0.02823715
2870.06537109,0.02813178
2871.99417847,0.02825824
2873.92298584,0.02807519
2875.85179321,0.02809470
2877.78060059,0.02811714
2879.70940796,0.02807581
2881.63821533,0.02813388
2883.56702270,0.02795509
2885.49583008,0.02794165
2887.42463745,0.02790838
2889.35344482,0.02771918
2891.28225220,0.02768715
2893.21105957,0.02760853
2895.13986694,0.02750769
2897.06867432,0.02752459
2898.99748169,0.02752295
2900.92628906,0.02741833
2902.85509644,0.02732956
2904.78390381,0.02727662
2906.71271118,0.02712016
2908.64151855,0.02697117
2910.57032593,0.02693153
2912.49913330,0.02680624
2914.42794067,0.02670691
2916.35674805,0.02667529
2918.28555542,0.02659444
2920.21436279,0.02649736
2922.14317017,0.02636197
2924.07197754,0.02636545
2926.00078491,0.02631197
2927.92959229,0.02624906
2929.85839966,0.02631067
2931.78720703,0.02622533
2933.71601440,0.02620799
2935.64482178,0.02612038
2937.57362915,0.02606617
2939.50243652,0.02613196
2941.43124390,0.02604413
2943.36005127,0.02606797
2945.28885864,0.02596930
2947.21766602,0.02584586
2949.14647339,0.02594983
2951.07528076,0.02587086
2953.00408813,0.02569175
2954.93289551,0.02567275
2956.86170288,0.02564070
2958.79051025,0.02546556
2960.71931763,0.02540647
2962.64812500,0.02530551
2964.57693237,0.02512997
2966.50573975,0.02521088
2968.43454712,0.02521450
2970.36335449,0.02519392
2972.29216187,0.02520950
2974.22096924,0.02508092
2976.14977661,0.02515352
2978.07858398,0.02511258
2980.00739136,0.02491596
2981.93619873,0.02499666
2983.86500610,0.02499299
2985.79381348,0.02493575
2987.72262085,0.02490762
2989.65142822,0.02479522
2991.58023560,0.02481325
2993.50904297,0.02475299
2995.43785034,0.02466400
2997.36665771,0.02463683
2999.29546509,0.02449447
3001.22427246,0.02445427
3003.15307983,0.02435604
3005.08188721,0.02418362
3007.01069458,0.02425417
3008.93950195,0.02418581
3010.86830933,0.02392987
3012.79711670,0.02386178
3014.72592407,0.02381861
3016.65473145,0.02382163
3018.58353882,0.02381647
3020.51234619,0.02359691
3022.44115356,0.02352669
3024.36996094,0.02346976
3026.29876831,0.02331513
3028.22757568,0.02337026
3030.15638306,0.02318150
3032.08519043,0.02292201
3034.01399780,0.02295377
3035.94280518,0.02283555
3037.87161255,0.02280498
3039.80041992,0.02277153
3041.72922729,0.02250906
3043.65803467,0.02249575
3045.58684204,0.02250516
3047.51564941,0.02235255
3049.44445679,0.02220501
3051.37326416,0.02218740
3053.30207153,0.02220490
3055.23087891,0.02189083
3057.15968628,0.02181845
3059.08849365,0.02192576
3061.01730103,0.02167942
3062.94610840,0.02164771
3064.87491577,0.02153582
3066.80372314,0.02131195
3068.73253052,0.02137173
3070.66133789,0.02117697
3072.59014526,0.02104803
3074.51895264,0.02106231
3076.44776001,0.02093160
3078.37656738,0.02086707
3080.30537476,0.02062574
3082.23418213,0.02052413
3084.16298950,0.02059251
3086.09179687,0.02041090
3088.02060425,0.02026898
3089.94941162,0.02020405
3091.87821899,0.02007659
3093.80702637,0.01988060
3095.73583374,0.01975278
3097.66464111,0.01969079
3099.59344849,0.01958831
3101.52225586,0.01950015
3103.45106323,0.01938774
3105.37987061,0.01930419
3107.30867798,0.01917228
3109.23748535,0.01906867
3111.16629272,0.01897272
3113.09510010,0.01879519
3115.02390747,0.01872203
3116.95271484,0.01855556
3118.88152222,0.01841592
3120.81032959,0.01840872
3122.73913696,0.01830272
3124.66794434,0.01816657
3126.59675171,0.01805034
3128.52555908,0.01799287
3130.45436645,0.01784834
3132.38317383,0.01766860
3134.31198120,0.01758286
3136.24078857,0.01740283
3138.16959595,0.01732724
3140.09840332,0.01730310
3142.02721069,0.01707524
3143.95601807,0.01698630
3145.88482544,0.01694865
3147.81363281,0.01676978
3149.74244019,0.01668839
3151.67124756,0.01655991
3153.60005493,0.01642314
3155.52886230,0.01638465
3157.45766968,0.01625040
3159.38647705,0.01611526
3161.31528442,0.01604421
3163.24409180,0.01591829
3165.17289917,0.01579292
3167.10170654,0.01574930
3169.03051392,0.01568369
3170.95932129,0.01552131
3172.88812866,0.01526794
3174.81693604,0.01518854
3176.74574341,0.01522926
3178.67455078,0.01503798
3180.60335815,0.01495181
3182.53216553,0.01494989
3184.46097290,0.01477789
3186.38978027,0.01469833
3188.31858765,0.01464887
3190.24739502,0.01447827
3192.17620239,0.01446133
3194.10500977,0.01450300
3196.03381714,0.01432461
3197.96262451,0.01428041
3199.89143188,0.01423226
3201.82023926,0.01410920
3203.74904663,0.01406334
3205.67785400,0.01393327
3207.60666138,0.01400679
3209.53546875,0.01395025
3211.46427612,0.01375102
3213.39308350,0.01379562
3215.32189087,0.01380638
3217.25069824,0.01374807
3219.17950562,0.01362405
3221.10831299,0.01351652
3223.03712036,0.01346317
3224.96592773,0.01352344
3226.89473511,0.01350337
3228.82354248,0.01331531
3230.75234985,0.01334728
3232.68115723,0.01332550
3234.60996460,0.01331913
3236.53877197,0.01342989
3238.46757935,0.01328098
3240.39638672,0.01323597
3242.32519409,0.01332784
3244.25400146,0.01318246
3246.18280884,0.01309430
3248.11161621,0.01313808
3250.04042358,0.01314340
3251.96923096,0.01313964
3253.89803833,0.01310508
3255.82684570,0.01313498
3257.75565308,0.01306720
3259.68446045,0.01299160
3261.61326782,0.01311177
3263.54207520,0.01315749
3265.47088257,0.01308119
3267.39968994,0.01304879
3269.32849731,0.01314443
3271.25730469,0.01308406
3273.18611206,0.01296045
3275.11491943,0.01302559
3277.04372681,0.01305195
3278.97253418,0.01296694
3280.90134155,0.01295243
3282.83014893,0.01301149
3284.75895630,0.01295442
3286.68776367,0.01307783
3288.61657104,0.01308534
3290.54537842,0.01294098
3292.47418579,0.01299664
3294.40299316,0.01292503
3296.33180054,0.01297377
3298.26060791,0.01295523
3300.18941528,0.01292917
3302.11822266,0.01297390
3304.04703003,0.01292781
3305.97583740,0.01295869
3307.90464478,0.01282994
3309.83345215,0.01291585
3311.76225952,0.01290059
3313.69106689,0.01280694
3315.61987427,0.01291130
3317.54868164,0.01278937
3319.47748901,0.01280065
3321.40629639,0.01279644
3323.33510376,0.01278370
3325.26391113,0.01284892
3327.19271851,0.01284668
3329.12152588,0.01287926
3331.05033325,0.01288302
3332.97914062,0.01287868
3334.90794800,0.01279410
3336.83675537,0.01274032
3338.76556274,0.01279613
3340.69437012,0.01283810
3342.62317749,0.01275055
3344.55198486,0.01277736
3346.48079224,0.01280149
3348.40959961,0.01273848
3350.33840698,0.01277736
3352.26721436,0.01272515
3354.19602173,0.01275633
3356.12482910,0.01277975
3358.05363647,0.01291773
3359.98244385,0.01284873
3361.91125122,0.01266286
3363.84005859,0.01279187
3365.76886597,0.01272101
3367.69767334,0.01276488
3369.62648071,0.01271082
3371.55528809,0.01284780
3373.48409546,0.01292462
3375.41290283,0.01274800
3377.34171020,0.01305831
3379.27051758,0.01286882
3381.19932495,0.01279911
3383.12813232,0.01294720
3385.05693970,0.01279089
3386.98574707,0.01283495
3388.91455444,0.01285801
3390.84336182,0.01291872
3392.77216919,0.01282605
3394.70097656,0.01295643
3396.62978394,0.01301807
3398.55859131,0.01293767
3400.48739868,0.01304379
3402.41620605,0.01291106
3404.34501343,0.01301245
3406.27382080,0.01308190
3408.20262817,0.01298036
3410.13143555,0.01306817
3412.06024292,0.01322409
3413.98905029,0.01325266
3415.91785767,0.01327441
3417.84666504,0.01327189
3419.77547241,0.01306034
3421.70427979,0.01318120
3423.63308716,0.01337301
3425.56189453,0.01340195
3427.49070190,0.01342698
3429.41950928,0.01336130
3431.34831665,0.01330873
3433.27712402,0.01342482
3435.20593140,0.01352134
3437.13473877,0.01344049
3439.06354614,0.01358611
3440.99235352,0.01352369
3442.92116089,0.01354912
3444.84996826,0.01369208
3446.77877563,0.01352676
3448.70758301,0.01366634
3450.63639038,0.01371470
3452.56519775,0.01373794
3454.49400513,0.01384140
3456.42281250,0.01385642
3458.35161987,0.01388367
3460.28042725,0.01389909
3462.20923462,0.01395219
3464.13804199,0.01396420
3466.06684937,0.01407962
3467.99565674,0.01403017
3469.92446411,0.01407744
3471.85327148,0.01416514
3473.78207886,0.01410504
3475.71088623,0.01414382
3477.63969360,0.01418015
3479.56850098,0.01424626
3481.49730835,0.01417826
3483.42611572,0.01434727
3485.35492310,0.01441554
3487.28373047,0.01430877
3489.21253784,0.01438713
3491.14134521,0.01450264
3493.07015259,0.01460869
3494.99895996,0.01447755
3496.92776733,0.01462952
3498.85657471,0.01471629
3500.78538208,0.01471011
3502.71418945,0.01457982
3504.64299683,0.01446021
3506.57180420,0.01491271
3508.50061157,0.01478655
3510.42941895,0.01468577
3512.35822632,0.01494865
3514.28703369,0.01501999
3516.21584106,0.01503333
3518.14464844,0.01498650
3520.07345581,0.01512356
3522.00226318,0.01498386
3523.93107056,0.01485379
3525.85987793,0.01496356
3527.78868530,0.01505062
3529.71749268,0.01510061
3531.64630005,0.01532670
3533.57510742,0.01550202
3535.50391479,0.01528130
3537.43272217,0.01532248
3539.36152954,0.01547263
3541.29033691,0.01559936
3543.21914429,0.01557559
3545.14795166,0.01519959
3547.07675903,0.01510978
3549.00556641,0.01565629
3550.93437378,0.01571829
3552.86318115,0.01539232
3554.79198853,0.01584852
3556.72079590,0.01587613
3558.64960327,0.01580035
3560.57841064,0.01576460
3562.50721802,0.01575746
3564.43602539,0.01592228
3566.36483276,0.01477714
3568.29364014,0.01454972
3570.22244751,0.01579808
3572.15125488,0.01623734
3574.08006226,0.01606879
3576.00886963,0.01614665
3577.93767700,0.01621630
3579.86648437,0.01614814
3581.79529175,0.01623179
3583.72409912,0.01628913
3585.65290649,0.01600114
3587.58171387,0.01474768
3589.51052124,0.01517607
3591.43932861,0.01664512
3593.36813599,0.01605153
3595.29694336,0.01582433
3597.22575073,0.01625799
3599.15455811,0.01631561
3601.08336548,0.01617507
3603.01217285,0.01645142
3604.94098022,0.01689886
3606.86978760,0.01630729
3608.79859497,0.01540447
3610.72740234,0.01578579
3612.65620972,0.01617363
3614.58501709,0.01572326
3616.51382446,0.01678924
3618.44263184,0.01555469
3620.37143921,0.01497691
3622.30024658,0.01703111
3624.22905395,0.01667478
3626.15786133,0.01741130
3628.08666870,0.01478260
3630.01547607,0.01345123
3631.94428345,0.01702103
3633.87309082,0.01660871
3635.80189819,0.01698004
3637.73070557,0.01741436
3639.65951294,0.01718848
3641.58832031,0.01736394
3643.51712769,0.01712389
3645.44593506,0.01749342
3647.37474243,0.01560880
3649.30354980,0.01425641
3651.23235718,0.01462473
3653.16116455,0.01739439
3655.08997192,0.01728387
3657.01877930,0.01544498
3658.94758667,0.01782228
3660.87639404,0.01750119
3662.80520142,0.01770230
3664.73400879,0.01773812
3666.66281616,0.01762705
3668.59162354,0.01724393
3670.52043091,0.01405690
3672.44923828,0.01702099
3674.37804565,0.01628584
3676.30685303,0.01342187
3678.23566040,0.01690513
3680.16446777,0.01733575
3682.09327515,0.01747431
3684.02208252,0.01800529
3685.95088989,0.01781822
3687.87969727,0.01607683
3689.80850464,0.01450110
3691.73731201,0.01669457
3693.66611938,0.01737896
3695.59492676,0.01775583
3697.52373413,0.01770040
3699.45254150,0.01764022
3701.38134888,0.01721527
3703.31015625,0.01644942
3705.23896362,0.01825350
3707.16777100,0.01730696
3709.09657837,0.01687089
3711.02538574,0.01603318
3712.95419312,0.01491135
3714.88300049,0.01742927
3716.81180786,0.01724574
3718.74061523,0.01748801
3720.66942261,0.01704968
3722.59822998,0.01646448
3724.52703735,0.01712942
3726.45584473,0.01574539
3728.38465210,0.01719927
3730.31345947,0.01710077
3732.24226685,0.01563420
3734.17107422,0.01523788
3736.09988159,0.01445283
3738.02868896,0.01527755
3739.95749634,0.01658051
3741.88630371,0.01749637
3743.81511108,0.01356633
3745.74391846,0.01270356
3747.67272583,0.01657095
3749.60153320,0.01426785
3751.53034058,0.01311237
3753.45914795,0.01508082
3755.38795532,0.01631060
3757.31676270,0.01696832
3759.24557007,0.01559619
3761.17437744,0.01620173
3763.10318481,0.01730233
3765.03199219,0.01609568
3766.96079956,0.01652381
3768.88960693,0.01635670
3770.81841431,0.01542393
3772.74722168,0.01675485
3774.67602905,0.01686468
3776.60483643,0.01683173
3778.53364380,0.01638628
3780.46245117,0.01573285
3782.39125854,0.01678333
3784.32006592,0.01640716
3786.24887329,0.01630394
3788.17768066,0.01665179
3790.10648804,0.01659749
3792.03529541,0.01647729
3793.96410278,0.01669190
3795.89291016,0.01570723
3797.82171753,0.01555181
3799.75052490,0.01649289
3801.67933228,0.01298768
3803.60813965,0.01511685
3805.53694702,0.01651743
3807.46575439,0.01345562
3809.39456177,0.01638723
3811.32336914,0.01608429
3813.25217651,0.01667259
3815.18098389,0.01508049
3817.10979126,0.01308489
3819.03859863,0.01661806
3820.96740601,0.01344325
3822.89621338,0.01410869
3824.82502075,0.01652151
3826.75382812,0.01489780
3828.68263550,0.01612341
3830.61144287,0.01546881
3832.54025024,0.01483590
3834.46905762,0.01519332
3836.39786499,0.01458558
3838.32667236,0.01315346
3840.25547974,0.01410203
3842.18428711,0.01528462
3844.11309448,0.01454745
3846.04190186,0.01580747
3847.97070923,0.01561871
3849.89951660,0.01550426
3851.82832397,0.01412774
3853.75713135,0.01054956
3855.68593872,0.01226087
3857.61474609,0.01562092
3859.54355347,0.01528458
3861.47236084,0.01508347
3863.40116821,0.01477581
3865.32997559,0.01371020
3867.25878296,0.01537432
3869.18759033,0.01399372
3871.11639770,0.01291053
3873.04520508,0.01532471
3874.97401245,0.01402027
3876.90281982,0.01518639
3878.83162720,0.01550184
3880.76043457,0.01320447
3882.68924194,0.01512024
3884.61804932,0.01426074
3886.54685669,0.01316590
3888.47566406,0.01538285
3890.40447144,0.01461823
3892.33327881,0.01362650
3894.26208618,0.01492589
3896.19089355,0.01516525
3898.11970093,0.01444460
3900.04850830,0.01370299
3901.97731567,0.01350469
3903.90612305,0.01343020
3905.83493042,0.01355165
3907.76373779,0.01493077
3909.69254517,0.01497561
3911.62135254,0.01467684
3913.55015991,0.01502152
3915.47896728,0.01450111
3917.40777466,0.01412019
3919.33658203,0.01398179
3921.26538940,0.01454210
3923.19419678,0.01454637
3925.12300415,0.01414927
3927.05181152,0.01449796
3928.98061890,0.01452690
3930.90942627,0.01421940
3932.83823364,0.01382637
3934.76704102,0.01427308
3936.69584839,0.01452743
3938.62465576,0.01438826
3940.55346313,0.01458206
3942.48227051,0.01406761
3944.41107788,0.01403810
3946.33988525,0.01437132
3948.26869263,0.01396724
3950.19750000,0.01402182
3952.12630737,0.01431686
3954.05511475,0.01416328
3955.98392212,0.01420350
3957.91272949,0.01413665
3959.84153687,0.01409756
3961.77034424,0.01407132
3963.69915161,0.01396603
3965.62795898,0.01419081
3967.55676636,0.01408380
3969.48557373,0.01406975
3971.41438110,0.01400658
3973.34318848,0.01388336
3975.27199585,0.01395421
3977.20080322,0.01386867
3979.12961060,0.01396828
3981.05841797,0.01385318
3982.98722534,0.01387569
3984.91603271,0.01385393
3986.84484009,0.01382442
3988.77364746,0.01385351
3990.70245483,0.01365418
3992.63126221,0.01378113
3994.56006958,0.01364401
3996.48887695,0.01363677
3998.41768433,0.01372936
4000.34649170,0.01368797
4002.27529907,0.01369935
4004.20410645,0.01361160
4006.13291382,0.01361909
4008.06172119,0.01351141
4009.99052856,0.01355579
4011.91933594,0.01340447
4013.84814331,0.01347518
4015.77695068,0.01355415
4017.70575806,0.01333549
4019.63456543,0.01345959
4021.56337280,0.01334461
4023.49218018,0.01337751
4025.42098755,0.01334788
4027.34979492,0.01334834
4029.27860229,0.01335713
4031.20740967,0.01319399
4033.13621704,0.01329855
4035.06502441,0.01315595
4036.99383179,0.01322279
4038.92263916,0.01321682
4040.85144653,0.01316074
4042.78025391,0.01313863
4044.70906128,0.01298637
4046.63786865,0.01310312
4048.56667603,0.01306633
4050.49548340,0.01307143
4052.42429077,0.01295596
4054.35309814,0.01293874
4056.28190552,0.01293839
4058.21071289,0.01285773
4060.13952026,0.01289375
4062.06832764,0.01274274
4063.99713501,0.01292336
4065.92594238,0.01286586
4067.85474976,0.01278452
4069.78355713,0.01288710
4071.71236450,0.01273291
4073.64117187,0.01275069
4075.56997925,0.01261550
4077.49878662,0.01258537
4079.42759399,0.01268621
4081.35640137,0.01262434
4083.28520874,0.01264683
4085.21401611,0.01269392
4087.14282349,0.01259321
4089.07163086,0.01255095
4091.00043823,0.01256653
4092.92924561,0.01242548
4094.85805298,0.01248007
4096.78686035,0.01250100
4098.71566772,0.01247636
4100.64447510,0.01244994
4102.57328247,0.01236521
4104.50208984,0.01242571
4106.43089722,0.01233186
4108.35970459,0.01233953
4110.28851196,0.01234357
4112.21731934,0.01217678
4114.14612671,0.01213715
4116.07493408,0.01218997
4118.00374145,0.01222822
4119.93254883,0.01217586
4121.86135620,0.01221189
4123.79016357,0.01218335
4125.71897095,0.01204026
4127.64777832,0.01207107
4129.57658569,0.01214208
4131.50539307,0.01205673
4133.43420044,0.01199620
4135.36300781,0.01200035
4137.29181519,0.01199116
4139.22062256,0.01198800
4141.14942993,0.01193077
4143.07823730,0.01190086
4145.00704468,0.01184992
4146.93585205,0.01187236
4148.86465942,0.01185347
4150.79346680,0.01175960
4152.72227417,0.01177815
4154.65108154,0.01173302
4156.57988892,0.01175998
4158.50869629,0.01172763
4160.43750366,0.01166308
4162.36631103,0.01170064
4164.29511841,0.01167945
4166.22392578,0.01159458
4168.15273315,0.01154168
4170.08154053,0.01161540
4172.01034790,0.01150520
4173.93915527,0.01148263
4175.86796265,0.01157276
4177.79677002,0.01146895
4179.72557739,0.01147959
4181.65438477,0.01149853
4183.58319214,0.01142395
4185.51199951,0.01140708
4187.44080688,0.01142623
4189.36961426,0.01138214
4191.29842163,0.01134758
4193.22722900,0.01124245
4195.15603638,0.01119361
4197.08484375,0.01124326
4199.01365112,0.01119332
4200.94245850,0.01120477
4202.87126587,0.01120591
4204.80007324,0.01128219
4206.72888062,0.01116981
4208.65768799,0.01105351
4210.58649536,0.01116631
4212.51530273,0.01108791
4214.44411011,0.01109685
4216.37291748,0.01106361
4218.30172485,0.01104853
4220.23053223,0.01102050
4222.15933960,0.01097153
4224.08814697,0.01095538
4226.01695435,0.01082414
4227.94576172,0.01102992
4229.87456909,0.01099788
4231.80337646,0.01084372
4233.73218384,0.01093722
4235.66099121,0.01085898
4237.58979858,0.01077325
4239.51860596,0.01073685
4241.44741333,0.01079854
4243.37622070,0.01075447
4245.30502808,0.01068857
4247.23383545,0.01066981
4249.16264282,0.01066372
4251.09145020,0.01070664
4253.02025757,0.01070510
4254.94906494,0.01071004
4256.87787231,0.01056913
4258.80667969,0.01055303
4260.73548706,0.01056168
4262.66429443,0.01048304
4264.59310181,0.01046352
4266.52190918,0.01048247
4268.45071655,0.01045377
4270.37952393,0.01034679
4272.30833130,0.01052705
4274.23713867,0.01044637
4276.16594604,0.01032529
4278.09475342,0.01045910
4280.02356079,0.01033915
4281.95236816,0.01033662
4283.88117554,0.01030930
4285.80998291,0.01024667
4287.73879028,0.01026792
4289.66759766,0.01026811
4291.59640503,0.01019908
4293.52521240,0.01017209
4295.45401978,0.01026307
4297.38282715,0.01015844
4299.31163452,0.01019087
4301.24044189,0.01015147
4303.16924927,0.01003189
4305.09805664,0.01009533
4307.02686401,0.01001997
4308.95567139,0.01005061
4310.88447876,0.01000114
4312.81328613,0.00989579
4314.74209351,0.00994956
4316.67090088,0.00994288
4318.59970825,0.00994871
4320.52851562,0.00990506
4322.45732300,0.00989885
4324.38613037,0.00991881
4326.31493774,0.00983957
4328.24374512,0.00985984
4330.17255249,0.00983269
4332.10135986,0.00976679
4334.03016724,0.00980032
4335.95897461,0.00972608
4337.88778198,0.00976152
4339.81658936,0.00981343
4341.74539673,0.00970848
4343.67420410,0.00969908
4345.60301147,0.00968015
4347.53181885,0.00964618
4349.46062622,0.00960857
4351.38943359,0.00960877
4353.31824097,0.00959094
4355.24704834,0.00953271
4357.17585571,0.00958865
4359.10466309,0.00955719
4361.03347046,0.00947284
4362.96227783,0.00950098
4364.89108520,0.00950732
4366.81989258,0.00940686
4368.74869995,0.00944916
4370.67750732,0.00943816
4372.60631470,0.00930869
4374.53512207,0.00934327
4376.46392944,0.00925446
4378.39273682,0.00925539
4380.32154419,0.00930509
4382.25035156,0.00926463
4384.17915894,0.00925679
4386.10796631,0.00923358
4388.03677368,0.00932050
4389.96558105,0.00919021
4391.89438843,0.00912328
4393.82319580,0.00919110
4395.75200317,0.00914527
4397.68081055,0.00915385
4399.60961792,0.00907698
4401.53842529,0.00911413
4403.46723267,0.00913550
4405.39604004,0.00908341
4407.32484741,0.00901048
4409.25365478,0.00893782
4411.18246216,0.00907907
4413.11126953,0.00903403
4415.04007690,0.00889955
4416.96888428,0.00896118
4418.89769165,0.00901695
4420.82649902,0.00893340
4422.75530640,0.00881439
4424.68411377,0.00885819
4426.61292114,0.00888746
4428.54172852,0.00881868
4430.47053589,0.00880518
4432.39934326,0.00880488
4434.32815063,0.00876361
4436.25695801,0.00871675
4438.18576538,0.00871584
4440.11457275,0.00879191
4442.04338013,0.00873858
4443.97218750,0.00865501
4445.90099487,0.00867331
4447.82980225,0.00859795
4449.75860962,0.00860047
4451.68741699,0.00860905
4453.61622437,0.00857078
4455.54503174,0.00854876
4457.47383911,0.00849260
4459.40264648,0.00853183
4461.33145386,0.00852017
4463.26026123,0.00847898
4465.18906860,0.00845511
4467.11787598,0.00843390
4469.04668335,0.00843836
4470.97549072,0.00842978
4472.90429810,0.00844062
4474.83310547,0.00837981
4476.76191284,0.00837092
4478.69072021,0.00839289
4480.61952759,0.00836065
4482.54833496,0.00830828
4484.47714233,0.00825828
4486.40594971,0.00832375
4488.33475708,0.00827036
4490.26356445,0.00815402
4492.19237183,0.00818970
4494.12117920,0.00822784
4496.04998657,0.00823673
4497.97879395,0.00816105
4499.90760132,0.00813935
4501.83640869,0.00819545
4503.76521606,0.00808281
4505.69402344,0.00811254
4507.62283081,0.00821505
4509.55163818,0.00806150
4511.48044556,0.00802745
4513.40925293,0.00808330
4515.33806030,0.00805660
4517.26686768,0.00805670
4519.19567505,0.00800133
4521.12448242,0.00796181
4523.05328979,0.00795897
4524.98209717,0.00784990
4526.91090454,0.00782193
4528.83971191,0.00791540
4530.76851929,0.00787149
4532.69732666,0.00787419
4534.62613403,0.00788392
4536.55494141,0.00782673
4538.48374878,0.00781382
4540.41255615,0.00773364
4542.34136353,0.00774017
4544.27017090,0.00773382
4546.19897827,0.00773704
4548.12778564,0.00773470
4550.05659302,0.00765922
4551.98540039,0.00770527
4553.91420776,0.00767767
4555.84301514,0.00762901
4557.77182251,0.00759897
4559.70062988,0.00764618
4561.62943726,0.00765937
4563.55824463,0.00759012
4565.48705200,0.00765030
4567.41585937,0.00755095
4569.34466675,0.00749111
4571.27347412,0.00748272
4573.20228149,0.00741156
4575.13108887,0.00746190
4577.05989624,0.00747195
4578.98870361,0.00740637
4580.91751099,0.00736604
4582.84631836,0.00742653
4584.77512573,0.00737384
4586.70393311,0.00734000
4588.63274048,0.00739104
4590.56154785,0.00735356
4592.49035522,0.00737408
4594.41916260,0.00736178
4596.34796997,0.00726465
4598.27677734,0.00720139
4600.20558472,0.00729683
4602.13439209,0.00728959
4604.06319946,0.00724494
4605.99200684,0.00726018
4607.92081421,0.00717293
4609.84962158,0.00719829
4611.77842895,0.00713660
4613.70723633,0.00715686
4615.63604370,0.00719870
4617.56485107,0.00710323
4619.49365845,0.00710040
4621.42246582,0.00702686
4623.35127319,0.00705149
4625.28008057,0.00705023
4627.20888794,0.00703688
4629.13769531,0.00702183
4631.06650269,0.00694256
4632.99531006,0.00702354
4634.92411743,0.00700809
4636.85292480,0.00696739
4638.78173218,0.00695781
4640.71053955,0.00695806
4642.63934692,0.00696373
4644.56815430,0.00691543
4646.49696167,0.00690036
4648.42576904,0.00683321
4650.35457642,0.00684478
4652.28338379,0.00685694
4654.21219116,0.00681024
4656.14099853,0.00683035
4658.06980591,0.00679976
4659.99861328,0.00675081
4661.92742065,0.00676502
4663.85622803,0.00671941
4665.78503540,0.00665687
4667.71384277,0.00671405
4669.64265015,0.00668931
4671.57145752,0.00663031
4673.50026489,0.00664890
4675.42907227,0.00664608
4677.35787964,0.00662325
4679.28668701,0.00660333
4681.21549438,0.00661776
4683.14430176,0.00659452
4685.07310913,0.00658105
4687.00191650,0.00655826
4688.93072388,0.00654139
4690.85953125,0.00653179
4692.78833862,0.00643513
4694.71714600,0.00642890
4696.64595337,0.00648942
4698.57476074,0.00650994
4700.50356812,0.00643961
4702.43237549,0.00635177
4704.36118286,0.00644737
4706.28999023,0.00654229
4708.21879761,0.00643658
4710.14760498,0.00637171
4712.07641235,0.00643975
4714.00521973,0.00635801
4715.93402710,0.00627245
4717.86283447,0.00639556
4719.79164185,0.00641217
4721.72044922,0.00629642
4723.64925659,0.00631934
4725.57806396,0.00633748
4727.50687134,0.00633524
4729.43567871,0.00631742
4731.36448608,0.00622400
4733.29329346,0.00627464
4735.22210083,0.00625863
4737.15090820,0.00622251
4739.07971558,0.00621601
4741.00852295,0.00617588
4742.93733032,0.00622603
4744.86613770,0.00611144
4746.79494507,0.00610812
4748.72375244,0.00610597
4750.65255981,0.00602691
4752.58136719,0.00612706
4754.51017456,0.00607186
4756.43898193,0.00601606
4758.36778931,0.00599765
4760.29659668,0.00602874
4762.22540405,0.00610321
4764.15421143,0.00602984
4766.08301880,0.00594047
4768.01182617,0.00591050
4769.94063354,0.00595157
4771.86944092,0.00596331
4773.79824829,0.00595874
4775.72705566,0.00589220
4777.65586304,0.00588648
4779.58467041,0.00591264
4781.51347778,0.00586242
4783.44228516,0.00592240
4785.37109253,0.00588592
4787.29989990,0.00582080
4789.22870728,0.00581485
4791.15751465,0.00581863
4793.08632202,0.00580473
4795.01512939,0.00576777
4796.94393677,0.00577985
4798.87274414,0.00575313
4800.80155151,0.00578229
4802.73035889,0.00571022
4804.65916626,0.00569325
4806.58797363,0.00577535
4808.51678101,0.00568495
4810.44558838,0.00564327
4812.37439575,0.00565371
4814.30320312,0.00570188
4816.23201050,0.00569681
4818.16081787,0.00561726
4820.08962524,0.00558819
4822.01843262,0.00563141
4823.94723999,0.00565421
4825.87604736,0.00561086
4827.80485474,0.00560959
4829.73366211,0.00554462
4831.66246948,0.00555512
4833.59127686,0.00555917
4835.52008423,0.00555360
4837.44889160,0.00555186
4839.37769897,0.00545078
4841.30650635,0.00554822
4843.23531372,0.00549669
4845.16412109,0.00539655
4847.09292847,0.00546909
4849.02173584,0.00539693
4850.95054321,0.00536715
4852.87935059,0.00541000
4854.80815796,0.00539976
4856.73696533,0.00536606
4858.66577270,0.00536260
4860.59458008,0.00528163
4862.52338745,0.00531241
4864.45219482,0.00539742
4866.38100220,0.00524749
4868.30980957,0.00525814
4870.23861694,0.00533595
4872.16742432,0.00527583
4874.09623169,0.00520118
4876.02503906,0.00520660
4877.95384644,0.00527183
4879.88265381,0.00522851
4881.81146118,0.00522512
4883.74026855,0.00522542
4885.66907593,0.00523361
4887.59788330,0.00520678
4889.52669067,0.00512221
4891.45549805,0.00515106
4893.38430542,0.00508600
4895.31311279,0.00509566
4897.24192017,0.00514586
4899.17072754,0.00506136
4901.09953491,0.00515414
4903.02834228,0.00514862
4904.95714966,0.00504665
4906.88595703,0.00508925
4908.81476440,0.00499356
4910.74357178,0.00497306
4912.67237915,0.00509247
4914.60118652,0.00501158
4916.52999390,0.00493730
4918.45880127,0.00501339
4920.38760864,0.00501301
4922.31641602,0.00499955
4924.24522339,0.00496933
4926.17403076,0.00487425
4928.10283813,0.00492767
4930.03164551,0.00490772
4931.96045288,0.00487571
4933.88926025,0.00491921
4935.81806763,0.00480872
4937.74687500,0.00482345
4939.67568237,0.00482683
4941.60448975,0.00481011
4943.53329712,0.00486344
4945.46210449,0.00483094
4947.39091187,0.00485272
4949.31971924,0.00480579
4951.24852661,0.00478478
4953.17733398,0.00478506
4955.10614136,0.00472869
4957.03494873,0.00471583
4958.96375610,0.00474293
4960.89256348,0.00476363
4962.82137085,0.00469488
4964.75017822,0.00480406
4966.67898560,0.00482070
4968.60779297,0.00465912
4970.53660034,0.00465459
4972.46540771,0.00459632
4974.39421509,0.00460243
4976.32302246,0.00462367
4978.25182983,0.00453956
4980.18063721,0.00456947
4982.10944458,0.00460704
4984.03825195,0.00455800
4985.96705933,0.00452552
4987.89586670,0.00453771
4989.82467407,0.00458920
4991.75348145,0.00456944
4993.68228882,0.00451000
4995.61109619,0.00455660
4997.53990356,0.00453757
4999.46871094,0.00449253
5001.39751831,0.00445762
5003.32632568,0.00445424
5005.25513306,0.00448878
5007.18394043,0.00444267
5009.11274780,0.00447623
5011.04155518,0.00447077
5012.97036255,0.00446682
5014.89916992,0.00445765
5016.82797729,0.00440842
5018.75678467,0.00439132
5020.68559204,0.00434002
5022.61439941,0.00444047
5024.54320679,0.00438851
5026.47201416,0.00429880
5028.40082153,0.00434919
5030.32962891,0.00429055
5032.25843628,0.00427474
5034.18724365,0.00428768
5036.11605103,0.00429386
5038.04485840,0.00424687
5039.97366577,0.00428736
5041.90247314,0.00427967
5043.83128052,0.00424317
5045.76008789,0.00430059
5047.68889526,0.00421911
5049.61770264,0.00425481
5051.54651001,0.00418865
5053.47531738,0.00412001
5055.40412476,0.00419123
5057.33293213,0.00415731
5059.26173950,0.00420629
5061.19054687,0.00414113
5063.11935425,0.00410958
5065.04816162,0.00415575
5066.97696899,0.00413711
5068.90577637,0.00417192
5070.83458374,0.00409766
5072.76339111,0.00407528
5074.69219849,0.00418613
5076.62100586,0.00411998
5078.54981323,0.00403911
5080.47862061,0.00411245
5082.40742798,0.00404241
5084.33623535,0.00404597
5086.26504272,0.00414096
5088.19385010,0.00404845
5090.12265747,0.00397451
5092.05146484,0.00398524
5093.98027222,0.00400783
5095.90907959,0.00399199
5097.83788696,0.00399547
5099.76669434,0.00397062
5101.69550171,0.00399902
5103.62430908,0.00401460
5105.55311645,0.00395371
5107.48192383,0.00394928
5109.41073120,0.00385567
5111.33953857,0.00389685
5113.26834595,0.00388083
5115.19715332,0.00385504
5117.12596069,0.00394119
5119.05476807,0.00385578
5120.98357544,0.00389132
5122.91238281,0.00389293
5124.84119019,0.00384965
5126.76999756,0.00374462
5128.69880493,0.00371046
5130.62761230,0.00382203
5132.55641968,0.00379227
5134.48522705,0.00388382
5136.41403442,0.00380094
5138.34284180,0.00374856
5140.27164917,0.00385012
5142.20045654,0.00377075
5144.12926392,0.00378581
5146.05807129,0.00376570
5147.98687866,0.00372519
5149.91568603,0.00373134
5151.84449341,0.00373450
5153.77330078,0.00368878
5155.70210815,0.00366272
5157.63091553,0.00369043
5159.55972290,0.00365260
5161.48853027,0.00367410
5163.41733765,0.00363391
5165.34614502,0.00363981
5167.27495239,0.00368777
5169.20375977,0.00361267
5171.13256714,0.00358389
5173.06137451,0.00358587
5174.99018188,0.00357984
5176.91898926,0.00357790
5178.84779663,0.00356790
5180.77660400,0.00356002
5182.70541138,0.00357635
5184.63421875,0.00354286
5186.56302612,0.00354397
5188.49183350,0.00353104
5190.42064087,0.00350862
5192.34944824,0.00354888
5194.27825562,0.00345323
5196.20706299,0.00346390
5198.13587036,0.00349544
5200.06467773,0.00348335
5201.99348511,0.00351175
5203.92229248,0.00343528
5205.85109985,0.00342008
5207.77990723,0.00337918
5209.70871460,0.00339866
5211.63752197,0.00345296
5213.56632935,0.00339594
5215.49513672,0.00338757
5217.42394409,0.00344461
5219.35275146,0.00340674
5221.28155884,0.00334647
5223.21036621,0.00341854
5225.13917358,0.00330295
5227.06798096,0.00329744
5228.99678833,0.00339712
5230.92559570,0.00330833
5232.85440308,0.00332732
5234.78321045,0.00330134
5236.71201782,0.00330002
5238.64082520,0.00327268
5240.56963257,0.00329967
5242.49843994,0.00330390
5244.42724731,0.00315114
5246.35605469,0.00330796
5248.28486206,0.00326646
5250.21366943,0.00316343
5252.14247681,0.00332902
5254.07128418,0.00321227
5256.00009155,0.00316599
5257.92889893,0.00326115
5259.85770630,0.00322550
5261.78651367,0.00320852
5263.71532104,0.00316366
5265.64412842,0.00312392
5267.57293579,0.00319453
5269.50174316,0.00324935
5271.43055054,0.00317436
5273.35935791,0.00315701
5275.28816528,0.00319306
5277.21697266,0.00311220
5279.14578003,0.00317314
5281.07458740,0.00327213
5283.00339478,0.00320255
5284.93220215,0.00315878
5286.86100952,0.00311085
5288.78981689,0.00312749
5290.71862427,0.00313581
5292.64743164,0.00312765
5294.57623901,0.00315329
5296.50504639,0.00305843
5298.43385376,0.00305817
5300.36266113,0.00311492
5302.29146851,0.00307772
5304.22027588,0.00306608
5306.14908325,0.00309792
5308.07789062,0.00303361
5310.00669800,0.00301898
5311.93550537,0.00308799
5313.86431274,0.00303829
5315.79312012,0.00306143
5317.72192749,0.00300725
5319.65073486,0.00299046
5321.57954224,0.00304807
5323.50834961,0.00302430
5325.43715698,0.00301129
5327.36596436,0.00285070
5329.29477173,0.00295959
5331.22357910,0.00303257
5333.15238647,0.00293880
5335.08119385,0.00302293
5337.01000122,0.00288515
5338.93880859,0.00281013
5340.86761597,0.00291499
5342.79642334,0.00295011
5344.72523071,0.00280480
5346.65403809,0.00280119
5348.58284546,0.00293953
5350.51165283,0.00288751
5352.44046020,0.00292262
5354.36926758,0.00286017
5356.29807495,0.00286146
5358.22688232,0.00290102
5360.15568970,0.00282646
5362.08449707,0.00286532
5364.01330444,0.00286856
5365.94211182,0.00288150
5367.87091919,0.00283266
5369.79972656,0.00287502
5371.72853394,0.00285369
5373.65734131,0.00277271
5375.58614868,0.00276978
5377.51495605,0.00266136
5379.44376343,0.00277928
5381.37257080,0.00281540
5383.30137817,0.00279025
5385.23018555,0.00279713
5387.15899292,0.00266941
5389.08780029,0.00270894
5391.01660767,0.00274181
5392.94541504,0.00271784
5394.87422241,0.00266354
5396.80302978,0.00271458
5398.73183716,0.00274441
5400.66064453,0.00266446
5402.58945190,0.00271165
5404.51825928,0.00264434
5406.44706665,0.00267585
5408.37587402,0.00272597
5410.30468140,0.00262439
5412.23348877,0.00266953
5414.16229614,0.00263557
5416.09110352,0.00259406
5418.01991089,0.00263991
5419.94871826,0.00259857
5421.87752563,0.00262801
5423.80633301,0.00260999
5425.73514038,0.00251275
5427.66394775,0.00253517
5429.59275513,0.00253196
5431.52156250,0.00256971
5433.45036987,0.00260407
5435.37917725,0.00252983
5437.30798462,0.00254532
5439.23679199,0.00256118
5441.16559936,0.00250889
5443.09440674,0.00246152
5445.02321411,0.00249168
5446.95202148,0.00253764
5448.88082886,0.00253576
5450.80963623,0.00249921
5452.73844360,0.00244622
5454.66725098,0.00244821
5456.59605835,0.00243312
5458.52486572,0.00248868
5460.45367310,0.00247743
5462.38248047,0.00243879
5464.31128784,0.00249581
5466.24009521,0.00244292
5468.16890259,0.00245120
5470.09770996,0.00240561
5472.02651733,0.00239146
5473.95532471,0.00240747
5475.88413208,0.00235601
5477.81293945,0.00247961
5479.74174683,0.00244335
5481.67055420,0.00242467
5483.59936157,0.00242578
5485.52816895,0.00233194
5487.45697632,0.00243746
5489.38578369,0.00244031
5491.31459106,0.00240685
5493.24339844,0.00239124
5495.17220581,0.00239493
5497.10101318,0.00238984
5499.02982056,0.00231545
5500.95862793,0.00238246
5502.88743530,0.00230990
5504.81624268,0.00230675
5506.74505005,0.00239671
5508.67385742,0.00232910
5510.60266479,0.00235602
5512.53147217,0.00233906
5514.46027954,0.00231723
5516.38908691,0.00227377
5518.31789429,0.00230523
5520.24670166,0.00237996
5522.17550903,0.00225111
5524.10431641,0.00224081
5526.03312378,0.00225081
5527.96193115,0.00229434
5529.89073853,0.00229944
5531.81954590,0.00222355
5533.74835327,0.00230639
5535.67716064,0.00223109
5537.60596802,0.00218718
5539.53477539,0.00221215
5541.46358276,0.00224211
5543.39239014,0.00229189
5545.32119751,0.00216598
5547.25000488,0.00217797
5549.17881226,0.00215569
5551.10761963,0.00211469
5553.03642700,0.00226901
5554.96523437,0.00230345
5556.89404175,0.00220082
5558.82284912,0.00217884
5560.75165649,0.00225232
5562.68046387,0.00220194
5564.60927124,0.00218579
5566.53807861,0.00220355
5568.46688599,0.00212925
5570.39569336,0.00209754
5572.32450073,0.00209731
5574.25330811,0.00219194
5576.18211548,0.00218111
5578.11092285,0.00210226
5580.03973022,0.00215152
5581.96853760,0.00214242
5583.89734497,0.00213071
5585.82615234,0.00216974
5587.75495972,0.00209770
5589.68376709,0.00201026
5591.61257446,0.00208368
5593.54138184,0.00213101
5595.47018921,0.00211689
5597.39899658,0.00211521
5599.32780395,0.00208255
5601.25661133,0.00209506
5603.18541870,0.00209968
5605.11422607,0.00209540
5607.04303345,0.00207061
5608.97184082,0.00199376
5610.90064819,0.00204361
5612.82945557,0.00210770
5614.75826294,0.00200439
5616.68707031,0.00201864
5618.61587769,0.00207402
5620.54468506,0.00198250
5622.47349243,0.00202112
5624.40229980,0.00207537
5626.33110718,0.00197800
5628.25991455,0.00191322
5630.18872192,0.00196860
5632.11752930,0.00198052
5634.04633667,0.00199015
5635.97514404,0.00199443
5637.90395142,0.00192675
5639.83275879,0.00200609
5641.76156616,0.00196707
5643.69037353,0.00195534
5645.61918091,0.00200844
5647.54798828,0.00191073
5649.47679565,0.00195993
5651.40560303,0.00193912
5653.33441040,0.00196422
5655.26321777,0.00197056
5657.19202515,0.00192796
5659.12083252,0.00198130
5661.04963989,0.00190521
5662.97844727,0.00194537
5664.90725464,0.00195234
5666.83606201,0.00196389
5668.76486938,0.00195429
5670.69367676,0.00191194
5672.62248413,0.00194631
5674.55129150,0.00181992
5676.48009888,0.00187305
5678.40890625,0.00188481
5680.33771362,0.00184370
5682.26652100,0.00190219
5684.19532837,0.00184063
5686.12413574,0.00187194
5688.05294311,0.00189854
5689.98175049,0.00186082
5691.91055786,0.00176701
5693.83936523,0.00176975
5695.76817261,0.00181863
5697.69697998,0.00178560
5699.62578735,0.00183119
5701.55459473,0.00184167
5703.48340210,0.00180906
5705.41220947,0.00182357
5707.34101685,0.00186005
5709.26982422,0.00174165
5711.19863159,0.00177001
5713.12743896,0.00184952
5715.05624634,0.00171578
5716.98505371,0.00176875
5718.91386108,0.00175228
5720.84266846,0.00173902
5722.77147583,0.00177092
5724.70028320,0.00172324
5726.62909058,0.00180583
5728.55789795,0.00180335
5730.48670532,0.00176632
5732.41551270,0.00172874
5734.34432007,0.00173359
5736.27312744,0.00173997
5738.20193481,0.00172555
5740.13074219,0.00179342
5742.05954956,0.00175178
5743.98835693,0.00172860
5745.91716431,0.00174036
5747.84597168,0.00166726
5749.77477905,0.00162559
5751.70358643,0.00168239
5753.63239380,0.00167621
5755.56120117,0.00163457
5757.49000854,0.00174151
5759.41881592,0.00174967
5761.34762329,0.00165278
5763.27643066,0.00164671
5765.20523804,0.00166453
5767.13404541,0.00164127
5769.06285278,0.00161898
5770.99166016,0.00161882
5772.92046753,0.00163369
5774.84927490,0.00162612
5776.77808228,0.00160735
5778.70688965,0.00160034
5780.63569702,0.00152324
5782.56450439,0.00159685
5784.49331177,0.00165426
5786.42211914,0.00157163
5788.35092651,0.00160520
5790.27973389,0.00152366
5792.20854126,0.00152270
5794.13734863,0.00161393
5796.06615601,0.00151862
5797.99496338,0.00150962
5799.92377075,0.00157805
5801.85257812,0.00153522
5803.78138550,0.00151526
5805.71019287,0.00156811
5807.63900024,0.00153283
5809.56780762,0.00153243
5811.49661499,0.00151970
5813.42542236,0.00147244
5815.35422974,0.00151556
5817.28303711,0.00148629
5819.21184448,0.00149422
5821.14065186,0.00152348
5823.06945923,0.00151720
5824.99826660,0.00152116
5826.92707397,0.00148406
5828.85588135,0.00145562
5830.78468872,0.00144231
5832.71349609,0.00149573
5834.64230347,0.00150697
5836.57111084,0.00147042
5838.49991821,0.00150392
5840.42872559,0.00151392
5842.35753296,0.00147523
5844.28634033,0.00147697
5846.21514770,0.00148132
5848.14395508,0.00144155
5850.07276245,0.00145608
5852.00156982,0.00147514
5853.93037720,0.00148147
5855.85918457,0.00145857
5857.78799194,0.00145218
5859.71679932,0.00147747
5861.64560669,0.00141851
5863.57441406,0.00144985
5865.50322144,0.00146200
5867.43202881,0.00135796
5869.36083618,0.00136563
5871.28964355,0.00144111
5873.21845093,0.00136546
5875.14725830,0.00127760
5877.07606567,0.00142299
5879.00487305,0.00144786
5880.93368042,0.00133832
5882.86248779,0.00135348
5884.79129517,0.00139521
5886.72010254,0.00140698
5888.64890991,0.00133439
5890.57771728,0.00129995
5892.50652466,0.00133498
5894.43533203,0.00140070
5896.36413940,0.00142745
5898.29294678,0.00136549
5900.22175415,0.00135354
5902.15056152,0.00132792
5904.07936890,0.00133638
5906.00817627,0.00134515
5907.93698364,0.00131868
5909.86579102,0.00135439
5911.79459839,0.00136332
5913.72340576,0.00141157
5915.65221313,0.00137361
5917.58102051,0.00128555
5919.50982788,0.00133414
5921.43863525,0.00136203
5923.36744263,0.00136358
5925.29625000,0.00128550
5927.22505737,0.00125131
5929.15386475,0.00131130
5931.08267212,0.00130815
5933.01147949,0.00129933
5934.94028686,0.00125534
5936.86909424,0.00128984
5938.79790161,0.00128094
5940.72670898,0.00124771
5942.65551636,0.00129925
5944.58432373,0.00126741
5946.51313110,0.00132769
5948.44193848,0.00125794
5950.37074585,0.00115140
5952.29955322,0.00124789
5954.22836060,0.00126751
5956.15716797,0.00124917
5958.08597534,0.00122859
5960.01478271,0.00127589
5961.94359009,0.00124400
5963.87239746,0.00119081
5965.80120483,0.00122294
5967.73001221,0.00119065
5969.65881958,0.00124060
5971.58762695,0.00122322
5973.51643433,0.00118176
5975.44524170,0.00116819
5977.37404907,0.00115719
5979.30285645,0.00121859
5981.23166382,0.00121423
5983.16047119,0.00119116
5985.08927856,0.00118289
5987.01808594,0.00119010
5988.94689331,0.00111396
5990.87570068,0.00113050
5992.80450806,0.00118133
5994.73331543,0.00113475
5996.66212280,0.00120263
5998.59093018,0.00117566
6000.51973755,0.00117203
