399.26312622,0.00047021
401.19193359,0.00044467
403.12074097,0.00030252
405.04954834,0.00047206
406.97835571,0.00001040
408.90716309,0.00025649
410.83597046,0.00026645
412.76477783,-0.00004601
414.69358521,0.00020564
416.62239258,0.00034368
418.55119995,0.00032613
420.48000732,0.00006211
422.40881470,0.00014137
424.33762207,0.00016868
426.26642944,0.00005787
428.19523682,-0.00007137
430.12404419,-0.00010684
432.05285156,0.00043599
433.98165894,0.00034999
435.91046631,0.00001831
437.83927368,0.00022129
439.76808105,0.00024504
441.69688843,0.00027096
443.62569580,0.00011795
445.55450317,0.00003499
447.48331055,0.00017133
449.41211792,-0.00009776
451.34092529,-0.00022688
453.26973267,-0.00026689
455.19854004,-0.00003305
457.12734741,0.00028389
459.05615479,0.00032409
460.98496216,0.00029695
462.91376953,0.00006375
464.84257690,0.00003507
466.77138428,0.00035660
468.70019165,0.00053383
470.62899902,0.00019982
472.55780640,0.00009176
474.48661377,0.00049323
476.41542114,0.00052680
478.34422852,0.00014776
480.27303589,0.00031351
482.20184326,0.00036952
484.13065063,-0.00005648
486.05945801,0.00044869
487.98826538,0.00051856
489.91707275,0.00002208
491.84588013,0.00021475
493.77468750,0.00022540
495.70349487,0.00013520
497.63230225,0.00004883
499.56110962,0.00036339
501.48991699,0.00044958
503.41872437,0.00027876
505.34753174,0.00042918
507.27633911,0.00048101
509.20514648,0.00018956
511.13395386,-0.00022367
513.06276123,0.00006105
514.99156860,-0.00001015
516.92037598,0.00003125
518.84918335,0.00012044
520.77799072,0.00003285
522.70679810,0.00009349
524.63560547,-0.00026552
526.56441284,0.00003133
528.49322021,-0.00013302
530.42202759,0.00017410
532.35083496,0.00043711
534.27964233,-0.00000581
536.20844971,0.00053954
538.13725708,0.00010097
540.06606445,0.00008418
541.99487183,0.00042161
543.92367920,-0.00016471
545.85248657,0.00003357
547.78129395,0.00016530
549.71010132,0.00033006
551.63890869,0.00038941
553.56771606,0.00006426
555.49652344,0.00010396
557.42533081,0.00013336
559.35413818,0.00021693
561.28294556,0.00012640
563.21175293,-0.00026410
565.14056030,0.00008022
567.06936768,0.00045294
568.99817505,-0.00013124
570.92698242,-0.00005137
572.85578979,0.00017103
574.78459717,-0.00011935
576.71340454,0.00012018
578.64221191,0.00009792
580.57101929,0.00014386
582.49982666,0.00020827
584.42863403,0.00014403
586.35744141,0.00031789
588.28624878,0.00010754
590.21505615,0.00033215
592.14386353,0.00049252
594.07267090,0.00009139
596.00147827,0.00011110
597.93028564,0.00009135
599.85909302,-0.00020733
601.78790039,0.00003158
603.71670776,0.00022014
605.64551514,0.00005361
607.57432251,0.00020031
609.50312988,0.00023437
611.43193726,0.00023204
613.36074463,0.00037776
615.28955200,0.00040234
617.21835938,0.00035336
619.14716675,0.00020626
621.07597412,0.00037437
623.00478149,0.00042681
624.93358887,0.00000417
626.86239624,0.00014770
628.79120361,0.00042155
630.72001099,0.00008791
632.64881836,-0.00006793
634.57762573,-0.00018294
636.50643311,-0.00005854
638.43524048,0.00037655
640.36404785,0.00030794
642.29285522,0.00020299
644.22166260,0.00005293
646.15046997,0.00037697
648.07927734,0.00024247
650.00808472,-0.00012828
651.93689209,-0.00001498
653.86569946,-0.00016289
655.79450684,0.00026503
657.72331421,-0.00004557
659.65212158,-0.00019667
661.58092896,0.00031596
663.50973633,0.00012502
665.43854370,0.00021909
667.36735107,0.00022077
669.29615845,0.00014571
671.22496582,0.00037054
673.15377319,0.00044871
675.08258057,0.00031483
677.01138794,0.00025451
678.94019531,0.00020600
680.86900269,0.00010335
682.79781006,0.00027718
684.72661743,0.00039188
686.65542480,0.00040322
688.58423218,0.00022315
690.51303955,0.00002832
692.44184692,0.00009762
694.37065430,0.00038966
696.29946167,0.00060668
698.22826904,0.00043510
700.15707642,0.00048700
702.08588379,0.00045407
704.01469116,0.00039479
705.94349854,0.00042423
707.87230591,0.00026592
709.80111328,0.00028378
711.72992065,0.00015367
713.65872803,0.00010437
715.58753540,0.00015255
717.51634277,0.00009430
719.44515015,0.00005212
721.37395752,0.00009107
723.30276489,0.00012312
725.23157227,0.00009772
727.16037964,0.00024698
729.08918701,0.00026572
731.01799438,0.00026600
732.94680176,0.00011839
734.87560913,0.00018809
736.80441650,0.00031576
738.73322388,0.00000355
740.66203125,0.00004120
742.59083862,-0.00001163
744.51964600,-0.00000906
746.44845337,0.00012155
748.37726074,0.00016820
750.30606812,0.00025285
752.23487549,-0.00010143
754.16368286,0.00000540
756.09249023,0.00054040
758.02129761,0.00037469
759.95010498,0.00007889
761.87891235,0.00011722
763.80771973,0.00015753
765.73652710,0.00009132
767.66533447,0.00003785
769.59414185,0.00011952
771.52294922,-0.00006305
773.45175659,-0.00018439
775.38056396,0.00002571
777.30937134,0.00022638
779.23817871,0.00040860
781.16698608,0.00035642
783.09579346,0.00009496
785.02460083,-0.00013358
786.95340820,0.00016606
788.88221558,0.00013972
790.81102295,-0.00007354
792.73983032,0.00031678
794.66863770,0.00020037
796.59744507,0.00015249
798.52625244,0.00023278
800.45505981,0.00008095
802.38386719,0.00004008
804.31267456,0.00009111
806.24148193,0.00039285
808.17028931,0.00025245
810.09909668,-0.00000532
812.02790405,0.00003170
813.95671143,0.00006525
815.88551880,0.00014594
817.81432617,0.00017461
819.74313354,0.00038413
821.67194092,0.00036329
823.60074829,0.00013733
825.52955566,0.00043811
827.45836304,0.00030814
829.38717041,-0.00007042
831.31597778,0.00024880
833.24478516,0.00018971
835.17359253,0.00008933
837.10239990,0.00045156
839.03120728,0.00029040
840.96001465,0.00018842
842.88882202,0.00020555
844.81762939,0.00022844
846.74643677,0.00046814
848.67524414,0.00042503
850.60405151,0.00039850
852.53285889,0.00007057
854.46166626,-0.00000206
856.39047363,0.00038633
858.31928101,0.00039537
860.24808838,0.00044392
862.17689575,0.00039930
864.10570313,0.00035786
866.03451050,0.00020216
867.96331787,0.00008843
869.89212524,0.00027323
871.82093262,0.00026384
873.74973999,0.00009827
875.67854736,-0.00007256
877.60735474,0.00023896
879.53616211,0.00015214
881.46496948,-0.00002357
883.39377686,0.00035182
885.32258423,0.00030877
887.25139160,0.00033581
889.18019897,0.00004372
891.10900635,0.00000893
893.03781372,0.00029901
894.96662109,0.00002902
896.89542847,0.00024773
898.82423584,0.00023458
900.75304321,0.00015974
902.68185059,0.00014266
904.61065796,-0.00005818
906.53946533,0.00025625
908.46827271,0.00020464
910.39708008,0.00016197
912.32588745,0.00030115
914.25469482,0.00037844
916.18350220,0.00029363
918.11230957,0.00010020
920.04111694,0.00031127
921.96992432,0.00038814
923.89873169,0.00043623
925.82753906,0.00059888
927.75634644,0.00047492
929.68515381,0.00027643
931.61396118,0.00029929
933.54276855,0.00039478
935.47157593,0.00047486
937.40038330,0.00029399
939.32919067,0.00019234
941.25799805,0.00053626
943.18680542,0.00059010
945.11561279,0.00036425
947.04442017,0.00035210
948.97322754,0.00040955
950.90203491,0.00027484
952.83084229,0.00030813
954.75964966,0.00035899
956.68845703,0.00025858
958.61726440,0.00043641
960.54607178,0.00039981
962.47487915,0.00038228
964.40368652,0.00049174
966.33249390,0.00054648
968.26130127,0.00053702
970.19010864,0.00027047
972.11891602,0.00043636
974.04772339,0.00054828
975.97653076,0.00050010
977.90533813,0.00059063
979.83414551,0.00058723
981.76295288,0.00081782
983.69176025,0.00089425
985.62056763,0.00080373
987.54937500,0.00076119
989.47818237,0.00098656
991.40698975,0.00096672
993.33579712,0.00066091
995.26460449,0.00098678
997.19341187,0.00113924
999.12221924,0.00131632
1001.05102661,0.00138018
1002.97983398,0.00113919
1004.90864136,0.00156968
1006.83744873,0.00181875
1008.76625610,0.00190454
1010.69506348,0.00201886
1012.62387085,0.00196065
1014.55267822,0.00203283
1016.48148560,0.00213796
1018.41029297,0.00216302
1020.33910034,0.00210474
1022.26790771,0.00245850
1024.19671509,0.00248055
1026.12552246,0.00251623
1028.05432983,0.00284137
1029.98313721,0.00262644
1031.91194458,0.00292461
1033.84075195,0.00301015
1035.76955933,0.00294811
1037.69836670,0.00315228
1039.62717407,0.00286305
1041.55598145,0.00311075
1043.48478882,0.00317543
1045.41359619,0.00282483
1047.34240356,0.00291999
1049.27121094,0.00296008
1051.20001831,0.00283385
1053.12882568,0.00278478
1055.05763306,0.00271091
1056.98644043,0.00252114
1058.91524780,0.00263889
1060.84405518,0.00263642
1062.77286255,0.00246604
1064.70166992,0.00239456
1066.63047729,0.00219010
1068.55928467,0.00212848
1070.48809204,0.00218705
1072.41689941,0.00216554
1074.34570679,0.00169926
1076.27451416,0.00164699
1078.20332153,0.00195762
1080.13212891,0.00169676
1082.06093628,0.00161297
1083.98974365,0.00152940
1085.91855103,0.00157813
1087.84735840,0.00160201
1089.77616577,0.00143112
1091.70497314,0.00146754
1093.63378052,0.00113786
1095.56258789,0.00113046
1097.49139526,0.00124640
1099.42020264,0.00123320
1101.34901001,0.00139459
1103.27781738,0.00106868
1105.20662476,0.00103560
1107.13543213,0.00122881
1109.06423950,0.00126438
1110.99304687,0.00133904
1112.92185425,0.00114109
1114.85066162,0.00120574
1116.77946899,0.00125646
1118.70827637,0.00114865
1120.63708374,0.00120542
1122.56589111,0.00111389
1124.49469849,0.00110267
1126.42350586,0.00110489
1128.35231323,0.00120484
1130.28112061,0.00137410
1132.20992798,0.00124386
1134.13873535,0.00127655
1136.06754272,0.00152816
1137.99635010,0.00156195
1139.92515747,0.00144470
1141.85396484,0.00151650
1143.78277222,0.00152704
1145.71157959,0.00156179
1147.64038696,0.00183342
1149.56919434,0.00181111
1151.49800171,0.00199633
1153.42680908,0.00223869
1155.35561646,0.00206791
1157.28442383,0.00217862
1159.21323120,0.00232083
1161.14203857,0.00229932
1163.07084595,0.00248423
1164.99965332,0.00267039
1166.92846069,0.00242731
1168.85726807,0.00256308
1170.78607544,0.00306489
1172.71488281,0.00297675
1174.64369019,0.00311235
1176.57249756,0.00316789
1178.50130493,0.00325435
1180.43011230,0.00366668
1182.35891968,0.00341210
1184.28772705,0.00340103
1186.21653442,0.00369306
1188.14534180,0.00383837
1190.07414917,0.00410546
1192.00295654,0.00425280
1193.93176392,0.00435318
1195.86057129,0.00457201
1197.78937866,0.00497603
1199.71818604,0.00512206
1201.64699341,0.00519882
1203.57580078,0.00546014
1205.50460815,0.00562902
1207.43341553,0.00585265
1209.36222290,0.00605779
1211.29103027,0.00635711
1213.21983765,0.00658987
1215.14864502,0.00653552
1217.07745239,0.00673268
1219.00625977,0.00708034
1220.93506714,0.00701683
1222.86387451,0.00704927
1224.79268188,0.00723432
1226.72148926,0.00709745
1228.65029663,0.00723220
1230.57910400,0.00735868
1232.50791138,0.00717018
1234.43671875,0.00727930
1236.36552612,0.00723213
1238.29433350,0.00711862
1240.22314087,0.00744851
1242.15194824,0.00741569
1244.08075562,0.00726175
1246.00956299,0.00738845
1247.93837036,0.00721923
1249.86717773,0.00713190
1251.79598511,0.00698423
1253.72479248,0.00694701
1255.65359985,0.00708540
1257.58240723,0.00683448
1259.51121460,0.00676267
1261.44002197,0.00667367
1263.36882935,0.00660041
1265.29763672,0.00649416
1267.22644409,0.00644782
1269.15525146,0.00663688
1271.08405884,0.00627429
1273.01286621,0.00614835
1274.94167358,0.00610285
1276.87048096,0.00583963
1278.79928833,0.00588680
1280.72809570,0.00582057
1282.65690308,0.00569243
1284.58571045,0.00550494
1286.51451782,0.00549715
1288.44332520,0.00547128
1290.37213257,0.00536871
1292.30093994,0.00537160
1294.22974731,0.00520993
1296.15855469,0.00514829
1298.08736206,0.00509372
1300.01616943,0.00521464
1301.94497681,0.00534976
1303.87378418,0.00528720
1305.80259155,0.00533183
1307.73139893,0.00538501
1309.66020630,0.00552384
1311.58901367,0.00544567
1313.51782104,0.00542887
1315.44662842,0.00581623
1317.37543579,0.00595006
1319.30424316,0.00615070
1321.23305054,0.00653750
1323.16185791,0.00649015
1325.09066528,0.00655397
1327.01947266,0.00687328
1328.94828003,0.00706012
1330.87708740,0.00720091
1332.80589478,0.00726615
1334.73470215,0.00746721
1336.66350952,0.00751432
1338.59231689,0.00746370
1340.52112427,0.00762307
1342.44993164,0.00775104
1344.37873901,0.00802504
1346.30754639,0.00813555
1348.23635376,0.00792650
1350.16516113,0.00784340
1352.09396851,0.00785856
1354.02277588,0.00766985
1355.95158325,0.00765391
1357.88039062,0.00773121
1359.80919800,0.00741837
1361.73800537,0.00718899
1363.66681274,0.00720566
1365.59562012,0.00747010
1367.52442749,0.00737949
1369.45323486,0.00718606
1371.38204224,0.00726187
1373.31084961,0.00697870
1375.23965698,0.00711662
1377.16846436,0.00729053
1379.09727173,0.00721942
1381.02607910,0.00726338
1382.95488647,0.00722777
1384.88369385,0.00723943
1386.81250122,0.00692044
1388.74130859,0.00689360
1390.67011597,0.00745316
1392.59892334,0.00738141
1394.52773071,0.00681114
1396.45653809,0.00726311
1398.38534546,0.00731468
1400.31415283,0.00707467
1402.24296021,0.00775867
1404.17176758,0.00737719
1406.10057495,0.00745538
1408.02938232,0.00757287
1409.95818970,0.00726027
1411.88699707,0.00765768
1413.81580444,0.00733747
1415.74461182,0.00743631
1417.67341919,0.00656527
1419.60222656,0.00591652
1421.53103394,0.00679944
1423.45984131,0.00656852
1425.38864868,0.00654921
1427.31745605,0.00651262
1429.24626343,0.00616874
1431.17507080,0.00602352
1433.10387817,0.00614723
1435.03268555,0.00574496
1436.96149292,0.00486570
1438.89030029,0.00541726
1440.81910767,0.00539516
1442.74791504,0.00527483
1444.67672241,0.00534652
1446.60552979,0.00470016
1448.53433716,0.00512970
1450.46314453,0.00521094
1452.39195190,0.00517249
1454.32075928,0.00542247
1456.24956665,0.00452330
1458.17837402,0.00478938
1460.10718140,0.00624746
1462.03598877,0.00657828
1463.96479614,0.00675312
1465.89360352,0.00685647
1467.82241089,0.00758226
1469.75121826,0.00835926
1471.68002563,0.00735057
1473.60883301,0.00773739
1475.53764038,0.00876284
1477.46644775,0.00936143
1479.39525513,0.01037686
1481.32406250,0.01037718
1483.25286987,0.01091963
1485.18167725,0.01117320
1487.11048462,0.01111192
1489.03929199,0.01100166
1490.96809937,0.01100245
1492.89690674,0.01292693
1494.82571411,0.01245857
1496.75452148,0.01119995
1498.68332886,0.01271346
1500.61213623,0.01320187
1502.54094360,0.01405093
1504.46975098,0.01301399
1506.39855835,0.00961387
1508.32736572,0.01178783
1510.25617310,0.01375348
1512.18498047,0.01337825
1514.11378784,0.01429497
1516.04259521,0.01284748
1517.97140259,0.01350644
1519.90020996,0.01299407
1521.82901733,0.01127132
1523.75782471,0.01352469
1525.68663208,0.01338778
1527.61543945,0.01357620
1529.54424683,0.01473332
1531.47305420,0.01421715
1533.40186157,0.01291568
1535.33066895,0.01367478
1537.25947632,0.01474194
1539.18828369,0.01052395
1541.11709106,0.01090424
1543.04589844,0.01280864
1544.97470581,0.01249263
1546.90351318,0.01457928
1548.83232056,0.01343116
1550.76112793,0.01402702
1552.68993530,0.01366026
1554.61874268,0.01246197
1556.54755005,0.01333885
1558.47635742,0.00936026
1560.40516479,0.01018777
1562.33397217,0.01437476
1564.26277954,0.01346201
1566.19158691,0.01364168
1568.12039429,0.01340346
1570.04920166,0.01177488
1571.97800903,0.01365497
1573.90681641,0.01365087
1575.83562378,0.01085531
1577.76443115,0.01220034
1579.69323853,0.01323174
1581.62204590,0.01275955
1583.55085327,0.01305575
1585.47966064,0.01269832
1587.40846802,0.01285461
1589.33727539,0.01247254
1591.26608276,0.01236491
1593.19489014,0.01233460
1595.12369751,0.01205217
1597.05250488,0.01211521
1598.98131226,0.01192946
1600.91011963,0.01185439
1602.83892700,0.01142560
1604.76773437,0.01162025
1606.69654175,0.01150690
1608.62534912,0.01135983
1610.55415649,0.01118556
1612.48296387,0.01110846
1614.41177124,0.01118405
1616.34057861,0.00918349
1618.26938599,0.00988298
1620.19819336,0.01134505
1622.12700073,0.01009254
1624.05580811,0.01013855
1625.98461548,0.01061794
1627.91342285,0.01070581
1629.84223022,0.01073717
1631.77103760,0.01136904
1633.69984497,0.01052877
1635.62865234,0.00889662
1637.55745972,0.01031822
1639.48626709,0.01142935
1641.41507446,0.01131725
1643.34388184,0.01171282
1645.27268921,0.01071705
1647.20149658,0.00957597
1649.13030396,0.01205641
1651.05911133,0.01151222
1652.98791870,0.00762779
1654.91672607,0.01042916
1656.84553345,0.01302877
1658.77434082,0.01271107
1660.70314819,0.01326141
1662.63195557,0.01220751
1664.56076294,0.01319212
1666.48957031,0.01434364
1668.41837769,0.01268513
1670.34718506,0.01245465
1672.27599243,0.01416209
1674.20479980,0.01334003
1676.13360718,0.01297544
1678.06241455,0.01518275
1679.99122192,0.01487143
1681.92002930,0.01467970
1683.84883667,0.01230143
1685.77764404,0.01250129
1687.70645142,0.01703225
1689.63525879,0.01499670
1691.56406616,0.01680957
1693.49287354,0.01729411
1695.42168091,0.01284046
1697.35048828,0.01593758
1699.27929565,0.01404061
1701.20810303,0.01294101
1703.13691040,0.01773874
1705.06571777,0.01653444
1706.99452515,0.01687456
1708.92333252,0.01837472
1710.85213989,0.01800475
1712.78094727,0.01832460
1714.70975464,0.01731110
1716.63856201,0.01571875
1718.56736938,0.01550166
1720.49617676,0.01861482
1722.42498413,0.01918058
1724.35379150,0.01811763
1726.28259888,0.01983572
1728.21140625,0.01852774
1730.14021362,0.01899027
1732.06902100,0.01837228
1733.99782837,0.01437241
1735.92663574,0.01786641
1737.85544312,0.01949900
1739.78425049,0.01746961
1741.71305786,0.01921292
1743.64186523,0.01953128
1745.57067261,0.01960411
1747.49947998,0.01984071
1749.42828735,0.01898425
1751.35709473,0.01847066
1753.28590210,0.02049537
1755.21470947,0.02129144
1757.14351685,0.01968708
1759.07232422,0.02164425
1761.00113159,0.02033877
1762.92993896,0.01990046
1764.85874634,0.02257167
1766.78755371,0.02038486
1768.71636108,0.02079059
1770.64516846,0.02044578
1772.57397583,0.01866209
1774.50278320,0.02088824
1776.43159058,0.02188841
1778.36039795,0.02174211
1780.28920532,0.02143428
1782.21801270,0.02161781
1784.14682007,0.02153623
1786.07562744,0.02128201
1788.00443481,0.02249675
1789.93324219,0.02179552
1791.86204956,0.01987950
1793.79085693,0.02080706
1795.71966431,0.02220479
1797.64847168,0.02192011
1799.57727905,0.02179125
1801.50608643,0.02119965
1803.43489380,0.02187908
1805.36370117,0.02261939
1807.29250854,0.02208778
1809.22131592,0.02225946
1811.15012329,0.02173492
1813.07893066,0.02240840
1815.00773804,0.02242890
1816.93654541,0.02206891
1818.86535278,0.02247307
1820.79416016,0.02227004
1822.72296753,0.02271074
1824.65177490,0.02128183
1826.58058228,0.02193861
1828.50938965,0.02221147
1830.43819702,0.02084969
1832.36700439,0.02264015
1834.29581177,0.02246664
1836.22461914,0.02237369
1838.15342651,0.02240597
1840.08223389,0.02263212
1842.01104126,0.02253080
1843.93984863,0.01997995
1845.86865601,0.02134126
1847.79746338,0.02241141
1849.72627075,0.02210386
1851.65507812,0.02273144
1853.58388550,0.02210279
1855.51269287,0.02245797
1857.44150024,0.02221438
1859.37030762,0.02208349
1861.29911499,0.02245517
1863.22792236,0.02213410
1865.15672974,0.02239466
1867.08553711,0.02168121
1869.01434448,0.02073338
1870.94315186,0.02165474
1872.87195923,0.02228193
1874.80076660,0.02185907
1876.72957397,0.02226645
1878.65838135,0.02214577
1880.58718872,0.02200254
1882.51599609,0.02212857
1884.44480347,0.02159866
1886.37361084,0.02199594
1888.30241821,0.02147881
1890.23122559,0.02106915
1892.16003296,0.02186438
1894.08884033,0.02159955
1896.01764771,0.02169447
1897.94645508,0.02174164
1899.87526245,0.02151087
1901.80406982,0.02166128
1903.73287720,0.02149159
1905.66168457,0.02169181
1907.59049194,0.02150752
1909.51929932,0.02130537
1911.44810669,0.02139485
1913.37691406,0.02129853
1915.30572144,0.02156864
1917.23452881,0.02072920
1919.16333618,0.02065977
1921.09214355,0.02141132
1923.02095093,0.02075116
1924.94975830,0.02119491
1926.87856567,0.02139663
1928.80737305,0.02094301
1930.73618042,0.02114617
1932.66498779,0.02111977
1934.59379517,0.02137082
1936.52260254,0.02102747
1938.45140991,0.02100840
1940.38021729,0.02104967
1942.30902466,0.02052888
1944.23783203,0.02086701
1946.16663940,0.02103546
1948.09544678,0.02100700
1950.02425415,0.02090637
1951.95306152,0.02089869
1953.88186890,0.02096367
1955.81067627,0.02080651
1957.73948364,0.02083489
1959.66829102,0.02061037
1961.59709839,0.02070736
1963.52590576,0.02089991
1965.45471313,0.02061710
1967.38352051,0.02042744
1969.31232788,0.02064023
1971.24113525,0.02068866
1973.16994263,0.02048558
1975.09875000,0.02070848
1977.02755737,0.02061737
1978.95636475,0.02044817
1980.88517212,0.02039865
1982.81397949,0.02031294
1984.74278687,0.02044197
1986.67159424,0.02030340
1988.60040161,0.02034076
1990.52920898,0.02003476
1992.45801636,0.01964929
1994.38682373,0.02007661
1996.31563110,0.02015815
1998.24443848,0.01997392
2000.17324585,0.02000681
2002.10205322,0.01983248
2004.03086060,0.01973099
2005.95966797,0.01985740
2007.88847534,0.01982283
2009.81728271,0.01974476
2011.74609009,0.01962839
2013.67489746,0.01946240
2015.60370483,0.01947683
2017.53251221,0.01938217
2019.46131958,0.01934914
2021.39012695,0.01945025
2023.31893433,0.01929997
2025.24774170,0.01925399
2027.17654907,0.01934106
2029.10535645,0.01910731
2031.03416382,0.01902131
2032.96297119,0.01910676
2034.89177856,0.01896080
2036.82058594,0.01903501
2038.74939331,0.01901594
2040.67820068,0.01882578
2042.60700806,0.01878070
2044.53581543,0.01854483
2046.46462280,0.01858806
2048.39343018,0.01874339
2050.32223755,0.01862613
2052.25104492,0.01871525
2054.17985229,0.01855890
2056.10865967,0.01830310
2058.03746704,0.01837803
2059.96627441,0.01835026
2061.89508179,0.01836417
2063.82388916,0.01822257
2065.75269653,0.01816216
2067.68150391,0.01834407
2069.61031128,0.01814182
2071.53911865,0.01806351
2073.46792603,0.01817092
2075.39673340,0.01820775
2077.32554077,0.01812089
2079.25434814,0.01803247
2081.18315552,0.01815280
2083.11196289,0.01803719
2085.04077026,0.01795683
2086.96957764,0.01791409
2088.89838501,0.01789228
2090.82719238,0.01789001
2092.75599976,0.01776121
2094.68480713,0.01778578
2096.61361450,0.01765851
2098.54242187,0.01772220
2100.47122925,0.01772198
2102.40003662,0.01757139
2104.32884399,0.01779845
2106.25765137,0.01765444
2108.18645874,0.01744180
2110.11526611,0.01757828
2112.04407349,0.01762730
2113.97288086,0.01751952
2115.90168823,0.01746808
2117.83049561,0.01754183
2119.75930298,0.01751393
2121.68811035,0.01754919
2123.61691772,0.01755561
2125.54572510,0.01741626
2127.47453247,0.01745001
2129.40333984,0.01752358
2131.33214722,0.01749472
2133.26095459,0.01743241
2135.18976196,0.01731465
2137.11856934,0.01743303
2139.04737671,0.01747467
2140.97618408,0.01727483
2142.90499146,0.01733015
2144.83379883,0.01730947
2146.76260620,0.01732919
2148.69141357,0.01736479
2150.62022095,0.01728478
2152.54902832,0.01735726
2154.47783569,0.01738409
2156.40664307,0.01738800
2158.33545044,0.01718168
2160.26425781,0.01721978
2162.19306519,0.01740600
2164.12187256,0.01736875
2166.05067993,0.01736129
2167.97948730,0.01714162
2169.90829468,0.01724584
2171.83710205,0.01737568
2173.76590942,0.01730856
2175.69471680,0.01733785
2177.62352417,0.01736210
2179.55233154,0.01743903
2181.48113892,0.01720054
2183.40994629,0.01727757
2185.33875366,0.01739314
2187.26756104,0.01732734
2189.19636841,0.01756822
2191.12517578,0.01740100
2193.05398315,0.01729519
2194.98279053,0.01743502
2196.91159790,0.01728236
2198.84040527,0.01713059
2200.76921265,0.01727846
2202.69802002,0.01737816
2204.62682739,0.01724846
2206.55563477,0.01738210
2208.48444214,0.01750159
2210.41324951,0.01740334
2212.34205688,0.01729602
2214.27086426,0.01728150
2216.19967163,0.01738576
2218.12847900,0.01736376
2220.05728638,0.01734344
2221.98609375,0.01737611
2223.91490112,0.01730984
2225.84370850,0.01725931
2227.77251587,0.01734027
2229.70132324,0.01735298
2231.63013062,0.01730758
2233.55893799,0.01742009
2235.48774536,0.01744215
2237.41655273,0.01731216
2239.34536011,0.01734133
2241.27416748,0.01746129
2243.20297485,0.01743251
2245.13178223,0.01740563
2247.06058960,0.01737298
2248.98939697,0.01724314
2250.91820435,0.01722043
2252.84701172,0.01729933
2254.77581909,0.01731866
2256.70462646,0.01726392
2258.63343384,0.01728679
2260.56224121,0.01733267
2262.49104858,0.01724199
2264.41985596,0.01721827
2266.34866333,0.01731961
2268.27747070,0.01722481
2270.20627808,0.01713023
2272.13508545,0.01722352
2274.06389282,0.01731079
2275.99270020,0.01735407
2277.92150757,0.01720330
2279.85031494,0.01720020
2281.77912231,0.01729313
2283.70792969,0.01724310
2285.63673706,0.01725375
2287.56554443,0.01718646
2289.49435181,0.01725520
2291.42315918,0.01724972
2293.35196655,0.01718754
2295.28077393,0.01721426
2297.20958130,0.01708095
2299.13838867,0.01704551
2301.06719604,0.01700123
2302.99600342,0.01695536
2304.92481079,0.01690818
2306.85361816,0.01686014
2308.78242554,0.01670435
2310.71123291,0.01649220
2312.64004028,0.01650658
2314.56884766,0.01634427
2316.49765503,0.01611209
2318.42646240,0.01587644
2320.35526978,0.01570075
2322.28407715,0.01559728
2324.21288452,0.01543978
2326.14169189,0.01534432
2328.07049927,0.01509871
2329.99930664,0.01493679
2331.92811401,0.01484174
2333.85692139,0.01477685
2335.78572876,0.01474383
2337.71453613,0.01468583
2339.64334351,0.01464736
2341.57215088,0.01471931
2343.50095825,0.01503444
2345.42976562,0.01533553
2347.35857300,0.01602469
2349.28738037,0.01633545
2351.21618774,0.01580807
2353.14499512,0.01510157
2355.07380249,0.01440313
2357.00260986,0.01417406
2358.93141724,0.01381513
2360.86022461,0.01369502
2362.78903198,0.01375758
2364.71783936,0.01377229
2366.64664673,0.01419798
2368.57545410,0.01420218
2370.50426147,0.01460026
2372.43306885,0.01516384
2374.36187622,0.01538560
2376.29068359,0.01589304
2378.21949097,0.01630719
2380.14829834,0.01663205
2382.07710571,0.01667903
2384.00591309,0.01680067
2385.93472046,0.01691384
2387.86352783,0.01686969
2389.79233521,0.01694548
2391.72114258,0.01686218
2393.64994995,0.01685314
2395.57875732,0.01681082
2397.50756470,0.01678905
2399.43637207,0.01687114
2401.36517944,0.01689292
2403.29398682,0.01682439
2405.22279419,0.01678771
2407.15160156,0.01682755
2409.08040894,0.01681051
2411.00921631,0.01683704
2412.93802368,0.01669343
2414.86683105,0.01675281
2416.79563843,0.01680419
2418.72444580,0.01666010
2420.65325317,0.01676230
2422.58206055,0.01662019
2424.51086792,0.01660092
2426.43967529,0.01670947
2428.36848267,0.01659994
2430.29729004,0.01664287
2432.22609741,0.01666208
2434.15490479,0.01657045
2436.08371216,0.01660755
2438.01251953,0.01667238
2439.94132690,0.01657474
2441.87013428,0.01657896
2443.79894165,0.01656688
2445.72774902,0.01656110
2447.65655640,0.01654700
2449.58536377,0.01642066
2451.51417114,0.01650413
2453.44297852,0.01643193
2455.37178589,0.01640411
2457.30059326,0.01643472
2459.22940063,0.01628408
2461.15820801,0.01644809
2463.08701538,0.01654221
2465.01582275,0.01637178
2466.94463013,0.01633891
2468.87343750,0.01630790
2470.80224487,0.01620764
2472.73105225,0.01633885
2474.65985962,0.01642743
2476.58866699,0.01631026
2478.51747437,0.01629091
2480.44628174,0.01628447
2482.37508911,0.01628790
2484.30389648,0.01621299
2486.23270386,0.01618801
2488.16151123,0.01619447
2490.09031860,0.01609344
2492.01912598,0.01619123
2493.94793335,0.01628358
2495.87674072,0.01623068
2497.80554810,0.01607375
2499.73435547,0.01596057
2501.66316284,0.01606889
2503.59197021,0.01609673
2505.52077759,0.01601829
2507.44958496,0.01600605
2509.37839233,0.01602735
2511.30719971,0.01606322
2513.23600708,0.01607797
2515.16481445,0.01602101
2517.09362183,0.01600854
2519.02242920,0.01591689
2520.95123657,0.01577545
2522.88004395,0.01588792
2524.80885132,0.01590678
2526.73765869,0.01582184
2528.66646606,0.01590090
2530.59527344,0.01590200
2532.52408081,0.01587475
2534.45288818,0.01584505
2536.38169556,0.01573751
2538.31050293,0.01574244
2540.23931030,0.01577103
2542.16811768,0.01577901
2544.09692505,0.01578506
2546.02573242,0.01565873
2547.95453979,0.01561538
2549.88334717,0.01560491
2551.81215454,0.01561050
2553.74096191,0.01570911
2555.66976929,0.01557146
2557.59857666,0.01553610
2559.52738403,0.01568710
2561.45619141,0.01558600
2563.38499878,0.01550553
2565.31380615,0.01551315
2567.24261353,0.01545106
2569.17142090,0.01541829
2571.10022827,0.01539601
2573.02903564,0.01542412
2574.95784302,0.01539668
2576.88665039,0.01531675
2578.81545776,0.01535950
2580.74426514,0.01536457
2582.67307251,0.01535513
2584.60187988,0.01531767
2586.53068726,0.01519677
2588.45949463,0.01517373
2590.38830200,0.01529230
2592.31710937,0.01530407
2594.24591675,0.01512935
2596.17472412,0.01519256
2598.10353149,0.01520065
2600.03233887,0.01509848
2601.96114624,0.01509450
2603.88995361,0.01495062
2605.81876099,0.01502975
2607.74756836,0.01504457
2609.67637573,0.01503565
2611.60518311,0.01510154
2613.53399048,0.01494428
2615.46279785,0.01504789
2617.39160522,0.01502938
2619.32041260,0.01487132
2621.24921997,0.01489512
2623.17802734,0.01480017
2625.10683472,0.01476160
2627.03564209,0.01485588
2628.96444946,0.01479465
2630.89325684,0.01467114
2632.82206421,0.01475242
2634.75087158,0.01467770
2636.67967895,0.01461404
2638.60848633,0.01463178
2640.53729370,0.01456736
2642.46610107,0.01461594
2644.39490845,0.01451730
2646.32371582,0.01450724
2648.25252319,0.01446290
2650.18133057,0.01443465
2652.11013794,0.01452810
2654.03894531,0.01438167
2655.96775269,0.01444605
2657.89656006,0.01444602
2659.82536743,0.01429401
2661.75417480,0.01432760
2663.68298218,0.01430192
2665.61178955,0.01423522
2667.54059692,0.01422846
2669.46940430,0.01424894
2671.39821167,0.01418566
2673.32701904,0.01413873
2675.25582642,0.01408305
2677.18463379,0.01410350
2679.11344116,0.01418943
2681.04224854,0.01415325
2682.97105591,0.01412167
2684.89986328,0.01404784
2686.82867065,0.01398739
2688.75747803,0.01395329
2690.68628540,0.01393422
2692.61509277,0.01390101
2694.54390015,0.01386145
2696.47270752,0.01386208
2698.40151489,0.01379024
2700.33032227,0.01371436
2702.25912964,0.01368882
2704.18793701,0.01371049
2706.11674438,0.01360160
2708.04555176,0.01358542
2709.97435913,0.01364050
2711.90316650,0.01354112
2713.83197388,0.01348909
2715.76078125,0.01342662
2717.68958862,0.01357060
2719.61839600,0.01352079
2721.54720337,0.01333508
2723.47601074,0.01335527
2725.40481812,0.01328741
2727.33362549,0.01338656
2729.26243286,0.01321373
2731.19124023,0.01306310
2733.12004761,0.01318098
2735.04885498,0.01312046
2736.97766235,0.01315584
2738.90646973,0.01311681
2740.83527710,0.01309135
2742.76408447,0.01296171
2744.69289185,0.01295143
2746.62169922,0.01314217
2748.55050659,0.01298141
2750.47931396,0.01290920
2752.40812134,0.01280225
2754.33692871,0.01267560
2756.26573608,0.01272774
2758.19454346,0.01262988
2760.12335083,0.01259549
2762.05215820,0.01262812
2763.98096558,0.01262023
2765.90977295,0.01262257
2767.83858032,0.01261508
2769.76738770,0.01255000
2771.69619507,0.01251573
2773.62500244,0.01250417
2775.55380981,0.01241646
2777.48261719,0.01235290
2779.41142456,0.01221319
2781.34023193,0.01217342
2783.26903931,0.01231482
2785.19784668,0.01224930
2787.12665405,0.01209075
2789.05546143,0.01211515
2790.98426880,0.01208272
2792.91307617,0.01195921
2794.84188354,0.01201493
2796.77069092,0.01196630
2798.69949829,0.01181877
2800.62830566,0.01186050
2802.55711304,0.01184053
2804.48592041,0.01176351
2806.41472778,0.01173346
2808.34353516,0.01166412
2810.27234253,0.01155769
2812.20114990,0.01152411
2814.12995728,0.01155777
2816.05876465,0.01150199
2817.98757202,0.01144680
2819.91637939,0.01136337
2821.84518677,0.01131573
2823.77399414,0.01135675
2825.70280151,0.01130437
2827.63160889,0.01124100
2829.56041626,0.01108582
2831.48922363,0.01103309
2833.41803101,0.01115348
2835.34683838,0.01107607
2837.27564575,0.01093933
2839.20445312,0.01092329
2841.13326050,0.01095218
2843.06206787,0.01077211
2844.99087524,0.01068100
2846.91968262,0.01072439
2848.84848999,0.01053939
2850.77729736,0.01054078
2852.70610474,0.01047487
2854.63491211,0.01039477
2856.56371948,0.01047252
2858.49252686,0.01035292
2860.42133423,0.01039852
2862.35014160,0.01031703
2864.27894897,0.01018229
2866.20775635,0.01024256
2868.13656372,0.01015680
2870.06537109,0.01008297
2871.99417847,0.00999118
2873.92298584,0.00997860
2875.85179321,0.00989603
2877.78060059,0.00982042
2879.70940796,0.00989376
2881.63821533,0.00973312
2883.56702270,0.00977762
2885.49583008,0.00988807
2887.42463745,0.00973776
2889.35344482,0.00965529
2891.28225220,0.00955231
2893.21105957,0.00951823
2895.13986694,0.00948336
2897.06867432,0.00940916
2898.99748169,0.00942225
2900.92628906,0.00933440
2902.85509644,0.00929031
2904.78390381,0.00925348
2906.71271118,0.00905994
2908.64151855,0.00903422
2910.57032593,0.00906656
2912.49913330,0.00888964
2914.42794067,0.00879779
2916.35674805,0.00875415
2918.28555542,0.00865389
2920.21436279,0.00868731
2922.14317017,0.00865869
2924.07197754,0.00858037
2926.00078491,0.00859080
2927.92959229,0.00855816
2929.85839966,0.00849660
2931.78720703,0.00836790
2933.71601440,0.00826908
2935.64482178,0.00829189
2937.57362915,0.00826233
2939.50243652,0.00818249
2941.43124390,0.00818453
2943.36005127,0.00819725
2945.28885864,0.00816578
2947.21766602,0.00814113
2949.14647339,0.00799396
2951.07528076,0.00794398
2953.00408813,0.00804872
2954.93289551,0.00796828
2956.86170288,0.00786740
2958.79051025,0.00784452
2960.71931763,0.00776544
2962.64812500,0.00758081
2964.57693237,0.00755109
2966.50573975,0.00758503
2968.43454712,0.00743927
2970.36335449,0.00745123
2972.29216187,0.00742480
2974.22096924,0.00736400
2976.14977661,0.00733684
2978.07858398,0.00735033
2980.00739136,0.00749449
2981.93619873,0.00734265
2983.86500610,0.00728572
2985.79381348,0.00724216
2987.72262085,0.00712195
2989.65142822,0.00723068
2991.58023560,0.00714322
2993.50904297,0.00710918
2995.43785034,0.00698493
2997.36665771,0.00689427
2999.29546509,0.00694976
3001.22427246,0.00675679
3003.15307983,0.00692967
3005.08188721,0.00694556
3007.01069458,0.00663760
3008.93950195,0.00674101
3010.86830933,0.00673117
3012.79711670,0.00662312
3014.72592407,0.00662400
3016.65473145,0.00652516
3018.58353882,0.00649237
3020.51234619,0.00645729
3022.44115356,0.00637710
3024.36996094,0.00634472
3026.29876831,0.00629932
3028.22757568,0.00629825
3030.15638306,0.00627653
3032.08519043,0.00615852
3034.01399780,0.00609175
3035.94280518,0.00611958
3037.87161255,0.00611873
3039.80041992,0.00604275
3041.72922729,0.00597598
3043.65803467,0.00590435
3045.58684204,0.00589210
3047.51564941,0.00589438
3049.44445679,0.00581375
3051.37326416,0.00575863
3053.30207153,0.00570802
3055.23087891,0.00570016
3057.15968628,0.00567937
3059.08849365,0.00563143
3061.01730103,0.00564253
3062.94610840,0.00566625
3064.87491577,0.00561035
3066.80372314,0.00547458
3068.73253052,0.00551246
3070.66133789,0.00554238
3072.59014526,0.00551775
3074.51895264,0.00547541
3076.44776001,0.00534466
3078.37656738,0.00544188
3080.30537476,0.00539524
3082.23418213,0.00526344
3084.16298950,0.00532377
3086.09179687,0.00527711
3088.02060425,0.00530503
3089.94941162,0.00529103
3091.87821899,0.00521481
3093.80702637,0.00516496
3095.73583374,0.00510445
3097.66464111,0.00516825
3099.59344849,0.00516769
3101.52225586,0.00511669
3103.45106323,0.00501456
3105.37987061,0.00496278
3107.30867798,0.00501459
3109.23748535,0.00494211
3111.16629272,0.00494869
3113.09510010,0.00494895
3115.02390747,0.00491251
3116.95271484,0.00489124
3118.88152222,0.00474685
3120.81032959,0.00475926
3122.73913696,0.00483284
3124.66794434,0.00487157
3126.59675171,0.00485941
3128.52555908,0.00475877
3130.45436645,0.00480492
3132.38317383,0.00479714
3134.31198120,0.00473579
3136.24078857,0.00469232
3138.16959595,0.00472471
3140.09840332,0.00476994
3142.02721069,0.00461991
3143.95601807,0.00464422
3145.88482544,0.00463549
3147.81363281,0.00461912
3149.74244019,0.00466176
3151.67124756,0.00447556
3153.60005493,0.00457478
3155.52886230,0.00464406
3157.45766968,0.00450746
3159.38647705,0.00454712
3161.31528442,0.00456155
3163.24409180,0.00452930
3165.17289917,0.00441683
3167.10170654,0.00444302
3169.03051392,0.00458699
3170.95932129,0.00445653
3172.88812866,0.00433757
3174.81693604,0.00449747
3176.74574341,0.00449623
3178.67455078,0.00437520
3180.60335815,0.00453547
3182.53216553,0.00453097
3184.46097290,0.00435948
3186.38978027,0.00440973
3188.31858765,0.00450435
3190.24739502,0.00446059
3192.17620239,0.00435262
3194.10500977,0.00442320
3196.03381714,0.00446996
3197.96262451,0.00439582
3199.89143188,0.00445483
3201.82023926,0.00446759
3203.74904663,0.00441214
3205.67785400,0.00448546
3207.60666138,0.00447232
3209.53546875,0.00446700
3211.46427612,0.00455969
3213.39308350,0.00441901
3215.32189087,0.00442043
3217.25069824,0.00458280
3219.17950562,0.00448248
3221.10831299,0.00438893
3223.03712036,0.00443132
3224.96592773,0.00448261
3226.89473511,0.00449046
3228.82354248,0.00449734
3230.75234985,0.00446701
3232.68115723,0.00452595
3234.60996460,0.00459674
3236.53877197,0.00445897
3238.46757935,0.00444072
3240.39638672,0.00447433
3242.32519409,0.00448668
3244.25400146,0.00456972
3246.18280884,0.00451122
3248.11161621,0.00448471
3250.04042358,0.00464543
3251.96923096,0.00462422
3253.89803833,0.00452084
3255.82684570,0.00463377
3257.75565308,0.00461299
3259.68446045,0.00463065
3261.61326782,0.00465160
3263.54207520,0.00459109
3265.47088257,0.00472947
3267.39968994,0.00466181
3269.32849731,0.00465618
3271.25730469,0.00474544
3273.18611206,0.00467655
3275.11491943,0.00467380
3277.04372681,0.00468063
3278.97253418,0.00480240
3280.90134155,0.00477443
3282.83014893,0.00472530
3284.75895630,0.00485924
3286.68776367,0.00483980
3288.61657104,0.00485697
3290.54537842,0.00489936
3292.47418579,0.00481883
3294.40299316,0.00478162
3296.33180054,0.00482663
3298.26060791,0.00487079
3300.18941528,0.00489965
3302.11822266,0.00486308
3304.04703003,0.00481363
3305.97583740,0.00488670
3307.90464478,0.00492703
3309.83345215,0.00491809
3311.76225952,0.00498420
3313.69106689,0.00496021
3315.61987427,0.00489907
3317.54868164,0.00494799
3319.47748901,0.00493736
3321.40629639,0.00495688
3323.33510376,0.00497643
3325.26391113,0.00500948
3327.19271851,0.00506365
3329.12152588,0.00496181
3331.05033325,0.00501300
3332.97914062,0.00501668
3334.90794800,0.00497675
3336.83675537,0.00508764
3338.76556274,0.00509185
3340.69437012,0.00500549
3342.62317749,0.00502330
3344.55198486,0.00518721
3346.48079224,0.00503740
3348.40959961,0.00508463
3350.33840698,0.00523390
3352.26721436,0.00509593
3354.19602173,0.00518651
3356.12482910,0.00515054
3358.05363647,0.00525269
3359.98244385,0.00523301
3361.91125122,0.00519122
3363.84005859,0.00533767
3365.76886597,0.00519103
3367.69767334,0.00531695
3369.62648071,0.00529839
3371.55528809,0.00531516
3373.48409546,0.00539378
3375.41290283,0.00531213
3377.34171020,0.00538200
3379.27051758,0.00533474
3381.19932495,0.00547937
3383.12813232,0.00544803
3385.05693970,0.00547035
3386.98574707,0.00553360
3388.91455444,0.00544852
3390.84336182,0.00552007
3392.77216919,0.00545639
3394.70097656,0.00566169
3396.62978394,0.00569960
3398.55859131,0.00564799
3400.48739868,0.00563754
3402.41620605,0.00560107
3404.34501343,0.00582083
3406.27382080,0.00571358
3408.20262817,0.00573359
3410.13143555,0.00576611
3412.06024292,0.00568411
3413.98905029,0.00578891
3415.91785767,0.00585982
3417.84666504,0.00586190
3419.77547241,0.00578193
3421.70427979,0.00592754
3423.63308716,0.00596983
3425.56189453,0.00601447
3427.49070190,0.00607429
3429.41950928,0.00593094
3431.34831665,0.00597853
3433.27712402,0.00607410
3435.20593140,0.00607986
3437.13473877,0.00599866
3439.06354614,0.00605048
3440.99235352,0.00604428
3442.92116089,0.00602612
3444.84996826,0.00614756
3446.77877563,0.00609032
3448.70758301,0.00614250
3450.63639038,0.00626938
3452.56519775,0.00624618
3454.49400513,0.00620904
3456.42281250,0.00629474
3458.35161987,0.00628176
3460.28042725,0.00630572
3462.20923462,0.00641773
3464.13804199,0.00640908
3466.06684937,0.00647090
3467.99565674,0.00642254
3469.92446411,0.00650793
3471.85327148,0.00657744
3473.78207886,0.00653215
3475.71088623,0.00658172
3477.63969360,0.00655151
3479.56850098,0.00660137
3481.49730835,0.00658895
3483.42611572,0.00667893
3485.35492310,0.00665399
3487.28373047,0.00658821
3489.21253784,0.00674124
3491.14134521,0.00669312
3493.07015259,0.00666032
3494.99895996,0.00672190
3496.92776733,0.00682365
3498.85657471,0.00691584
3500.78538208,0.00696138
3502.71418945,0.00673394
3504.64299683,0.00673745
3506.57180420,0.00700392
3508.50061157,0.00682913
3510.42941895,0.00692357
3512.35822632,0.00703583
3514.28703369,0.00710970
3516.21584106,0.00719823
3518.14464844,0.00708678
3520.07345581,0.00715361
3522.00226318,0.00705032
3523.93107056,0.00708419
3525.85987793,0.00710260
3527.78868530,0.00709188
3529.71749268,0.00722268
3531.64630005,0.00728501
3533.57510742,0.00734682
3535.50391479,0.00719891
3537.43272217,0.00730647
3539.36152954,0.00745694
3541.29033691,0.00744501
3543.21914429,0.00748870
3545.14795166,0.00731457
3547.07675903,0.00719235
3549.00556641,0.00746749
3550.93437378,0.00754352
3552.86318115,0.00739959
3554.79198853,0.00766960
3556.72079590,0.00763481
3558.64960327,0.00760737
3560.57841064,0.00759917
3562.50721802,0.00756537
3564.43602539,0.00780982
3566.36483276,0.00713253
3568.29364014,0.00697667
3570.22244751,0.00770005
3572.15125488,0.00784800
3574.08006226,0.00786745
3576.00886963,0.00788213
3577.93767700,0.00790571
3579.86648437,0.00792067
3581.79529175,0.00792098
3583.72409912,0.00795068
3585.65290649,0.00777424
3587.58171387,0.00727532
3589.51052124,0.00746301
3591.43932861,0.00810331
3593.36813599,0.00791447
3595.29694336,0.00782400
3597.22575073,0.00807396
3599.15455811,0.00811962
3601.08336548,0.00801779
3603.01217285,0.00812456
3604.94098022,0.00835628
3606.86978760,0.00806469
3608.79859497,0.00764292
3610.72740234,0.00792086
3612.65620972,0.00802559
3614.58501709,0.00785031
3616.51382446,0.00846964
3618.44263184,0.00778932
3620.37143921,0.00759556
3622.30024658,0.00863848
3624.22905395,0.00848742
3626.15786133,0.00888701
3628.08666870,0.00750771
3630.01547607,0.00683525
3631.94428345,0.00869112
3633.87309082,0.00862304
3635.80189819,0.00869671
3637.73070557,0.00892440
3639.65951294,0.00892768
3641.58832031,0.00898992
3643.51712769,0.00897165
3645.44593506,0.00907894
3647.37474243,0.00821722
3649.30354980,0.00757247
3651.23235718,0.00770401
3653.16116455,0.00929742
3655.08997192,0.00914405
3657.01877930,0.00834546
3658.94758667,0.00961731
3660.87639404,0.00937468
3662.80520142,0.00967039
3664.73400879,0.00959842
3666.66281616,0.00963161
3668.59162354,0.00943704
3670.52043091,0.00766087
3672.44923828,0.00943250
3674.37804565,0.00909975
3676.30685303,0.00757935
3678.23566040,0.00956155
3680.16446777,0.00982828
3682.09327515,0.00980175
3684.02208252,0.01018383
3685.95088989,0.01008784
3687.87969727,0.00908910
3689.80850464,0.00842281
3691.73731201,0.00958258
3693.66611938,0.00992701
3695.59492676,0.01020292
3697.52373413,0.01020018
3699.45254150,0.01019960
3701.38134888,0.00990264
3703.31015625,0.00947974
3705.23896362,0.01048081
3707.16777100,0.00999743
3709.09657837,0.00981505
3711.02538574,0.00928489
3712.95419312,0.00861997
3714.88300049,0.01012348
3716.81180786,0.01009230
3718.74061523,0.01012743
3720.66942261,0.00987620
3722.59822998,0.00958514
3724.52703735,0.00994509
3726.45584473,0.00923635
3728.38465210,0.00998668
3730.31345947,0.00984749
3732.24226685,0.00908930
3734.17107422,0.00890552
3736.09988159,0.00849018
3738.02868896,0.00888409
3739.95749634,0.00953729
3741.88630371,0.01003796
3743.81511108,0.00776877
3745.74391846,0.00744940
3747.67272583,0.00965133
3749.60153320,0.00818139
3751.53034058,0.00760203
3753.45914795,0.00869158
3755.38795532,0.00938277
3757.31676270,0.00976418
3759.24557007,0.00894864
3761.17437744,0.00929253
3763.10318481,0.00986003
3765.03199219,0.00926884
3766.96079956,0.00942739
3768.88960693,0.00930157
3770.81841431,0.00893276
3772.74722168,0.00955437
3774.67602905,0.00955350
3776.60483643,0.00957152
3778.53364380,0.00930982
3780.46245117,0.00894270
3782.39125854,0.00954694
3784.32006592,0.00932615
3786.24887329,0.00922394
3788.17768066,0.00946531
3790.10648804,0.00941171
3792.03529541,0.00932188
3793.96410278,0.00945288
3795.89291016,0.00888764
3797.82171753,0.00880954
3799.75052490,0.00928234
3801.67933228,0.00735451
3803.60813965,0.00858197
3805.53694702,0.00932925
3807.46575439,0.00757041
3809.39456177,0.00911498
3811.32336914,0.00896966
3813.25217651,0.00932878
3815.18098389,0.00841212
3817.10979126,0.00736513
3819.03859863,0.00934776
3820.96740601,0.00755636
3822.89621338,0.00792049
3824.82502075,0.00915193
3826.75382812,0.00824989
3828.68263550,0.00901806
3830.61144287,0.00864606
3832.54025024,0.00827711
3834.46905762,0.00841624
3836.39786499,0.00806083
3838.32667236,0.00733734
3840.25547974,0.00790740
3842.18428711,0.00850029
3844.11309448,0.00805985
3846.04190186,0.00874317
3847.97070923,0.00859644
3849.89951660,0.00863270
3851.82832397,0.00781194
3853.75713135,0.00589036
3855.68593872,0.00697981
3857.61474609,0.00859782
3859.54355347,0.00839632
3861.47236084,0.00826259
3863.40116821,0.00807834
3865.32997559,0.00763204
3867.25878296,0.00834828
3869.18759033,0.00769536
3871.11639770,0.00721526
3873.04520508,0.00842878
3874.97401245,0.00775922
3876.90281982,0.00829118
3878.83162720,0.00861363
3880.76043457,0.00742933
3882.68924194,0.00832688
3884.61804932,0.00791879
3886.54685669,0.00721334
3888.47566406,0.00835481
3890.40447144,0.00794434
3892.33327881,0.00735887
3894.26208618,0.00806368
3896.19089355,0.00825781
3898.11970093,0.00789052
3900.04850830,0.00739610
3901.97731567,0.00741146
3903.90612305,0.00737448
3905.83493042,0.00739913
3907.76373779,0.00813694
3909.69254517,0.00809120
3911.62135254,0.00808037
3913.55015991,0.00817629
3915.47896728,0.00786793
3917.40777466,0.00767604
3919.33658203,0.00753917
3921.26538940,0.00789299
3923.19419678,0.00777354
3925.12300415,0.00766268
3927.05181152,0.00780474
3928.98061890,0.00783049
3930.90942627,0.00779676
3932.83823364,0.00744708
3934.76704102,0.00783108
3936.69584839,0.00791312
3938.62465576,0.00774372
3940.55346313,0.00784146
3942.48227051,0.00748941
3944.41107788,0.00753228
3946.33988525,0.00765270
3948.26869263,0.00752617
3950.19750000,0.00751235
3952.12630737,0.00760375
3954.05511475,0.00765116
3955.98392212,0.00768781
3957.91272949,0.00759774
3959.84153687,0.00749527
3961.77034424,0.00757776
3963.69915161,0.00750904
3965.62795898,0.00760004
3967.55676636,0.00752378
3969.48557373,0.00742124
3971.41438110,0.00750061
3973.34318848,0.00738076
3975.27199585,0.00736990
3977.20080322,0.00738066
3979.12961060,0.00740921
3981.05841797,0.00734723
3982.98722534,0.00732794
3984.91603271,0.00729016
3986.84484009,0.00727721
3988.77364746,0.00735790
3990.70245483,0.00723835
3992.63126221,0.00727058
3994.56006958,0.00724213
3996.48887695,0.00727741
3998.41768433,0.00728220
4000.34649170,0.00717016
4002.27529907,0.00718709
4004.20410645,0.00714092
4006.13291382,0.00718173
4008.06172119,0.00708904
4009.99052856,0.00709637
4011.91933594,0.00709895
4013.84814331,0.00705229
4015.77695068,0.00707119
4017.70575806,0.00701790
4019.63456543,0.00713565
4021.56337280,0.00701544
4023.49218018,0.00705342
4025.42098755,0.00711332
4027.34979492,0.00692342
4029.27860229,0.00699364
4031.20740967,0.00695957
4033.13621704,0.00690983
4035.06502441,0.00698142
4036.99383179,0.00698572
4038.92263916,0.00689435
4040.85144653,0.00690382
4042.78025391,0.00691363
4044.70906128,0.00687228
4046.63786865,0.00689305
4048.56667603,0.00683170
4050.49548340,0.00683962
4052.42429077,0.00677977
4054.35309814,0.00679961
4056.28190552,0.00677506
4058.21071289,0.00669731
4060.13952026,0.00675074
4062.06832764,0.00663629
4063.99713501,0.00668937
4065.92594238,0.00667388
4067.85474976,0.00662997
4069.78355713,0.00672804
4071.71236450,0.00669591
4073.64117187,0.00670307
4075.56997925,0.00664604
4077.49878662,0.00661901
4079.42759399,0.00655914
4081.35640137,0.00652099
4083.28520874,0.00656269
4085.21401611,0.00651106
4087.14282349,0.00656745
4089.07163086,0.00656932
4091.00043823,0.00647174
4092.92924561,0.00652409
4094.85805298,0.00648642
4096.78686035,0.00639719
4098.71566772,0.00657894
4100.64447510,0.00649749
4102.57328247,0.00634712
4104.50208984,0.00644298
4106.43089722,0.00634401
4108.35970459,0.00642017
4110.28851196,0.00644683
4112.21731934,0.00632752
4114.14612671,0.00632690
4116.07493408,0.00628826
4118.00374145,0.00630982
4119.93254883,0.00624914
4121.86135620,0.00628585
4123.79016357,0.00630702
4125.71897095,0.00625220
4127.64777832,0.00630356
4129.57658569,0.00621433
4131.50539307,0.00616458
4133.43420044,0.00617095
4135.36300781,0.00620702
4137.29181519,0.00623661
4139.22062256,0.00619289
4141.14942993,0.00614441
4143.07823730,0.00605957
4145.00704468,0.00615484
4146.93585205,0.00618242
4148.86465942,0.00605982
4150.79346680,0.00606568
4152.72227417,0.00607964
4154.65108154,0.00607857
4156.57988892,0.00601431
4158.50869629,0.00600145
4160.43750366,0.00600778
4162.36631103,0.00597938
4164.29511841,0.00604470
4166.22392578,0.00597104
4168.15273315,0.00593377
4170.08154053,0.00595195
4172.01034790,0.00589413
4173.93915527,0.00589411
4175.86796265,0.00584804
4177.79677002,0.00591419
4179.72557739,0.00592390
4181.65438477,0.00583464
4183.58319214,0.00586236
4185.51199951,0.00584692
4187.44080688,0.00585156
4189.36961426,0.00583163
4191.29842163,0.00580917
4193.22722900,0.00580467
4195.15603638,0.00579463
4197.08484375,0.00583602
4199.01365112,0.00583403
4200.94245850,0.00575005
4202.87126587,0.00560758
4204.80007324,0.00566113
4206.72888062,0.00576503
4208.65768799,0.00573784
4210.58649536,0.00573678
4212.51530273,0.00570398
4214.44411011,0.00572365
4216.37291748,0.00571827
4218.30172485,0.00561013
4220.23053223,0.00560358
4222.15933960,0.00563339
4224.08814697,0.00552846
4226.01695435,0.00550197
4227.94576172,0.00556526
4229.87456909,0.00555622
4231.80337646,0.00559970
4233.73218384,0.00557756
4235.66099121,0.00550873
4237.58979858,0.00546538
4239.51860596,0.00546570
4241.44741333,0.00550625
4243.37622070,0.00545878
4245.30502808,0.00544905
4247.23383545,0.00539562
4249.16264282,0.00538884
4251.09145020,0.00546762
4253.02025757,0.00538226
4254.94906494,0.00536533
4256.87787231,0.00543792
4258.80667969,0.00537520
4260.73548706,0.00535857
4262.66429443,0.00541324
4264.59310181,0.00538985
4266.52190918,0.00537645
4268.45071655,0.00536808
4270.37952393,0.00535336
4272.30833130,0.00523952
4274.23713867,0.00519214
4276.16594604,0.00529022
4278.09475342,0.00523572
4280.02356079,0.00525500
4281.95236816,0.00522991
4283.88117554,0.00521728
4285.80998291,0.00528894
4287.73879028,0.00513666
4289.66759766,0.00514364
4291.59640503,0.00517351
4293.52521240,0.00508712
4295.45401978,0.00511821
4297.38282715,0.00513743
4299.31163452,0.00510203
4301.24044189,0.00509773
4303.16924927,0.00506221
4305.09805664,0.00502925
4307.02686401,0.00514844
4308.95567139,0.00508679
4310.88447876,0.00505439
4312.81328613,0.00508885
4314.74209351,0.00491492
4316.67090088,0.00495445
4318.59970825,0.00504346
4320.52851562,0.00499553
4322.45732300,0.00495701
4324.38613037,0.00500677
4326.31493774,0.00498857
4328.24374512,0.00489414
4330.17255249,0.00492737
4332.10135986,0.00490323
4334.03016724,0.00491560
4335.95897461,0.00491740
4337.88778198,0.00487620
4339.81658936,0.00485686
4341.74539673,0.00482444
4343.67420410,0.00482484
4345.60301147,0.00478953
4347.53181885,0.00479917
4349.46062622,0.00481400
4351.38943359,0.00483970
4353.31824097,0.00478342
4355.24704834,0.00480599
4357.17585571,0.00487454
4359.10466309,0.00472657
4361.03347046,0.00475338
4362.96227783,0.00476692
4364.89108520,0.00466402
4366.81989258,0.00469289
4368.74869995,0.00476386
4370.67750732,0.00469848
4372.60631470,0.00461214
4374.53512207,0.00468226
4376.46392944,0.00463403
4378.39273682,0.00464764
4380.32154419,0.00464701
4382.25035156,0.00459680
4384.17915894,0.00461364
4386.10796631,0.00453958
4388.03677368,0.00460891
4389.96558105,0.00457481
4391.89438843,0.00457842
4393.82319580,0.00462672
4395.75200317,0.00443391
4397.68081055,0.00451689
4399.60961792,0.00462257
4401.53842529,0.00448878
4403.46723267,0.00450726
4405.39604004,0.00454861
4407.32484741,0.00448613
4409.25365478,0.00448822
4411.18246216,0.00446323
4413.11126953,0.00440744
4415.04007690,0.00440744
4416.96888428,0.00438463
4418.89769165,0.00440220
4420.82649902,0.00446699
4422.75530640,0.00443707
4424.68411377,0.00436541
4426.61292114,0.00441414
4428.54172852,0.00442128
4430.47053589,0.00437876
4432.39934326,0.00434720
4434.32815063,0.00431781
4436.25695801,0.00437358
4438.18576538,0.00433058
4440.11457275,0.00430463
4442.04338013,0.00427881
4443.97218750,0.00424102
4445.90099487,0.00430829
4447.82980225,0.00426094
4449.75860962,0.00420994
4451.68741699,0.00421041
4453.61622437,0.00424365
4455.54503174,0.00426843
4457.47383911,0.00422440
4459.40264648,0.00417699
4461.33145386,0.00414859
4463.26026123,0.00413967
4465.18906860,0.00413440
4467.11787598,0.00416712
4469.04668335,0.00411077
4470.97549072,0.00405861
4472.90429810,0.00409137
4474.83310547,0.00411646
4476.76191284,0.00407400
4478.69072021,0.00409657
4480.61952759,0.00415343
4482.54833496,0.00402392
4484.47714233,0.00409373
4486.40594971,0.00409652
4488.33475708,0.00400345
4490.26356445,0.00406122
4492.19237183,0.00403838
4494.12117920,0.00412945
4496.04998657,0.00408342
4497.97879395,0.00404376
4499.90760132,0.00400862
4501.83640869,0.00393694
4503.76521606,0.00399127
4505.69402344,0.00390598
4507.62283081,0.00393286
4509.55163818,0.00390590
4511.48044556,0.00388777
4513.40925293,0.00390604
4515.33806030,0.00388859
4517.26686768,0.00391436
4519.19567505,0.00382549
4521.12448242,0.00391224
4523.05328979,0.00390539
4524.98209717,0.00388641
4526.91090454,0.00390156
4528.83971191,0.00379520
4530.76851929,0.00381522
4532.69732666,0.00381725
4534.62613403,0.00381337
4536.55494141,0.00373265
4538.48374878,0.00376105
4540.41255615,0.00377969
4542.34136353,0.00373800
4544.27017090,0.00378357
4546.19897827,0.00373857
4548.12778564,0.00376951
4550.05659302,0.00371150
4551.98540039,0.00376001
4553.91420776,0.00374790
4555.84301514,0.00359614
4557.77182251,0.00374483
4559.70062988,0.00376642
4561.62943726,0.00369577
4563.55824463,0.00371296
4565.48705200,0.00372080
4567.41585937,0.00369638
4569.34466675,0.00366826
4571.27347412,0.00363760
4573.20228149,0.00361273
4575.13108887,0.00362272
4577.05989624,0.00356787
4578.98870361,0.00362208
4580.91751099,0.00352305
4582.84631836,0.00347083
4584.77512573,0.00365946
4586.70393311,0.00356163
4588.63274048,0.00353194
4590.56154785,0.00362686
4592.49035522,0.00357146
4594.41916260,0.00354462
4596.34796997,0.00353862
4598.27677734,0.00350904
4600.20558472,0.00350466
4602.13439209,0.00349399
4604.06319946,0.00347387
4605.99200684,0.00347571
4607.92081421,0.00346338
4609.84962158,0.00346651
4611.77842895,0.00340885
4613.70723633,0.00338238
4615.63604370,0.00339454
4617.56485107,0.00339839
4619.49365845,0.00340324
4621.42246582,0.00331556
4623.35127319,0.00341485
4625.28008057,0.00346288
4627.20888794,0.00333843
4629.13769531,0.00340005
4631.06650269,0.00344011
4632.99531006,0.00334010
4634.92411743,0.00329498
4636.85292480,0.00339969
4638.78173218,0.00339603
4640.71053955,0.00330204
4642.63934692,0.00329115
4644.56815430,0.00324176
4646.49696167,0.00327698
4648.42576904,0.00333579
4650.35457642,0.00324215
4652.28338379,0.00323221
4654.21219116,0.00326178
4656.14099853,0.00315484
4658.06980591,0.00322062
4659.99861328,0.00322247
4661.92742065,0.00313731
4663.85622803,0.00327556
4665.78503540,0.00322808
4667.71384277,0.00321215
4669.64265015,0.00321503
4671.57145752,0.00310575
4673.50026489,0.00321312
4675.42907227,0.00325450
4677.35787964,0.00325188
4679.28668701,0.00315161
4681.21549438,0.00309698
4683.14430176,0.00322933
4685.07310913,0.00310362
4687.00191650,0.00315628
4688.93072388,0.00325932
4690.85953125,0.00304553
4692.78833862,0.00306681
4694.71714600,0.00309782
4696.64595337,0.00303876
4698.57476074,0.00305317
4700.50356812,0.00304600
4702.43237549,0.00309493
4704.36118286,0.00303433
4706.28999023,0.00302322
4708.21879761,0.00304293
4710.14760498,0.00298699
4712.07641235,0.00301748
4714.00521973,0.00303015
4715.93402710,0.00301702
4717.86283447,0.00293965
4719.79164185,0.00296118
4721.72044922,0.00299052
4723.64925659,0.00300164
4725.57806396,0.00303337
4727.50687134,0.00294245
4729.43567871,0.00303958
4731.36448608,0.00298959
4733.29329346,0.00293665
4735.22210083,0.00299599
4737.15090820,0.00287750
4739.07971558,0.00298996
4741.00852295,0.00296804
4742.93733032,0.00290399
4744.86613770,0.00292081
4746.79494507,0.00285754
4748.72375244,0.00296475
4750.65255981,0.00291151
4752.58136719,0.00286679
4754.51017456,0.00284398
4756.43898193,0.00279419
4758.36778931,0.00291044
4760.29659668,0.00282995
4762.22540405,0.00281740
4764.15421143,0.00290676
4766.08301880,0.00276307
4768.01182617,0.00279314
4769.94063354,0.00286326
4771.86944092,0.00278768
4773.79824829,0.00279274
4775.72705566,0.00270830
4777.65586304,0.00276523
4779.58467041,0.00278042
4781.51347778,0.00266588
4783.44228516,0.00280059
4785.37109253,0.00277844
4787.29989990,0.00274579
4789.22870728,0.00274998
4791.15751465,0.00270817
4793.08632202,0.00275603
4795.01512939,0.00267448
4796.94393677,0.00269245
4798.87274414,0.00268273
4800.80155151,0.00262026
4802.73035889,0.00263078
4804.65916626,0.00264971
4806.58797363,0.00275443
4808.51678101,0.00275264
4810.44558838,0.00271375
4812.37439575,0.00265796
4814.30320312,0.00259946
4816.23201050,0.00259220
4818.16081787,0.00260391
4820.08962524,0.00261736
4822.01843262,0.00256587
4823.94723999,0.00257790
4825.87604736,0.00257327
4827.80485474,0.00261375
4829.73366211,0.00267159
4831.66246948,0.00263340
4833.59127686,0.00261593
4835.52008423,0.00257697
4837.44889160,0.00261249
4839.37769897,0.00257953
4841.30650635,0.00250518
4843.23531372,0.00256529
4845.16412109,0.00254670
4847.09292847,0.00249808
4849.02173584,0.00252845
4850.95054321,0.00256351
4852.87935059,0.00252092
4854.80815796,0.00248972
4856.73696533,0.00251055
4858.66577270,0.00250011
4860.59458008,0.00250988
4862.52338745,0.00249721
4864.45219482,0.00247741
4866.38100220,0.00249619
4868.30980957,0.00252574
4870.23861694,0.00252119
4872.16742432,0.00244914
4874.09623169,0.00243407
4876.02503906,0.00245576
4877.95384644,0.00242125
4879.88265381,0.00235462
4881.81146118,0.00235673
4883.74026855,0.00242942
4885.66907593,0.00241684
4887.59788330,0.00236814
4889.52669067,0.00235391
4891.45549805,0.00241121
4893.38430542,0.00241029
4895.31311279,0.00232299
4897.24192017,0.00234762
4899.17072754,0.00235266
4901.09953491,0.00238072
4903.02834228,0.00237152
4904.95714966,0.00236451
4906.88595703,0.00242074
4908.81476440,0.00230092
4910.74357178,0.00230807
4912.67237915,0.00231627
4914.60118652,0.00228683
4916.52999390,0.00233190
4918.45880127,0.00221413
4920.38760864,0.00222773
4922.31641602,0.00226958
4924.24522339,0.00224363
4926.17403076,0.00225767
4928.10283813,0.00225745
4930.03164551,0.00228152
4931.96045288,0.00224238
4933.88926025,0.00217842
4935.81806763,0.00218157
4937.74687500,0.00225743
4939.67568237,0.00222705
4941.60448975,0.00219415
4943.53329712,0.00220349
4945.46210449,0.00220434
4947.39091187,0.00226541
4949.31971924,0.00221979
4951.24852661,0.00220736
4953.17733398,0.00220089
4955.10614136,0.00220179
4957.03494873,0.00216514
4958.96375610,0.00212995
4960.89256348,0.00221301
4962.82137085,0.00216836
4964.75017822,0.00223264
4966.67898560,0.00219596
4968.60779297,0.00210099
4970.53660034,0.00215375
4972.46540771,0.00210590
4974.39421509,0.00213123
4976.32302246,0.00210884
4978.25182983,0.00211275
4980.18063721,0.00207857
4982.10944458,0.00205288
4984.03825195,0.00214679
4985.96705933,0.00210277
4987.89586670,0.00208726
4989.82467407,0.00208804
4991.75348145,0.00212811
4993.68228882,0.00210683
4995.61109619,0.00211249
4997.53990356,0.00212937
4999.46871094,0.00202212
5001.39751831,0.00212933
5003.32632568,0.00208263
5005.25513306,0.00197710
5007.18394043,0.00208329
5009.11274780,0.00204951
5011.04155518,0.00197118
5012.97036255,0.00198295
5014.89916992,0.00201228
5016.82797729,0.00199808
5018.75678467,0.00200068
5020.68559204,0.00200995
5022.61439941,0.00202475
5024.54320679,0.00198591
5026.47201416,0.00196210
5028.40082153,0.00201883
5030.32962891,0.00195467
5032.25843628,0.00192384
5034.18724365,0.00199886
5036.11605103,0.00199668
5038.04485840,0.00189953
5039.97366577,0.00190368
5041.90247314,0.00192018
5043.83128052,0.00187025
5045.76008789,0.00190688
5047.68889526,0.00190330
5049.61770264,0.00196048
5051.54651001,0.00197415
5053.47531738,0.00192430
5055.40412476,0.00197470
5057.33293213,0.00195429
5059.26173950,0.00187154
5061.19054687,0.00180464
5063.11935425,0.00189903
5065.04816162,0.00189570
5066.97696899,0.00181661
5068.90577637,0.00193839
5070.83458374,0.00186711
5072.76339111,0.00178494
5074.69219849,0.00186999
5076.62100586,0.00181880
5078.54981323,0.00182236
5080.47862061,0.00188195
5082.40742798,0.00182506
5084.33623535,0.00179106
5086.26504272,0.00177142
5088.19385010,0.00183173
5090.12265747,0.00187161
5092.05146484,0.00176185
5093.98027222,0.00175786
5095.90907959,0.00177360
5097.83788696,0.00178551
5099.76669434,0.00180634
5101.69550171,0.00175004
5103.62430908,0.00173817
5105.55311645,0.00178151
5107.48192383,0.00179443
5109.41073120,0.00174137
5111.33953857,0.00178102
5113.26834595,0.00179862
5115.19715332,0.00175137
5117.12596069,0.00172113
5119.05476807,0.00169677
5120.98357544,0.00172286
5122.91238281,0.00167906
5124.84119019,0.00169984
5126.76999756,0.00167696
5128.69880493,0.00166970
5130.62761230,0.00173355
5132.55641968,0.00166983
5134.48522705,0.00171777
5136.41403442,0.00171110
5138.34284180,0.00169130
5140.27164917,0.00172723
5142.20045654,0.00167454
5144.12926392,0.00166191
5146.05807129,0.00167983
5147.98687866,0.00169394
5149.91568603,0.00165340
5151.84449341,0.00167194
5153.77330078,0.00161234
5155.70210815,0.00157704
5157.63091553,0.00166628
5159.55972290,0.00162742
5161.48853027,0.00162790
5163.41733765,0.00158126
5165.34614502,0.00158744
5167.27495239,0.00163582
5169.20375977,0.00152635
5171.13256714,0.00155371
5173.06137451,0.00163561
5174.99018188,0.00160222
5176.91898926,0.00156980
5178.84779663,0.00159345
5180.77660400,0.00159802
5182.70541138,0.00154250
5184.63421875,0.00152283
5186.56302612,0.00159846
5188.49183350,0.00160205
5190.42064087,0.00153224
5192.34944824,0.00154283
5194.27825562,0.00156379
5196.20706299,0.00159622
5198.13587036,0.00155690
5200.06467773,0.00150330
5201.99348511,0.00151425
5203.92229248,0.00151114
5205.85109985,0.00149924
5207.77990723,0.00150161
5209.70871460,0.00154532
5211.63752197,0.00149729
5213.56632935,0.00147451
5215.49513672,0.00147050
5217.42394409,0.00149544
5219.35275146,0.00154115
5221.28155884,0.00146749
5223.21036621,0.00150418
5225.13917358,0.00146792
5227.06798096,0.00146039
5228.99678833,0.00149056
5230.92559570,0.00142737
5232.85440308,0.00149176
5234.78321045,0.00147223
5236.71201782,0.00150080
5238.64082520,0.00151479
5240.56963257,0.00148676
5242.49843994,0.00151509
5244.42724731,0.00145886
5246.35605469,0.00147827
5248.28486206,0.00144663
5250.21366943,0.00142220
5252.14247681,0.00145588
5254.07128418,0.00142860
5256.00009155,0.00137006
5257.92889893,0.00139668
5259.85770630,0.00148512
5261.78651367,0.00140826
5263.71532104,0.00141145
5265.64412842,0.00145941
5267.57293579,0.00143703
5269.50174316,0.00143726
5271.43055054,0.00138305
5273.35935791,0.00135626
5275.28816528,0.00137307
5277.21697266,0.00144189
5279.14578003,0.00145445
5281.07458740,0.00142308
5283.00339478,0.00140085
5284.93220215,0.00140839
5286.86100952,0.00143548
5288.78981689,0.00133977
5290.71862427,0.00135428
5292.64743164,0.00140361
5294.57623901,0.00139481
5296.50504639,0.00139083
5298.43385376,0.00130712
5300.36266113,0.00135194
5302.29146851,0.00136084
5304.22027588,0.00128460
5306.14908325,0.00131562
5308.07789062,0.00133874
5310.00669800,0.00131105
5311.93550537,0.00126625
5313.86431274,0.00135896
5315.79312012,0.00136964
5317.72192749,0.00123256
5319.65073486,0.00132604
5321.57954224,0.00141238
5323.50834961,0.00139434
5325.43715698,0.00137022
5327.36596436,0.00126901
5329.29477173,0.00128460
5331.22357910,0.00135444
5333.15238647,0.00135320
5335.08119385,0.00130485
5337.01000122,0.00128204
5338.93880859,0.00130194
5340.86761597,0.00128136
5342.79642334,0.00127521
5344.72523071,0.00124686
5346.65403809,0.00127962
5348.58284546,0.00130745
5350.51165283,0.00125206
5352.44046020,0.00126724
5354.36926758,0.00122872
5356.29807495,0.00122998
5358.22688232,0.00126209
5360.15568970,0.00122636
5362.08449707,0.00126722
5364.01330444,0.00125509
5365.94211182,0.00124756
5367.87091919,0.00132016
5369.79972656,0.00130842
5371.72853394,0.00128104
5373.65734131,0.00125869
5375.58614868,0.00120282
5377.51495605,0.00120611
5379.44376343,0.00119195
5381.37257080,0.00118746
5383.30137817,0.00125516
5385.23018555,0.00119286
5387.15899292,0.00114822
5389.08780029,0.00122347
5391.01660767,0.00121628
5392.94541504,0.00124760
5394.87422241,0.00127220
5396.80302978,0.00121070
5398.73183716,0.00122712
5400.66064453,0.00123416
5402.58945190,0.00120580
5404.51825928,0.00115531
5406.44706665,0.00116475
5408.37587402,0.00119950
5410.30468140,0.00111052
5412.23348877,0.00116558
5414.16229614,0.00115646
5416.09110352,0.00108749
5418.01991089,0.00119948
5419.94871826,0.00117720
5421.87752563,0.00114358
5423.80633301,0.00113094
5425.73514038,0.00115858
5427.66394775,0.00114838
5429.59275513,0.00108133
5431.52156250,0.00114477
5433.45036987,0.00105942
5435.37917725,0.00102738
5437.30798462,0.00107810
5439.23679199,0.00111446
5441.16559936,0.00111384
5443.09440674,0.00103618
5445.02321411,0.00110144
5446.95202148,0.00107553
5448.88082886,0.00110367
5450.80963623,0.00115408
5452.73844360,0.00108200
5454.66725098,0.00105737
5456.59605835,0.00109714
5458.52486572,0.00118387
5460.45367310,0.00106266
5462.38248047,0.00100297
5464.31128784,0.00102458
5466.24009521,0.00105445
5468.16890259,0.00112914
5470.09770996,0.00105630
5472.02651733,0.00107538
5473.95532471,0.00107611
5475.88413208,0.00103950
5477.81293945,0.00105137
5479.74174683,0.00108573
5481.67055420,0.00108894
5483.59936157,0.00106877
5485.52816895,0.00108732
5487.45697632,0.00100463
5489.38578369,0.00105374
5491.31459106,0.00106935
5493.24339844,0.00105561
5495.17220581,0.00109827
5497.10101318,0.00104575
5499.02982056,0.00106624
5500.95862793,0.00101611
5502.88743530,0.00105033
5504.81624268,0.00108783
5506.74505005,0.00107082
5508.67385742,0.00109754
5510.60266479,0.00102017
5512.53147217,0.00101751
5514.46027954,0.00102552
5516.38908691,0.00099347
5518.31789429,0.00097700
5520.24670166,0.00102399
5522.17550903,0.00101402
5524.10431641,0.00103749
5526.03312378,0.00107125
5527.96193115,0.00094142
5529.89073853,0.00096317
5531.81954590,0.00093771
5533.74835327,0.00097941
5535.67716064,0.00104156
5537.60596802,0.00095515
5539.53477539,0.00098860
5541.46358276,0.00097729
5543.39239014,0.00101712
5545.32119751,0.00094375
5547.25000488,0.00091232
5549.17881226,0.00098690
5551.10761963,0.00093145
5553.03642700,0.00098259
5554.96523437,0.00095050
5556.89404175,0.00093705
5558.82284912,0.00095539
5560.75165649,0.00094979
5562.68046387,0.00095647
5564.60927124,0.00096741
5566.53807861,0.00105611
5568.46688599,0.00092339
5570.39569336,0.00086995
5572.32450073,0.00094031
5574.25330811,0.00091546
5576.18211548,0.00097708
5578.11092285,0.00098433
5580.03973022,0.00098836
5581.96853760,0.00098945
5583.89734497,0.00093843
5585.82615234,0.00093389
5587.75495972,0.00095027
5589.68376709,0.00095904
5591.61257446,0.00091833
5593.54138184,0.00091308
5595.47018921,0.00094085
5597.39899658,0.00087561
5599.32780395,0.00084341
5601.25661133,0.00087916
5603.18541870,0.00085968
5605.11422607,0.00084396
5607.04303345,0.00088066
5608.97184082,0.00091903
5610.90064819,0.00089074
5612.82945557,0.00088529
5614.75826294,0.00085278
5616.68707031,0.00080836
5618.61587769,0.00089283
5620.54468506,0.00085627
5622.47349243,0.00079383
5624.40229980,0.00082796
5626.33110718,0.00086957
5628.25991455,0.00089974
5630.18872192,0.00088682
5632.11752930,0.00088579
5634.04633667,0.00082122
5635.97514404,0.00084126
5637.90395142,0.00083276
5639.83275879,0.00082068
5641.76156616,0.00088828
5643.69037353,0.00078351
5645.61918091,0.00083848
5647.54798828,0.00085885
5649.47679565,0.00074928
5651.40560303,0.00082401
5653.33441040,0.00083772
5655.26321777,0.00083029
5657.19202515,0.00083225
5659.12083252,0.00083511
5661.04963989,0.00086220
5662.97844727,0.00082579
5664.90725464,0.00081389
5666.83606201,0.00080207
5668.76486938,0.00079595
5670.69367676,0.00082272
5672.62248413,0.00078238
5674.55129150,0.00077243
5676.48009888,0.00079098
5678.40890625,0.00078283
5680.33771362,0.00083641
5682.26652100,0.00082040
5684.19532837,0.00077847
5686.12413574,0.00071562
5688.05294311,0.00068616
5689.98175049,0.00081005
5691.91055786,0.00083410
5693.83936523,0.00078268
5695.76817261,0.00075140
5697.69697998,0.00081855
5699.62578735,0.00082027
5701.55459473,0.00072417
5703.48340210,0.00073958
5705.41220947,0.00071088
5707.34101685,0.00072862
5709.26982422,0.00069274
5711.19863159,0.00076874
5713.12743896,0.00085857
5715.05624634,0.00071014
5716.98505371,0.00080672
5718.91386108,0.00081015
5720.84266846,0.00072834
5722.77147583,0.00074197
5724.70028320,0.00070850
5726.62909058,0.00079803
5728.55789795,0.00074407
5730.48670532,0.00073486
5732.41551270,0.00077530
5734.34432007,0.00070762
5736.27312744,0.00072745
5738.20193481,0.00071918
5740.13074219,0.00073726
5742.05954956,0.00073408
5743.98835693,0.00070249
5745.91716431,0.00067874
5747.84597168,0.00067352
5749.77477905,0.00077017
5751.70358643,0.00074669
5753.63239380,0.00071630
5755.56120117,0.00073511
5757.49000854,0.00067466
5759.41881592,0.00071600
5761.34762329,0.00072529
5763.27643066,0.00067637
5765.20523804,0.00068877
5767.13404541,0.00071553
5769.06285278,0.00071610
5770.99166016,0.00066155
5772.92046753,0.00070103
5774.84927490,0.00068858
5776.77808228,0.00064088
5778.70688965,0.00067403
5780.63569702,0.00067765
5782.56450439,0.00071013
5784.49331177,0.00066130
5786.42211914,0.00067000
5788.35092651,0.00066032
5790.27973389,0.00064749
5792.20854126,0.00076506
5794.13734863,0.00068625
5796.06615601,0.00064602
5797.99496338,0.00065343
5799.92377075,0.00067159
5801.85257812,0.00072192
5803.78138550,0.00061057
5805.71019287,0.00059479
5807.63900024,0.00064699
5809.56780762,0.00061526
5811.49661499,0.00057958
5813.42542236,0.00065563
5815.35422974,0.00064758
5817.28303711,0.00060414
5819.21184448,0.00067748
5821.14065186,0.00063799
5823.06945923,0.00064760
5824.99826660,0.00067807
5826.92707397,0.00063923
5828.85588135,0.00055586
5830.78468872,0.00056635
5832.71349609,0.00066231
5834.64230347,0.00062687
5836.57111084,0.00064328
5838.49991821,0.00062320
5840.42872559,0.00062814
5842.35753296,0.00064513
5844.28634033,0.00062017
5846.21514770,0.00063279
5848.14395508,0.00061971
5850.07276245,0.00068031
5852.00156982,0.00064273
5853.93037720,0.00065406
5855.85918457,0.00061452
5857.78799194,0.00053747
5859.71679932,0.00062255
5861.64560669,0.00056975
5863.57441406,0.00055939
5865.50322144,0.00054612
5867.43202881,0.00056802
5869.36083618,0.00059691
5871.28964355,0.00051850
5873.21845093,0.00057454
5875.14725830,0.00061446
5877.07606567,0.00057616
5879.00487305,0.00055738
5880.93368042,0.00064239
5882.86248779,0.00058434
5884.79129517,0.00055268
5886.72010254,0.00064068
5888.64890991,0.00051319
5890.57771728,0.00056910
5892.50652466,0.00057287
5894.43533203,0.00046172
5896.36413940,0.00060444
5898.29294678,0.00066216
5900.22175415,0.00062143
5902.15056152,0.00058098
5904.07936890,0.00055396
5906.00817627,0.00058332
5907.93698364,0.00054602
5909.86579102,0.00050203
5911.79459839,0.00054944
5913.72340576,0.00055132
5915.65221313,0.00054900
5917.58102051,0.00056495
5919.50982788,0.00055686
5921.43863525,0.00054214
5923.36744263,0.00053277
5925.29625000,0.00059684
5927.22505737,0.00050882
5929.15386475,0.00051322
5931.08267212,0.00062621
5933.01147949,0.00056213
5934.94028686,0.00056616
5936.86909424,0.00051103
5938.79790161,0.00054224
5940.72670898,0.00057782
5942.65551636,0.00047334
5944.58432373,0.00048035
5946.51313110,0.00047469
5948.44193848,0.00052534
5950.37074585,0.00050450
5952.29955322,0.00046973
5954.22836060,0.00052078
5956.15716797,0.00046647
5958.08597534,0.00050613
5960.01478271,0.00055542
5961.94359009,0.00045707
5963.87239746,0.00048482
5965.80120483,0.00059948
5967.73001221,0.00051934
5969.65881958,0.00044511
5971.58762695,0.00046614
5973.51643433,0.00053415
5975.44524170,0.00055151
5977.37404907,0.00042654
5979.30285645,0.00047243
5981.23166382,0.00052491
5983.16047119,0.00048567
5985.08927856,0.00048013
5987.01808594,0.00046545
5988.94689331,0.00055157
5990.87570068,0.00049717
5992.80450806,0.00039356
5994.73331543,0.00046656
5996.66212280,0.00045284
5998.59093018,0.00047024
6000.51973755,0.00052222
