399.26312622,0.00042146
401.19193359,-0.00011085
403.12074097,0.00022884
405.04954834,-0.00017684
406.97835571,0.00010364
408.90716309,0.00023480
410.83597046,-0.00017368
412.76477783,0.00033970
414.69358521,0.00011306
416.62239258,0.00002880
418.55119995,0.00015554
420.48000732,0.00027660
422.40881470,0.00015103
424.33762207,-0.00007235
426.26642944,0.00026848
428.19523682,0.00010244
430.12404419,-0.00007140
432.05285156,-0.00000489
433.98165894,0.00002269
435.91046631,0.00015298
437.83927368,0.00020420
439.76808105,0.00024241
441.69688843,0.00014192
443.62569580,0.00001157
445.55450317,0.00012185
447.48331055,0.00001274
449.41211792,0.00001888
451.34092529,0.00032698
453.26973267,0.00009220
455.19854004,0.00026408
457.12734741,0.00057934
459.05615479,0.00008612
460.98496216,-0.00004073
462.91376953,0.00016856
464.84257690,0.00024613
466.77138428,0.00025553
468.70019165,0.00027330
470.62899902,0.00034568
472.55780640,0.00018513
474.48661377,0.00023845
476.41542114,0.00024824
478.34422852,-0.00001947
480.27303589,0.00010185
482.20184326,0.00007292
484.13065063,-0.00000796
486.05945801,0.00015173
487.98826538,-0.00004733
489.91707275,-0.00007443
491.84588013,0.00019966
493.77468750,0.00012918
495.70349487,-0.00007868
497.63230225,0.00016540
499.56110962,0.00013429
501.48991699,0.00003623
503.41872437,0.00036526
505.34753174,0.00020557
507.27633911,0.00008957
509.20514648,0.00021870
511.13395386,0.00013988
513.06276123,0.00007220
514.99156860,0.00007708
516.92037598,0.00023561
518.84918335,0.00023047
520.77799072,0.00009229
522.70679810,-0.00009117
524.63560547,-0.00009167
526.56441284,0.00022135
528.49322021,0.00016358
530.42202759,0.00023062
532.35083496,0.00014689
534.27964233,-0.00001359
536.20844971,0.00025455
538.13725708,0.00005381
540.06606445,0.00027894
541.99487183,0.00033772
543.92367920,0.00009046
545.85248657,0.00023056
547.78129395,0.00007444
549.71010132,0.00018904
551.63890869,-0.00012323
553.56771606,-0.00002209
555.49652344,0.00039906
557.42533081,0.00000929
559.35413818,0.00006415
561.28294556,0.00010727
563.21175293,0.00017779
565.14056030,0.00016809
567.06936768,0.00009585
568.99817505,0.00028684
570.92698242,0.00029780
572.85578979,0.00026048
574.78459717,0.00012565
576.71340454,0.00040077
578.64221191,0.00025063
580.57101929,-0.00009999
582.49982666,0.00006886
584.42863403,-0.00018733
586.35744141,0.00002725
588.28624878,0.00023132
590.21505615,-0.00009194
592.14386353,0.00013360
594.07267090,0.00019157
596.00147827,0.00005857
597.93028564,0.00013639
599.85909302,0.00014577
601.78790039,0.00022019
603.71670776,0.00014299
605.64551514,0.00007022
607.57432251,0.00006797
609.50312988,-0.00000044
611.43193726,0.00002502
613.36074463,0.00005775
615.28955200,0.00013227
617.21835938,0.00009344
619.14716675,0.00012464
621.07597412,0.00006224
623.00478149,0.00006284
624.93358887,0.00020541
626.86239624,-0.00008485
628.79120361,0.00011605
630.72001099,0.00020039
632.64881836,0.00002597
634.57762573,0.00029222
636.50643311,0.00026403
638.43524048,0.00018646
640.36404785,-0.00004672
642.29285522,0.00011698
644.22166260,0.00019406
646.15046997,-0.00021665
648.07927734,0.00007692
650.00808472,0.00027050
651.93689209,0.00032656
653.86569946,0.00014937
655.79450684,-0.00001244
657.72331421,0.00026153
659.65212158,0.00026811
661.58092896,0.00026188
663.50973633,0.00016106
665.43854370,0.00031501
667.36735107,0.00028588
669.29615845,0.00004115
671.22496582,0.00011669
673.15377319,0.00011815
675.08258057,0.00005943
677.01138794,-0.00006263
678.94019531,0.00018550
680.86900269,0.00007962
682.79781006,-0.00004715
684.72661743,0.00020307
686.65542480,0.00013891
688.58423218,0.00015940
690.51303955,0.00009040
692.44184692,0.00009775
694.37065430,0.00001461
696.29946167,0.00011949
698.22826904,0.00035309
700.15707642,0.00006967
702.08588379,-0.00003794
704.01469116,0.00023182
705.94349854,0.00005150
707.87230591,0.00006509
709.80111328,0.00025949
711.72992065,0.00004942
713.65872803,0.00025380
715.58753540,0.00024929
717.51634277,0.00013769
719.44515015,0.00010979
721.37395752,-0.00007941
723.30276489,0.00015251
725.23157227,0.00016497
727.16037964,0.00012125
729.08918701,0.00001827
731.01799438,-0.00009234
732.94680176,0.00009983
734.87560913,-0.00004701
736.80441650,0.00003001
738.73322388,0.00016251
740.66203125,0.00006467
742.59083862,0.00017858
744.51964600,0.00008068
746.44845337,-0.00000347
748.37726074,0.00016009
750.30606812,0.00021931
752.23487549,0.00025622
754.16368286,0.00027202
756.09249023,0.00005562
758.02129761,0.00007280
759.95010498,0.00016353
761.87891235,0.00009508
763.80771973,0.00026972
765.73652710,0.00015618
767.66533447,0.00003592
769.59414185,0.00014830
771.52294922,0.00015713
773.45175659,0.00025306
775.38056396,0.00028586
777.30937134,0.00013041
779.23817871,-0.00010903
781.16698608,0.00008618
783.09579346,0.00021905
785.02460083,0.00009829
786.95340820,0.00019174
788.88221558,0.00000407
790.81102295,0.00010012
792.73983032,0.00028283
794.66863770,0.00011256
796.59744507,0.00007868
798.52625244,-0.00003030
800.45505981,-0.00006959
802.38386719,0.00011389
804.31267456,0.00032406
806.24148193,0.00025088
808.17028931,0.00005990
810.09909668,0.00010893
812.02790405,0.00007911
813.95671143,0.00008495
815.88551880,0.00012484
817.81432617,0.00009812
819.74313354,0.00013896
821.67194092,-0.00001746
823.60074829,0.00011903
825.52955566,0.00025043
827.45836304,0.00013154
829.38717041,0.00023895
831.31597778,0.00008150
833.24478516,0.00009309
835.17359253,0.00019342
837.10239990,0.00017084
839.03120728,0.00017998
840.96001465,0.00003152
842.88882202,0.00029443
844.81762939,0.00023597
846.74643677,0.00017899
848.67524414,0.00040798
850.60405151,0.00008782
852.53285889,0.00027736
854.46166626,0.00038960
856.39047363,0.00010333
858.31928101,0.00023671
860.24808838,0.00010633
862.17689575,0.00015118
864.10570313,0.00049273
866.03451050,0.00025124
867.96331787,-0.00000319
869.89212524,0.00021262
871.82093262,0.00017136
873.74973999,0.00006419
875.67854736,0.00016757
877.60735474,0.00006287
879.53616211,0.00019591
881.46496948,0.00023993
883.39377686,-0.00011295
885.32258423,0.00003388
887.25139160,0.00035835
889.18019897,0.00027557
891.10900635,0.00020257
893.03781372,0.00018751
894.96662109,0.00009879
896.89542847,0.00006408
898.82423584,0.00017831
900.75304321,0.00028321
902.68185059,0.00025046
904.61065796,0.00024294
906.53946533,0.00010934
908.46827271,0.00011447
910.39708008,0.00030785
912.32588745,0.00018208
914.25469482,0.00011355
916.18350220,0.00025613
918.11230957,0.00013556
920.04111694,-0.00001070
921.96992432,0.00015422
923.89873169,0.00010693
925.82753906,0.00002298
927.75634644,0.00023052
929.68515381,0.00021378
931.61396118,0.00010808
933.54276855,0.00019118
935.47157593,0.00033888
937.40038330,0.00027959
939.32919067,0.00022406
941.25799805,0.00037949
943.18680542,0.00028442
945.11561279,0.00013195
947.04442017,0.00012522
948.97322754,0.00027906
950.90203491,0.00032357
952.83084229,0.00015698
954.75964966,0.00026774
956.68845703,0.00015167
958.61726440,0.00018859
960.54607178,0.00048350
962.47487915,0.00024378
964.40368652,0.00013196
966.33249390,0.00012538
968.26130127,0.00023729
970.19010864,0.00035269
972.11891602,0.00007254
974.04772339,0.00023406
975.97653076,0.00033656
977.90533813,0.00001129
979.83414551,0.00001308
981.76295288,0.00012904
983.69176025,0.00017994
985.62056763,0.00016138
987.54937500,0.00019740
989.47818237,0.00025046
991.40698975,0.00033451
993.33579712,0.00043646
995.26460449,0.00019005
997.19341187,0.00015046
999.12221924,0.00028001
1001.05102661,0.00025258
1002.97983398,0.00029858
1004.90864136,0.00038900
1006.83744873,0.00036093
1008.76625610,0.00013510
1010.69506348,0.00023556
1012.62387085,0.00021938
1014.55267822,0.00006672
1016.48148560,0.00019714
1018.41029297,0.00016296
1020.33910034,0.00014897
1022.26790771,0.00011080
1024.19671509,0.00022449
1026.12552246,0.00026387
1028.05432983,0.00023714
1029.98313721,0.00028934
1031.91194458,0.00017150
1033.84075195,0.00036684
1035.76955933,0.00029569
1037.69836670,0.00031999
1039.62717407,0.00046863
1041.55598145,0.00036122
1043.48478882,0.00056866
1045.41359619,0.00029980
1047.34240356,0.00008591
1049.27121094,0.00026260
1051.20001831,0.00041632
1053.12882568,0.00052407
1055.05763306,0.00028813
1056.98644043,0.00028047
1058.91524780,0.00027205
1060.84405518,0.00021139
1062.77286255,0.00034178
1064.70166992,0.00032949
1066.63047729,0.00027049
1068.55928467,0.00030360
1070.48809204,0.00034384
1072.41689941,0.00028600
1074.34570679,0.00039674
1076.27451416,0.00045344
1078.20332153,0.00024426
1080.13212891,0.00008385
1082.06093628,0.00018257
1083.98974365,0.00024762
1085.91855103,0.00020106
1087.84735840,0.00038415
1089.77616577,0.00023533
1091.70497314,0.00012877
1093.63378052,0.00033306
1095.56258789,0.00029174
1097.49139526,0.00030653
1099.42020264,0.00022768
1101.34901001,0.00023040
1103.27781738,0.00028666
1105.20662476,0.00019163
1107.13543213,0.00020234
1109.06423950,0.00017918
1110.99304687,0.00029248
1112.92185425,0.00028286
1114.85066162,0.00014592
1116.77946899,0.00010473
1118.70827637,0.00011214
1120.63708374,0.00031412
1122.56589111,0.00028181
1124.49469849,0.00017800
1126.42350586,0.00031034
1128.35231323,0.00031340
1130.28112061,0.00025032
1132.20992798,0.00030106
1134.13873535,0.00025267
1136.06754272,0.00015868
1137.99635010,0.00021648
1139.92515747,0.00020160
1141.85396484,0.00016598
1143.78277222,0.00030182
1145.71157959,0.00031747
1147.64038696,0.00014875
1149.56919434,0.00028114
1151.49800171,0.00042773
1153.42680908,0.00030120
1155.35561646,0.00026909
1157.28442383,0.00024982
1159.21323120,0.00032029
1161.14203857,0.00040566
1163.07084595,0.00041574
1164.99965332,0.00050772
1166.92846069,0.00060420
1168.85726807,0.00053169
1170.78607544,0.00028412
1172.71488281,0.00031786
1174.64369019,0.00039377
1176.57249756,0.00034269
1178.50130493,0.00049131
1180.43011230,0.00048909
1182.35891968,0.00040570
1184.28772705,0.00049032
1186.21653442,0.00042838
1188.14534180,0.00030675
1190.07414917,0.00037758
1192.00295654,0.00055245
1193.93176392,0.00065118
1195.86057129,0.00044891
1197.78937866,0.00033110
1199.71818604,0.00047510
1201.64699341,0.00051760
1203.57580078,0.00061136
1205.50460815,0.00060139
1207.43341553,0.00051269
1209.36222290,0.00056968
1211.29103027,0.00056556
1213.21983765,0.00058926
1215.14864502,0.00059351
1217.07745239,0.00068386
1219.00625977,0.00075982
1220.93506714,0.00066528
1222.86387451,0.00073469
1224.79268188,0.00068702
1226.72148926,0.00060924
1228.65029663,0.00063917
1230.57910400,0.00071986
1232.50791138,0.00085786
1234.43671875,0.00066462
1236.36552612,0.00061716
1238.29433350,0.00061434
1240.22314087,0.00062837
1242.15194824,0.00079616
1244.08075562,0.00063754
1246.00956299,0.00075990
1247.93837036,0.00071732
1249.86717773,0.00071495
1251.79598511,0.00087689
1253.72479248,0.00049195
1255.65359985,0.00080224
1257.58240723,0.00098474
1259.51121460,0.00065653
1261.44002197,0.00070066
1263.36882935,0.00059788
1265.29763672,0.00066591
1267.22644409,0.00067079
1269.15525146,0.00058876
1271.08405884,0.00058159
1273.01286621,0.00058709
1274.94167358,0.00063787
1276.87048096,0.00050505
1278.79928833,0.00059078
1280.72809570,0.00061413
1282.65690308,0.00064298
1284.58571045,0.00071808
1286.51451782,0.00055805
1288.44332520,0.00062991
1290.37213257,0.00068859
1292.30093994,0.00060557
1294.22974731,0.00054714
1296.15855469,0.00058401
1298.08736206,0.00067877
1300.01616943,0.00064204
1301.94497681,0.00051873
1303.87378418,0.00050675
1305.80259155,0.00060656
1307.73139893,0.00056627
1309.66020630,0.00064142
1311.58901367,0.00072001
1313.51782104,0.00067524
1315.44662842,0.00068470
1317.37543579,0.00070985
1319.30424316,0.00070767
1321.23305054,0.00055728
1323.16185791,0.00065554
1325.09066528,0.00066182
1327.01947266,0.00062401
1328.94828003,0.00082152
1330.87708740,0.00069798
1332.80589478,0.00072646
1334.73470215,0.00072859
1336.66350952,0.00073449
1338.59231689,0.00073729
1340.52112427,0.00059646
1342.44993164,0.00104385
1344.37873901,0.00100304
1346.30754639,0.00066162
1348.23635376,0.00078554
1350.16516113,0.00071286
1352.09396851,0.00070689
1354.02277588,0.00071812
1355.95158325,0.00082378
1357.88039062,0.00087735
1359.80919800,0.00083660
1361.73800537,0.00094354
1363.66681274,0.00073516
1365.59562012,0.00062447
1367.52442749,0.00067376
1369.45323486,0.00073745
1371.38204224,0.00083871
1373.31084961,0.00070304
1375.23965698,0.00064258
1377.16846436,0.00070830
1379.09727173,0.00085249
1381.02607910,0.00086699
1382.95488647,0.00078135
1384.88369385,0.00079279
1386.81250122,0.00074184
1388.74130859,0.00079966
1390.67011597,0.00082716
1392.59892334,0.00078302
1394.52773071,0.00085165
1396.45653809,0.00083961
1398.38534546,0.00064873
1400.31415283,0.00077469
1402.24296021,0.00095480
1404.17176758,0.00074304
1406.10057495,0.00084464
1408.02938232,0.00082672
1409.95818970,0.00069417
1411.88699707,0.00087756
1413.81580444,0.00090362
1415.74461182,0.00083975
1417.67341919,0.00066925
1419.60222656,0.00083076
1421.53103394,0.00092939
1423.45984131,0.00070218
1425.38864868,0.00072908
1427.31745605,0.00072166
1429.24626343,0.00082149
1431.17507080,0.00075416
1433.10387817,0.00065981
1435.03268555,0.00072873
1436.96149292,0.00065535
1438.89030029,0.00071012
1440.81910767,0.00059313
1442.74791504,0.00059076
1444.67672241,0.00075212
1446.60552979,0.00072556
1448.53433716,0.00068833
1450.46314453,0.00059562
1452.39195190,0.00065557
1454.32075928,0.00071384
1456.24956665,0.00059249
1458.17837402,0.00061397
1460.10718140,0.00077466
1462.03598877,0.00085679
1463.96479614,0.00086951
1465.89360352,0.00080278
1467.82241089,0.00077313
1469.75121826,0.00090874
1471.68002563,0.00097493
1473.60883301,0.00084208
1475.53764038,0.00083008
1477.46644775,0.00111621
1479.39525513,0.00111783
1481.32406250,0.00107909
1483.25286987,0.00119690
1485.18167725,0.00113749
1487.11048462,0.00113940
1489.03929199,0.00107337
1490.96809937,0.00125634
1492.89690674,0.00136548
1494.82571411,0.00117667
1496.75452148,0.00123007
1498.68332886,0.00134326
1500.61213623,0.00142443
1502.54094360,0.00136160
1504.46975098,0.00126245
1506.39855835,0.00107288
1508.32736572,0.00130657
1510.25617310,0.00152499
1512.18498047,0.00133220
1514.11378784,0.00166267
1516.04259521,0.00148196
1517.97140259,0.00128196
1519.90020996,0.00137024
1521.82901733,0.00122390
1523.75782471,0.00147662
1525.68663208,0.00141758
1527.61543945,0.00145866
1529.54424683,0.00161508
1531.47305420,0.00153433
1533.40186157,0.00145651
1535.33066895,0.00151955
1537.25947632,0.00164168
1539.18828369,0.00112924
1541.11709106,0.00110988
1543.04589844,0.00139862
1544.97470581,0.00138726
1546.90351318,0.00169778
1548.83232056,0.00170921
1550.76112793,0.00149988
1552.68993530,0.00139195
1554.61874268,0.00140460
1556.54755005,0.00142520
1558.47635742,0.00122424
1560.40516479,0.00127406
1562.33397217,0.00165140
1564.26277954,0.00159881
1566.19158691,0.00156503
1568.12039429,0.00165272
1570.04920166,0.00146875
1571.97800903,0.00178229
1573.90681641,0.00165583
1575.83562378,0.00135048
1577.76443115,0.00153075
1579.69323853,0.00166563
1581.62204590,0.00189852
1583.55085327,0.00159404
1585.47966064,0.00160358
1587.40846802,0.00159900
1589.33727539,0.00147029
1591.26608276,0.00177514
1593.19489014,0.00157035
1595.12369751,0.00169224
1597.05250488,0.00167343
1598.98131226,0.00174605
1600.91011963,0.00190538
1602.83892700,0.00148774
1604.76773437,0.00163158
1606.69654175,0.00166371
1608.62534912,0.00168038
1610.55415649,0.00170670
1612.48296387,0.00173285
1614.41177124,0.00183806
1616.34057861,0.00152239
1618.26938599,0.00167482
1620.19819336,0.00179538
1622.12700073,0.00171618
1624.05580811,0.00176030
1625.98461548,0.00181120
1627.91342285,0.00178576
1629.84223022,0.00178300
1631.77103760,0.00204627
1633.69984497,0.00174578
1635.62865234,0.00160925
1637.55745972,0.00183927
1639.48626709,0.00192702
1641.41507446,0.00205144
1643.34388184,0.00193936
1645.27268921,0.00182491
1647.20149658,0.00163393
1649.13030396,0.00194313
1651.05911133,0.00185241
1652.98791870,0.00132257
1654.91672607,0.00188700
1656.84553345,0.00204195
1658.77434082,0.00201403
1660.70314819,0.00209961
1662.63195557,0.00178294
1664.56076294,0.00199136
1666.48957031,0.00202962
1668.41837769,0.00186627
1670.34718506,0.00186399
1672.27599243,0.00191398
1674.20479980,0.00197691
1676.13360718,0.00194791
1678.06241455,0.00205041
1679.99122192,0.00197460
1681.92002930,0.00196664
1683.84883667,0.00172563
1685.77764404,0.00172694
1687.70645142,0.00225852
1689.63525879,0.00202727
1691.56406616,0.00218724
1693.49287354,0.00206666
1695.42168091,0.00151832
1697.35048828,0.00200060
1699.27929565,0.00161124
1701.20810303,0.00157888
1703.13691040,0.00226721
1705.06571777,0.00189603
1706.99452515,0.00190890
1708.92333252,0.00207612
1710.85213989,0.00206769
1712.78094727,0.00199943
1714.70975464,0.00176607
1716.63856201,0.00181162
1718.56736938,0.00173121
1720.49617676,0.00190617
1722.42498413,0.00199393
1724.35379150,0.00189338
1726.28259888,0.00198392
1728.21140625,0.00189841
1730.14021362,0.00200445
1732.06902100,0.00176597
1733.99782837,0.00146666
1735.92663574,0.00180316
1737.85544312,0.00186709
1739.78425049,0.00174858
1741.71305786,0.00177069
1743.64186523,0.00180730
1745.57067261,0.00192240
1747.49947998,0.00192217
1749.42828735,0.00178706
1751.35709473,0.00178943
1753.28590210,0.00200777
1755.21470947,0.00201906
1757.14351685,0.00191976
1759.07232422,0.00200351
1761.00113159,0.00186977
1762.92993896,0.00181163
1764.85874634,0.00199452
1766.78755371,0.00199047
1768.71636108,0.00195200
1770.64516846,0.00179812
1772.57397583,0.00169488
1774.50278320,0.00182235
1776.43159058,0.00185251
1778.36039795,0.00188351
1780.28920532,0.00187840
1782.21801270,0.00182881
1784.14682007,0.00176820
1786.07562744,0.00183937
1788.00443481,0.00210963
1789.93324219,0.00195712
1791.86204956,0.00176007
1793.79085693,0.00190039
1795.71966431,0.00190470
1797.64847168,0.00191851
1799.57727905,0.00186389
1801.50608643,0.00180017
1803.43489380,0.00195801
1805.36370117,0.00196854
1807.29250854,0.00189616
1809.22131592,0.00196503
1811.15012329,0.00198702
1813.07893066,0.00189989
1815.00773804,0.00196633
1816.93654541,0.00211467
1818.86535278,0.00203282
1820.79416016,0.00199978
1822.72296753,0.00206461
1824.65177490,0.00207059
1826.58058228,0.00207694
1828.50938965,0.00191498
1830.43819702,0.00188410
1832.36700439,0.00196855
1834.29581177,0.00196383
1836.22461914,0.00211990
1838.15342651,0.00205369
1840.08223389,0.00198355
1842.01104126,0.00197360
1843.93984863,0.00172105
1845.86865601,0.00188506
1847.79746338,0.00203985
1849.72627075,0.00197458
1851.65507812,0.00200536
1853.58388550,0.00185209
1855.51269287,0.00191815
1857.44150024,0.00198379
1859.37030762,0.00191772
1861.29911499,0.00197980
1863.22792236,0.00194660
1865.15672974,0.00198703
1867.08553711,0.00198529
1869.01434448,0.00192594
1870.94315186,0.00194051
1872.87195923,0.00197003
1874.80076660,0.00199200
1876.72957397,0.00193717
1878.65838135,0.00197166
1880.58718872,0.00207498
1882.51599609,0.00207991
1884.44480347,0.00191630
1886.37361084,0.00195569
1888.30241821,0.00213567
1890.23122559,0.00198963
1892.16003296,0.00196473
1894.08884033,0.00198785
1896.01764771,0.00192432
1897.94645508,0.00200641
1899.87526245,0.00196689
1901.80406982,0.00202344
1903.73287720,0.00214504
1905.66168457,0.00205438
1907.59049194,0.00203135
1909.51929932,0.00203300
1911.44810669,0.00193578
1913.37691406,0.00194040
1915.30572144,0.00199154
1917.23452881,0.00190590
1919.16333618,0.00188688
1921.09214355,0.00202130
1923.02095093,0.00193077
1924.94975830,0.00183498
1926.87856567,0.00201970
1928.80737305,0.00200532
1930.73618042,0.00198071
1932.66498779,0.00211975
1934.59379517,0.00208420
1936.52260254,0.00205033
1938.45140991,0.00202522
1940.38021729,0.00192246
1942.30902466,0.00189223
1944.23783203,0.00199775
1946.16663940,0.00197079
1948.09544678,0.00188504
1950.02425415,0.00196730
1951.95306152,0.00194710
1953.88186890,0.00202185
1955.81067627,0.00210671
1957.73948364,0.00198866
1959.66829102,0.00190141
1961.59709839,0.00195854
1963.52590576,0.00207332
1965.45471313,0.00195739
1967.38352051,0.00185808
1969.31232788,0.00182021
1971.24113525,0.00188738
1973.16994263,0.00202580
1975.09875000,0.00197753
1977.02755737,0.00202104
1978.95636475,0.00190408
1980.88517212,0.00191911
1982.81397949,0.00210796
1984.74278687,0.00190518
1986.67159424,0.00189533
1988.60040161,0.00208067
1990.52920898,0.00197454
1992.45801636,0.00183645
1994.38682373,0.00191538
1996.31563110,0.00193801
1998.24443848,0.00189919
2000.17324585,0.00188289
2002.10205322,0.00190103
2004.03086060,0.00201231
2005.95966797,0.00188005
2007.88847534,0.00190563
2009.81728271,0.00201852
2011.74609009,0.00185935
2013.67489746,0.00192822
2015.60370483,0.00200909
2017.53251221,0.00195140
2019.46131958,0.00201501
2021.39012695,0.00207056
2023.31893433,0.00185791
2025.24774170,0.00184837
2027.17654907,0.00203480
2029.10535645,0.00193601
2031.03416382,0.00202805
2032.96297119,0.00195690
2034.89177856,0.00182612
2036.82058594,0.00200031
2038.74939331,0.00194686
2040.67820068,0.00196258
2042.60700806,0.00199096
2044.53581543,0.00193870
2046.46462280,0.00191331
2048.39343018,0.00188139
2050.32223755,0.00196990
2052.25104492,0.00194512
2054.17985229,0.00196776
2056.10865967,0.00194635
2058.03746704,0.00183809
2059.96627441,0.00198568
2061.89508179,0.00202207
2063.82388916,0.00196361
2065.75269653,0.00197129
2067.68150391,0.00185489
2069.61031128,0.00179757
2071.53911865,0.00184246
2073.46792603,0.00191714
2075.39673340,0.00191449
2077.32554077,0.00185281
2079.25434814,0.00189608
2081.18315552,0.00186646
2083.11196289,0.00190196
2085.04077026,0.00197512
2086.96957764,0.00185055
2088.89838501,0.00183336
2090.82719238,0.00195738
2092.75599976,0.00199704
2094.68480713,0.00188471
2096.61361450,0.00183944
2098.54242187,0.00193629
2100.47122925,0.00201540
2102.40003662,0.00195959
2104.32884399,0.00182368
2106.25765137,0.00194021
2108.18645874,0.00197087
2110.11526611,0.00188350
2112.04407349,0.00192409
2113.97288086,0.00193772
2115.90168823,0.00203804
2117.83049561,0.00194099
2119.75930298,0.00185602
2121.68811035,0.00192618
2123.61691772,0.00186981
2125.54572510,0.00182778
2127.47453247,0.00184347
2129.40333984,0.00197852
2131.33214722,0.00183319
2133.26095459,0.00177337
2135.18976196,0.00193535
2137.11856934,0.00183297
2139.04737671,0.00196838
2140.97618408,0.00192419
2142.90499146,0.00182084
2144.83379883,0.00195843
2146.76260620,0.00188012
2148.69141357,0.00194270
2150.62022095,0.00195907
2152.54902832,0.00196726
2154.47783569,0.00192380
2156.40664307,0.00182345
2158.33545044,0.00196419
2160.26425781,0.00188859
2162.19306519,0.00191134
2164.12187256,0.00194599
2166.05067993,0.00186237
2167.97948730,0.00194932
2169.90829468,0.00188167
2171.83710205,0.00184471
2173.76590942,0.00180688
2175.69471680,0.00179655
2177.62352417,0.00178065
2179.55233154,0.00175124
2181.48113892,0.00185455
2183.40994629,0.00177834
2185.33875366,0.00195901
2187.26756104,0.00203826
2189.19636841,0.00185388
2191.12517578,0.00198287
2193.05398315,0.00188008
2194.98279053,0.00185194
2196.91159790,0.00197128
2198.84040527,0.00188348
2200.76921265,0.00190118
2202.69802002,0.00177246
2204.62682739,0.00168596
2206.55563477,0.00185426
2208.48444214,0.00185113
2210.41324951,0.00179665
2212.34205688,0.00191962
2214.27086426,0.00194539
2216.19967163,0.00190059
2218.12847900,0.00191070
2220.05728638,0.00186701
2221.98609375,0.00183818
2223.91490112,0.00182437
2225.84370850,0.00192473
2227.77251587,0.00194030
2229.70132324,0.00186730
2231.63013062,0.00196958
2233.55893799,0.00193694
2235.48774536,0.00193296
2237.41655273,0.00191146
2239.34536011,0.00179234
2241.27416748,0.00186948
2243.20297485,0.00181468
2245.13178223,0.00175463
2247.06058960,0.00183986
2248.98939697,0.00185414
2250.91820435,0.00181760
2252.84701172,0.00175849
2254.77581909,0.00180693
2256.70462646,0.00186213
2258.63343384,0.00185291
2260.56224121,0.00183246
2262.49104858,0.00177273
2264.41985596,0.00177049
2266.34866333,0.00178188
2268.27747070,0.00182328
2270.20627808,0.00189576
2272.13508545,0.00184675
2274.06389282,0.00183674
2275.99270020,0.00186206
2277.92150757,0.00179382
2279.85031494,0.00179451
2281.77912231,0.00180389
2283.70792969,0.00179173
2285.63673706,0.00178132
2287.56554443,0.00178976
2289.49435181,0.00189956
2291.42315918,0.00189266
2293.35196655,0.00182381
2295.28077393,0.00178052
2297.20958130,0.00174822
2299.13838867,0.00188806
2301.06719604,0.00187855
2302.99600342,0.00167211
2304.92481079,0.00172019
2306.85361816,0.00186621
2308.78242554,0.00179554
2310.71123291,0.00169679
2312.64004028,0.00170242
2314.56884766,0.00174824
2316.49765503,0.00177331
2318.42646240,0.00168659
2320.35526978,0.00160375
2322.28407715,0.00164311
2324.21288452,0.00166788
2326.14169189,0.00159589
2328.07049927,0.00162298
2329.99930664,0.00164975
2331.92811401,0.00152238
2333.85692139,0.00154465
2335.78572876,0.00159552
2337.71453613,0.00158456
2339.64334351,0.00162762
2341.57215088,0.00161985
2343.50095825,0.00159760
2345.42976562,0.00160291
2347.35857300,0.00169822
2349.28738037,0.00169055
2351.21618774,0.00169013
2353.14499512,0.00169913
2355.07380249,0.00151333
2357.00260986,0.00156343
2358.93141724,0.00158451
2360.86022461,0.00151917
2362.78903198,0.00150661
2364.71783936,0.00143367
2366.64664673,0.00162683
2368.57545410,0.00164046
2370.50426147,0.00161604
2372.43306885,0.00172335
2374.36187622,0.00162390
2376.29068359,0.00169885
2378.21949097,0.00168733
2380.14829834,0.00170742
2382.07710571,0.00183466
2384.00591309,0.00169563
2385.93472046,0.00176180
2387.86352783,0.00188461
2389.79233521,0.00183862
2391.72114258,0.00179588
2393.64994995,0.00180777
2395.57875732,0.00187101
2397.50756470,0.00175373
2399.43637207,0.00177069
2401.36517944,0.00185367
2403.29398682,0.00173231
2405.22279419,0.00175359
2407.15160156,0.00180792
2409.08040894,0.00178990
2411.00921631,0.00175332
2412.93802368,0.00180440
2414.86683105,0.00185389
2416.79563843,0.00175314
2418.72444580,0.00181739
2420.65325317,0.00179839
2422.58206055,0.00170733
2424.51086792,0.00180604
2426.43967529,0.00179724
2428.36848267,0.00174475
2430.29729004,0.00175076
2432.22609741,0.00174534
2434.15490479,0.00170097
2436.08371216,0.00170076
2438.01251953,0.00174990
2439.94132690,0.00184428
2441.87013428,0.00181904
2443.79894165,0.00161598
2445.72774902,0.00168230
2447.65655640,0.00171246
2449.58536377,0.00166187
2451.51417114,0.00177356
2453.44297852,0.00179830
2455.37178589,0.00176680
2457.30059326,0.00168799
2459.22940063,0.00179053
2461.15820801,0.00181002
2463.08701538,0.00167822
2465.01582275,0.00175138
2466.94463013,0.00180254
2468.87343750,0.00171284
2470.80224487,0.00157996
2472.73105225,0.00171326
2474.65985962,0.00176899
2476.58866699,0.00172483
2478.51747437,0.00179884
2480.44628174,0.00175710
2482.37508911,0.00176253
2484.30389648,0.00160591
2486.23270386,0.00161487
2488.16151123,0.00176270
2490.09031860,0.00171261
2492.01912598,0.00167123
2493.94793335,0.00168003
2495.87674072,0.00187017
2497.80554810,0.00177360
2499.73435547,0.00169513
2501.66316284,0.00177253
2503.59197021,0.00168563
2505.52077759,0.00173038
2507.44958496,0.00167181
2509.37839233,0.00162131
2511.30719971,0.00163584
2513.23600708,0.00169582
2515.16481445,0.00166263
2517.09362183,0.00163493
2519.02242920,0.00179519
2520.95123657,0.00173702
2522.88004395,0.00169588
2524.80885132,0.00166544
2526.73765869,0.00171975
2528.66646606,0.00173048
2530.59527344,0.00157792
2532.52408081,0.00162537
2534.45288818,0.00169466
2536.38169556,0.00169116
2538.31050293,0.00152919
2540.23931030,0.00166252
2542.16811768,0.00179004
2544.09692505,0.00163853
2546.02573242,0.00167305
2547.95453979,0.00158020
2549.88334717,0.00161080
2551.81215454,0.00167027
2553.74096191,0.00167111
2555.66976929,0.00168673
2557.59857666,0.00164454
2559.52738403,0.00168564
2561.45619141,0.00165366
2563.38499878,0.00169159
2565.31380615,0.00167754
2567.24261353,0.00172527
2569.17142090,0.00163497
2571.10022827,0.00158940
2573.02903564,0.00179480
2574.95784302,0.00162302
2576.88665039,0.00159029
2578.81545776,0.00162750
2580.74426514,0.00167143
2582.67307251,0.00173917
2584.60187988,0.00165931
2586.53068726,0.00166091
2588.45949463,0.00159014
2590.38830200,0.00176699
2592.31710937,0.00166349
2594.24591675,0.00153852
2596.17472412,0.00173907
2598.10353149,0.00167866
2600.03233887,0.00172591
2601.96114624,0.00157218
2603.88995361,0.00157101
2605.81876099,0.00172311
2607.74756836,0.00160385
2609.67637573,0.00173057
2611.60518311,0.00162737
2613.53399048,0.00152484
2615.46279785,0.00170062
2617.39160522,0.00162454
2619.32041260,0.00160629
2621.24921997,0.00167245
2623.17802734,0.00160852
2625.10683472,0.00160795
2627.03564209,0.00161603
2628.96444946,0.00166459
2630.89325684,0.00165659
2632.82206421,0.00150759
2634.75087158,0.00151924
2636.67967895,0.00160075
2638.60848633,0.00167471
2640.53729370,0.00161734
2642.46610107,0.00160391
2644.39490845,0.00169111
2646.32371582,0.00161024
2648.25252319,0.00171326
2650.18133057,0.00166343
2652.11013794,0.00158446
2654.03894531,0.00168484
2655.96775269,0.00151967
2657.89656006,0.00155848
2659.82536743,0.00166825
2661.75417480,0.00154666
2663.68298218,0.00149890
2665.61178955,0.00163856
2667.54059692,0.00164248
2669.46940430,0.00143857
2671.39821167,0.00153615
2673.32701904,0.00162554
2675.25582642,0.00154065
2677.18463379,0.00160152
2679.11344116,0.00161181
2681.04224854,0.00151668
2682.97105591,0.00149388
2684.89986328,0.00155828
2686.82867065,0.00156399
2688.75747803,0.00143463
2690.68628540,0.00143449
2692.61509277,0.00157504
2694.54390015,0.00148652
2696.47270752,0.00145804
2698.40151489,0.00155841
2700.33032227,0.00155640
2702.25912964,0.00159828
2704.18793701,0.00156441
2706.11674438,0.00149202
2708.04555176,0.00145407
2709.97435913,0.00156789
2711.90316650,0.00165640
2713.83197388,0.00150084
2715.76078125,0.00150439
2717.68958862,0.00159524
2719.61839600,0.00157101
2721.54720337,0.00154923
2723.47601074,0.00156621
2725.40481812,0.00148586
2727.33362549,0.00148892
2729.26243286,0.00154083
2731.19124023,0.00139171
2733.12004761,0.00150186
2735.04885498,0.00159785
2736.97766235,0.00149116
2738.90646973,0.00151697
2740.83527710,0.00147765
2742.76408447,0.00149190
2744.69289185,0.00154550
2746.62169922,0.00149483
2748.55050659,0.00150382
2750.47931396,0.00158510
2752.40812134,0.00153536
2754.33692871,0.00146130
2756.26573608,0.00148253
2758.19454346,0.00144666
2760.12335083,0.00142707
2762.05215820,0.00148333
2763.98096558,0.00154129
2765.90977295,0.00148252
2767.83858032,0.00156438
2769.76738770,0.00163976
2771.69619507,0.00150845
2773.62500244,0.00150814
2775.55380981,0.00141495
2777.48261719,0.00145851
2779.41142456,0.00156866
2781.34023193,0.00152155
2783.26903931,0.00154473
2785.19784668,0.00142270
2787.12665405,0.00143894
2789.05546143,0.00145314
2790.98426880,0.00143090
2792.91307617,0.00153408
2794.84188354,0.00151518
2796.77069092,0.00156108
2798.69949829,0.00150151
2800.62830566,0.00147982
2802.55711304,0.00148486
2804.48592041,0.00140768
2806.41472778,0.00150873
2808.34353516,0.00149624
2810.27234253,0.00149963
2812.20114990,0.00151966
2814.12995728,0.00141163
2816.05876465,0.00139593
2817.98757202,0.00142389
2819.91637939,0.00140532
2821.84518677,0.00140688
2823.77399414,0.00148252
2825.70280151,0.00145214
2827.63160889,0.00143634
2829.56041626,0.00138157
2831.48922363,0.00136022
2833.41803101,0.00149042
2835.34683838,0.00137035
2837.27564575,0.00139459
2839.20445312,0.00141305
2841.13326050,0.00138597
2843.06206787,0.00150882
2844.99087524,0.00129496
2846.91968262,0.00139625
2848.84848999,0.00144213
2850.77729736,0.00126187
2852.70610474,0.00141121
2854.63491211,0.00131977
2856.56371948,0.00140634
2858.49252686,0.00142538
2860.42133423,0.00123873
2862.35014160,0.00133029
2864.27894897,0.00132918
2866.20775635,0.00139648
2868.13656372,0.00137725
2870.06537109,0.00137660
2871.99417847,0.00147024
2873.92298584,0.00137967
2875.85179321,0.00131784
2877.78060059,0.00133484
2879.70940796,0.00142312
2881.63821533,0.00134681
2883.56702270,0.00137166
2885.49583008,0.00136430
2887.42463745,0.00122832
2889.35344482,0.00145255
2891.28225220,0.00145141
2893.21105957,0.00131216
2895.13986694,0.00132343
2897.06867432,0.00135518
2898.99748169,0.00142862
2900.92628906,0.00133840
2902.85509644,0.00129368
2904.78390381,0.00130642
2906.71271118,0.00136707
2908.64151855,0.00137295
2910.57032593,0.00134843
2912.49913330,0.00136781
2914.42794067,0.00123713
2916.35674805,0.00131659
2918.28555542,0.00134856
2920.21436279,0.00127247
2922.14317017,0.00131846
2924.07197754,0.00125503
2926.00078491,0.00134465
2927.92959229,0.00129677
2929.85839966,0.00119509
2931.78720703,0.00134085
2933.71601440,0.00127240
2935.64482178,0.00121473
2937.57362915,0.00125782
2939.50243652,0.00133751
2941.43124390,0.00137174
2943.36005127,0.00117745
2945.28885864,0.00124016
2947.21766602,0.00131341
2949.14647339,0.00123152
2951.07528076,0.00130354
2953.00408813,0.00121448
2954.93289551,0.00125910
2956.86170288,0.00139512
2958.79051025,0.00129529
2960.71931763,0.00128139
2962.64812500,0.00126779
2964.57693237,0.00127073
2966.50573975,0.00130392
2968.43454712,0.00126213
2970.36335449,0.00121244
2972.29216187,0.00122298
2974.22096924,0.00131365
2976.14977661,0.00128504
2978.07858398,0.00129604
2980.00739136,0.00126087
2981.93619873,0.00117904
2983.86500610,0.00128962
2985.79381348,0.00122658
2987.72262085,0.00128689
2989.65142822,0.00139908
2991.58023560,0.00120566
2993.50904297,0.00121166
2995.43785034,0.00126323
2997.36665771,0.00125927
2999.29546509,0.00119248
3001.22427246,0.00111433
3003.15307983,0.00130448
3005.08188721,0.00127012
3007.01069458,0.00119533
3008.93950195,0.00124653
3010.86830933,0.00113843
3012.79711670,0.00124724
3014.72592407,0.00128931
3016.65473145,0.00118666
3018.58353882,0.00131287
3020.51234619,0.00129046
3022.44115356,0.00118454
3024.36996094,0.00131613
3026.29876831,0.00127986
3028.22757568,0.00111495
3030.15638306,0.00120906
3032.08519043,0.00123014
3034.01399780,0.00121042
3035.94280518,0.00127394
3037.87161255,0.00117537
3039.80041992,0.00119819
3041.72922729,0.00126576
3043.65803467,0.00116493
3045.58684204,0.00119442
3047.51564941,0.00126919
3049.44445679,0.00120555
3051.37326416,0.00121776
3053.30207153,0.00127650
3055.23087891,0.00121939
3057.15968628,0.00121376
3059.08849365,0.00123095
3061.01730103,0.00121414
3062.94610840,0.00119158
3064.87491577,0.00113574
3066.80372314,0.00115888
3068.73253052,0.00119504
3070.66133789,0.00119021
3072.59014526,0.00118613
3074.51895264,0.00118387
3076.44776001,0.00112844
3078.37656738,0.00111428
3080.30537476,0.00119553
3082.23418213,0.00112948
3084.16298950,0.00111653
3086.09179687,0.00114304
3088.02060425,0.00112298
3089.94941162,0.00124416
3091.87821899,0.00118493
3093.80702637,0.00109156
3095.73583374,0.00117469
3097.66464111,0.00117452
3099.59344849,0.00108309
3101.52225586,0.00113318
3103.45106323,0.00125830
3105.37987061,0.00115698
3107.30867798,0.00120313
3109.23748535,0.00122895
3111.16629272,0.00106620
3113.09510010,0.00117233
3115.02390747,0.00119584
3116.95271484,0.00111951
3118.88152222,0.00105918
3120.81032959,0.00109128
3122.73913696,0.00118346
3124.66794434,0.00108019
3126.59675171,0.00112205
3128.52555908,0.00113874
3130.45436645,0.00108718
3132.38317383,0.00104625
3134.31198120,0.00111920
3136.24078857,0.00126916
3138.16959595,0.00108912
3140.09840332,0.00107659
3142.02721069,0.00104783
3143.95601807,0.00110650
3145.88482544,0.00124664
3147.81363281,0.00103507
3149.74244019,0.00115464
3151.67124756,0.00112646
3153.60005493,0.00113608
3155.52886230,0.00128056
3157.45766968,0.00107563
3159.38647705,0.00114957
3161.31528442,0.00110986
3163.24409180,0.00107035
3165.17289917,0.00110087
3167.10170654,0.00103409
3169.03051392,0.00113896
3170.95932129,0.00108094
3172.88812866,0.00105103
3174.81693604,0.00115149
3176.74574341,0.00125687
3178.67455078,0.00112989
3180.60335815,0.00104313
3182.53216553,0.00113936
3184.46097290,0.00104901
3186.38978027,0.00114636
3188.31858765,0.00114800
3190.24739502,0.00113217
3192.17620239,0.00120931
3194.10500977,0.00103399
3196.03381714,0.00105059
3197.96262451,0.00112395
3199.89143188,0.00109239
3201.82023926,0.00106544
3203.74904663,0.00108955
3205.67785400,0.00113810
3207.60666138,0.00107008
3209.53546875,0.00107386
3211.46427612,0.00112328
3213.39308350,0.00113442
3215.32189087,0.00115459
3217.25069824,0.00110705
3219.17950562,0.00107710
3221.10831299,0.00117276
3223.03712036,0.00109400
3224.96592773,0.00108636
3226.89473511,0.00124882
3228.82354248,0.00108265
3230.75234985,0.00110353
3232.68115723,0.00123348
3234.60996460,0.00110117
3236.53877197,0.00109023
3238.46757935,0.00115793
3240.39638672,0.00122975
3242.32519409,0.00116749
3244.25400146,0.00110645
3246.18280884,0.00113742
3248.11161621,0.00113746
3250.04042358,0.00120313
3251.96923096,0.00119770
3253.89803833,0.00118333
3255.82684570,0.00117172
3257.75565308,0.00118342
3259.68446045,0.00129536
3261.61326782,0.00124378
3263.54207520,0.00118868
3265.47088257,0.00119242
3267.39968994,0.00110661
3269.32849731,0.00120509
3271.25730469,0.00122484
3273.18611206,0.00113185
3275.11491943,0.00120331
3277.04372681,0.00115247
3278.97253418,0.00119482
3280.90134155,0.00119712
3282.83014893,0.00110244
3284.75895630,0.00121664
3286.68776367,0.00123555
3288.61657104,0.00126853
3290.54537842,0.00120842
3292.47418579,0.00119845
3294.40299316,0.00129562
3296.33180054,0.00117724
3298.26060791,0.00126252
3300.18941528,0.00127043
3302.11822266,0.00120523
3304.04703003,0.00128096
3305.97583740,0.00122684
3307.90464478,0.00132964
3309.83345215,0.00134836
3311.76225952,0.00122361
3313.69106689,0.00131447
3315.61987427,0.00133141
3317.54868164,0.00126549
3319.47748901,0.00132428
3321.40629639,0.00126858
3323.33510376,0.00121792
3325.26391113,0.00125648
3327.19271851,0.00116824
3329.12152588,0.00122701
3331.05033325,0.00130093
3332.97914062,0.00124666
3334.90794800,0.00124554
3336.83675537,0.00122440
3338.76556274,0.00129145
3340.69437012,0.00132571
3342.62317749,0.00126750
3344.55198486,0.00127532
3346.48079224,0.00130149
3348.40959961,0.00125461
3350.33840698,0.00120011
3352.26721436,0.00128595
3354.19602173,0.00134320
3356.12482910,0.00135932
3358.05363647,0.00137982
3359.98244385,0.00130508
3361.91125122,0.00125892
3363.84005859,0.00127360
3365.76886597,0.00129789
3367.69767334,0.00126643
3369.62648071,0.00126549
3371.55528809,0.00138350
3373.48409546,0.00138277
3375.41290283,0.00132320
3377.34171020,0.00137715
3379.27051758,0.00133292
3381.19932495,0.00126483
3383.12813232,0.00134681
3385.05693970,0.00135268
3386.98574707,0.00134176
3388.91455444,0.00137968
3390.84336182,0.00131174
3392.77216919,0.00134606
3394.70097656,0.00138950
3396.62978394,0.00134971
3398.55859131,0.00139509
3400.48739868,0.00132713
3402.41620605,0.00132584
3404.34501343,0.00139396
3406.27382080,0.00134398
3408.20262817,0.00140307
3410.13143555,0.00139658
3412.06024292,0.00140493
3413.98905029,0.00145153
3415.91785767,0.00139013
3417.84666504,0.00142492
3419.77547241,0.00138261
3421.70427979,0.00137737
3423.63308716,0.00138218
3425.56189453,0.00125858
3427.49070190,0.00138331
3429.41950928,0.00147377
3431.34831665,0.00139259
3433.27712402,0.00144190
3435.20593140,0.00145230
3437.13473877,0.00140018
3439.06354614,0.00136685
3440.99235352,0.00136762
3442.92116089,0.00142883
3444.84996826,0.00139807
3446.77877563,0.00140195
3448.70758301,0.00148190
3450.63639038,0.00147197
3452.56519775,0.00145767
3454.49400513,0.00143921
3456.42281250,0.00141322
3458.35161987,0.00136512
3460.28042725,0.00141342
3462.20923462,0.00143174
3464.13804199,0.00136553
3466.06684937,0.00148892
3467.99565674,0.00139901
3469.92446411,0.00134643
3471.85327148,0.00149166
3473.78207886,0.00141637
3475.71088623,0.00139691
3477.63969360,0.00135279
3479.56850098,0.00139098
3481.49730835,0.00146373
3483.42611572,0.00137048
3485.35492310,0.00141182
3487.28373047,0.00145621
3489.21253784,0.00138554
3491.14134521,0.00134393
3493.07015259,0.00141951
3494.99895996,0.00139521
3496.92776733,0.00141819
3498.85657471,0.00148283
3500.78538208,0.00137468
3502.71418945,0.00143514
3504.64299683,0.00144357
3506.57180420,0.00143763
3508.50061157,0.00141528
3510.42941895,0.00138389
3512.35822632,0.00153247
3514.28703369,0.00139526
3516.21584106,0.00132942
3518.14464844,0.00139960
3520.07345581,0.00140738
3522.00226318,0.00143937
3523.93107056,0.00139048
3525.85987793,0.00146186
3527.78868530,0.00136548
3529.71749268,0.00132450
3531.64630005,0.00142151
3533.57510742,0.00141885
3535.50391479,0.00148713
3537.43272217,0.00137910
3539.36152954,0.00140771
3541.29033691,0.00142772
3543.21914429,0.00129095
3545.14795166,0.00135345
3547.07675903,0.00138415
3549.00556641,0.00146402
3550.93437378,0.00139740
3552.86318115,0.00132922
3554.79198853,0.00143947
3556.72079590,0.00136007
3558.64960327,0.00135583
3560.57841064,0.00139645
3562.50721802,0.00141590
3564.43602539,0.00139985
3566.36483276,0.00125093
3568.29364014,0.00122189
3570.22244751,0.00130780
3572.15125488,0.00139748
3574.08006226,0.00136537
3576.00886963,0.00130830
3577.93767700,0.00138894
3579.86648437,0.00141124
3581.79529175,0.00134434
3583.72409912,0.00140232
3585.65290649,0.00133722
3587.58171387,0.00115054
3589.51052124,0.00128803
3591.43932861,0.00137404
3593.36813599,0.00132486
3595.29694336,0.00130689
3597.22575073,0.00129583
3599.15455811,0.00135625
3601.08336548,0.00131973
3603.01217285,0.00136499
3604.94098022,0.00136225
3606.86978760,0.00133203
3608.79859497,0.00125170
3610.72740234,0.00116607
3612.65620972,0.00131449
3614.58501709,0.00130147
3616.51382446,0.00132988
3618.44263184,0.00124256
3620.37143921,0.00125798
3622.30024658,0.00134561
3624.22905395,0.00122520
3626.15786133,0.00140085
3628.08666870,0.00105658
3630.01547607,0.00097738
3631.94428345,0.00133475
3633.87309082,0.00119523
3635.80189819,0.00132217
3637.73070557,0.00128126
3639.65951294,0.00119731
3641.58832031,0.00129841
3643.51712769,0.00130776
3645.44593506,0.00122974
3647.37474243,0.00113430
3649.30354980,0.00117333
3651.23235718,0.00104335
3653.16116455,0.00128390
3655.08997192,0.00127544
3657.01877930,0.00106033
3658.94758667,0.00130849
3660.87639404,0.00126242
3662.80520142,0.00126829
3664.73400879,0.00123232
3666.66281616,0.00130655
3668.59162354,0.00127361
3670.52043091,0.00097859
3672.44923828,0.00123066
3674.37804565,0.00121180
3676.30685303,0.00107810
3678.23566040,0.00120191
3680.16446777,0.00118721
3682.09327515,0.00117175
3684.02208252,0.00122406
3685.95088989,0.00129947
3687.87969727,0.00110884
3689.80850464,0.00106140
3691.73731201,0.00117907
3693.66611938,0.00116492
3695.59492676,0.00119112
3697.52373413,0.00120288
3699.45254150,0.00122731
3701.38134888,0.00115181
3703.31015625,0.00116620
3705.23896362,0.00123103
3707.16777100,0.00112260
3709.09657837,0.00109633
3711.02538574,0.00103877
3712.95419312,0.00101692
3714.88300049,0.00118934
3716.81180786,0.00121173
3718.74061523,0.00115490
3720.66942261,0.00117630
3722.59822998,0.00106788
3724.52703735,0.00103676
3726.45584473,0.00108731
3728.38465210,0.00107349
3730.31345947,0.00111464
3732.24226685,0.00107334
3734.17107422,0.00101627
3736.09988159,0.00093412
3738.02868896,0.00091893
3739.95749634,0.00113346
3741.88630371,0.00110054
3743.81511108,0.00086907
3745.74391846,0.00094549
3747.67272583,0.00108492
3749.60153320,0.00094880
3751.53034058,0.00085257
3753.45914795,0.00092771
3755.38795532,0.00100466
3757.31676270,0.00109901
3759.24557007,0.00106787
3761.17437744,0.00100644
3763.10318481,0.00105387
3765.03199219,0.00105150
3766.96079956,0.00104791
3768.88960693,0.00101016
3770.81841431,0.00101775
3772.74722168,0.00111311
3774.67602905,0.00112540
3776.60483643,0.00111639
3778.53364380,0.00103311
3780.46245117,0.00097800
3782.39125854,0.00101566
3784.32006592,0.00101892
3786.24887329,0.00101994
3788.17768066,0.00106028
3790.10648804,0.00110554
3792.03529541,0.00103239
3793.96410278,0.00105008
3795.89291016,0.00099791
3797.82171753,0.00095604
3799.75052490,0.00108019
3801.67933228,0.00094629
3803.60813965,0.00099042
3805.53694702,0.00099026
3807.46575439,0.00090792
3809.39456177,0.00100373
3811.32336914,0.00094344
3813.25217651,0.00107660
3815.18098389,0.00094197
3817.10979126,0.00087642
3819.03859863,0.00105975
3820.96740601,0.00088892
3822.89621338,0.00096530
3824.82502075,0.00097916
3826.75382812,0.00095513
3828.68263550,0.00105176
3830.61144287,0.00096640
3832.54025024,0.00097741
3834.46905762,0.00099327
3836.39786499,0.00092258
3838.32667236,0.00086084
3840.25547974,0.00096653
3842.18428711,0.00094451
3844.11309448,0.00092699
3846.04190186,0.00105373
3847.97070923,0.00095726
3849.89951660,0.00091831
3851.82832397,0.00080511
3853.75713135,0.00070346
3855.68593872,0.00080984
3857.61474609,0.00091895
3859.54355347,0.00098106
3861.47236084,0.00093804
3863.40116821,0.00089516
3865.32997559,0.00087377
3867.25878296,0.00093611
3869.18759033,0.00085182
3871.11639770,0.00079703
3873.04520508,0.00090630
3874.97401245,0.00086037
3876.90281982,0.00092241
3878.83162720,0.00090515
3880.76043457,0.00089382
3882.68924194,0.00098862
3884.61804932,0.00089811
3886.54685669,0.00087516
3888.47566406,0.00085849
3890.40447144,0.00085978
3892.33327881,0.00092423
3894.26208618,0.00092910
3896.19089355,0.00094284
3898.11970093,0.00090310
3900.04850830,0.00083296
3901.97731567,0.00084264
3903.90612305,0.00086912
3905.83493042,0.00087460
3907.76373779,0.00092650
3909.69254517,0.00091753
3911.62135254,0.00084803
3913.55015991,0.00081277
3915.47896728,0.00083275
3917.40777466,0.00088749
3919.33658203,0.00086073
3921.26538940,0.00083754
3923.19419678,0.00085960
3925.12300415,0.00088593
3927.05181152,0.00090451
3928.98061890,0.00089617
3930.90942627,0.00089074
3932.83823364,0.00088441
3934.76704102,0.00087427
3936.69584839,0.00087490
3938.62465576,0.00094840
3940.55346313,0.00090251
3942.48227051,0.00081461
3944.41107788,0.00088675
3946.33988525,0.00083776
3948.26869263,0.00084480
3950.19750000,0.00090401
3952.12630737,0.00083319
3954.05511475,0.00085762
3955.98392212,0.00085256
3957.91272949,0.00089756
3959.84153687,0.00089940
3961.77034424,0.00079085
3963.69915161,0.00086949
3965.62795898,0.00086529
3967.55676636,0.00088533
3969.48557373,0.00093807
3971.41438110,0.00082337
3973.34318848,0.00085867
3975.27199585,0.00090951
3977.20080322,0.00090872
3979.12961060,0.00088670
3981.05841797,0.00084155
3982.98722534,0.00086963
3984.91603271,0.00081262
3986.84484009,0.00079688
3988.77364746,0.00084462
3990.70245483,0.00084397
3992.63126221,0.00087036
3994.56006958,0.00086229
3996.48887695,0.00082575
3998.41768433,0.00084934
4000.34649170,0.00084172
4002.27529907,0.00080463
4004.20410645,0.00087219
4006.13291382,0.00089256
4008.06172119,0.00083330
4009.99052856,0.00078465
4011.91933594,0.00076046
4013.84814331,0.00078442
4015.77695068,0.00077063
4017.70575806,0.00077435
4019.63456543,0.00082858
4021.56337280,0.00086336
4023.49218018,0.00082272
4025.42098755,0.00076728
4027.34979492,0.00082603
4029.27860229,0.00091035
4031.20740967,0.00082315
4033.13621704,0.00073866
4035.06502441,0.00080558
4036.99383179,0.00079620
4038.92263916,0.00085642
4040.85144653,0.00081956
4042.78025391,0.00072596
4044.70906128,0.00085821
4046.63786865,0.00084797
4048.56667603,0.00086035
4050.49548340,0.00088350
4052.42429077,0.00087333
4054.35309814,0.00082044
4056.28190552,0.00071671
4058.21071289,0.00082467
4060.13952026,0.00080789
4062.06832764,0.00080497
4063.99713501,0.00078969
4065.92594238,0.00078069
4067.85474976,0.00086272
4069.78355713,0.00077384
4071.71236450,0.00077537
4073.64117187,0.00076528
4075.56997925,0.00085774
4077.49878662,0.00083996
4079.42759399,0.00073754
4081.35640137,0.00083561
4083.28520874,0.00079044
4085.21401611,0.00082500
4087.14282349,0.00075989
4089.07163086,0.00075425
4091.00043823,0.00080600
4092.92924561,0.00073708
4094.85805298,0.00082085
4096.78686035,0.00070093
4098.71566772,0.00072424
4100.64447510,0.00080656
4102.57328247,0.00074182
4104.50208984,0.00081797
4106.43089722,0.00077118
4108.35970459,0.00071571
4110.28851196,0.00071660
4112.21731934,0.00074636
4114.14612671,0.00070158
4116.07493408,0.00064668
4118.00374145,0.00076600
4119.93254883,0.00073375
4121.86135620,0.00064215
4123.79016357,0.00074772
4125.71897095,0.00076531
4127.64777832,0.00069378
4129.57658569,0.00074777
4131.50539307,0.00072505
4133.43420044,0.00070567
4135.36300781,0.00075361
4137.29181519,0.00077398
4139.22062256,0.00077232
4141.14942993,0.00076103
4143.07823730,0.00080151
4145.00704468,0.00067224
4146.93585205,0.00068498
4148.86465942,0.00078962
4150.79346680,0.00070189
4152.72227417,0.00073693
4154.65108154,0.00067960
4156.57988892,0.00064294
4158.50869629,0.00070929
4160.43750366,0.00070396
4162.36631103,0.00067375
4164.29511841,0.00064289
4166.22392578,0.00069699
4168.15273315,0.00066721
4170.08154053,0.00067745
4172.01034790,0.00074567
4173.93915527,0.00072775
4175.86796265,0.00075047
4177.79677002,0.00076706
4179.72557739,0.00072882
4181.65438477,0.00076034
4183.58319214,0.00077682
4185.51199951,0.00065718
4187.44080688,0.00068625
4189.36961426,0.00065972
4191.29842163,0.00058548
4193.22722900,0.00068783
4195.15603638,0.00064205
4197.08484375,0.00063331
4199.01365112,0.00062708
4200.94245850,0.00055681
4202.87126587,0.00065687
4204.80007324,0.00076999
4206.72888062,0.00075285
4208.65768799,0.00071125
4210.58649536,0.00078927
4212.51530273,0.00076788
4214.44411011,0.00066867
4216.37291748,0.00068357
4218.30172485,0.00067168
4220.23053223,0.00062625
4222.15933960,0.00062280
4224.08814697,0.00060228
4226.01695435,0.00063118
4227.94576172,0.00068424
4229.87456909,0.00061950
4231.80337646,0.00067038
4233.73218384,0.00064197
4235.66099121,0.00059693
4237.58979858,0.00074926
4239.51860596,0.00065774
4241.44741333,0.00068731
4243.37622070,0.00076254
4245.30502808,0.00058244
4247.23383545,0.00060138
4249.16264282,0.00066418
4251.09145020,0.00064156
4253.02025757,0.00068948
4254.94906494,0.00070557
4256.87787231,0.00061063
4258.80667969,0.00061899
4260.73548706,0.00057582
4262.66429443,0.00048260
4264.59310181,0.00063931
4266.52190918,0.00066719
4268.45071655,0.00063683
4270.37952393,0.00067307
4272.30833130,0.00062439
4274.23713867,0.00060165
4276.16594604,0.00061525
4278.09475342,0.00066966
4280.02356079,0.00065112
4281.95236816,0.00065166
4283.88117554,0.00062338
4285.80998291,0.00059339
4287.73879028,0.00065386
4289.66759766,0.00058731
4291.59640503,0.00055917
4293.52521240,0.00061192
4295.45401978,0.00063733
4297.38282715,0.00057329
4299.31163452,0.00057395
4301.24044189,0.00061397
4303.16924927,0.00056555
4305.09805664,0.00068588
4307.02686401,0.00060837
4308.95567139,0.00056577
4310.88447876,0.00069964
4312.81328613,0.00056655
4314.74209351,0.00061140
4316.67090088,0.00061638
4318.59970825,0.00054353
4320.52851562,0.00059854
4322.45732300,0.00054447
4324.38613037,0.00060709
4326.31493774,0.00056357
4328.24374512,0.00056964
4330.17255249,0.00071906
4332.10135986,0.00061645
4334.03016724,0.00060960
4335.95897461,0.00060780
4337.88778198,0.00054020
4339.81658936,0.00060984
4341.74539673,0.00055100
4343.67420410,0.00055579
4345.60301147,0.00067656
4347.53181885,0.00063515
4349.46062622,0.00057348
4351.38943359,0.00056608
4353.31824097,0.00057368
4355.24704834,0.00053725
4357.17585571,0.00045646
4359.10466309,0.00051250
4361.03347046,0.00056988
4362.96227783,0.00049667
4364.89108520,0.00054222
4366.81989258,0.00063247
4368.74869995,0.00059859
4370.67750732,0.00059247
4372.60631470,0.00057475
4374.53512207,0.00055698
4376.46392944,0.00056938
4378.39273682,0.00052356
4380.32154419,0.00053043
4382.25035156,0.00049582
4384.17915894,0.00049153
4386.10796631,0.00058278
4388.03677368,0.00054437
4389.96558105,0.00053043
4391.89438843,0.00052123
4393.82319580,0.00050651
4395.75200317,0.00056753
4397.68081055,0.00052325
4399.60961792,0.00050067
4401.53842529,0.00055672
4403.46723267,0.00050223
4405.39604004,0.00045934
4407.32484741,0.00056961
4409.25365478,0.00060143
4411.18246216,0.00055626
4413.11126953,0.00050963
4415.04007690,0.00050839
4416.96888428,0.00061929
4418.89769165,0.00057049
4420.82649902,0.00052717
4422.75530640,0.00053390
4424.68411377,0.00051031
4426.61292114,0.00056182
4428.54172852,0.00055981
4430.47053589,0.00059526
4432.39934326,0.00050134
4434.32815063,0.00043813
4436.25695801,0.00053403
4438.18576538,0.00052782
4440.11457275,0.00054737
4442.04338013,0.00052234
4443.97218750,0.00049024
4445.90099487,0.00048172
4447.82980225,0.00054148
4449.75860962,0.00056543
4451.68741699,0.00047888
4453.61622437,0.00051003
4455.54503174,0.00050339
4457.47383911,0.00054792
4459.40264648,0.00055989
4461.33145386,0.00054121
4463.26026123,0.00056690
4465.18906860,0.00047257
4467.11787598,0.00044563
4469.04668335,0.00043210
4470.97549072,0.00047772
4472.90429810,0.00047255
4474.83310547,0.00049077
4476.76191284,0.00056342
4478.69072021,0.00047533
4480.61952759,0.00050407
4482.54833496,0.00046915
4484.47714233,0.00046597
4486.40594971,0.00049890
4488.33475708,0.00047949
4490.26356445,0.00056652
4492.19237183,0.00050947
4494.12117920,0.00048922
4496.04998657,0.00045690
4497.97879395,0.00051021
4499.90760132,0.00057319
4501.83640869,0.00043183
4503.76521606,0.00052263
4505.69402344,0.00057110
4507.62283081,0.00051916
4509.55163818,0.00048256
4511.48044556,0.00045399
4513.40925293,0.00054855
4515.33806030,0.00050055
4517.26686768,0.00053722
4519.19567505,0.00060075
4521.12448242,0.00051576
4523.05328979,0.00053096
4524.98209717,0.00050164
4526.91090454,0.00049131
4528.83971191,0.00047390
4530.76851929,0.00041335
4532.69732666,0.00047895
4534.62613403,0.00039222
4536.55494141,0.00035559
4538.48374878,0.00049160
4540.41255615,0.00044671
4542.34136353,0.00045653
4544.27017090,0.00049238
4546.19897827,0.00046487
4548.12778564,0.00051594
4550.05659302,0.00044231
4551.98540039,0.00042569
4553.91420776,0.00051379
4555.84301514,0.00044042
4557.77182251,0.00047154
4559.70062988,0.00049913
4561.62943726,0.00040042
4563.55824463,0.00048407
4565.48705200,0.00044766
4567.41585937,0.00037354
4569.34466675,0.00044231
4571.27347412,0.00044062
4573.20228149,0.00046225
4575.13108887,0.00041511
4577.05989624,0.00044805
4578.98870361,0.00050707
4580.91751099,0.00049650
4582.84631836,0.00052328
4584.77512573,0.00050210
4586.70393311,0.00051584
4588.63274048,0.00036433
4590.56154785,0.00036807
4592.49035522,0.00049384
4594.41916260,0.00041302
4596.34796997,0.00044870
4598.27677734,0.00040769
4600.20558472,0.00040345
4602.13439209,0.00042959
4604.06319946,0.00041245
4605.99200684,0.00046648
4607.92081421,0.00042667
4609.84962158,0.00049737
4611.77842895,0.00053469
4613.70723633,0.00048909
4615.63604370,0.00045093
4617.56485107,0.00041934
4619.49365845,0.00047392
4621.42246582,0.00044269
4623.35127319,0.00045803
4625.28008057,0.00051156
4627.20888794,0.00045468
4629.13769531,0.00041870
4631.06650269,0.00043051
4632.99531006,0.00039712
4634.92411743,0.00041314
4636.85292480,0.00048912
4638.78173218,0.00044811
4640.71053955,0.00042235
4642.63934692,0.00044347
4644.56815430,0.00041859
4646.49696167,0.00038733
4648.42576904,0.00041295
4650.35457642,0.00044353
4652.28338379,0.00042519
4654.21219116,0.00044861
4656.14099853,0.00039125
4658.06980591,0.00032442
4659.99861328,0.00041877
4661.92742065,0.00043493
4663.85622803,0.00037020
4665.78503540,0.00048653
4667.71384277,0.00046192
4669.64265015,0.00035083
4671.57145752,0.00051048
4673.50026489,0.00046949
4675.42907227,0.00039973
4677.35787964,0.00042607
4679.28668701,0.00035296
4681.21549438,0.00042634
4683.14430176,0.00036495
4685.07310913,0.00035158
4687.00191650,0.00043731
4688.93072388,0.00032429
4690.85953125,0.00033253
4692.78833862,0.00039486
4694.71714600,0.00039730
4696.64595337,0.00040537
4698.57476074,0.00037903
4700.50356812,0.00041312
4702.43237549,0.00040638
4704.36118286,0.00034076
4706.28999023,0.00041182
4708.21879761,0.00041533
4710.14760498,0.00032864
4712.07641235,0.00034336
4714.00521973,0.00034874
4715.93402710,0.00035047
4717.86283447,0.00037436
4719.79164185,0.00041441
4721.72044922,0.00035239
4723.64925659,0.00033277
4725.57806396,0.00041882
4727.50687134,0.00036110
4729.43567871,0.00037647
4731.36448608,0.00040839
4733.29329346,0.00038822
4735.22210083,0.00037817
4737.15090820,0.00037803
4739.07971558,0.00040232
4741.00852295,0.00035085
4742.93733032,0.00044607
4744.86613770,0.00042895
4746.79494507,0.00032458
4748.72375244,0.00040858
4750.65255981,0.00037206
4752.58136719,0.00034848
4754.51017456,0.00035481
4756.43898193,0.00036326
4758.36778931,0.00040990
4760.29659668,0.00032798
4762.22540405,0.00030401
4764.15421143,0.00038155
4766.08301880,0.00038504
4768.01182617,0.00035687
4769.94063354,0.00036616
4771.86944092,0.00038172
4773.79824829,0.00034470
4775.72705566,0.00030075
4777.65586304,0.00030564
4779.58467041,0.00032045
4781.51347778,0.00041835
4783.44228516,0.00038933
4785.37109253,0.00030928
4787.29989990,0.00042025
4789.22870728,0.00041561
4791.15751465,0.00040708
4793.08632202,0.00033731
4795.01512939,0.00029248
4796.94393677,0.00036560
4798.87274414,0.00029946
4800.80155151,0.00036896
4802.73035889,0.00036259
4804.65916626,0.00033079
4806.58797363,0.00035255
4808.51678101,0.00029398
4810.44558838,0.00036612
4812.37439575,0.00038310
4814.30320312,0.00040272
4816.23201050,0.00033494
4818.16081787,0.00028142
4820.08962524,0.00036040
4822.01843262,0.00037697
4823.94723999,0.00038173
4825.87604736,0.00028825
4827.80485474,0.00037141
4829.73366211,0.00041480
4831.66246948,0.00029048
4833.59127686,0.00039208
4835.52008423,0.00040240
4837.44889160,0.00031061
4839.37769897,0.00035371
4841.30650635,0.00038927
4843.23531372,0.00032884
4845.16412109,0.00030592
4847.09292847,0.00034282
4849.02173584,0.00032635
4850.95054321,0.00029428
4852.87935059,0.00035403
4854.80815796,0.00043714
4856.73696533,0.00036772
4858.66577270,0.00033446
4860.59458008,0.00039871
4862.52338745,0.00034039
4864.45219482,0.00020816
4866.38100220,0.00023007
4868.30980957,0.00035259
4870.23861694,0.00036341
4872.16742432,0.00032818
4874.09623169,0.00034701
4876.02503906,0.00041795
4877.95384644,0.00034731
4879.88265381,0.00025237
4881.81146118,0.00028703
4883.74026855,0.00030379
4885.66907593,0.00035720
4887.59788330,0.00032544
4889.52669067,0.00032559
4891.45549805,0.00038172
4893.38430542,0.00033297
4895.31311279,0.00033219
4897.24192017,0.00032975
4899.17072754,0.00028517
4901.09953491,0.00027244
4903.02834228,0.00034555
4904.95714966,0.00032239
4906.88595703,0.00028354
4908.81476440,0.00035080
4910.74357178,0.00031457
4912.67237915,0.00031683
4914.60118652,0.00034972
4916.52999390,0.00035088
4918.45880127,0.00034464
4920.38760864,0.00030004
4922.31641602,0.00024075
4924.24522339,0.00028249
4926.17403076,0.00037398
4928.10283813,0.00030153
4930.03164551,0.00030772
4931.96045288,0.00030432
4933.88926025,0.00028954
4935.81806763,0.00036990
4937.74687500,0.00028913
4939.67568237,0.00030098
4941.60448975,0.00037256
4943.53329712,0.00032812
4945.46210449,0.00030354
4947.39091187,0.00032179
4949.31971924,0.00033311
4951.24852661,0.00033827
4953.17733398,0.00035735
4955.10614136,0.00029702
4957.03494873,0.00027242
4958.96375610,0.00027840
4960.89256348,0.00028593
4962.82137085,0.00033517
4964.75017822,0.00031167
4966.67898560,0.00027389
4968.60779297,0.00025711
4970.53660034,0.00030498
4972.46540771,0.00037556
4974.39421509,0.00035559
4976.32302246,0.00031311
4978.25182983,0.00031699
4980.18063721,0.00030095
4982.10944458,0.00026754
4984.03825195,0.00030188
4985.96705933,0.00029164
4987.89586670,0.00028886
4989.82467407,0.00029886
4991.75348145,0.00023418
4993.68228882,0.00025679
4995.61109619,0.00028215
4997.53990356,0.00023677
4999.46871094,0.00024776
5001.39751831,0.00028596
5003.32632568,0.00030224
5005.25513306,0.00030222
5007.18394043,0.00025195
5009.11274780,0.00026095
5011.04155518,0.00034927
5012.97036255,0.00033632
5014.89916992,0.00026303
5016.82797729,0.00020880
5018.75678467,0.00025298
5020.68559204,0.00032367
5022.61439941,0.00031482
5024.54320679,0.00029468
5026.47201416,0.00026046
5028.40082153,0.00030833
5030.32962891,0.00030466
5032.25843628,0.00025594
5034.18724365,0.00032689
5036.11605103,0.00029304
5038.04485840,0.00023705
5039.97366577,0.00028321
5041.90247314,0.00029430
5043.83128052,0.00024049
5045.76008789,0.00020507
5047.68889526,0.00024103
5049.61770264,0.00026298
5051.54651001,0.00032568
5053.47531738,0.00030816
5055.40412476,0.00017282
5057.33293213,0.00024563
5059.26173950,0.00029036
5061.19054687,0.00022593
5063.11935425,0.00026960
5065.04816162,0.00022994
5066.97696899,0.00022152
5068.90577637,0.00026824
5070.83458374,0.00026161
5072.76339111,0.00025797
5074.69219849,0.00022229
5076.62100586,0.00025183
5078.54981323,0.00024654
5080.47862061,0.00024419
5082.40742798,0.00027000
5084.33623535,0.00019851
5086.26504272,0.00028461
5088.19385010,0.00033599
5090.12265747,0.00022537
5092.05146484,0.00027301
5093.98027222,0.00028690
5095.90907959,0.00024103
5097.83788696,0.00030071
5099.76669434,0.00025064
5101.69550171,0.00021049
5103.62430908,0.00023663
5105.55311645,0.00014144
5107.48192383,0.00014587
5109.41073120,0.00019810
5111.33953857,0.00023292
5113.26834595,0.00030974
5115.19715332,0.00022787
5117.12596069,0.00022882
5119.05476807,0.00030636
5120.98357544,0.00023397
5122.91238281,0.00023909
5124.84119019,0.00022974
5126.76999756,0.00018278
5128.69880493,0.00026903
5130.62761230,0.00029330
5132.55641968,0.00022884
5134.48522705,0.00021033
5136.41403442,0.00020252
5138.34284180,0.00019123
5140.27164917,0.00019718
5142.20045654,0.00024090
5144.12926392,0.00026810
5146.05807129,0.00021907
5147.98687866,0.00021717
5149.91568603,0.00028953
5151.84449341,0.00030284
5153.77330078,0.00026127
5155.70210815,0.00020931
5157.63091553,0.00015970
5159.55972290,0.00017827
5161.48853027,0.00020972
5163.41733765,0.00017525
5165.34614502,0.00019054
5167.27495239,0.00019834
5169.20375977,0.00015015
5171.13256714,0.00022423
5173.06137451,0.00025562
5174.99018188,0.00021533
5176.91898926,0.00020722
5178.84779663,0.00015491
5180.77660400,0.00024107
5182.70541138,0.00024611
5184.63421875,0.00017009
5186.56302612,0.00023339
5188.49183350,0.00017597
5190.42064087,0.00021448
5192.34944824,0.00021961
5194.27825562,0.00013679
5196.20706299,0.00027317
5198.13587036,0.00028323
5200.06467773,0.00025770
5201.99348511,0.00024614
5203.92229248,0.00015449
5205.85109985,0.00020491
5207.77990723,0.00027949
5209.70871460,0.00027442
5211.63752197,0.00022860
5213.56632935,0.00023500
5215.49513672,0.00021422
5217.42394409,0.00019177
5219.35275146,0.00022478
5221.28155884,0.00018707
5223.21036621,0.00021218
5225.13917358,0.00018295
5227.06798096,0.00015123
5228.99678833,0.00025187
5230.92559570,0.00017984
5232.85440308,0.00013438
5234.78321045,0.00025656
5236.71201782,0.00022133
5238.64082520,0.00018179
5240.56963257,0.00019112
5242.49843994,0.00011904
5244.42724731,0.00019370
5246.35605469,0.00022307
5248.28486206,0.00015107
5250.21366943,0.00020759
5252.14247681,0.00019957
5254.07128418,0.00010859
5256.00009155,0.00012262
5257.92889893,0.00025656
5259.85770630,0.00025737
5261.78651367,0.00017099
5263.71532104,0.00024069
5265.64412842,0.00028031
5267.57293579,0.00018113
5269.50174316,0.00015806
5271.43055054,0.00024561
5273.35935791,0.00020173
5275.28816528,0.00013054
5277.21697266,0.00012828
5279.14578003,0.00020524
5281.07458740,0.00030372
5283.00339478,0.00021676
5284.93220215,0.00021249
5286.86100952,0.00024953
5288.78981689,0.00020063
5290.71862427,0.00019418
5292.64743164,0.00017999
5294.57623901,0.00015157
5296.50504639,0.00012232
5298.43385376,0.00021198
5300.36266113,0.00021308
5302.29146851,0.00019014
5304.22027588,0.00028362
5306.14908325,0.00019640
5308.07789062,0.00012639
5310.00669800,0.00016275
5311.93550537,0.00015057
5313.86431274,0.00014038
5315.79312012,0.00020337
5317.72192749,0.00021683
5319.65073486,0.00017045
5321.57954224,0.00019387
5323.50834961,0.00018047
5325.43715698,0.00016381
5327.36596436,0.00014778
5329.29477173,0.00018492
5331.22357910,0.00021782
5333.15238647,0.00016644
5335.08119385,0.00015414
5337.01000122,0.00014984
5338.93880859,0.00013406
5340.86761597,0.00011979
5342.79642334,0.00022132
5344.72523071,0.00018720
5346.65403809,0.00013208
5348.58284546,0.00022629
5350.51165283,0.00010915
5352.44046020,0.00012267
5354.36926758,0.00016110
5356.29807495,0.00014355
5358.22688232,0.00023449
5360.15568970,0.00017538
5362.08449707,0.00019042
5364.01330444,0.00016426
5365.94211182,0.00011015
5367.87091919,0.00019407
5369.79972656,0.00016208
5371.72853394,0.00012693
5373.65734131,0.00019086
5375.58614868,0.00019346
5377.51495605,0.00018874
5379.44376343,0.00022292
5381.37257080,0.00015975
5383.30137817,0.00018592
5385.23018555,0.00020171
5387.15899292,0.00011874
5389.08780029,0.00018145
5391.01660767,0.00018784
5392.94541504,0.00016989
5394.87422241,0.00018216
5396.80302978,0.00015965
5398.73183716,0.00019600
5400.66064453,0.00019471
5402.58945190,0.00012936
5404.51825928,0.00014743
5406.44706665,0.00021645
5408.37587402,0.00018574
5410.30468140,0.00017475
5412.23348877,0.00017133
5414.16229614,0.00017317
5416.09110352,0.00022907
5418.01991089,0.00022665
5419.94871826,0.00016613
5421.87752563,0.00010343
5423.80633301,0.00015143
5425.73514038,0.00013919
5427.66394775,0.00012946
5429.59275513,0.00018057
5431.52156250,0.00012821
5433.45036987,0.00018289
5435.37917725,0.00015942
5437.30798462,0.00010726
5439.23679199,0.00022221
5441.16559936,0.00018844
5443.09440674,0.00011612
5445.02321411,0.00017686
5446.95202148,0.00018622
5448.88082886,0.00016674
5450.80963623,0.00016881
5452.73844360,0.00013402
5454.66725098,0.00019383
5456.59605835,0.00016088
5458.52486572,0.00012288
5460.45367310,0.00022814
5462.38248047,0.00015043
5464.31128784,0.00019582
5466.24009521,0.00024905
5468.16890259,0.00013643
5470.09770996,0.00017718
5472.02651733,0.00014549
5473.95532471,0.00012007
5475.88413208,0.00016921
5477.81293945,0.00012855
5479.74174683,0.00011342
5481.67055420,0.00014980
5483.59936157,0.00016766
5485.52816895,0.00016403
5487.45697632,0.00014395
5489.38578369,0.00009631
5491.31459106,0.00016233
5493.24339844,0.00022779
5495.17220581,0.00011579
5497.10101318,0.00010573
5499.02982056,0.00019793
5500.95862793,0.00012980
5502.88743530,0.00013682
5504.81624268,0.00023710
5506.74505005,0.00012928
5508.67385742,0.00008633
5510.60266479,0.00017000
5512.53147217,0.00014208
5514.46027954,0.00011592
5516.38908691,0.00015047
5518.31789429,0.00013847
5520.24670166,0.00013376
5522.17550903,0.00019294
5524.10431641,0.00013905
5526.03312378,0.00012494
5527.96193115,0.00017421
5529.89073853,0.00014151
5531.81954590,0.00018350
5533.74835327,0.00017355
5535.67716064,0.00013021
5537.60596802,0.00016070
5539.53477539,0.00015387
5541.46358276,0.00010788
5543.39239014,0.00012490
5545.32119751,0.00014353
5547.25000488,0.00011655
5549.17881226,0.00017698
5551.10761963,0.00014701
5553.03642700,0.00010461
5554.96523437,0.00015703
5556.89404175,0.00016677
5558.82284912,0.00012771
5560.75165649,0.00007425
5562.68046387,0.00015023
5564.60927124,0.00014472
5566.53807861,0.00010908
5568.46688599,0.00012294
5570.39569336,0.00010091
5572.32450073,0.00016262
5574.25330811,0.00011270
5576.18211548,0.00004361
5578.11092285,0.00006794
5580.03973022,0.00017454
5581.96853760,0.00017225
5583.89734497,0.00007857
5585.82615234,0.00011405
5587.75495972,0.00004924
5589.68376709,0.00009650
5591.61257446,0.00014360
5593.54138184,0.00013028
5595.47018921,0.00020930
5597.39899658,0.00016527
5599.32780395,0.00011730
5601.25661133,0.00007522
5603.18541870,0.00013959
5605.11422607,0.00013652
5607.04303345,0.00008575
5608.97184082,0.00013528
5610.90064819,0.00012304
5612.82945557,0.00012980
5614.75826294,0.00006493
5616.68707031,0.00016848
5618.61587769,0.00014645
5620.54468506,0.00002307
5622.47349243,0.00016380
5624.40229980,0.00008968
5626.33110718,0.00013255
5628.25991455,0.00019697
5630.18872192,0.00008483
5632.11752930,0.00009705
5634.04633667,0.00015006
5635.97514404,0.00022125
5637.90395142,0.00010839
5639.83275879,0.00011301
5641.76156616,0.00021371
5643.69037353,0.00012910
5645.61918091,0.00010266
5647.54798828,0.00009438
5649.47679565,0.00011069
5651.40560303,0.00015238
5653.33441040,0.00015518
5655.26321777,0.00014149
5657.19202515,0.00016143
5659.12083252,0.00012903
5661.04963989,0.00010903
5662.97844727,0.00014545
5664.90725464,0.00009187
5666.83606201,0.00014904
5668.76486938,0.00012276
5670.69367676,0.00006401
5672.62248413,0.00019735
5674.55129150,0.00016185
5676.48009888,0.00010223
5678.40890625,0.00015284
5680.33771362,0.00013316
5682.26652100,0.00010339
5684.19532837,0.00014150
5686.12413574,0.00013635
5688.05294311,0.00010585
5689.98175049,0.00012833
5691.91055786,0.00009584
5693.83936523,0.00009519
5695.76817261,0.00011209
5697.69697998,0.00011839
5699.62578735,0.00012122
5701.55459473,0.00009556
5703.48340210,0.00013457
5705.41220947,0.00007300
5707.34101685,0.00002408
5709.26982422,0.00013760
5711.19863159,0.00016129
5713.12743896,0.00013438
5715.05624634,0.00012380
5716.98505371,0.00006084
5718.91386108,0.00009377
5720.84266846,0.00018086
5722.77147583,0.00013661
5724.70028320,0.00011835
5726.62909058,0.00011365
5728.55789795,0.00006807
5730.48670532,0.00009672
5732.41551270,0.00007725
5734.34432007,0.00008016
5736.27312744,0.00011466
5738.20193481,0.00010504
5740.13074219,0.00012055
5742.05954956,0.00008521
5743.98835693,0.00010261
5745.91716431,0.00012596
5747.84597168,0.00009239
5749.77477905,0.00013728
5751.70358643,0.00010574
5753.63239380,0.00009687
5755.56120117,0.00016134
5757.49000854,0.00007716
5759.41881592,0.00008170
5761.34762329,0.00013021
5763.27643066,0.00004810
5765.20523804,0.00009407
5767.13404541,0.00011783
5769.06285278,0.00009220
5770.99166016,0.00014960
5772.92046753,0.00011103
5774.84927490,0.00013636
5776.77808228,0.00015023
5778.70688965,0.00004912
5780.63569702,0.00007081
5782.56450439,0.00014075
5784.49331177,0.00018722
5786.42211914,0.00011880
5788.35092651,0.00007055
5790.27973389,0.00009512
5792.20854126,0.00005327
5794.13734863,0.00013916
5796.06615601,0.00014328
5797.99496338,0.00010786
5799.92377075,0.00011360
5801.85257812,0.00003989
5803.78138550,0.00012495
5805.71019287,0.00013369
5807.63900024,0.00009535
5809.56780762,0.00011197
5811.49661499,0.00007699
5813.42542236,0.00013923
5815.35422974,0.00015917
5817.28303711,0.00011429
5819.21184448,0.00008519
5821.14065186,0.00010410
5823.06945923,0.00012862
5824.99826660,0.00012594
5826.92707397,0.00008605
5828.85588135,0.00003033
5830.78468872,0.00013246
5832.71349609,0.00012590
5834.64230347,0.00002865
5836.57111084,0.00005512
5838.49991821,0.00007657
5840.42872559,0.00012077
5842.35753296,0.00011891
5844.28634033,0.00008529
5846.21514770,0.00007885
5848.14395508,0.00011250
5850.07276245,0.00012994
5852.00156982,0.00012191
5853.93037720,0.00013386
5855.85918457,0.00010433
5857.78799194,0.00014611
5859.71679932,0.00011765
5861.64560669,0.00005870
5863.57441406,0.00014973
5865.50322144,0.00015730
5867.43202881,0.00005547
5869.36083618,0.00006030
5871.28964355,0.00012425
5873.21845093,0.00005435
5875.14725830,0.00005926
5877.07606567,0.00009598
5879.00487305,0.00008320
5880.93368042,0.00013403
5882.86248779,0.00007531
5884.79129517,0.00006216
5886.72010254,0.00009749
5888.64890991,0.00007067
5890.57771728,0.00005865
5892.50652466,0.00004166
5894.43533203,0.00007047
5896.36413940,0.00008072
5898.29294678,0.00008798
5900.22175415,0.00012657
5902.15056152,0.00009027
5904.07936890,0.00004434
5906.00817627,0.00015570
5907.93698364,0.00015753
5909.86579102,0.00004924
5911.79459839,0.00013312
5913.72340576,0.00013085
5915.65221313,0.00010347
5917.58102051,0.00009374
5919.50982788,0.00005700
5921.43863525,0.00013219
5923.36744263,0.00009304
5925.29625000,0.00005700
5927.22505737,0.00008276
5929.15386475,0.00012000
5931.08267212,0.00011535
5933.01147949,0.00004882
5934.94028686,0.00010488
5936.86909424,0.00009541
5938.79790161,0.00009999
5940.72670898,0.00012811
5942.65551636,0.00009871
5944.58432373,0.00015023
5946.51313110,0.00010453
5948.44193848,0.00007491
5950.37074585,0.00009009
5952.29955322,0.00009878
5954.22836060,0.00017387
5956.15716797,0.00011994
5958.08597534,0.00007177
5960.01478271,0.00011605
5961.94359009,0.00011486
5963.87239746,0.00012239
5965.80120483,0.00014137
5967.73001221,0.00011747
5969.65881958,0.00006164
5971.58762695,0.00008487
5973.51643433,0.00012051
5975.44524170,0.00007650
5977.37404907,0.00006973
5979.30285645,0.00012520
5981.23166382,0.00009011
5983.16047119,0.00004762
5985.08927856,0.00013847
5987.01808594,0.00013596
5988.94689331,0.00011483
5990.87570068,0.00006734
5992.80450806,0.00004973
5994.73331543,0.00018315
5996.66212280,0.00008414
5998.59093018,0.00004721
6000.51973755,0.00014915
