399.26312622,0.00010418
401.19193359,0.00016452
403.12074097,0.00066381
405.04954834,0.00027142
406.97835571,0.00007252
408.90716309,0.00022760
410.83597046,0.00001476
412.76477783,0.00012124
414.69358521,0.00050839
416.62239258,0.00019707
418.55119995,0.00024937
420.48000732,0.00025759
422.40881470,-0.00014311
424.33762207,0.00021621
426.26642944,0.00024118
428.19523682,0.00038719
430.12404419,0.00055476
432.05285156,0.00023070
433.98165894,0.00073918
435.91046631,0.00036643
437.83927368,-0.00015274
439.76808105,0.00048252
441.69688843,0.00022412
443.62569580,0.00007648
445.55450317,0.00029924
447.48331055,-0.00004787
449.41211792,0.00013684
451.34092529,0.00048045
453.26973267,0.00032869
455.19854004,0.00021278
457.12734741,0.00009674
459.05615479,0.00011462
460.98496216,0.00035090
462.91376953,0.00010658
464.84257690,0.00001784
466.77138428,0.00031111
468.70019165,0.00002113
470.62899902,0.00012081
472.55780640,0.00031200
474.48661377,0.00005210
476.41542114,0.00032518
478.34422852,0.00010129
480.27303589,-0.00025797
482.20184326,0.00024931
484.13065063,0.00023480
486.05945801,0.00001017
487.98826538,-0.00009258
489.91707275,-0.00037652
491.84588013,0.00005607
493.77468750,0.00010110
495.70349487,0.00025411
497.63230225,0.00050778
499.56110962,0.00005026
501.48991699,-0.00011277
503.41872437,-0.00001360
505.34753174,0.00027600
507.27633911,-0.00003555
509.20514648,0.00021678
511.13395386,0.00055941
513.06276123,0.00011804
514.99156860,0.00021040
516.92037598,-0.00005629
518.84918335,-0.00037971
520.77799072,0.00009603
522.70679810,0.00035936
524.63560547,-0.00003234
526.56441284,0.00017495
528.49322021,0.00044701
530.42202759,0.00032543
532.35083496,0.00001524
534.27964233,-0.00006434
536.20844971,0.00036118
538.13725708,0.00028386
540.06606445,-0.00000978
541.99487183,0.00014965
543.92367920,-0.00002930
545.85248657,0.00014079
547.78129395,0.00024478
549.71010132,-0.00004492
551.63890869,0.00036069
553.56771606,0.00039406
555.49652344,-0.00002597
557.42533081,0.00011351
559.35413818,0.00032877
561.28294556,0.00005605
563.21175293,0.00026385
565.14056030,0.00073131
567.06936768,0.00013825
568.99817505,-0.00013381
570.92698242,-0.00008372
572.85578979,-0.00014512
574.78459717,0.00046122
576.71340454,0.00045522
578.64221191,0.00013032
580.57101929,0.00010764
582.49982666,0.00026733
584.42863403,0.00023246
586.35744141,-0.00002980
588.28624878,0.00002896
590.21505615,0.00011003
592.14386353,0.00034159
594.07267090,0.00013898
596.00147827,0.00024195
597.93028564,0.00026523
599.85909302,-0.00038701
601.78790039,-0.00000142
603.71670776,0.00019692
605.64551514,0.00000999
607.57432251,0.00012887
609.50312988,0.00035519
611.43193726,0.00044480
613.36074463,0.00008990
615.28955200,0.00015289
617.21835938,0.00016823
619.14716675,0.00014450
621.07597412,0.00013143
623.00478149,-0.00004233
624.93358887,0.00023395
626.86239624,0.00024396
628.79120361,0.00019425
630.72001099,0.00001796
632.64881836,0.00009265
634.57762573,0.00029346
636.50643311,0.00025497
638.43524048,0.00032640
640.36404785,0.00019756
642.29285522,0.00033398
644.22166260,0.00030698
646.15046997,0.00032379
648.07927734,0.00067686
650.00808472,0.00054775
651.93689209,0.00054951
653.86569946,0.00046241
655.79450684,0.00057844
657.72331421,0.00074187
659.65212158,0.00064563
661.58092896,0.00080423
663.50973633,0.00073609
665.43854370,0.00077716
667.36735107,0.00063032
669.29615845,0.00054897
671.22496582,0.00061538
673.15377319,0.00074636
675.08258057,0.00105963
677.01138794,0.00084059
678.94019531,0.00114602
680.86900269,0.00127800
682.79781006,0.00090279
684.72661743,0.00081466
686.65542480,0.00088694
688.58423218,0.00133100
690.51303955,0.00098164
692.44184692,0.00067722
694.37065430,0.00119284
696.29946167,0.00152211
698.22826904,0.00146098
700.15707642,0.00135783
702.08588379,0.00157593
704.01469116,0.00149788
705.94349854,0.00146409
707.87230591,0.00134400
709.80111328,0.00096734
711.72992065,0.00068512
713.65872803,0.00038626
715.58753540,0.00047190
717.51634277,0.00018735
719.44515015,0.00000094
721.37395752,0.00022576
723.30276489,-0.00006641
725.23157227,-0.00033463
727.16037964,-0.00010998
729.08918701,0.00030951
731.01799438,0.00006176
732.94680176,0.00003531
734.87560913,0.00008791
736.80441650,-0.00005805
738.73322388,0.00029943
740.66203125,0.00035687
742.59083862,0.00029263
744.51964600,0.00029582
746.44845337,0.00033130
748.37726074,0.00047572
750.30606812,0.00030551
752.23487549,0.00031023
754.16368286,0.00021508
756.09249023,0.00002858
758.02129761,0.00002728
759.95010498,-0.00008934
761.87891235,0.00009253
763.80771973,0.00027777
765.73652710,0.00007105
767.66533447,0.00005181
769.59414185,0.00015502
771.52294922,0.00018362
773.45175659,0.00015187
775.38056396,0.00010168
777.30937134,0.00036701
779.23817871,0.00015771
781.16698608,0.00018805
783.09579346,0.00037874
785.02460083,0.00013690
786.95340820,0.00032628
788.88221558,0.00014824
790.81102295,0.00038897
792.73983032,0.00039133
794.66863770,-0.00012141
796.59744507,0.00031821
798.52625244,0.00043212
800.45505981,0.00032758
802.38386719,0.00038459
804.31267456,0.00022665
806.24148193,0.00032272
808.17028931,0.00040405
810.09909668,0.00015019
812.02790405,0.00011058
813.95671143,0.00038979
815.88551880,0.00030316
817.81432617,0.00021162
819.74313354,0.00034479
821.67194092,0.00018764
823.60074829,0.00025433
825.52955566,0.00018704
827.45836304,-0.00003683
829.38717041,0.00020381
831.31597778,0.00051519
833.24478516,0.00036794
835.17359253,0.00020704
837.10239990,0.00079363
839.03120728,0.00074151
840.96001465,0.00034684
842.88882202,0.00022573
844.81762939,0.00010257
846.74643677,0.00057593
848.67524414,0.00054084
850.60405151,0.00044650
852.53285889,0.00046126
854.46166626,0.00024931
856.39047363,0.00023938
858.31928101,0.00001594
860.24808838,0.00021200
862.17689575,0.00030059
864.10570313,0.00023179
866.03451050,0.00042198
867.96331787,0.00022131
869.89212524,0.00032381
871.82093262,0.00028544
873.74973999,0.00013834
875.67854736,0.00040063
877.60735474,0.00018140
879.53616211,0.00029006
881.46496948,0.00054108
883.39377686,0.00040284
885.32258423,0.00041145
887.25139160,0.00020118
889.18019897,0.00019097
891.10900635,0.00020632
893.03781372,0.00016264
894.96662109,0.00033534
896.89542847,0.00028290
898.82423584,0.00017773
900.75304321,0.00037345
902.68185059,0.00046395
904.61065796,0.00035172
906.53946533,0.00028277
908.46827271,0.00026385
910.39708008,0.00057046
912.32588745,0.00052041
914.25469482,0.00031580
916.18350220,0.00036579
918.11230957,0.00019363
920.04111694,0.00034719
921.96992432,0.00061352
923.89873169,0.00057592
925.82753906,0.00066576
927.75634644,0.00064903
929.68515381,0.00051559
931.61396118,0.00070749
933.54276855,0.00063365
935.47157593,0.00044826
937.40038330,0.00051054
939.32919067,0.00063592
941.25799805,0.00086005
943.18680542,0.00098422
945.11561279,0.00095018
947.04442017,0.00078716
948.97322754,0.00088676
950.90203491,0.00070138
952.83084229,0.00068830
954.75964966,0.00113302
956.68845703,0.00074426
958.61726440,0.00082175
960.54607178,0.00103585
962.47487915,0.00061903
964.40368652,0.00079630
966.33249390,0.00104509
968.26130127,0.00099297
970.19010864,0.00086470
972.11891602,0.00103531
974.04772339,0.00111617
975.97653076,0.00090219
977.90533813,0.00104049
979.83414551,0.00112349
981.76295288,0.00116766
983.69176025,0.00141529
985.62056763,0.00166553
987.54937500,0.00190805
989.47818237,0.00220703
991.40698975,0.00221161
993.33579712,0.00227522
995.26460449,0.00281747
997.19341187,0.00291280
999.12221924,0.00298091
1001.05102661,0.00328367
1002.97983398,0.00339814
1004.90864136,0.00373461
1006.83744873,0.00391705
1008.76625610,0.00409629
1010.69506348,0.00452797
1012.62387085,0.00477275
1014.55267822,0.00491880
1016.48148560,0.00511290
1018.41029297,0.00548021
1020.33910034,0.00591789
1022.26790771,0.00598707
1024.19671509,0.00584259
1026.12552246,0.00613044
1028.05432983,0.00661382
1029.98313721,0.00678907
1031.91194458,0.00698451
1033.84075195,0.00718633
1035.76955933,0.00715811
1037.69836670,0.00710337
1039.62717407,0.00719292
1041.55598145,0.00738608
1043.48478882,0.00736334
1045.41359619,0.00708755
1047.34240356,0.00692279
1049.27121094,0.00698261
1051.20001831,0.00699553
1053.12882568,0.00688047
1055.05763306,0.00664814
1056.98644043,0.00638306
1058.91524780,0.00634462
1060.84405518,0.00605046
1062.77286255,0.00580880
1064.70166992,0.00579425
1066.63047729,0.00538911
1068.55928467,0.00531476
1070.48809204,0.00519743
1072.41689941,0.00486302
1074.34570679,0.00473378
1076.27451416,0.00439815
1078.20332153,0.00438441
1080.13212891,0.00429682
1082.06093628,0.00401992
1083.98974365,0.00391362
1085.91855103,0.00363182
1087.84735840,0.00348581
1089.77616577,0.00330248
1091.70497314,0.00309076
1093.63378052,0.00310044
1095.56258789,0.00302318
1097.49139526,0.00285416
1099.42020264,0.00280124
1101.34901001,0.00275784
1103.27781738,0.00274717
1105.20662476,0.00267117
1107.13543213,0.00256563
1109.06423950,0.00283855
1110.99304687,0.00264266
1112.92185425,0.00220942
1114.85066162,0.00234950
1116.77946899,0.00254509
1118.70827637,0.00254585
1120.63708374,0.00233483
1122.56589111,0.00251745
1124.49469849,0.00266520
1126.42350586,0.00273086
1128.35231323,0.00290744
1130.28112061,0.00255278
1132.20992798,0.00273184
1134.13873535,0.00312784
1136.06754272,0.00314637
1137.99635010,0.00315344
1139.92515747,0.00329547
1141.85396484,0.00368226
1143.78277222,0.00371938
1145.71157959,0.00392148
1147.64038696,0.00425175
1149.56919434,0.00452255
1151.49800171,0.00489977
1153.42680908,0.00503590
1155.35561646,0.00522557
1157.28442383,0.00527029
1159.21323120,0.00541424
1161.14203857,0.00585009
1163.07084595,0.00609558
1164.99965332,0.00614380
1166.92846069,0.00627700
1168.85726807,0.00665805
1170.78607544,0.00701924
1172.71488281,0.00717776
1174.64369019,0.00738307
1176.57249756,0.00789671
1178.50130493,0.00811818
1180.43011230,0.00835361
1182.35891968,0.00886907
1184.28772705,0.00891813
1186.21653442,0.00928043
1188.14534180,0.00992198
1190.07414917,0.01030098
1192.00295654,0.01072945
1193.93176392,0.01126453
1195.86057129,0.01193707
1197.78937866,0.01226116
1199.71818604,0.01275448
1201.64699341,0.01366778
1203.57580078,0.01408239
1205.50460815,0.01458963
1207.43341553,0.01531582
1209.36222290,0.01559508
1211.29103027,0.01597487
1213.21983765,0.01658252
1215.14864502,0.01705999
1217.07745239,0.01738044
1219.00625977,0.01766869
1220.93506714,0.01802494
1222.86387451,0.01824367
1224.79268188,0.01840128
1226.72148926,0.01857775
1228.65029663,0.01884121
1230.57910400,0.01892732
1232.50791138,0.01879753
1234.43671875,0.01885387
1236.36552612,0.01867891
1238.29433350,0.01877710
1240.22314087,0.01897308
1242.15194824,0.01867408
1244.08075562,0.01867871
1246.00956299,0.01860879
1247.93837036,0.01864236
1249.86717773,0.01868146
1251.79598511,0.01818449
1253.72479248,0.01804660
1255.65359985,0.01808972
1257.58240723,0.01785829
1259.51121460,0.01742587
1261.44002197,0.01715548
1263.36882935,0.01697230
1265.29763672,0.01667304
1267.22644409,0.01659280
1269.15525146,0.01620585
1271.08405884,0.01600708
1273.01286621,0.01601810
1274.94167358,0.01556207
1276.87048096,0.01533108
1278.79928833,0.01509354
1280.72809570,0.01475874
1282.65690308,0.01449881
1284.58571045,0.01426470
1286.51451782,0.01400184
1288.44332520,0.01361804
1290.37213257,0.01355769
1292.30093994,0.01335279
1294.22974731,0.01322807
1296.15855469,0.01342932
1298.08736206,0.01342350
1300.01616943,0.01346664
1301.94497681,0.01356290
1303.87378418,0.01373580
1305.80259155,0.01375031
1307.73139893,0.01397314
1309.66020630,0.01443549
1311.58901367,0.01447816
1313.51782104,0.01464937
1315.44662842,0.01496563
1317.37543579,0.01535756
1319.30424316,0.01583035
1321.23305054,0.01635564
1323.16185791,0.01695229
1325.09066528,0.01744508
1327.01947266,0.01789966
1328.94828003,0.01814697
1330.87708740,0.01871480
1332.80589478,0.01929180
1334.73470215,0.01955885
1336.66350952,0.01992027
1338.59231689,0.01974700
1340.52112427,0.01973958
1342.44993164,0.02047890
1344.37873901,0.02086678
1346.30754639,0.02078569
1348.23635376,0.02078987
1350.16516113,0.02070048
1352.09396851,0.02046552
1354.02277588,0.02035640
1355.95158325,0.02025035
1357.88039062,0.02015403
1359.80919800,0.02000544
1361.73800537,0.01901805
1363.66681274,0.01856992
1365.59562012,0.01962993
1367.52442749,0.01935498
1369.45323486,0.01908340
1371.38204224,0.01946398
1373.31084961,0.01841787
1375.23965698,0.01856396
1377.16846436,0.01914324
1379.09727173,0.01885492
1381.02607910,0.01890354
1382.95488647,0.01907891
1384.88369385,0.01899203
1386.81250122,0.01811147
1388.74130859,0.01840203
1390.67011597,0.01987777
1392.59892334,0.01946468
1394.52773071,0.01817934
1396.45653809,0.01911479
1398.38534546,0.01910509
1400.31415283,0.01883635
1402.24296021,0.02048312
1404.17176758,0.01932891
1406.10057495,0.01949364
1408.02938232,0.02031187
1409.95818970,0.01947581
1411.88699707,0.01989735
1413.81580444,0.01918790
1415.74461182,0.01976900
1417.67341919,0.01773779
1419.60222656,0.01587639
1421.53103394,0.01848600
1423.45984131,0.01783590
1425.38864868,0.01735210
1427.31745605,0.01754179
1429.24626343,0.01629988
1431.17507080,0.01570363
1433.10387817,0.01600963
1435.03268555,0.01469444
1436.96149292,0.01226516
1438.89030029,0.01421712
1440.81910767,0.01455913
1442.74791504,0.01358267
1444.67672241,0.01430813
1446.60552979,0.01304440
1448.53433716,0.01325196
1450.46314453,0.01371441
1452.39195190,0.01413137
1454.32075928,0.01442468
1456.24956665,0.01196991
1458.17837402,0.01251948
1460.10718140,0.01660106
1462.03598877,0.01783684
1463.96479614,0.01753659
1465.89360352,0.01826338
1467.82241089,0.02063463
1469.75121826,0.02226829
1471.68002563,0.01995641
1473.60883301,0.02082700
1475.53764038,0.02369522
1477.46644775,0.02541453
1479.39525513,0.02820381
1481.32406250,0.02862434
1483.25286987,0.03035619
1485.18167725,0.03142250
1487.11048462,0.03085967
1489.03929199,0.03058451
1490.96809937,0.03049700
1492.89690674,0.03573015
1494.82571411,0.03515867
1496.75452148,0.03142190
1498.68332886,0.03545392
1500.61213623,0.03661561
1502.54094360,0.03935928
1504.46975098,0.03741461
1506.39855835,0.02702541
1508.32736572,0.03281366
1510.25617310,0.03874081
1512.18498047,0.03729919
1514.11378784,0.04071613
1516.04259521,0.03671564
1517.97140259,0.03819498
1519.90020996,0.03704234
1521.82901733,0.03171148
1523.75782471,0.03918897
1525.68663208,0.03857119
1527.61543945,0.03830576
1529.54424683,0.04276484
1531.47305420,0.04108912
1533.40186157,0.03745108
1535.33066895,0.03969633
1537.25947632,0.04288238
1539.18828369,0.03049141
1541.11709106,0.03145843
1543.04589844,0.03809127
1544.97470581,0.03652035
1546.90351318,0.04333269
1548.83232056,0.04040076
1550.76112793,0.04169846
1552.68993530,0.04170363
1554.61874268,0.03768669
1556.54755005,0.04042881
1558.47635742,0.02837665
1560.40516479,0.03018396
1562.33397217,0.04375408
1564.26277954,0.04150642
1566.19158691,0.04226882
1568.12039429,0.04201133
1570.04920166,0.03707457
1571.97800903,0.04296814
1573.90681641,0.04373141
1575.83562378,0.03434623
1577.76443115,0.03873864
1579.69323853,0.04393287
1581.62204590,0.04206402
1583.55085327,0.04293758
1585.47966064,0.04237515
1587.40846802,0.04278982
1589.33727539,0.04217216
1591.26608276,0.04218298
1593.19489014,0.04219479
1595.12369751,0.04154019
1597.05250488,0.04208244
1598.98131226,0.04171347
1600.91011963,0.04195513
1602.83892700,0.04120941
1604.76773437,0.04176295
1606.69654175,0.04094009
1608.62534912,0.04072464
1610.55415649,0.04055481
1612.48296387,0.04078281
1614.41177124,0.04129884
1616.34057861,0.03342421
1618.26938599,0.03624767
1620.19819336,0.04227043
1622.12700073,0.03715898
1624.05580811,0.03731342
1625.98461548,0.03933742
1627.91342285,0.03914306
1629.84223022,0.03872615
1631.77103760,0.04141227
1633.69984497,0.03839262
1635.62865234,0.03140670
1637.55745972,0.03641287
1639.48626709,0.04027792
1641.41507446,0.03947556
1643.34388184,0.04095830
1645.27268921,0.03702308
1647.20149658,0.03214917
1649.13030396,0.04037764
1651.05911133,0.03888267
1652.98791870,0.02463391
1654.91672607,0.03347615
1656.84553345,0.04286917
1658.77434082,0.04110833
1660.70314819,0.04248679
1662.63195557,0.03860738
1664.56076294,0.04078289
1666.48957031,0.04435908
1668.41837769,0.03864506
1670.34718506,0.03761812
1672.27599243,0.04299311
1674.20479980,0.03981989
1676.13360718,0.03816517
1678.06241455,0.04437272
1679.99122192,0.04312555
1681.92002930,0.04266935
1683.84883667,0.03469699
1685.77764404,0.03387246
1687.70645142,0.04745044
1689.63525879,0.04146286
1691.56406616,0.04531930
1693.49287354,0.04701187
1695.42168091,0.03392439
1697.35048828,0.04212173
1699.27929565,0.03738795
1701.20810303,0.03312799
1703.13691040,0.04584260
1705.06571777,0.04214862
1706.99452515,0.04260245
1708.92333252,0.04672842
1710.85213989,0.04479643
1712.78094727,0.04554074
1714.70975464,0.04260897
1716.63856201,0.03822124
1718.56736938,0.03723678
1720.49617676,0.04461385
1722.42498413,0.04659914
1724.35379150,0.04317636
1726.28259888,0.04709809
1728.21140625,0.04349703
1730.14021362,0.04382641
1732.06902100,0.04311910
1733.99782837,0.03267468
1735.92663574,0.04049135
1737.85544312,0.04549975
1739.78425049,0.04011008
1741.71305786,0.04363431
1743.64186523,0.04451185
1745.57067261,0.04437721
1747.49947998,0.04508281
1749.42828735,0.04296591
1751.35709473,0.04091881
1753.28590210,0.04551705
1755.21470947,0.04794663
1757.14351685,0.04367614
1759.07232422,0.04795784
1761.00113159,0.04537389
1762.92993896,0.04343117
1764.85874634,0.04988708
1766.78755371,0.04513671
1768.71636108,0.04541858
1770.64516846,0.04518775
1772.57397583,0.04054109
1774.50278320,0.04538301
1776.43159058,0.04805116
1778.36039795,0.04746906
1780.28920532,0.04676401
1782.21801270,0.04720496
1784.14682007,0.04724932
1786.07562744,0.04610458
1788.00443481,0.04873481
1789.93324219,0.04763649
1791.86204956,0.04294945
1793.79085693,0.04479890
1795.71966431,0.04827379
1797.64847168,0.04765406
1799.57727905,0.04688387
1801.50608643,0.04610945
1803.43489380,0.04762525
1805.36370117,0.04899333
1807.29250854,0.04827954
1809.22131592,0.04827001
1811.15012329,0.04710570
1813.07893066,0.04860392
1815.00773804,0.04879279
1816.93654541,0.04818532
1818.86535278,0.04862741
1820.79416016,0.04842324
1822.72296753,0.04926099
1824.65177490,0.04603258
1826.58058228,0.04782214
1828.50938965,0.04801646
1830.43819702,0.04471314
1832.36700439,0.04886338
1834.29581177,0.04868619
1836.22461914,0.04860931
1838.15342651,0.04853064
1840.08223389,0.04877102
1842.01104126,0.04898049
1843.93984863,0.04337945
1845.86865601,0.04622831
1847.79746338,0.04893780
1849.72627075,0.04785676
1851.65507812,0.04936265
1853.58388550,0.04840346
1855.51269287,0.04892249
1857.44150024,0.04853534
1859.37030762,0.04823435
1861.29911499,0.04889039
1863.22792236,0.04832423
1865.15672974,0.04874378
1867.08553711,0.04709184
1869.01434448,0.04493993
1870.94315186,0.04687622
1872.87195923,0.04891383
1874.80076660,0.04811313
1876.72957397,0.04835240
1878.65838135,0.04814531
1880.58718872,0.04804510
1882.51599609,0.04854920
1884.44480347,0.04762685
1886.37361084,0.04838902
1888.30241821,0.04726547
1890.23122559,0.04639187
1892.16003296,0.04821476
1894.08884033,0.04739467
1896.01764771,0.04728977
1897.94645508,0.04792622
1899.87526245,0.04768769
1901.80406982,0.04789021
1903.73287720,0.04762362
1905.66168457,0.04791960
1907.59049194,0.04755544
1909.51929932,0.04724172
1911.44810669,0.04744955
1913.37691406,0.04750846
1915.30572144,0.04809932
1917.23452881,0.04594862
1919.16333618,0.04592088
1921.09214355,0.04782303
1923.02095093,0.04618492
1924.94975830,0.04709838
1926.87856567,0.04761397
1928.80737305,0.04709715
1930.73618042,0.04785572
1932.66498779,0.04687588
1934.59379517,0.04749856
1936.52260254,0.04742025
1938.45140991,0.04734861
1940.38021729,0.04752179
1942.30902466,0.04582877
1944.23783203,0.04658323
1946.16663940,0.04735415
1948.09544678,0.04719152
1950.02425415,0.04732352
1951.95306152,0.04731367
1953.88186890,0.04752300
1955.81067627,0.04721499
1957.73948364,0.04733837
1959.66829102,0.04737020
1961.59709839,0.04714788
1963.52590576,0.04734632
1965.45471313,0.04712586
1967.38352051,0.04670177
1969.31232788,0.04709188
1971.24113525,0.04722899
1973.16994263,0.04706709
1975.09875000,0.04731584
1977.02755737,0.04707544
1978.95636475,0.04717533
1980.88517212,0.04707813
1982.81397949,0.04711725
1984.74278687,0.04728426
1986.67159424,0.04676111
1988.60040161,0.04694370
1990.52920898,0.04640539
1992.45801636,0.04600972
1994.38682373,0.04674945
1996.31563110,0.04685913
1998.24443848,0.04679468
2000.17324585,0.04680210
2002.10205322,0.04670653
2004.03086060,0.04662025
2005.95966797,0.04645200
2007.88847534,0.04628815
2009.81728271,0.04639956
2011.74609009,0.04623392
2013.67489746,0.04604277
2015.60370483,0.04580776
2017.53251221,0.04547073
2019.46131958,0.04595214
2021.39012695,0.04595463
2023.31893433,0.04576702
2025.24774170,0.04581218
2027.17654907,0.04562379
2029.10535645,0.04571589
2031.03416382,0.04555308
2032.96297119,0.04545829
2034.89177856,0.04540334
2036.82058594,0.04532859
2038.74939331,0.04535896
2040.67820068,0.04520264
2042.60700806,0.04513605
2044.53581543,0.04514690
2046.46462280,0.04514159
2048.39343018,0.04498825
2050.32223755,0.04491645
2052.25104492,0.04496641
2054.17985229,0.04491868
2056.10865967,0.04475901
2058.03746704,0.04471652
2059.96627441,0.04474420
2061.89508179,0.04461870
2063.82388916,0.04435118
2065.75269653,0.04414958
2067.68150391,0.04436836
2069.61031128,0.04430803
2071.53911865,0.04430197
2073.46792603,0.04440440
2075.39673340,0.04415778
2077.32554077,0.04418708
2079.25434814,0.04413345
2081.18315552,0.04401664
2083.11196289,0.04380360
2085.04077026,0.04390118
2086.96957764,0.04398418
2088.89838501,0.04362614
2090.82719238,0.04376620
2092.75599976,0.04367458
2094.68480713,0.04355089
2096.61361450,0.04365105
2098.54242187,0.04363591
2100.47122925,0.04359790
2102.40003662,0.04341312
2104.32884399,0.04346280
2106.25765137,0.04344638
2108.18645874,0.04336618
2110.11526611,0.04324128
2112.04407349,0.04318488
2113.97288086,0.04317586
2115.90168823,0.04297489
2117.83049561,0.04311702
2119.75930298,0.04322380
2121.68811035,0.04298434
2123.61691772,0.04290398
2125.54572510,0.04307473
2127.47453247,0.04303623
2129.40333984,0.04287456
2131.33214722,0.04282024
2133.26095459,0.04288305
2135.18976196,0.04290231
2137.11856934,0.04269353
2139.04737671,0.04271315
2140.97618408,0.04266882
2142.90499146,0.04269007
2144.83379883,0.04268653
2146.76260620,0.04249682
2148.69141357,0.04268425
2150.62022095,0.04266435
2152.54902832,0.04267784
2154.47783569,0.04266615
2156.40664307,0.04244825
2158.33545044,0.04248526
2160.26425781,0.04240995
2162.19306519,0.04246136
2164.12187256,0.04247853
2166.05067993,0.04228234
2167.97948730,0.04232565
2169.90829468,0.04242799
2171.83710205,0.04243796
2173.76590942,0.04229467
2175.69471680,0.04217840
2177.62352417,0.04232349
2179.55233154,0.04225721
2181.48113892,0.04223438
2183.40994629,0.04230050
2185.33875366,0.04207494
2187.26756104,0.04209936
2189.19636841,0.04212444
2191.12517578,0.04222503
2193.05398315,0.04220485
2194.98279053,0.04190562
2196.91159790,0.04197297
2198.84040527,0.04202747
2200.76921265,0.04218200
2202.69802002,0.04207058
2204.62682739,0.04186978
2206.55563477,0.04198186
2208.48444214,0.04194068
2210.41324951,0.04192417
2212.34205688,0.04178775
2214.27086426,0.04183202
2216.19967163,0.04180209
2218.12847900,0.04176297
2220.05728638,0.04191496
2221.98609375,0.04179343
2223.91490112,0.04170268
2225.84370850,0.04167439
2227.77251587,0.04176455
2229.70132324,0.04171720
2231.63013062,0.04169486
2233.55893799,0.04163761
2235.48774536,0.04157433
2237.41655273,0.04160287
2239.34536011,0.04128645
2241.27416748,0.04133756
2243.20297485,0.04140335
2245.13178223,0.04138919
2247.06058960,0.04141037
2248.98939697,0.04137402
2250.91820435,0.04144515
2252.84701172,0.04121768
2254.77581909,0.04127866
2256.70462646,0.04125445
2258.63343384,0.04103713
2260.56224121,0.04102829
2262.49104858,0.04108259
2264.41985596,0.04106179
2266.34866333,0.04091575
2268.27747070,0.04100084
2270.20627808,0.04090540
2272.13508545,0.04093328
2274.06389282,0.04092737
2275.99270020,0.04086172
2277.92150757,0.04099365
2279.85031494,0.04089546
2281.77912231,0.04094693
2283.70792969,0.04089043
2285.63673706,0.04085050
2287.56554443,0.04074396
2289.49435181,0.04058325
2291.42315918,0.04056631
2293.35196655,0.04050281
2295.28077393,0.04046464
2297.20958130,0.04022304
2299.13838867,0.04030095
2301.06719604,0.04019165
2302.99600342,0.03991674
2304.92481079,0.03982804
2306.85361816,0.03946982
2308.78242554,0.03916873
2310.71123291,0.03883886
2312.64004028,0.03863148
2314.56884766,0.03829250
2316.49765503,0.03784988
2318.42646240,0.03733751
2320.35526978,0.03687229
2322.28407715,0.03655288
2324.21288452,0.03592329
2326.14169189,0.03553317
2328.07049927,0.03506333
2329.99930664,0.03465395
2331.92811401,0.03454485
2333.85692139,0.03440326
2335.78572876,0.03414989
2337.71453613,0.03402936
2339.64334351,0.03424381
2341.57215088,0.03429124
2343.50095825,0.03487467
2345.42976562,0.03557149
2347.35857300,0.03700514
2349.28738037,0.03837594
2351.21618774,0.03701780
2353.14499512,0.03508995
2355.07380249,0.03373148
2357.00260986,0.03283461
2358.93141724,0.03222306
2360.86022461,0.03175743
2362.78903198,0.03186705
2364.71783936,0.03188772
2366.64664673,0.03246146
2368.57545410,0.03308467
2370.50426147,0.03378034
2372.43306885,0.03491911
2374.36187622,0.03580130
2376.29068359,0.03682628
2378.21949097,0.03776078
2380.14829834,0.03841897
2382.07710571,0.03885371
2384.00591309,0.03922693
2385.93472046,0.03938476
2387.86352783,0.03942052
2389.79233521,0.03950129
2391.72114258,0.03938545
2393.64994995,0.03935838
2395.57875732,0.03929678
2397.50756470,0.03935939
2399.43637207,0.03937132
2401.36517944,0.03930910
2403.29398682,0.03918832
2405.22279419,0.03905604
2407.15160156,0.03918431
2409.08040894,0.03903098
2411.00921631,0.03905743
2412.93802368,0.03914002
2414.86683105,0.03902475
2416.79563843,0.03897490
2418.72444580,0.03892712
2420.65325317,0.03896111
2422.58206055,0.03881239
2424.51086792,0.03886667
2426.43967529,0.03891534
2428.36848267,0.03884260
2430.29729004,0.03876659
2432.22609741,0.03865784
2434.15490479,0.03877821
2436.08371216,0.03871885
2438.01251953,0.03869089
2439.94132690,0.03864229
2441.87013428,0.03863839
2443.79894165,0.03869530
2445.72774902,0.03856466
2447.65655640,0.03856240
2449.58536377,0.03848740
2451.51417114,0.03857399
2453.44297852,0.03849057
2455.37178589,0.03835455
2457.30059326,0.03855693
2459.22940063,0.03840724
2461.15820801,0.03834628
2463.08701538,0.03837423
2465.01582275,0.03831442
2466.94463013,0.03831198
2468.87343750,0.03822402
2470.80224487,0.03826678
2472.73105225,0.03818883
2474.65985962,0.03821658
2476.58866699,0.03809639
2478.51747437,0.03783863
2480.44628174,0.03805964
2482.37508911,0.03795788
2484.30389648,0.03801133
2486.23270386,0.03810280
2488.16151123,0.03781450
2490.09031860,0.03800053
2492.01912598,0.03779008
2493.94793335,0.03772105
2495.87674072,0.03799334
2497.80554810,0.03774624
2499.73435547,0.03772496
2501.66316284,0.03772632
2503.59197021,0.03771323
2505.52077759,0.03766607
2507.44958496,0.03757383
2509.37839233,0.03758651
2511.30719971,0.03754728
2513.23600708,0.03763861
2515.16481445,0.03758943
2517.09362183,0.03758747
2519.02242920,0.03747159
2520.95123657,0.03735284
2522.88004395,0.03748484
2524.80885132,0.03742791
2526.73765869,0.03740350
2528.66646606,0.03741619
2530.59527344,0.03737745
2532.52408081,0.03722776
2534.45288818,0.03728981
2536.38169556,0.03738108
2538.31050293,0.03721372
2540.23931030,0.03718220
2542.16811768,0.03710344
2544.09692505,0.03714621
2546.02573242,0.03710576
2547.95453979,0.03708023
2549.88334717,0.03705169
2551.81215454,0.03684595
2553.74096191,0.03702823
2555.66976929,0.03698091
2557.59857666,0.03678896
2559.52738403,0.03682621
2561.45619141,0.03682691
2563.38499878,0.03677365
2565.31380615,0.03671162
2567.24261353,0.03682161
2569.17142090,0.03673117
2571.10022827,0.03667371
2573.02903564,0.03678614
2574.95784302,0.03670087
2576.88665039,0.03667145
2578.81545776,0.03666981
2580.74426514,0.03657434
2582.67307251,0.03652564
2584.60187988,0.03649739
2586.53068726,0.03645303
2588.45949463,0.03643222
2590.38830200,0.03640397
2592.31710937,0.03638681
2594.24591675,0.03629102
2596.17472412,0.03626532
2598.10353149,0.03621579
2600.03233887,0.03612970
2601.96114624,0.03625012
2603.88995361,0.03611476
2605.81876099,0.03603476
2607.74756836,0.03605990
2609.67637573,0.03595438
2611.60518311,0.03598059
2613.53399048,0.03597006
2615.46279785,0.03604584
2617.39160522,0.03595871
2619.32041260,0.03585677
2621.24921997,0.03591203
2623.17802734,0.03583680
2625.10683472,0.03585534
2627.03564209,0.03586064
2628.96444946,0.03576852
2630.89325684,0.03574868
2632.82206421,0.03579674
2634.75087158,0.03570527
2636.67967895,0.03568569
2638.60848633,0.03560086
2640.53729370,0.03545535
2642.46610107,0.03561451
2644.39490845,0.03562069
2646.32371582,0.03558451
2648.25252319,0.03548905
2650.18133057,0.03543546
2652.11013794,0.03542772
2654.03894531,0.03529824
2655.96775269,0.03533460
2657.89656006,0.03521772
2659.82536743,0.03530557
2661.75417480,0.03536272
2663.68298218,0.03520992
2665.61178955,0.03514867
2667.54059692,0.03506562
2669.46940430,0.03517902
2671.39821167,0.03498206
2673.32701904,0.03492328
2675.25582642,0.03506541
2677.18463379,0.03492325
2679.11344116,0.03492959
2681.04224854,0.03494518
2682.97105591,0.03490860
2684.89986328,0.03475944
2686.82867065,0.03477691
2688.75747803,0.03479388
2690.68628540,0.03466555
2692.61509277,0.03471768
2694.54390015,0.03461696
2696.47270752,0.03452390
2698.40151489,0.03453847
2700.33032227,0.03458697
2702.25912964,0.03448170
2704.18793701,0.03440175
2706.11674438,0.03445633
2708.04555176,0.03425828
2709.97435913,0.03430431
2711.90316650,0.03440864
2713.83197388,0.03435707
2715.76078125,0.03436757
2717.68958862,0.03424268
2719.61839600,0.03420854
2721.54720337,0.03417432
2723.47601074,0.03406875
2725.40481812,0.03409540
2727.33362549,0.03406810
2729.26243286,0.03390163
2731.19124023,0.03384089
2733.12004761,0.03387003
2735.04885498,0.03387358
2736.97766235,0.03388240
2738.90646973,0.03387763
2740.83527710,0.03382663
2742.76408447,0.03366300
2744.69289185,0.03368747
2746.62169922,0.03371489
2748.55050659,0.03355483
2750.47931396,0.03369012
2752.40812134,0.03370834
2754.33692871,0.03349983
2756.26573608,0.03351701
2758.19454346,0.03346953
2760.12335083,0.03329340
2762.05215820,0.03325111
2763.98096558,0.03327706
2765.90977295,0.03319643
2767.83858032,0.03313937
2769.76738770,0.03316101
2771.69619507,0.03310123
2773.62500244,0.03308129
2775.55380981,0.03301713
2777.48261719,0.03294143
2779.41142456,0.03303870
2781.34023193,0.03289060
2783.26903931,0.03275812
2785.19784668,0.03286590
2787.12665405,0.03272408
2789.05546143,0.03264178
2790.98426880,0.03266230
2792.91307617,0.03261026
2794.84188354,0.03263855
2796.77069092,0.03257652
2798.69949829,0.03250050
2800.62830566,0.03243537
2802.55711304,0.03233925
2804.48592041,0.03234161
2806.41472778,0.03232594
2808.34353516,0.03221262
2810.27234253,0.03213443
2812.20114990,0.03208685
2814.12995728,0.03204270
2816.05876465,0.03208794
2817.98757202,0.03204007
2819.91637939,0.03198353
2821.84518677,0.03204425
2823.77399414,0.03191194
2825.70280151,0.03180037
2827.63160889,0.03177960
2829.56041626,0.03165370
2831.48922363,0.03168751
2833.41803101,0.03164802
2835.34683838,0.03144202
2837.27564575,0.03142280
2839.20445312,0.03138813
2841.13326050,0.03125109
2843.06206787,0.03117341
2844.99087524,0.03108095
2846.91968262,0.03091975
2848.84848999,0.03080684
2850.77729736,0.03071321
2852.70610474,0.03070450
2854.63491211,0.03073766
2856.56371948,0.03055233
2858.49252686,0.03058312
2860.42133423,0.03065863
2862.35014160,0.03056578
2864.27894897,0.03063117
2866.20775635,0.03039395
2868.13656372,0.03024149
2870.06537109,0.03038239
2871.99417847,0.03034790
2873.92298584,0.03035131
2875.85179321,0.03031572
2877.78060059,0.03025094
2879.70940796,0.03021225
2881.63821533,0.03011468
2883.56702270,0.03006845
2885.49583008,0.03010208
2887.42463745,0.03006491
2889.35344482,0.02994096
2891.28225220,0.02988675
2893.21105957,0.02989157
2895.13986694,0.02984222
2897.06867432,0.02962596
2898.99748169,0.02961029
2900.92628906,0.02962078
2902.85509644,0.02939263
2904.78390381,0.02943482
2906.71271118,0.02941994
2908.64151855,0.02921659
2910.57032593,0.02915568
2912.49913330,0.02911531
2914.42794067,0.02897831
2916.35674805,0.02877637
2918.28555542,0.02868519
2920.21436279,0.02867516
2922.14317017,0.02862977
2924.07197754,0.02865005
2926.00078491,0.02864937
2927.92959229,0.02843758
2929.85839966,0.02850837
2931.78720703,0.02859651
2933.71601440,0.02840202
2935.64482178,0.02848014
2937.57362915,0.02838187
2939.50243652,0.02828700
2941.43124390,0.02837227
2943.36005127,0.02834094
2945.28885864,0.02834614
2947.21766602,0.02828582
2949.14647339,0.02828125
2951.07528076,0.02812283
2953.00408813,0.02805215
2954.93289551,0.02803439
2956.86170288,0.02790265
2958.79051025,0.02791710
2960.71931763,0.02777278
2962.64812500,0.02779311
2964.57693237,0.02772835
2966.50573975,0.02753670
2968.43454712,0.02758946
2970.36335449,0.02764544
2972.29216187,0.02772008
2974.22096924,0.02762870
2976.14977661,0.02759632
2978.07858398,0.02765910
2980.00739136,0.02766713
2981.93619873,0.02752100
2983.86500610,0.02747434
2985.79381348,0.02765312
2987.72262085,0.02742540
2989.65142822,0.02738362
2991.58023560,0.02747831
2993.50904297,0.02735351
2995.43785034,0.02733518
2997.36665771,0.02705723
2999.29546509,0.02695775
3001.22427246,0.02718436
3003.15307983,0.02711134
3005.08188721,0.02689972
3007.01069458,0.02691858
3008.93950195,0.02692554
3010.86830933,0.02674731
3012.79711670,0.02663683
3014.72592407,0.02666554
3016.65473145,0.02662207
3018.58353882,0.02649560
3020.51234619,0.02652307
3022.44115356,0.02640763
3024.36996094,0.02625395
3026.29876831,0.02625653
3028.22757568,0.02615317
3030.15638306,0.02607782
3032.08519043,0.02597122
3034.01399780,0.02593010
3035.94280518,0.02590451
3037.87161255,0.02575487
3039.80041992,0.02573661
3041.72922729,0.02578506
3043.65803467,0.02567590
3045.58684204,0.02552439
3047.51564941,0.02545585
3049.44445679,0.02537952
3051.37326416,0.02539551
3053.30207153,0.02525105
3055.23087891,0.02515306
3057.15968628,0.02517221
3059.08849365,0.02497536
3061.01730103,0.02500501
3062.94610840,0.02495503
3064.87491577,0.02481412
3066.80372314,0.02480211
3068.73253052,0.02476647
3070.66133789,0.02469976
3072.59014526,0.02457736
3074.51895264,0.02458924
3076.44776001,0.02434887
3078.37656738,0.02424192
3080.30537476,0.02423820
3082.23418213,0.02405431
3084.16298950,0.02417850
3086.09179687,0.02402341
3088.02060425,0.02382213
3089.94941162,0.02386050
3091.87821899,0.02376018
3093.80702637,0.02365519
3095.73583374,0.02364208
3097.66464111,0.02356255
3099.59344849,0.02338917
3101.52225586,0.02341032
3103.45106323,0.02329075
3105.37987061,0.02316474
3107.30867798,0.02311973
3109.23748535,0.02303042
3111.16629272,0.02298285
3113.09510010,0.02269183
3115.02390747,0.02265701
3116.95271484,0.02264749
3118.88152222,0.02245859
3120.81032959,0.02243391
3122.73913696,0.02238139
3124.66794434,0.02242671
3126.59675171,0.02224571
3128.52555908,0.02199171
3130.45436645,0.02199210
3132.38317383,0.02186602
3134.31198120,0.02167920
3136.24078857,0.02165267
3138.16959595,0.02162100
3140.09840332,0.02146257
3142.02721069,0.02140556
3143.95601807,0.02135352
3145.88482544,0.02119096
3147.81363281,0.02105408
3149.74244019,0.02094799
3151.67124756,0.02088516
3153.60005493,0.02088502
3155.52886230,0.02076856
3157.45766968,0.02054976
3159.38647705,0.02051628
3161.31528442,0.02040651
3163.24409180,0.02031252
3165.17289917,0.02030917
3167.10170654,0.02010210
3169.03051392,0.02001224
3170.95932129,0.01994980
3172.88812866,0.01984977
3174.81693604,0.01977851
3176.74574341,0.01965890
3178.67455078,0.01960725
3180.60335815,0.01952352
3182.53216553,0.01950347
3184.46097290,0.01937374
3186.38978027,0.01919973
3188.31858765,0.01922690
3190.24739502,0.01906997
3192.17620239,0.01900395
3194.10500977,0.01904463
3196.03381714,0.01883947
3197.96262451,0.01876273
3199.89143188,0.01871218
3201.82023926,0.01856904
3203.74904663,0.01854130
3205.67785400,0.01849648
3207.60666138,0.01839316
3209.53546875,0.01835133
3211.46427612,0.01833940
3213.39308350,0.01823094
3215.32189087,0.01819533
3217.25069824,0.01816833
3219.17950562,0.01804430
3221.10831299,0.01804321
3223.03712036,0.01798305
3224.96592773,0.01785560
3226.89473511,0.01780937
3228.82354248,0.01779051
3230.75234985,0.01781143
3232.68115723,0.01778738
3234.60996460,0.01772856
3236.53877197,0.01769619
3238.46757935,0.01758511
3240.39638672,0.01748684
3242.32519409,0.01751268
3244.25400146,0.01747089
3246.18280884,0.01744059
3248.11161621,0.01745043
3250.04042358,0.01748664
3251.96923096,0.01747771
3253.89803833,0.01730979
3255.82684570,0.01731459
3257.75565308,0.01731064
3259.68446045,0.01727670
3261.61326782,0.01728182
3263.54207520,0.01724523
3265.47088257,0.01728388
3267.39968994,0.01716974
3269.32849731,0.01718386
3271.25730469,0.01721258
3273.18611206,0.01712323
3275.11491943,0.01716401
3277.04372681,0.01713143
3278.97253418,0.01712456
3280.90134155,0.01717918
3282.83014893,0.01715424
3284.75895630,0.01708027
3286.68776367,0.01709751
3288.61657104,0.01697588
3290.54537842,0.01697686
3292.47418579,0.01706945
3294.40299316,0.01695416
3296.33180054,0.01706291
3298.26060791,0.01689090
3300.18941528,0.01683112
3302.11822266,0.01694894
3304.04703003,0.01682807
3305.97583740,0.01686759
3307.90464478,0.01672140
3309.83345215,0.01680076
3311.76225952,0.01685520
3313.69106689,0.01677932
3315.61987427,0.01677180
3317.54868164,0.01669398
3319.47748901,0.01688701
3321.40629639,0.01676344
3323.33510376,0.01670394
3325.26391113,0.01675639
3327.19271851,0.01663216
3329.12152588,0.01665361
3331.05033325,0.01664576
3332.97914062,0.01671870
3334.90794800,0.01663035
3336.83675537,0.01655164
3338.76556274,0.01660140
3340.69437012,0.01662066
3342.62317749,0.01656624
3344.55198486,0.01648862
3346.48079224,0.01649819
3348.40959961,0.01644841
3350.33840698,0.01651919
3352.26721436,0.01642304
3354.19602173,0.01639336
3356.12482910,0.01652329
3358.05363647,0.01641138
3359.98244385,0.01640720
3361.91125122,0.01644705
3363.84005859,0.01635355
3365.76886597,0.01633971
3367.69767334,0.01642285
3369.62648071,0.01625931
3371.55528809,0.01626095
3373.48409546,0.01637150
3375.41290283,0.01630961
3377.34171020,0.01638553
3379.27051758,0.01626240
3381.19932495,0.01623531
3383.12813232,0.01629931
3385.05693970,0.01625528
3386.98574707,0.01621727
3388.91455444,0.01630218
3390.84336182,0.01637472
3392.77216919,0.01618131
3394.70097656,0.01629791
3396.62978394,0.01629933
3398.55859131,0.01620393
3400.48739868,0.01624489
3402.41620605,0.01621689
3404.34501343,0.01634186
3406.27382080,0.01632258
3408.20262817,0.01635959
3410.13143555,0.01638699
3412.06024292,0.01634790
3413.98905029,0.01633156
3415.91785767,0.01640493
3417.84666504,0.01644839
3419.77547241,0.01635876
3421.70427979,0.01642279
3423.63308716,0.01636731
3425.56189453,0.01646896
3427.49070190,0.01641291
3429.41950928,0.01634629
3431.34831665,0.01645299
3433.27712402,0.01638961
3435.20593140,0.01655702
3437.13473877,0.01646094
3439.06354614,0.01650373
3440.99235352,0.01653535
3442.92116089,0.01641941
3444.84996826,0.01653143
3446.77877563,0.01638683
3448.70758301,0.01651854
3450.63639038,0.01668314
3452.56519775,0.01665545
3454.49400513,0.01665820
3456.42281250,0.01668739
3458.35161987,0.01670327
3460.28042725,0.01670923
3462.20923462,0.01676206
3464.13804199,0.01669352
3466.06684937,0.01676651
3467.99565674,0.01675425
3469.92446411,0.01683086
3471.85327148,0.01684047
3473.78207886,0.01678744
3475.71088623,0.01690668
3477.63969360,0.01687735
3479.56850098,0.01691162
3481.49730835,0.01665647
3483.42611572,0.01684990
3485.35492310,0.01713657
3487.28373047,0.01683360
3489.21253784,0.01686957
3491.14134521,0.01700046
3493.07015259,0.01707833
3494.99895996,0.01705411
3496.92776733,0.01714540
3498.85657471,0.01723265
3500.78538208,0.01720465
3502.71418945,0.01701189
3504.64299683,0.01701047
3506.57180420,0.01748941
3508.50061157,0.01721964
3510.42941895,0.01714360
3512.35822632,0.01745003
3514.28703369,0.01747392
3516.21584106,0.01754783
3518.14464844,0.01741074
3520.07345581,0.01754110
3522.00226318,0.01745179
3523.93107056,0.01726940
3525.85987793,0.01740374
3527.78868530,0.01739168
3529.71749268,0.01746988
3531.64630005,0.01766718
3533.57510742,0.01780926
3535.50391479,0.01773985
3537.43272217,0.01768431
3539.36152954,0.01778625
3541.29033691,0.01785687
3543.21914429,0.01782973
3545.14795166,0.01752272
3547.07675903,0.01722349
3549.00556641,0.01783619
3550.93437378,0.01800006
3552.86318115,0.01748831
3554.79198853,0.01797752
3556.72079590,0.01808971
3558.64960327,0.01805403
3560.57841064,0.01797737
3562.50721802,0.01781240
3564.43602539,0.01808836
3566.36483276,0.01692407
3568.29364014,0.01650068
3570.22244751,0.01789830
3572.15125488,0.01836596
3574.08006226,0.01813058
3576.00886963,0.01829538
3577.93767700,0.01838504
3579.86648437,0.01830232
3581.79529175,0.01828657
3583.72409912,0.01836696
3585.65290649,0.01810292
3587.58171387,0.01664154
3589.51052124,0.01696335
3591.43932861,0.01862440
3593.36813599,0.01824744
3595.29694336,0.01784804
3597.22575073,0.01818608
3599.15455811,0.01837648
3601.08336548,0.01822328
3603.01217285,0.01845113
3604.94098022,0.01884334
3606.86978760,0.01821661
3608.79859497,0.01713411
3610.72740234,0.01750831
3612.65620972,0.01793069
3614.58501709,0.01740687
3616.51382446,0.01877549
3618.44263184,0.01742158
3620.37143921,0.01674730
3622.30024658,0.01901468
3624.22905395,0.01858726
3626.15786133,0.01937680
3628.08666870,0.01642748
3630.01547607,0.01503239
3631.94428345,0.01886860
3633.87309082,0.01832023
3635.80189819,0.01879023
3637.73070557,0.01924152
3639.65951294,0.01895322
3641.58832031,0.01917911
3643.51712769,0.01894212
3645.44593506,0.01920606
3647.37474243,0.01722126
3649.30354980,0.01584792
3651.23235718,0.01607751
3653.16116455,0.01909837
3655.08997192,0.01899831
3657.01877930,0.01698499
3658.94758667,0.01957548
3660.87639404,0.01919603
3662.80520142,0.01941019
3664.73400879,0.01938336
3666.66281616,0.01921270
3668.59162354,0.01870901
3670.52043091,0.01523126
3672.44923828,0.01852482
3674.37804565,0.01771511
3676.30685303,0.01454174
3678.23566040,0.01841169
3680.16446777,0.01892697
3682.09327515,0.01890823
3684.02208252,0.01953203
3685.95088989,0.01928226
3687.87969727,0.01741367
3689.80850464,0.01592115
3691.73731201,0.01812432
3693.66611938,0.01876938
3695.59492676,0.01923659
3697.52373413,0.01919586
3699.45254150,0.01908349
3701.38134888,0.01861188
3703.31015625,0.01785308
3705.23896362,0.01969451
3707.16777100,0.01872297
3709.09657837,0.01829890
3711.02538574,0.01723058
3712.95419312,0.01597908
3714.88300049,0.01892341
3716.81180786,0.01873641
3718.74061523,0.01875342
3720.66942261,0.01844386
3722.59822998,0.01786213
3724.52703735,0.01853237
3726.45584473,0.01713980
3728.38465210,0.01861664
3730.31345947,0.01843822
3732.24226685,0.01682810
3734.17107422,0.01645153
3736.09988159,0.01558672
3738.02868896,0.01653099
3739.95749634,0.01800931
3741.88630371,0.01891750
3743.81511108,0.01470328
3745.74391846,0.01367652
3747.67272583,0.01787699
3749.60153320,0.01549300
3751.53034058,0.01421234
3753.45914795,0.01636391
3755.38795532,0.01762216
3757.31676270,0.01838623
3759.24557007,0.01700649
3761.17437744,0.01746626
3763.10318481,0.01864262
3765.03199219,0.01755302
3766.96079956,0.01785500
3768.88960693,0.01762164
3770.81841431,0.01672144
3772.74722168,0.01805120
3774.67602905,0.01822542
3776.60483643,0.01820247
3778.53364380,0.01775083
3780.46245117,0.01704173
3782.39125854,0.01812866
3784.32006592,0.01784993
3786.24887329,0.01764644
3788.17768066,0.01803423
3790.10648804,0.01807379
3792.03529541,0.01783643
3793.96410278,0.01809439
3795.89291016,0.01706007
3797.82171753,0.01677666
3799.75052490,0.01782344
3801.67933228,0.01410494
3803.60813965,0.01636601
3805.53694702,0.01796409
3807.46575439,0.01457961
3809.39456177,0.01763928
3811.32336914,0.01734648
3813.25217651,0.01793173
3815.18098389,0.01631579
3817.10979126,0.01425434
3819.03859863,0.01806908
3820.96740601,0.01456454
3822.89621338,0.01520733
3824.82502075,0.01787801
3826.75382812,0.01613575
3828.68263550,0.01747243
3830.61144287,0.01677156
3832.54025024,0.01614697
3834.46905762,0.01654637
3836.39786499,0.01575074
3838.32667236,0.01426641
3840.25547974,0.01537165
3842.18428711,0.01660205
3844.11309448,0.01585027
3846.04190186,0.01706710
3847.97070923,0.01684262
3849.89951660,0.01690478
3851.82832397,0.01515432
3853.75713135,0.01134249
3855.68593872,0.01344469
3857.61474609,0.01690193
3859.54355347,0.01652399
3861.47236084,0.01621391
3863.40116821,0.01592321
3865.32997559,0.01484174
3867.25878296,0.01654420
3869.18759033,0.01519513
3871.11639770,0.01396859
3873.04520508,0.01660953
3874.97401245,0.01526815
3876.90281982,0.01649901
3878.83162720,0.01685979
3880.76043457,0.01430377
3882.68924194,0.01662981
3884.61804932,0.01561673
3886.54685669,0.01416977
3888.47566406,0.01667025
3890.40447144,0.01571129
3892.33327881,0.01475820
3894.26208618,0.01631012
3896.19089355,0.01648972
3898.11970093,0.01575008
3900.04850830,0.01483130
3901.97731567,0.01462678
3903.90612305,0.01454627
3905.83493042,0.01464863
3907.76373779,0.01620956
3909.69254517,0.01625159
3911.62135254,0.01604385
3913.55015991,0.01636510
3915.47896728,0.01571011
3917.40777466,0.01532227
3919.33658203,0.01518113
3921.26538940,0.01579017
3923.19419678,0.01576452
3925.12300415,0.01540331
3927.05181152,0.01574198
3928.98061890,0.01590461
3930.90942627,0.01560208
3932.83823364,0.01497544
3934.76704102,0.01555891
3936.69584839,0.01582232
3938.62465576,0.01571514
3940.55346313,0.01584646
3942.48227051,0.01519882
3944.41107788,0.01532055
3946.33988525,0.01555053
3948.26869263,0.01520897
3950.19750000,0.01528123
3952.12630737,0.01547416
3954.05511475,0.01544472
3955.98392212,0.01540978
3957.91272949,0.01531664
3959.84153687,0.01534780
3961.77034424,0.01531960
3963.69915161,0.01520248
3965.62795898,0.01544562
3967.55676636,0.01531921
3969.48557373,0.01520770
3971.41438110,0.01517414
3973.34318848,0.01506383
3975.27199585,0.01506506
3977.20080322,0.01510425
3979.12961060,0.01525804
3981.05841797,0.01503273
3982.98722534,0.01515782
3984.91603271,0.01503523
3986.84484009,0.01489313
3988.77364746,0.01513035
3990.70245483,0.01494008
3992.63126221,0.01503591
3994.56006958,0.01486268
3996.48887695,0.01486821
3998.41768433,0.01495958
4000.34649170,0.01479869
4002.27529907,0.01488941
4004.20410645,0.01484022
4006.13291382,0.01488283
4008.06172119,0.01472788
4009.99052856,0.01469523
4011.91933594,0.01471337
4013.84814331,0.01472197
4015.77695068,0.01471514
4017.70575806,0.01457176
4019.63456543,0.01459182
4021.56337280,0.01453101
4023.49218018,0.01468428
4025.42098755,0.01450298
4027.34979492,0.01443925
4029.27860229,0.01455820
4031.20740967,0.01443002
4033.13621704,0.01449924
4035.06502441,0.01439428
4036.99383179,0.01439789
4038.92263916,0.01430869
4040.85144653,0.01440783
4042.78025391,0.01436611
4044.70906128,0.01416286
4046.63786865,0.01433381
4048.56667603,0.01416313
4050.49548340,0.01416802
4052.42429077,0.01418302
4054.35309814,0.01420024
4056.28190552,0.01420180
4058.21071289,0.01408393
4060.13952026,0.01411466
4062.06832764,0.01402650
4063.99713501,0.01406457
4065.92594238,0.01394364
4067.85474976,0.01395833
4069.78355713,0.01396542
4071.71236450,0.01391959
4073.64117187,0.01396705
4075.56997925,0.01381322
4077.49878662,0.01393210
4079.42759399,0.01386389
4081.35640137,0.01371633
4083.28520874,0.01378627
4085.21401611,0.01382497
4087.14282349,0.01379231
4089.07163086,0.01376731
4091.00043823,0.01369553
4092.92924561,0.01358055
4094.85805298,0.01365427
4096.78686035,0.01352965
4098.71566772,0.01359191
4100.64447510,0.01357910
4102.57328247,0.01343548
4104.50208984,0.01356374
4106.43089722,0.01346744
4108.35970459,0.01340405
4110.28851196,0.01337213
4112.21731934,0.01342185
4114.14612671,0.01330404
4116.07493408,0.01329239
4118.00374145,0.01346644
4119.93254883,0.01333746
4121.86135620,0.01336975
4123.79016357,0.01328070
4125.71897095,0.01325183
4127.64777832,0.01326140
4129.57658569,0.01324070
4131.50539307,0.01321068
4133.43420044,0.01301871
4135.36300781,0.01316942
4137.29181519,0.01319413
4139.22062256,0.01307879
4141.14942993,0.01302373
4143.07823730,0.01303729
4145.00704468,0.01306156
4146.93585205,0.01296113
4148.86465942,0.01296766
4150.79346680,0.01292490
4152.72227417,0.01292031
4154.65108154,0.01289789
4156.57988892,0.01285391
4158.50869629,0.01276588
4160.43750366,0.01278178
4162.36631103,0.01281705
4164.29511841,0.01270924
4166.22392578,0.01279696
4168.15273315,0.01269406
4170.08154053,0.01264192
4172.01034790,0.01266655
4173.93915527,0.01256435
4175.86796265,0.01258848
4177.79677002,0.01259002
4179.72557739,0.01255479
4181.65438477,0.01245715
4183.58319214,0.01249040
4185.51199951,0.01249718
4187.44080688,0.01241725
4189.36961426,0.01234865
4191.29842163,0.01238302
4193.22722900,0.01241680
4195.15603638,0.01232260
4197.08484375,0.01241164
4199.01365112,0.01232149
4200.94245850,0.01231075
4202.87126587,0.01233433
4204.80007324,0.01228115
4206.72888062,0.01235783
4208.65768799,0.01215014
4210.58649536,0.01215240
4212.51530273,0.01220426
4214.44411011,0.01210041
4216.37291748,0.01208383
4218.30172485,0.01206457
4220.23053223,0.01208079
4222.15933960,0.01201617
4224.08814697,0.01196114
4226.01695435,0.01194977
4227.94576172,0.01200670
4229.87456909,0.01193812
4231.80337646,0.01193100
4233.73218384,0.01198072
4235.66099121,0.01188995
4237.58979858,0.01189825
4239.51860596,0.01184113
4241.44741333,0.01188907
4243.37622070,0.01184554
4245.30502808,0.01174692
4247.23383545,0.01176931
4249.16264282,0.01168113
4251.09145020,0.01168189
4253.02025757,0.01167631
4254.94906494,0.01171938
4256.87787231,0.01165933
4258.80667969,0.01155017
4260.73548706,0.01156840
4262.66429443,0.01151505
4264.59310181,0.01156473
4266.52190918,0.01157962
4268.45071655,0.01150912
4270.37952393,0.01145894
4272.30833130,0.01139520
4274.23713867,0.01142170
4276.16594604,0.01147464
4278.09475342,0.01141087
4280.02356079,0.01135844
4281.95236816,0.01134478
4283.88117554,0.01130852
4285.80998291,0.01130467
4287.73879028,0.01125523
4289.66759766,0.01123637
4291.59640503,0.01117061
4293.52521240,0.01112831
4295.45401978,0.01118521
4297.38282715,0.01119978
4299.31163452,0.01119389
4301.24044189,0.01110023
4303.16924927,0.01107558
4305.09805664,0.01107482
4307.02686401,0.01103944
4308.95567139,0.01102113
4310.88447876,0.01102529
4312.81328613,0.01102034
4314.74209351,0.01096688
4316.67090088,0.01097348
4318.59970825,0.01090912
4320.52851562,0.01091587
4322.45732300,0.01089549
4324.38613037,0.01087664
4326.31493774,0.01091065
4328.24374512,0.01079235
4330.17255249,0.01078851
4332.10135986,0.01077805
4334.03016724,0.01076828
4335.95897461,0.01073780
4337.88778198,0.01074993
4339.81658936,0.01074637
4341.74539673,0.01066387
4343.67420410,0.01071640
4345.60301147,0.01056276
4347.53181885,0.01054278
4349.46062622,0.01057859
4351.38943359,0.01055039
4353.31824097,0.01058280
4355.24704834,0.01045951
4357.17585571,0.01052009
4359.10466309,0.01049929
4361.03347046,0.01047819
4362.96227783,0.01054501
4364.89108520,0.01045163
4366.81989258,0.01037718
4368.74869995,0.01037098
4370.67750732,0.01034952
4372.60631470,0.01029400
4374.53512207,0.01036680
4376.46392944,0.01031681
4378.39273682,0.01032295
4380.32154419,0.01031264
4382.25035156,0.01016926
4384.17915894,0.01022081
4386.10796631,0.01022411
4388.03677368,0.01022325
4389.96558105,0.01010421
4391.89438843,0.01009491
4393.82319580,0.01014478
4395.75200317,0.01008574
4397.68081055,0.01015256
4399.60961792,0.01006069
4401.53842529,0.01002344
4403.46723267,0.00996925
4405.39604004,0.01003160
4407.32484741,0.01010521
4409.25365478,0.00993289
4411.18246216,0.01000218
4413.11126953,0.00998835
4415.04007690,0.00987088
4416.96888428,0.00984749
4418.89769165,0.00985286
4420.82649902,0.00981724
4422.75530640,0.00972241
4424.68411377,0.00974653
4426.61292114,0.00974431
4428.54172852,0.00973220
4430.47053589,0.00971434
4432.39934326,0.00971274
4434.32815063,0.00972600
4436.25695801,0.00968276
4438.18576538,0.00962569
4440.11457275,0.00960411
4442.04338013,0.00957663
4443.97218750,0.00951428
4445.90099487,0.00962835
4447.82980225,0.00958850
4449.75860962,0.00947461
4451.68741699,0.00955192
4453.61622437,0.00946860
4455.54503174,0.00942441
4457.47383911,0.00942850
4459.40264648,0.00938867
4461.33145386,0.00939872
4463.26026123,0.00939110
4465.18906860,0.00941611
4467.11787598,0.00933202
4469.04668335,0.00927886
4470.97549072,0.00934771
4472.90429810,0.00931410
4474.83310547,0.00929284
4476.76191284,0.00924597
4478.69072021,0.00925365
4480.61952759,0.00924823
4482.54833496,0.00914087
4484.47714233,0.00923140
4486.40594971,0.00915485
4488.33475708,0.00910856
4490.26356445,0.00917479
4492.19237183,0.00904572
4494.12117920,0.00912306
4496.04998657,0.00911620
4497.97879395,0.00907361
4499.90760132,0.00904496
4501.83640869,0.00894186
4503.76521606,0.00903722
4505.69402344,0.00904058
4507.62283081,0.00895675
4509.55163818,0.00891038
4511.48044556,0.00898187
4513.40925293,0.00894189
4515.33806030,0.00883851
4517.26686768,0.00884924
4519.19567505,0.00878103
4521.12448242,0.00886437
4523.05328979,0.00889117
4524.98209717,0.00883790
4526.91090454,0.00880979
4528.83971191,0.00873605
4530.76851929,0.00868380
4532.69732666,0.00866558
4534.62613403,0.00869710
4536.55494141,0.00866191
4538.48374878,0.00872174
4540.41255615,0.00871177
4542.34136353,0.00865291
4544.27017090,0.00857840
4546.19897827,0.00849955
4548.12778564,0.00855415
4550.05659302,0.00846018
4551.98540039,0.00853097
4553.91420776,0.00861077
4555.84301514,0.00855005
4557.77182251,0.00855876
4559.70062988,0.00852789
4561.62943726,0.00846645
4563.55824463,0.00843100
4565.48705200,0.00851653
4567.41585937,0.00844584
4569.34466675,0.00840173
4571.27347412,0.00831778
4573.20228149,0.00824878
4575.13108887,0.00833139
4577.05989624,0.00821434
4578.98870361,0.00828766
4580.91751099,0.00829652
4582.84631836,0.00827873
4584.77512573,0.00838132
4586.70393311,0.00827324
4588.63274048,0.00821406
4590.56154785,0.00822870
4592.49035522,0.00818386
4594.41916260,0.00812638
4596.34796997,0.00820697
4598.27677734,0.00810723
4600.20558472,0.00812891
4602.13439209,0.00818168
4604.06319946,0.00796215
4605.99200684,0.00805392
4607.92081421,0.00802483
4609.84962158,0.00796841
4611.77842895,0.00795237
4613.70723633,0.00792857
4615.63604370,0.00799981
4617.56485107,0.00789824
4619.49365845,0.00797909
4621.42246582,0.00797419
4623.35127319,0.00790840
4625.28008057,0.00787256
4627.20888794,0.00782039
4629.13769531,0.00783971
4631.06650269,0.00781727
4632.99531006,0.00783998
4634.92411743,0.00774870
4636.85292480,0.00779227
4638.78173218,0.00777076
4640.71053955,0.00775717
4642.63934692,0.00781033
4644.56815430,0.00765906
4646.49696167,0.00772517
4648.42576904,0.00766994
4650.35457642,0.00763952
4652.28338379,0.00769046
4654.21219116,0.00757175
4656.14099853,0.00761336
4658.06980591,0.00762965
4659.99861328,0.00759558
4661.92742065,0.00755949
4663.85622803,0.00750866
4665.78503540,0.00749150
4667.71384277,0.00750902
4669.64265015,0.00748812
4671.57145752,0.00746646
4673.50026489,0.00746562
4675.42907227,0.00739102
4677.35787964,0.00739012
4679.28668701,0.00743806
4681.21549438,0.00746690
4683.14430176,0.00738706
4685.07310913,0.00733849
4687.00191650,0.00732825
4688.93072388,0.00728595
4690.85953125,0.00733056
4692.78833862,0.00731287
4694.71714600,0.00734236
4696.64595337,0.00728006
4698.57476074,0.00725586
4700.50356812,0.00735007
4702.43237549,0.00724088
4704.36118286,0.00719554
4706.28999023,0.00720086
4708.21879761,0.00718618
4710.14760498,0.00716404
4712.07641235,0.00712614
4714.00521973,0.00712639
4715.93402710,0.00710982
4717.86283447,0.00708212
4719.79164185,0.00704487
4721.72044922,0.00705558
4723.64925659,0.00704268
4725.57806396,0.00704407
4727.50687134,0.00704877
4729.43567871,0.00697403
4731.36448608,0.00689603
4733.29329346,0.00693462
4735.22210083,0.00700807
4737.15090820,0.00697974
4739.07971558,0.00702127
4741.00852295,0.00697411
4742.93733032,0.00688708
4744.86613770,0.00693668
4746.79494507,0.00693000
4748.72375244,0.00687287
4750.65255981,0.00683511
4752.58136719,0.00683996
4754.51017456,0.00687190
4756.43898193,0.00689617
4758.36778931,0.00675580
4760.29659668,0.00671836
4762.22540405,0.00682548
4764.15421143,0.00676628
4766.08301880,0.00676095
4768.01182617,0.00671411
4769.94063354,0.00664577
4771.86944092,0.00662781
4773.79824829,0.00663445
4775.72705566,0.00669183
4777.65586304,0.00663152
4779.58467041,0.00665089
4781.51347778,0.00668346
4783.44228516,0.00658006
4785.37109253,0.00653317
4787.29989990,0.00660427
4789.22870728,0.00666989
4791.15751465,0.00659086
4793.08632202,0.00648047
4795.01512939,0.00652944
4796.94393677,0.00654642
4798.87274414,0.00645708
4800.80155151,0.00652152
4802.73035889,0.00650248
4804.65916626,0.00643287
4806.58797363,0.00647665
4808.51678101,0.00647367
4810.44558838,0.00642886
4812.37439575,0.00634714
4814.30320312,0.00639243
4816.23201050,0.00640996
4818.16081787,0.00640488
4820.08962524,0.00639658
4822.01843262,0.00631087
4823.94723999,0.00632274
4825.87604736,0.00627238
4827.80485474,0.00630269
4829.73366211,0.00629244
4831.66246948,0.00621833
4833.59127686,0.00628898
4835.52008423,0.00619847
4837.44889160,0.00613292
4839.37769897,0.00624886
4841.30650635,0.00627077
4843.23531372,0.00619717
4845.16412109,0.00617983
4847.09292847,0.00610603
4849.02173584,0.00608019
4850.95054321,0.00614813
4852.87935059,0.00609898
4854.80815796,0.00608574
4856.73696533,0.00609950
4858.66577270,0.00610843
4860.59458008,0.00614972
4862.52338745,0.00612560
4864.45219482,0.00600674
4866.38100220,0.00602037
4868.30980957,0.00605068
4870.23861694,0.00591391
4872.16742432,0.00595904
4874.09623169,0.00593449
4876.02503906,0.00590456
4877.95384644,0.00596541
4879.88265381,0.00585327
4881.81146118,0.00589685
4883.74026855,0.00593677
4885.66907593,0.00588965
4887.59788330,0.00593265
4889.52669067,0.00589040
4891.45549805,0.00578890
4893.38430542,0.00581167
4895.31311279,0.00580160
4897.24192017,0.00573084
4899.17072754,0.00575152
4901.09953491,0.00577130
4903.02834228,0.00579102
4904.95714966,0.00570783
4906.88595703,0.00574515
4908.81476440,0.00577418
4910.74357178,0.00568633
4912.67237915,0.00572544
4914.60118652,0.00563947
4916.52999390,0.00568883
4918.45880127,0.00568546
4920.38760864,0.00560531
4922.31641602,0.00560577
4924.24522339,0.00551215
4926.17403076,0.00559583
4928.10283813,0.00559145
4930.03164551,0.00556813
4931.96045288,0.00550718
4933.88926025,0.00547513
4935.81806763,0.00558550
4937.74687500,0.00552869
4939.67568237,0.00549272
4941.60448975,0.00546458
4943.53329712,0.00559708
4945.46210449,0.00556284
4947.39091187,0.00541056
4949.31971924,0.00549859
4951.24852661,0.00543064
4953.17733398,0.00545242
4955.10614136,0.00546298
4957.03494873,0.00539738
4958.96375610,0.00543265
4960.89256348,0.00544188
4962.82137085,0.00535643
4964.75017822,0.00526629
4966.67898560,0.00531774
4968.60779297,0.00529935
4970.53660034,0.00537495
4972.46540771,0.00535062
4974.39421509,0.00527366
4976.32302246,0.00536935
4978.25182983,0.00522711
4980.18063721,0.00521784
4982.10944458,0.00531019
4984.03825195,0.00524692
4985.96705933,0.00519530
4987.89586670,0.00514540
4989.82467407,0.00521855
4991.75348145,0.00523111
4993.68228882,0.00515129
4995.61109619,0.00516934
4997.53990356,0.00519193
4999.46871094,0.00517167
5001.39751831,0.00511535
5003.32632568,0.00505739
5005.25513306,0.00510342
5007.18394043,0.00508722
5009.11274780,0.00499016
5011.04155518,0.00505987
5012.97036255,0.00508179
5014.89916992,0.00499700
5016.82797729,0.00500741
5018.75678467,0.00505229
5020.68559204,0.00502067
5022.61439941,0.00492567
5024.54320679,0.00494307
5026.47201416,0.00496092
5028.40082153,0.00489449
5030.32962891,0.00494895
5032.25843628,0.00494917
5034.18724365,0.00486401
5036.11605103,0.00489546
5038.04485840,0.00488574
5039.97366577,0.00488201
5041.90247314,0.00493332
5043.83128052,0.00490351
5045.76008789,0.00482439
5047.68889526,0.00474142
5049.61770264,0.00478908
5051.54651001,0.00484799
5053.47531738,0.00477170
5055.40412476,0.00476460
5057.33293213,0.00483583
5059.26173950,0.00481989
5061.19054687,0.00475781
5063.11935425,0.00472676
5065.04816162,0.00471368
5066.97696899,0.00473097
5068.90577637,0.00470521
5070.83458374,0.00469815
5072.76339111,0.00470073
5074.69219849,0.00469090
5076.62100586,0.00474788
5078.54981323,0.00471707
5080.47862061,0.00469745
5082.40742798,0.00468405
5084.33623535,0.00464340
5086.26504272,0.00467008
5088.19385010,0.00463545
5090.12265747,0.00464378
5092.05146484,0.00464824
5093.98027222,0.00456563
5095.90907959,0.00459267
5097.83788696,0.00461758
5099.76669434,0.00451608
5101.69550171,0.00447725
5103.62430908,0.00446545
5105.55311645,0.00451680
5107.48192383,0.00456763
5109.41073120,0.00447056
5111.33953857,0.00449391
5113.26834595,0.00448877
5115.19715332,0.00448940
5117.12596069,0.00449654
5119.05476807,0.00443707
5120.98357544,0.00446189
5122.91238281,0.00433829
5124.84119019,0.00435185
5126.76999756,0.00439058
5128.69880493,0.00438685
5130.62761230,0.00443758
5132.55641968,0.00433999
5134.48522705,0.00434069
5136.41403442,0.00428108
5138.34284180,0.00436154
5140.27164917,0.00440955
5142.20045654,0.00431988
5144.12926392,0.00437428
5146.05807129,0.00427024
5147.98687866,0.00431519
5149.91568603,0.00429163
5151.84449341,0.00422212
5153.77330078,0.00435025
5155.70210815,0.00427973
5157.63091553,0.00422484
5159.55972290,0.00430458
5161.48853027,0.00431869
5163.41733765,0.00415258
5165.34614502,0.00415999
5167.27495239,0.00427975
5169.20375977,0.00418996
5171.13256714,0.00418012
5173.06137451,0.00418517
5174.99018188,0.00415149
5176.91898926,0.00418709
5178.84779663,0.00415278
5180.77660400,0.00409785
5182.70541138,0.00412763
5184.63421875,0.00404934
5186.56302612,0.00409520
5188.49183350,0.00417050
5190.42064087,0.00401700
5192.34944824,0.00409260
5194.27825562,0.00408956
5196.20706299,0.00400584
5198.13587036,0.00405762
5200.06467773,0.00401418
5201.99348511,0.00403917
5203.92229248,0.00401774
5205.85109985,0.00394170
5207.77990723,0.00391029
5209.70871460,0.00393191
5211.63752197,0.00395658
5213.56632935,0.00395638
5215.49513672,0.00393659
5217.42394409,0.00396673
5219.35275146,0.00399864
5221.28155884,0.00384479
5223.21036621,0.00390412
5225.13917358,0.00395257
5227.06798096,0.00387213
5228.99678833,0.00396686
5230.92559570,0.00394157
5232.85440308,0.00385888
5234.78321045,0.00387780
5236.71201782,0.00392841
5238.64082520,0.00385040
5240.56963257,0.00388086
5242.49843994,0.00384059
5244.42724731,0.00370210
5246.35605469,0.00383972
5248.28486206,0.00375700
5250.21366943,0.00375114
5252.14247681,0.00381782
5254.07128418,0.00369755
5256.00009155,0.00374902
5257.92889893,0.00381347
5259.85770630,0.00378981
5261.78651367,0.00367820
5263.71532104,0.00370249
5265.64412842,0.00370342
5267.57293579,0.00371174
5269.50174316,0.00373137
5271.43055054,0.00363382
5273.35935791,0.00378006
5275.28816528,0.00372315
5277.21697266,0.00365091
5279.14578003,0.00368506
5281.07458740,0.00361641
5283.00339478,0.00370975
5284.93220215,0.00361493
5286.86100952,0.00363639
5288.78981689,0.00365709
5290.71862427,0.00347446
5292.64743164,0.00364772
5294.57623901,0.00374351
5296.50504639,0.00364123
5298.43385376,0.00363004
5300.36266113,0.00356644
5302.29146851,0.00359190
5304.22027588,0.00362831
5306.14908325,0.00351120
5308.07789062,0.00346210
5310.00669800,0.00347101
5311.93550537,0.00352365
5313.86431274,0.00357296
5315.79312012,0.00349090
5317.72192749,0.00348718
5319.65073486,0.00351361
5321.57954224,0.00347781
5323.50834961,0.00352805
5325.43715698,0.00354158
5327.36596436,0.00342683
5329.29477173,0.00340192
5331.22357910,0.00343477
5333.15238647,0.00338969
5335.08119385,0.00345179
5337.01000122,0.00342960
5338.93880859,0.00325741
5340.86761597,0.00334312
5342.79642334,0.00343812
5344.72523071,0.00329843
5346.65403809,0.00327011
5348.58284546,0.00336329
5350.51165283,0.00338208
5352.44046020,0.00332138
5354.36926758,0.00327627
5356.29807495,0.00333754
5358.22688232,0.00337323
5360.15568970,0.00332332
5362.08449707,0.00331904
5364.01330444,0.00332689
5365.94211182,0.00328715
5367.87091919,0.00332147
5369.79972656,0.00330104
5371.72853394,0.00325157
5373.65734131,0.00333027
5375.58614868,0.00325119
5377.51495605,0.00325678
5379.44376343,0.00327764
5381.37257080,0.00315309
5383.30137817,0.00326203
5385.23018555,0.00321653
5387.15899292,0.00315455
5389.08780029,0.00321427
5391.01660767,0.00318966
5392.94541504,0.00321518
5394.87422241,0.00308325
5396.80302978,0.00307445
5398.73183716,0.00316211
5400.66064453,0.00313657
5402.58945190,0.00316513
5404.51825928,0.00317320
5406.44706665,0.00322102
5408.37587402,0.00318066
5410.30468140,0.00304301
5412.23348877,0.00302998
5414.16229614,0.00307378
5416.09110352,0.00304587
5418.01991089,0.00309024
5419.94871826,0.00310842
5421.87752563,0.00300132
5423.80633301,0.00307375
5425.73514038,0.00311018
5427.66394775,0.00301743
5429.59275513,0.00296645
5431.52156250,0.00303184
5433.45036987,0.00309639
5435.37917725,0.00289311
5437.30798462,0.00293488
5439.23679199,0.00311231
5441.16559936,0.00297324
5443.09440674,0.00296475
5445.02321411,0.00299551
5446.95202148,0.00294105
5448.88082886,0.00297915
5450.80963623,0.00297096
5452.73844360,0.00295249
5454.66725098,0.00292385
5456.59605835,0.00294899
5458.52486572,0.00296392
5460.45367310,0.00285704
5462.38248047,0.00288616
5464.31128784,0.00292123
5466.24009521,0.00294318
5468.16890259,0.00292087
5470.09770996,0.00284587
5472.02651733,0.00295157
5473.95532471,0.00289506
5475.88413208,0.00280949
5477.81293945,0.00285795
5479.74174683,0.00289383
5481.67055420,0.00290208
5483.59936157,0.00285513
5485.52816895,0.00293335
5487.45697632,0.00286520
5489.38578369,0.00279982
5491.31459106,0.00284566
5493.24339844,0.00272555
5495.17220581,0.00274560
5497.10101318,0.00285193
5499.02982056,0.00281677
5500.95862793,0.00278142
5502.88743530,0.00283579
5504.81624268,0.00276855
5506.74505005,0.00273963
5508.67385742,0.00278569
5510.60266479,0.00272542
5512.53147217,0.00275850
5514.46027954,0.00274744
5516.38908691,0.00276239
5518.31789429,0.00274232
5520.24670166,0.00271826
5522.17550903,0.00277243
5524.10431641,0.00271640
5526.03312378,0.00274293
5527.96193115,0.00267047
5529.89073853,0.00270540
5531.81954590,0.00278058
5533.74835327,0.00264785
5535.67716064,0.00267316
5537.60596802,0.00267565
5539.53477539,0.00267547
5541.46358276,0.00268812
5543.39239014,0.00265229
5545.32119751,0.00262266
5547.25000488,0.00263302
5549.17881226,0.00266805
5551.10761963,0.00260951
5553.03642700,0.00265640
5554.96523437,0.00263472
5556.89404175,0.00260940
5558.82284912,0.00265105
5560.75165649,0.00255318
5562.68046387,0.00256214
5564.60927124,0.00259807
5566.53807861,0.00260039
5568.46688599,0.00258591
5570.39569336,0.00253707
5572.32450073,0.00255815
5574.25330811,0.00254310
5576.18211548,0.00252840
5578.11092285,0.00257870
5580.03973022,0.00258450
5581.96853760,0.00257893
5583.89734497,0.00255063
5585.82615234,0.00245960
5587.75495972,0.00248750
5589.68376709,0.00251039
5591.61257446,0.00245098
5593.54138184,0.00245745
5595.47018921,0.00248631
5597.39899658,0.00248455
5599.32780395,0.00242745
5601.25661133,0.00245722
5603.18541870,0.00247260
5605.11422607,0.00244151
5607.04303345,0.00242400
5608.97184082,0.00236624
5610.90064819,0.00244860
5612.82945557,0.00244148
5614.75826294,0.00239141
5616.68707031,0.00242494
5618.61587769,0.00238253
5620.54468506,0.00241779
5622.47349243,0.00237325
5624.40229980,0.00235042
5626.33110718,0.00238588
5628.25991455,0.00234135
5630.18872192,0.00241643
5632.11752930,0.00236355
5634.04633667,0.00235985
5635.97514404,0.00248054
5637.90395142,0.00235811
5639.83275879,0.00234659
5641.76156616,0.00242231
5643.69037353,0.00238242
5645.61918091,0.00229524
5647.54798828,0.00228243
5649.47679565,0.00235411
5651.40560303,0.00224395
5653.33441040,0.00232641
5655.26321777,0.00239393
5657.19202515,0.00225045
5659.12083252,0.00229968
5661.04963989,0.00224386
5662.97844727,0.00229375
5664.90725464,0.00232158
5666.83606201,0.00220114
5668.76486938,0.00227454
5670.69367676,0.00226519
5672.62248413,0.00230676
5674.55129150,0.00232767
5676.48009888,0.00225990
5678.40890625,0.00224614
5680.33771362,0.00221314
5682.26652100,0.00225401
5684.19532837,0.00222516
5686.12413574,0.00215456
5688.05294311,0.00216177
5689.98175049,0.00222702
5691.91055786,0.00221107
5693.83936523,0.00216183
5695.76817261,0.00222997
5697.69697998,0.00219951
5699.62578735,0.00215648
5701.55459473,0.00216681
5703.48340210,0.00216388
5705.41220947,0.00217702
5707.34101685,0.00214251
5709.26982422,0.00211137
5711.19863159,0.00209964
5713.12743896,0.00212869
5715.05624634,0.00215435
5716.98505371,0.00208640
5718.91386108,0.00207963
5720.84266846,0.00214026
5722.77147583,0.00209214
5724.70028320,0.00208356
5726.62909058,0.00211960
5728.55789795,0.00207791
5730.48670532,0.00208136
5732.41551270,0.00207923
5734.34432007,0.00207121
5736.27312744,0.00210504
5738.20193481,0.00211844
5740.13074219,0.00208304
5742.05954956,0.00205688
5743.98835693,0.00207547
5745.91716431,0.00206755
5747.84597168,0.00209465
5749.77477905,0.00207204
5751.70358643,0.00201271
5753.63239380,0.00206158
5755.56120117,0.00203275
5757.49000854,0.00196119
5759.41881592,0.00201094
5761.34762329,0.00202440
5763.27643066,0.00199840
5765.20523804,0.00201331
5767.13404541,0.00198701
5769.06285278,0.00196800
5770.99166016,0.00195594
5772.92046753,0.00196856
5774.84927490,0.00193170
5776.77808228,0.00192985
5778.70688965,0.00206152
5780.63569702,0.00197887
5782.56450439,0.00195283
5784.49331177,0.00197822
5786.42211914,0.00189105
5788.35092651,0.00196842
5790.27973389,0.00194138
5792.20854126,0.00190562
5794.13734863,0.00189373
5796.06615601,0.00187259
5797.99496338,0.00191982
5799.92377075,0.00188213
5801.85257812,0.00190908
5803.78138550,0.00185195
5805.71019287,0.00180343
5807.63900024,0.00189555
5809.56780762,0.00188872
5811.49661499,0.00185210
5813.42542236,0.00188435
5815.35422974,0.00189773
5817.28303711,0.00183201
5819.21184448,0.00185893
5821.14065186,0.00184292
5823.06945923,0.00175471
5824.99826660,0.00180071
5826.92707397,0.00182124
5828.85588135,0.00179718
5830.78468872,0.00177909
5832.71349609,0.00178441
5834.64230347,0.00181352
5836.57111084,0.00179981
5838.49991821,0.00177818
5840.42872559,0.00178902
5842.35753296,0.00181068
5844.28634033,0.00179533
5846.21514770,0.00173981
5848.14395508,0.00176284
5850.07276245,0.00180513
5852.00156982,0.00171840
5853.93037720,0.00176056
5855.85918457,0.00183276
5857.78799194,0.00175672
5859.71679932,0.00177407
5861.64560669,0.00177989
5863.57441406,0.00172518
5865.50322144,0.00172085
5867.43202881,0.00173282
5869.36083618,0.00172142
5871.28964355,0.00173024
5873.21845093,0.00173785
5875.14725830,0.00172580
5877.07606567,0.00169816
5879.00487305,0.00162768
5880.93368042,0.00167775
5882.86248779,0.00170366
5884.79129517,0.00167923
5886.72010254,0.00169168
5888.64890991,0.00164044
5890.57771728,0.00163660
5892.50652466,0.00163964
5894.43533203,0.00167270
5896.36413940,0.00166891
5898.29294678,0.00167630
5900.22175415,0.00169625
5902.15056152,0.00160982
5904.07936890,0.00166887
5906.00817627,0.00165786
5907.93698364,0.00156033
5909.86579102,0.00160192
5911.79459839,0.00163688
5913.72340576,0.00161612
5915.65221313,0.00156783
5917.58102051,0.00161944
5919.50982788,0.00166595
5921.43863525,0.00158822
5923.36744263,0.00153389
5925.29625000,0.00154187
5927.22505737,0.00155016
5929.15386475,0.00161819
5931.08267212,0.00164534
5933.01147949,0.00157910
5934.94028686,0.00160047
5936.86909424,0.00157738
5938.79790161,0.00153472
5940.72670898,0.00153628
5942.65551636,0.00155615
5944.58432373,0.00155783
5946.51313110,0.00150879
5948.44193848,0.00158299
5950.37074585,0.00155219
5952.29955322,0.00150999
5954.22836060,0.00156940
5956.15716797,0.00151005
5958.08597534,0.00149939
5960.01478271,0.00150266
5961.94359009,0.00150757
5963.87239746,0.00150974
5965.80120483,0.00149311
5967.73001221,0.00148047
5969.65881958,0.00145093
5971.58762695,0.00151346
5973.51643433,0.00148607
5975.44524170,0.00144222
5977.37404907,0.00148979
5979.30285645,0.00145506
5981.23166382,0.00147072
5983.16047119,0.00149298
5985.08927856,0.00143258
5987.01808594,0.00144028
5988.94689331,0.00147979
5990.87570068,0.00146115
5992.80450806,0.00146912
5994.73331543,0.00150596
5996.66212280,0.00142099
5998.59093018,0.00133679
6000.51973755,0.00137500
