399.26312622,0.00013413
401.19193359,0.00018615
403.12074097,0.00008619
405.04954834,-0.00003644
406.97835571,0.00014689
408.90716309,0.00010815
410.83597046,0.00018314
412.76477783,0.00000411
414.69358521,0.00000347
416.62239258,0.00026453
418.55119995,-0.00008033
420.48000732,-0.00009518
422.40881470,0.00022207
424.33762207,0.00026993
426.26642944,-0.00002609
428.19523682,0.00010424
430.12404419,0.00037004
432.05285156,-0.00003494
433.98165894,0.00000396
435.91046631,0.00015533
437.83927368,-0.00005965
439.76808105,0.00003072
441.69688843,0.00012956
443.62569580,-0.00015733
445.55450317,0.00002833
447.48331055,0.00025263
449.41211792,-0.00002419
451.34092529,0.00007431
453.26973267,0.00011954
455.19854004,0.00024503
457.12734741,0.00031558
459.05615479,0.00023268
460.98496216,0.00025525
462.91376953,0.00019234
464.84257690,0.00017555
466.77138428,0.00012655
468.70019165,0.00007882
470.62899902,-0.00004117
472.55780640,0.00007769
474.48661377,0.00013976
476.41542114,0.00006482
478.34422852,0.00013854
480.27303589,0.00019443
482.20184326,0.00011343
484.13065063,0.00008397
486.05945801,-0.00002420
487.98826538,0.00000896
489.91707275,0.00014531
491.84588013,0.00012653
493.77468750,0.00004865
495.70349487,0.00026398
497.63230225,0.00019470
499.56110962,-0.00012174
501.48991699,0.00022443
503.41872437,0.00024950
505.34753174,0.00016741
507.27633911,0.00013766
509.20514648,0.00000828
511.13395386,0.00013141
513.06276123,0.00004189
514.99156860,-0.00003236
516.92037598,0.00016366
518.84918335,0.00040020
520.77799072,-0.00003129
522.70679810,0.00007930
524.63560547,0.00006360
526.56441284,-0.00004656
528.49322021,-0.00007112
530.42202759,0.00001113
532.35083496,0.00000526
534.27964233,-0.00000540
536.20844971,0.00037136
538.13725708,0.00018778
540.06606445,-0.00001225
541.99487183,0.00024967
543.92367920,0.00009562
545.85248657,0.00006139
547.78129395,0.00010897
549.71010132,0.00007384
551.63890869,0.00016222
553.56771606,0.00014161
555.49652344,0.00008489
557.42533081,0.00010984
559.35413818,0.00017099
561.28294556,0.00010775
563.21175293,-0.00003074
565.14056030,-0.00004613
567.06936768,0.00013064
568.99817505,0.00000066
570.92698242,-0.00020350
572.85578979,0.00009529
574.78459717,0.00013946
576.71340454,0.00008118
578.64221191,0.00014200
580.57101929,0.00014163
582.49982666,0.00011618
584.42863403,-0.00003463
586.35744141,0.00002800
588.28624878,-0.00000116
590.21505615,0.00011654
592.14386353,0.00026665
594.07267090,0.00011389
596.00147827,0.00018812
597.93028564,0.00014745
599.85909302,0.00009440
601.78790039,0.00003770
603.71670776,-0.00003162
605.64551514,-0.00000264
607.57432251,-0.00008338
609.50312988,0.00004482
611.43193726,0.00017372
613.36074463,0.00022260
615.28955200,0.00024317
617.21835938,0.00013636
619.14716675,-0.00001613
621.07597412,0.00007096
623.00478149,0.00016225
624.93358887,-0.00001814
626.86239624,0.00002312
628.79120361,0.00004167
630.72001099,0.00025484
632.64881836,0.00035253
634.57762573,0.00010606
636.50643311,0.00010855
638.43524048,-0.00001581
640.36404785,0.00011868
642.29285522,0.00013056
644.22166260,-0.00008034
646.15046997,-0.00009248
648.07927734,-0.00005463
650.00808472,0.00025142
651.93689209,0.00014254
653.86569946,0.00003654
655.79450684,0.00005461
657.72331421,0.00003769
659.65212158,0.00010957
661.58092896,-0.00004592
663.50973633,0.00025069
665.43854370,0.00021423
667.36735107,0.00010739
669.29615845,0.00044823
671.22496582,0.00017445
673.15377319,0.00009853
675.08258057,0.00007575
677.01138794,-0.00014322
678.94019531,0.00014202
680.86900269,0.00015985
682.79781006,0.00010240
684.72661743,0.00008460
686.65542480,0.00007545
688.58423218,0.00022117
690.51303955,-0.00013396
692.44184692,0.00001700
694.37065430,0.00027309
696.29946167,0.00003129
698.22826904,0.00002057
700.15707642,-0.00015194
702.08588379,-0.00005092
704.01469116,0.00007218
705.94349854,0.00003515
707.87230591,0.00030071
709.80111328,0.00020077
711.72992065,-0.00006156
713.65872803,0.00010660
715.58753540,0.00015950
717.51634277,0.00007326
719.44515015,0.00005938
721.37395752,-0.00013233
723.30276489,-0.00011410
725.23157227,0.00006505
727.16037964,0.00000288
729.08918701,-0.00001350
731.01799438,0.00006104
732.94680176,0.00004849
734.87560913,-0.00002030
736.80441650,-0.00005594
738.73322388,0.00001898
740.66203125,0.00001722
742.59083862,0.00012835
744.51964600,0.00035249
746.44845337,0.00013849
748.37726074,-0.00006871
750.30606812,0.00019122
752.23487549,0.00021563
754.16368286,0.00014548
756.09249023,0.00014627
758.02129761,-0.00001826
759.95010498,-0.00001112
761.87891235,0.00003529
763.80771973,0.00002612
765.73652710,0.00007992
767.66533447,0.00022801
769.59414185,0.00023385
771.52294922,0.00014201
773.45175659,0.00009619
775.38056396,0.00004316
777.30937134,0.00016504
779.23817871,0.00006791
781.16698608,-0.00003335
783.09579346,-0.00005070
785.02460083,0.00009694
786.95340820,0.00029942
788.88221558,0.00005574
790.81102295,0.00018241
792.73983032,0.00016619
794.66863770,-0.00004897
796.59744507,0.00006720
798.52625244,0.00020538
800.45505981,0.00025092
802.38386719,0.00009927
804.31267456,0.00010641
806.24148193,-0.00004867
808.17028931,-0.00000430
810.09909668,0.00010271
812.02790405,0.00005695
813.95671143,0.00021442
815.88551880,0.00014162
817.81432617,0.00014746
819.74313354,0.00018289
821.67194092,0.00015073
823.60074829,0.00018164
825.52955566,0.00005153
827.45836304,-0.00003152
829.38717041,0.00002793
831.31597778,0.00004612
833.24478516,0.00011121
835.17359253,0.00028746
837.10239990,0.00006769
839.03120728,0.00000770
840.96001465,0.00022259
842.88882202,0.00010551
844.81762939,0.00023200
846.74643677,0.00023359
848.67524414,0.00011018
850.60405151,0.00014421
852.53285889,0.00017689
854.46166626,0.00027646
856.39047363,0.00013911
858.31928101,0.00016091
860.24808838,0.00024931
862.17689575,0.00010155
864.10570313,0.00007608
866.03451050,0.00011457
867.96331787,0.00004976
869.89212524,0.00018342
871.82093262,0.00017444
873.74973999,-0.00014517
875.67854736,0.00010047
877.60735474,0.00009981
879.53616211,-0.00013460
881.46496948,0.00002252
883.39377686,-0.00000798
885.32258423,0.00016102
887.25139160,0.00019785
889.18019897,0.00008333
891.10900635,-0.00002625
893.03781372,-0.00011021
894.96662109,0.00006142
896.89542847,0.00008299
898.82423584,0.00027186
900.75304321,0.00011487
902.68185059,-0.00011838
904.61065796,0.00012079
906.53946533,0.00019750
908.46827271,0.00014849
910.39708008,-0.00015557
912.32588745,0.00003676
914.25469482,0.00021566
916.18350220,0.00007908
918.11230957,0.00010435
920.04111694,0.00001246
921.96992432,0.00006567
923.89873169,-0.00002964
925.82753906,0.00014261
927.75634644,0.00006464
929.68515381,-0.00012397
931.61396118,0.00008781
933.54276855,0.00002051
935.47157593,0.00017912
937.40038330,0.00013301
939.32919067,-0.00004129
941.25799805,0.00019493
943.18680542,0.00015427
945.11561279,0.00009665
947.04442017,0.00008469
948.97322754,0.00009356
950.90203491,0.00017911
952.83084229,0.00008821
954.75964966,-0.00003456
956.68845703,-0.00000250
958.61726440,0.00013025
960.54607178,0.00011541
962.47487915,0.00008203
964.40368652,0.00025402
966.33249390,0.00003806
968.26130127,-0.00015304
970.19010864,0.00008567
972.11891602,0.00008262
974.04772339,0.00007716
975.97653076,0.00007759
977.90533813,-0.00005121
979.83414551,0.00012064
981.76295288,0.00033977
983.69176025,0.00006094
985.62056763,-0.00009595
987.54937500,0.00019495
989.47818237,0.00008046
991.40698975,-0.00000506
993.33579712,0.00004966
995.26460449,-0.00002240
997.19341187,0.00018417
999.12221924,0.00022111
1001.05102661,0.00010688
1002.97983398,0.00019670
1004.90864136,0.00019363
1006.83744873,0.00007998
1008.76625610,0.00005927
1010.69506348,0.00011817
1012.62387085,0.00021932
1014.55267822,0.00017108
1016.48148560,0.00005332
1018.41029297,0.00017862
1020.33910034,0.00034040
1022.26790771,0.00036034
1024.19671509,0.00021809
1026.12552246,0.00008964
1028.05432983,0.00019639
1029.98313721,0.00028781
1031.91194458,0.00012894
1033.84075195,0.00005150
1035.76955933,0.00031707
1037.69836670,0.00038920
1039.62717407,0.00013741
1041.55598145,0.00011028
1043.48478882,0.00027162
1045.41359619,0.00029209
1047.34240356,0.00016577
1049.27121094,0.00012596
1051.20001831,0.00017082
1053.12882568,0.00001547
1055.05763306,0.00000203
1056.98644043,0.00014946
1058.91524780,0.00008546
1060.84405518,0.00017216
1062.77286255,0.00017740
1064.70166992,0.00012927
1066.63047729,0.00018374
1068.55928467,0.00009136
1070.48809204,0.00016130
1072.41689941,0.00004802
1074.34570679,0.00008585
1076.27451416,0.00019009
1078.20332153,-0.00000972
1080.13212891,0.00021703
1082.06093628,0.00021016
1083.98974365,0.00014726
1085.91855103,0.00018015
1087.84735840,0.00002859
1089.77616577,0.00025109
1091.70497314,0.00021412
1093.63378052,0.00021142
1095.56258789,0.00018285
1097.49139526,-0.00007550
1099.42020264,0.00008203
1101.34901001,0.00011009
1103.27781738,0.00018546
1105.20662476,0.00019106
1107.13543213,0.00001553
1109.06423950,0.00021136
1110.99304687,0.00029235
1112.92185425,0.00038114
1114.85066162,0.00042004
1116.77946899,0.00010684
1118.70827637,0.00004967
1120.63708374,0.00004042
1122.56589111,0.00005965
1124.49469849,0.00012337
1126.42350586,-0.00006113
1128.35231323,0.00012526
1130.28112061,0.00028345
1132.20992798,0.00015297
1134.13873535,0.00016360
1136.06754272,0.00013478
1137.99635010,0.00025624
1139.92515747,0.00026343
1141.85396484,0.00011418
1143.78277222,0.00020042
1145.71157959,0.00030241
1147.64038696,0.00030360
1149.56919434,0.00021373
1151.49800171,0.00011004
1153.42680908,0.00019000
1155.35561646,0.00032129
1157.28442383,0.00022515
1159.21323120,0.00025557
1161.14203857,0.00029984
1163.07084595,0.00020497
1164.99965332,0.00026280
1166.92846069,0.00009647
1168.85726807,0.00005726
1170.78607544,0.00019696
1172.71488281,0.00018330
1174.64369019,0.00025750
1176.57249756,0.00029025
1178.50130493,0.00030163
1180.43011230,0.00014175
1182.35891968,0.00017954
1184.28772705,0.00037558
1186.21653442,0.00018741
1188.14534180,0.00016159
1190.07414917,0.00029272
1192.00295654,0.00029925
1193.93176392,0.00027454
1195.86057129,0.00026626
1197.78937866,0.00026186
1199.71818604,0.00026095
1201.64699341,0.00028968
1203.57580078,0.00021588
1205.50460815,0.00013161
1207.43341553,0.00026330
1209.36222290,0.00040875
1211.29103027,0.00029783
1213.21983765,0.00028860
1215.14864502,0.00030269
1217.07745239,0.00024517
1219.00625977,0.00029121
1220.93506714,0.00033969
1222.86387451,0.00041757
1224.79268188,0.00025280
1226.72148926,0.00021384
1228.65029663,0.00035387
1230.57910400,0.00034392
1232.50791138,0.00034294
1234.43671875,0.00018767
1236.36552612,0.00030440
1238.29433350,0.00045468
1240.22314087,0.00035327
1242.15194824,0.00034476
1244.08075562,0.00031972
1246.00956299,0.00041741
1247.93837036,0.00038036
1249.86717773,0.00039201
1251.79598511,0.00048537
1253.72479248,0.00030212
1255.65359985,0.00031783
1257.58240723,0.00035226
1259.51121460,0.00038526
1261.44002197,0.00041865
1263.36882935,0.00025101
1265.29763672,0.00034724
1267.22644409,0.00045865
1269.15525146,0.00039759
1271.08405884,0.00039580
1273.01286621,0.00036023
1274.94167358,0.00025746
1276.87048096,0.00019250
1278.79928833,0.00024938
1280.72809570,0.00034608
1282.65690308,0.00045420
1284.58571045,0.00036414
1286.51451782,0.00027998
1288.44332520,0.00034231
1290.37213257,0.00033771
1292.30093994,0.00049432
1294.22974731,0.00042543
1296.15855469,0.00020095
1298.08736206,0.00033138
1300.01616943,0.00045519
1301.94497681,0.00037120
1303.87378418,0.00026468
1305.80259155,0.00033760
1307.73139893,0.00031994
1309.66020630,0.00027509
1311.58901367,0.00035791
1313.51782104,0.00037578
1315.44662842,0.00041882
1317.37543579,0.00036229
1319.30424316,0.00040697
1321.23305054,0.00040470
1323.16185791,0.00040087
1325.09066528,0.00046738
1327.01947266,0.00041271
1328.94828003,0.00053749
1330.87708740,0.00034110
1332.80589478,0.00042592
1334.73470215,0.00062880
1336.66350952,0.00039978
1338.59231689,0.00048773
1340.52112427,0.00044632
1342.44993164,0.00047242
1344.37873901,0.00038453
1346.30754639,0.00033027
1348.23635376,0.00043777
1350.16516113,0.00029988
1352.09396851,0.00042885
1354.02277588,0.00033533
1355.95158325,0.00038376
1357.88039062,0.00036702
1359.80919800,0.00021827
1361.73800537,0.00045704
1363.66681274,0.00043641
1365.59562012,0.00048226
1367.52442749,0.00037822
1369.45323486,0.00032055
1371.38204224,0.00038245
1373.31084961,0.00028551
1375.23965698,0.00036402
1377.16846436,0.00034916
1379.09727173,0.00043836
1381.02607910,0.00039677
1382.95488647,0.00038812
1384.88369385,0.00047131
1386.81250122,0.00036148
1388.74130859,0.00038261
1390.67011597,0.00039844
1392.59892334,0.00042808
1394.52773071,0.00038450
1396.45653809,0.00043594
1398.38534546,0.00041139
1400.31415283,0.00032283
1402.24296021,0.00034012
1404.17176758,0.00033126
1406.10057495,0.00058483
1408.02938232,0.00049452
1409.95818970,0.00041011
1411.88699707,0.00057080
1413.81580444,0.00050022
1415.74461182,0.00047568
1417.67341919,0.00041777
1419.60222656,0.00045879
1421.53103394,0.00042320
1423.45984131,0.00041015
1425.38864868,0.00041674
1427.31745605,0.00031409
1429.24626343,0.00036866
1431.17507080,0.00034532
1433.10387817,0.00042990
1435.03268555,0.00045482
1436.96149292,0.00034609
1438.89030029,0.00031839
1440.81910767,0.00026152
1442.74791504,0.00030946
1444.67672241,0.00032374
1446.60552979,0.00030761
1448.53433716,0.00026765
1450.46314453,0.00022862
1452.39195190,0.00032704
1454.32075928,0.00036250
1456.24956665,0.00039398
1458.17837402,0.00047625
1460.10718140,0.00045676
1462.03598877,0.00050855
1463.96479614,0.00038265
1465.89360352,0.00020765
1467.82241089,0.00045570
1469.75121826,0.00044118
1471.68002563,0.00040445
1473.60883301,0.00055258
1475.53764038,0.00047222
1477.46644775,0.00055680
1479.39525513,0.00057582
1481.32406250,0.00057412
1483.25286987,0.00066906
1485.18167725,0.00063239
1487.11048462,0.00051934
1489.03929199,0.00055492
1490.96809937,0.00065680
1492.89690674,0.00064942
1494.82571411,0.00087131
1496.75452148,0.00074766
1498.68332886,0.00062982
1500.61213623,0.00079041
1502.54094360,0.00068816
1504.46975098,0.00074316
1506.39855835,0.00055894
1508.32736572,0.00062593
1510.25617310,0.00076527
1512.18498047,0.00059223
1514.11378784,0.00084072
1516.04259521,0.00079518
1517.97140259,0.00074115
1519.90020996,0.00071326
1521.82901733,0.00057727
1523.75782471,0.00065850
1525.68663208,0.00060055
1527.61543945,0.00076875
1529.54424683,0.00074395
1531.47305420,0.00067201
1533.40186157,0.00085825
1535.33066895,0.00083492
1537.25947632,0.00084684
1539.18828369,0.00057820
1541.11709106,0.00042258
1543.04589844,0.00069612
1544.97470581,0.00073831
1546.90351318,0.00075789
1548.83232056,0.00085046
1550.76112793,0.00085030
1552.68993530,0.00073132
1554.61874268,0.00070435
1556.54755005,0.00075318
1558.47635742,0.00045814
1560.40516479,0.00049234
1562.33397217,0.00081083
1564.26277954,0.00074087
1566.19158691,0.00090770
1568.12039429,0.00095382
1570.04920166,0.00065076
1571.97800903,0.00078335
1573.90681641,0.00086860
1575.83562378,0.00068155
1577.76443115,0.00078409
1579.69323853,0.00096048
1581.62204590,0.00083029
1583.55085327,0.00075081
1585.47966064,0.00088059
1587.40846802,0.00088829
1589.33727539,0.00090262
1591.26608276,0.00092391
1593.19489014,0.00083712
1595.12369751,0.00082396
1597.05250488,0.00079620
1598.98131226,0.00080610
1600.91011963,0.00088630
1602.83892700,0.00082870
1604.76773437,0.00081844
1606.69654175,0.00087223
1608.62534912,0.00084288
1610.55415649,0.00088308
1612.48296387,0.00091931
1614.41177124,0.00089479
1616.34057861,0.00091740
1618.26938599,0.00095988
1620.19819336,0.00093344
1622.12700073,0.00086458
1624.05580811,0.00089340
1625.98461548,0.00093578
1627.91342285,0.00093975
1629.84223022,0.00099318
1631.77103760,0.00097578
1633.69984497,0.00087558
1635.62865234,0.00079519
1637.55745972,0.00079359
1639.48626709,0.00101013
1641.41507446,0.00111072
1643.34388184,0.00093123
1645.27268921,0.00085753
1647.20149658,0.00089425
1649.13030396,0.00106484
1651.05911133,0.00088548
1652.98791870,0.00053892
1654.91672607,0.00091986
1656.84553345,0.00111794
1658.77434082,0.00097623
1660.70314819,0.00104913
1662.63195557,0.00101341
1664.56076294,0.00102824
1666.48957031,0.00102176
1668.41837769,0.00095339
1670.34718506,0.00102619
1672.27599243,0.00112257
1674.20479980,0.00094277
1676.13360718,0.00085217
1678.06241455,0.00104192
1679.99122192,0.00100739
1681.92002930,0.00108073
1683.84883667,0.00088596
1685.77764404,0.00071842
1687.70645142,0.00115719
1689.63525879,0.00100897
1691.56406616,0.00093186
1693.49287354,0.00112262
1695.42168091,0.00080162
1697.35048828,0.00088131
1699.27929565,0.00089496
1701.20810303,0.00067237
1703.13691040,0.00094654
1705.06571777,0.00112151
1706.99452515,0.00118633
1708.92333252,0.00107904
1710.85213989,0.00087690
1712.78094727,0.00105760
1714.70975464,0.00102593
1716.63856201,0.00083931
1718.56736938,0.00077563
1720.49617676,0.00091438
1722.42498413,0.00108843
1724.35379150,0.00095578
1726.28259888,0.00102669
1728.21140625,0.00095277
1730.14021362,0.00090495
1732.06902100,0.00100771
1733.99782837,0.00075303
1735.92663574,0.00089349
1737.85544312,0.00100694
1739.78425049,0.00087288
1741.71305786,0.00096482
1743.64186523,0.00098986
1745.57067261,0.00096476
1747.49947998,0.00089723
1749.42828735,0.00090783
1751.35709473,0.00085083
1753.28590210,0.00091332
1755.21470947,0.00102174
1757.14351685,0.00083201
1759.07232422,0.00096262
1761.00113159,0.00105644
1762.92993896,0.00090901
1764.85874634,0.00101532
1766.78755371,0.00107516
1768.71636108,0.00100411
1770.64516846,0.00090721
1772.57397583,0.00091596
1774.50278320,0.00107254
1776.43159058,0.00103424
1778.36039795,0.00093522
1780.28920532,0.00099426
1782.21801270,0.00095532
1784.14682007,0.00090807
1786.07562744,0.00103834
1788.00443481,0.00113143
1789.93324219,0.00096787
1791.86204956,0.00081278
1793.79085693,0.00092457
1795.71966431,0.00103594
1797.64847168,0.00107149
1799.57727905,0.00106023
1801.50608643,0.00108862
1803.43489380,0.00105660
1805.36370117,0.00090616
1807.29250854,0.00094819
1809.22131592,0.00095615
1811.15012329,0.00098455
1813.07893066,0.00106064
1815.00773804,0.00095871
1816.93654541,0.00091718
1818.86535278,0.00092729
1820.79416016,0.00097254
1822.72296753,0.00097631
1824.65177490,0.00090219
1826.58058228,0.00086422
1828.50938965,0.00085405
1830.43819702,0.00089812
1832.36700439,0.00103178
1834.29581177,0.00117162
1836.22461914,0.00110601
1838.15342651,0.00101610
1840.08223389,0.00098082
1842.01104126,0.00098789
1843.93984863,0.00101679
1845.86865601,0.00094238
1847.79746338,0.00106070
1849.72627075,0.00113768
1851.65507812,0.00101390
1853.58388550,0.00100753
1855.51269287,0.00108138
1857.44150024,0.00108480
1859.37030762,0.00089363
1861.29911499,0.00092827
1863.22792236,0.00115265
1865.15672974,0.00108439
1867.08553711,0.00097478
1869.01434448,0.00090915
1870.94315186,0.00100362
1872.87195923,0.00110220
1874.80076660,0.00101048
1876.72957397,0.00108150
1878.65838135,0.00101504
1880.58718872,0.00105556
1882.51599609,0.00115042
1884.44480347,0.00093621
1886.37361084,0.00108119
1888.30241821,0.00103853
1890.23122559,0.00098429
1892.16003296,0.00116984
1894.08884033,0.00098304
1896.01764771,0.00108047
1897.94645508,0.00108116
1899.87526245,0.00098090
1901.80406982,0.00097644
1903.73287720,0.00083114
1905.66168457,0.00099067
1907.59049194,0.00100677
1909.51929932,0.00103653
1911.44810669,0.00101850
1913.37691406,0.00090386
1915.30572144,0.00098143
1917.23452881,0.00088691
1919.16333618,0.00096503
1921.09214355,0.00099749
1923.02095093,0.00100080
1924.94975830,0.00105269
1926.87856567,0.00096651
1928.80737305,0.00104539
1930.73618042,0.00102395
1932.66498779,0.00100458
1934.59379517,0.00094070
1936.52260254,0.00093148
1938.45140991,0.00108534
1940.38021729,0.00101901
1942.30902466,0.00098206
1944.23783203,0.00097418
1946.16663940,0.00100357
1948.09544678,0.00102968
1950.02425415,0.00097592
1951.95306152,0.00105743
1953.88186890,0.00111200
1955.81067627,0.00103944
1957.73948364,0.00093657
1959.66829102,0.00099345
1961.59709839,0.00111033
1963.52590576,0.00107746
1965.45471313,0.00100681
1967.38352051,0.00101007
1969.31232788,0.00108124
1971.24113525,0.00105699
1973.16994263,0.00095685
1975.09875000,0.00091073
1977.02755737,0.00096455
1978.95636475,0.00108950
1980.88517212,0.00112151
1982.81397949,0.00106924
1984.74278687,0.00100976
1986.67159424,0.00097568
1988.60040161,0.00102803
1990.52920898,0.00102766
1992.45801636,0.00104245
1994.38682373,0.00113725
1996.31563110,0.00098209
1998.24443848,0.00088097
2000.17324585,0.00104142
2002.10205322,0.00107385
2004.03086060,0.00109752
2005.95966797,0.00116466
2007.88847534,0.00109976
2009.81728271,0.00097059
2011.74609009,0.00094180
2013.67489746,0.00099946
2015.60370483,0.00095057
2017.53251221,0.00092432
2019.46131958,0.00105934
2021.39012695,0.00106920
2023.31893433,0.00095885
2025.24774170,0.00099839
2027.17654907,0.00102883
2029.10535645,0.00099795
2031.03416382,0.00103605
2032.96297119,0.00110154
2034.89177856,0.00104180
2036.82058594,0.00097352
2038.74939331,0.00100757
2040.67820068,0.00087982
2042.60700806,0.00095918
2044.53581543,0.00104010
2046.46462280,0.00085178
2048.39343018,0.00098715
2050.32223755,0.00101059
2052.25104492,0.00095345
2054.17985229,0.00105233
2056.10865967,0.00096436
2058.03746704,0.00097713
2059.96627441,0.00107525
2061.89508179,0.00103769
2063.82388916,0.00098806
2065.75269653,0.00109042
2067.68150391,0.00110132
2069.61031128,0.00098087
2071.53911865,0.00095710
2073.46792603,0.00096947
2075.39673340,0.00099001
2077.32554077,0.00096786
2079.25434814,0.00108562
2081.18315552,0.00113989
2083.11196289,0.00101811
2085.04077026,0.00100583
2086.96957764,0.00102717
2088.89838501,0.00103821
2090.82719238,0.00101825
2092.75599976,0.00104411
2094.68480713,0.00096193
2096.61361450,0.00100109
2098.54242187,0.00109591
2100.47122925,0.00098344
2102.40003662,0.00105172
2104.32884399,0.00088631
2106.25765137,0.00090071
2108.18645874,0.00114620
2110.11526611,0.00097262
2112.04407349,0.00091630
2113.97288086,0.00095305
2115.90168823,0.00103093
2117.83049561,0.00091435
2119.75930298,0.00084484
2121.68811035,0.00107239
2123.61691772,0.00101874
2125.54572510,0.00108464
2127.47453247,0.00105512
2129.40333984,0.00096158
2131.33214722,0.00105104
2133.26095459,0.00092930
2135.18976196,0.00099921
2137.11856934,0.00102446
2139.04737671,0.00093409
2140.97618408,0.00096662
2142.90499146,0.00090776
2144.83379883,0.00098491
2146.76260620,0.00096475
2148.69141357,0.00090192
2150.62022095,0.00110639
2152.54902832,0.00102697
2154.47783569,0.00090359
2156.40664307,0.00103530
2158.33545044,0.00093026
2160.26425781,0.00089820
2162.19306519,0.00099059
2164.12187256,0.00098453
2166.05067993,0.00106678
2167.97948730,0.00104850
2169.90829468,0.00092611
2171.83710205,0.00090267
2173.76590942,0.00096987
2175.69471680,0.00092597
2177.62352417,0.00095770
2179.55233154,0.00108969
2181.48113892,0.00102559
2183.40994629,0.00101288
2185.33875366,0.00098442
2187.26756104,0.00099504
2189.19636841,0.00105647
2191.12517578,0.00097930
2193.05398315,0.00093886
2194.98279053,0.00091631
2196.91159790,0.00099439
2198.84040527,0.00106093
2200.76921265,0.00104846
2202.69802002,0.00102422
2204.62682739,0.00103609
2206.55563477,0.00099833
2208.48444214,0.00089748
2210.41324951,0.00111411
2212.34205688,0.00116878
2214.27086426,0.00102337
2216.19967163,0.00099490
2218.12847900,0.00094276
2220.05728638,0.00101140
2221.98609375,0.00098862
2223.91490112,0.00098753
2225.84370850,0.00096138
2227.77251587,0.00091888
2229.70132324,0.00099393
2231.63013062,0.00093152
2233.55893799,0.00102033
2235.48774536,0.00109582
2237.41655273,0.00099772
2239.34536011,0.00093222
2241.27416748,0.00094935
2243.20297485,0.00105409
2245.13178223,0.00109711
2247.06058960,0.00107941
2248.98939697,0.00099299
2250.91820435,0.00097450
2252.84701172,0.00094017
2254.77581909,0.00095925
2256.70462646,0.00106680
2258.63343384,0.00100114
2260.56224121,0.00104862
2262.49104858,0.00105463
2264.41985596,0.00095783
2266.34866333,0.00102953
2268.27747070,0.00108055
2270.20627808,0.00102229
2272.13508545,0.00094330
2274.06389282,0.00095673
2275.99270020,0.00098295
2277.92150757,0.00097294
2279.85031494,0.00094487
2281.77912231,0.00094013
2283.70792969,0.00098949
2285.63673706,0.00098534
2287.56554443,0.00092911
2289.49435181,0.00091953
2291.42315918,0.00094071
2293.35196655,0.00090614
2295.28077393,0.00100209
2297.20958130,0.00105490
2299.13838867,0.00095110
2301.06719604,0.00096373
2302.99600342,0.00089285
2304.92481079,0.00086727
2306.85361816,0.00095055
2308.78242554,0.00091338
2310.71123291,0.00094959
2312.64004028,0.00098774
2314.56884766,0.00087566
2316.49765503,0.00078352
2318.42646240,0.00088217
2320.35526978,0.00098787
2322.28407715,0.00090494
2324.21288452,0.00095552
2326.14169189,0.00098805
2328.07049927,0.00081387
2329.99930664,0.00087491
2331.92811401,0.00091008
2333.85692139,0.00087506
2335.78572876,0.00089259
2337.71453613,0.00081763
2339.64334351,0.00090675
2341.57215088,0.00075542
2343.50095825,0.00067381
2345.42976562,0.00088783
2347.35857300,0.00079288
2349.28738037,0.00083191
2351.21618774,0.00094968
2353.14499512,0.00095522
2355.07380249,0.00089397
2357.00260986,0.00080028
2358.93141724,0.00090504
2360.86022461,0.00082001
2362.78903198,0.00074039
2364.71783936,0.00078938
2366.64664673,0.00071294
2368.57545410,0.00075964
2370.50426147,0.00083772
2372.43306885,0.00087911
2374.36187622,0.00092785
2376.29068359,0.00089953
2378.21949097,0.00090797
2380.14829834,0.00089588
2382.07710571,0.00089824
2384.00591309,0.00102191
2385.93472046,0.00093406
2387.86352783,0.00084529
2389.79233521,0.00099833
2391.72114258,0.00104861
2393.64994995,0.00097807
2395.57875732,0.00090268
2397.50756470,0.00096383
2399.43637207,0.00104785
2401.36517944,0.00101469
2403.29398682,0.00091880
2405.22279419,0.00089799
2407.15160156,0.00098066
2409.08040894,0.00095368
2411.00921631,0.00098956
2412.93802368,0.00099879
2414.86683105,0.00094571
2416.79563843,0.00090451
2418.72444580,0.00091673
2420.65325317,0.00104073
2422.58206055,0.00097029
2424.51086792,0.00104874
2426.43967529,0.00108236
2428.36848267,0.00091433
2430.29729004,0.00100133
2432.22609741,0.00100292
2434.15490479,0.00093238
2436.08371216,0.00096088
2438.01251953,0.00096439
2439.94132690,0.00089931
2441.87013428,0.00094441
2443.79894165,0.00094706
2445.72774902,0.00078352
2447.65655640,0.00086945
2449.58536377,0.00095287
2451.51417114,0.00094881
2453.44297852,0.00098015
2455.37178589,0.00091652
2457.30059326,0.00089859
2459.22940063,0.00093474
2461.15820801,0.00095371
2463.08701538,0.00100379
2465.01582275,0.00093157
2466.94463013,0.00082168
2468.87343750,0.00097929
2470.80224487,0.00091654
2472.73105225,0.00087931
2474.65985962,0.00096471
2476.58866699,0.00080075
2478.51747437,0.00096484
2480.44628174,0.00095704
2482.37508911,0.00086678
2484.30389648,0.00098922
2486.23270386,0.00090659
2488.16151123,0.00098686
2490.09031860,0.00100180
2492.01912598,0.00092416
2493.94793335,0.00085517
2495.87674072,0.00083932
2497.80554810,0.00095094
2499.73435547,0.00095982
2501.66316284,0.00102254
2503.59197021,0.00100773
2505.52077759,0.00091305
2507.44958496,0.00085323
2509.37839233,0.00087535
2511.30719971,0.00094719
2513.23600708,0.00086859
2515.16481445,0.00085198
2517.09362183,0.00095334
2519.02242920,0.00097785
2520.95123657,0.00092091
2522.88004395,0.00095911
2524.80885132,0.00101081
2526.73765869,0.00085502
2528.66646606,0.00073305
2530.59527344,0.00090325
2532.52408081,0.00100820
2534.45288818,0.00090516
2536.38169556,0.00087942
2538.31050293,0.00084926
2540.23931030,0.00080829
2542.16811768,0.00084054
2544.09692505,0.00094323
2546.02573242,0.00091639
2547.95453979,0.00087343
2549.88334717,0.00092828
2551.81215454,0.00082416
2553.74096191,0.00087816
2555.66976929,0.00093180
2557.59857666,0.00089299
2559.52738403,0.00088554
2561.45619141,0.00089675
2563.38499878,0.00097750
2565.31380615,0.00087226
2567.24261353,0.00092691
2569.17142090,0.00090953
2571.10022827,0.00082669
2573.02903564,0.00085493
2574.95784302,0.00072994
2576.88665039,0.00088468
2578.81545776,0.00097218
2580.74426514,0.00088896
2582.67307251,0.00085633
2584.60187988,0.00090795
2586.53068726,0.00095719
2588.45949463,0.00088431
2590.38830200,0.00098185
2592.31710937,0.00093844
2594.24591675,0.00094312
2596.17472412,0.00095842
2598.10353149,0.00081633
2600.03233887,0.00084173
2601.96114624,0.00088331
2603.88995361,0.00090755
2605.81876099,0.00087419
2607.74756836,0.00092471
2609.67637573,0.00092673
2611.60518311,0.00092780
2613.53399048,0.00087043
2615.46279785,0.00077503
2617.39160522,0.00091563
2619.32041260,0.00080999
2621.24921997,0.00088559
2623.17802734,0.00096182
2625.10683472,0.00080183
2627.03564209,0.00088369
2628.96444946,0.00088141
2630.89325684,0.00093269
2632.82206421,0.00088101
2634.75087158,0.00083545
2636.67967895,0.00092092
2638.60848633,0.00087828
2640.53729370,0.00089996
2642.46610107,0.00086873
2644.39490845,0.00091255
2646.32371582,0.00095776
2648.25252319,0.00090787
2650.18133057,0.00093573
2652.11013794,0.00090818
2654.03894531,0.00091934
2655.96775269,0.00094775
2657.89656006,0.00085846
2659.82536743,0.00086188
2661.75417480,0.00083236
2663.68298218,0.00077049
2665.61178955,0.00092633
2667.54059692,0.00092343
2669.46940430,0.00086441
2671.39821167,0.00083822
2673.32701904,0.00082059
2675.25582642,0.00090379
2677.18463379,0.00078037
2679.11344116,0.00082072
2681.04224854,0.00085552
2682.97105591,0.00082869
2684.89986328,0.00093346
2686.82867065,0.00082833
2688.75747803,0.00086432
2690.68628540,0.00081179
2692.61509277,0.00071783
2694.54390015,0.00084715
2696.47270752,0.00083538
2698.40151489,0.00089631
2700.33032227,0.00098939
2702.25912964,0.00091713
2704.18793701,0.00080316
2706.11674438,0.00081805
2708.04555176,0.00087723
2709.97435913,0.00083592
2711.90316650,0.00082522
2713.83197388,0.00078527
2715.76078125,0.00080317
2717.68958862,0.00088972
2719.61839600,0.00078026
2721.54720337,0.00076352
2723.47601074,0.00085860
2725.40481812,0.00080894
2727.33362549,0.00087787
2729.26243286,0.00087686
2731.19124023,0.00084266
2733.12004761,0.00083449
2735.04885498,0.00076830
2736.97766235,0.00090486
2738.90646973,0.00076262
2740.83527710,0.00070677
2742.76408447,0.00093568
2744.69289185,0.00087719
2746.62169922,0.00084165
2748.55050659,0.00079521
2750.47931396,0.00083156
2752.40812134,0.00087191
2754.33692871,0.00083957
2756.26573608,0.00090654
2758.19454346,0.00077983
2760.12335083,0.00077016
2762.05215820,0.00092915
2763.98096558,0.00090936
2765.90977295,0.00083340
2767.83858032,0.00085230
2769.76738770,0.00086561
2771.69619507,0.00082402
2773.62500244,0.00077501
2775.55380981,0.00076095
2777.48261719,0.00076921
2779.41142456,0.00072310
2781.34023193,0.00078774
2783.26903931,0.00074134
2785.19784668,0.00071614
2787.12665405,0.00080373
2789.05546143,0.00072115
2790.98426880,0.00080398
2792.91307617,0.00074965
2794.84188354,0.00071850
2796.77069092,0.00085944
2798.69949829,0.00077915
2800.62830566,0.00081000
2802.55711304,0.00079161
2804.48592041,0.00077732
2806.41472778,0.00085429
2808.34353516,0.00083543
2810.27234253,0.00080124
2812.20114990,0.00074657
2814.12995728,0.00083692
2816.05876465,0.00083504
2817.98757202,0.00071126
2819.91637939,0.00081694
2821.84518677,0.00087562
2823.77399414,0.00074702
2825.70280151,0.00075085
2827.63160889,0.00078781
2829.56041626,0.00079598
2831.48922363,0.00081471
2833.41803101,0.00076241
2835.34683838,0.00086239
2837.27564575,0.00084465
2839.20445312,0.00071100
2841.13326050,0.00076897
2843.06206787,0.00085372
2844.99087524,0.00085363
2846.91968262,0.00072863
2848.84848999,0.00076569
2850.77729736,0.00074670
2852.70610474,0.00072547
2854.63491211,0.00088124
2856.56371948,0.00077657
2858.49252686,0.00073159
2860.42133423,0.00071555
2862.35014160,0.00068505
2864.27894897,0.00070301
2866.20775635,0.00071219
2868.13656372,0.00083984
2870.06537109,0.00071980
2871.99417847,0.00073133
2873.92298584,0.00084794
2875.85179321,0.00075347
2877.78060059,0.00073426
2879.70940796,0.00064922
2881.63821533,0.00066269
2883.56702270,0.00075213
2885.49583008,0.00075609
2887.42463745,0.00075009
2889.35344482,0.00082997
2891.28225220,0.00082988
2893.21105957,0.00069204
2895.13986694,0.00075827
2897.06867432,0.00073069
2898.99748169,0.00072366
2900.92628906,0.00074100
2902.85509644,0.00066254
2904.78390381,0.00075627
2906.71271118,0.00070409
2908.64151855,0.00069656
2910.57032593,0.00072087
2912.49913330,0.00072275
2914.42794067,0.00076097
2916.35674805,0.00070752
2918.28555542,0.00074609
2920.21436279,0.00065237
2922.14317017,0.00067329
2924.07197754,0.00067755
2926.00078491,0.00055956
2927.92959229,0.00066346
2929.85839966,0.00069589
2931.78720703,0.00072315
2933.71601440,0.00068809
2935.64482178,0.00072234
2937.57362915,0.00075918
2939.50243652,0.00069206
2941.43124390,0.00070936
2943.36005127,0.00063685
2945.28885864,0.00074814
2947.21766602,0.00074089
2949.14647339,0.00066526
2951.07528076,0.00075343
2953.00408813,0.00071217
2954.93289551,0.00077992
2956.86170288,0.00074851
2958.79051025,0.00071197
2960.71931763,0.00075202
2962.64812500,0.00072340
2964.57693237,0.00070107
2966.50573975,0.00061536
2968.43454712,0.00069145
2970.36335449,0.00071441
2972.29216187,0.00069896
2974.22096924,0.00079439
2976.14977661,0.00068866
2978.07858398,0.00063584
2980.00739136,0.00068044
2981.93619873,0.00063299
2983.86500610,0.00068822
2985.79381348,0.00066362
2987.72262085,0.00057488
2989.65142822,0.00063971
2991.58023560,0.00064555
2993.50904297,0.00071954
2995.43785034,0.00073604
2997.36665771,0.00061371
2999.29546509,0.00066983
3001.22427246,0.00068281
3003.15307983,0.00067421
3005.08188721,0.00074666
3007.01069458,0.00070266
3008.93950195,0.00062027
3010.86830933,0.00067907
3012.79711670,0.00067920
3014.72592407,0.00062248
3016.65473145,0.00069713
3018.58353882,0.00066360
3020.51234619,0.00065397
3022.44115356,0.00064204
3024.36996094,0.00060111
3026.29876831,0.00066088
3028.22757568,0.00064692
3030.15638306,0.00068382
3032.08519043,0.00069906
3034.01399780,0.00071811
3035.94280518,0.00069004
3037.87161255,0.00064549
3039.80041992,0.00072201
3041.72922729,0.00071917
3043.65803467,0.00073609
3045.58684204,0.00070831
3047.51564941,0.00071709
3049.44445679,0.00067749
3051.37326416,0.00059452
3053.30207153,0.00069631
3055.23087891,0.00068228
3057.15968628,0.00066370
3059.08849365,0.00063915
3061.01730103,0.00058742
3062.94610840,0.00066097
3064.87491577,0.00065841
3066.80372314,0.00059646
3068.73253052,0.00066273
3070.66133789,0.00070231
3072.59014526,0.00064470
3074.51895264,0.00070369
3076.44776001,0.00066229
3078.37656738,0.00065648
3080.30537476,0.00069295
3082.23418213,0.00061081
3084.16298950,0.00064486
3086.09179687,0.00059301
3088.02060425,0.00062710
3089.94941162,0.00067247
3091.87821899,0.00061754
3093.80702637,0.00069768
3095.73583374,0.00069834
3097.66464111,0.00065760
3099.59344849,0.00066132
3101.52225586,0.00064274
3103.45106323,0.00054213
3105.37987061,0.00057967
3107.30867798,0.00064089
3109.23748535,0.00058448
3111.16629272,0.00065415
3113.09510010,0.00056356
3115.02390747,0.00054628
3116.95271484,0.00066880
3118.88152222,0.00060527
3120.81032959,0.00065614
3122.73913696,0.00066380
3124.66794434,0.00059702
3126.59675171,0.00061911
3128.52555908,0.00054050
3130.45436645,0.00060991
3132.38317383,0.00067671
3134.31198120,0.00055627
3136.24078857,0.00064767
3138.16959595,0.00067250
3140.09840332,0.00057771
3142.02721069,0.00061539
3143.95601807,0.00065177
3145.88482544,0.00060923
3147.81363281,0.00059697
3149.74244019,0.00071381
3151.67124756,0.00063154
3153.60005493,0.00067074
3155.52886230,0.00068741
3157.45766968,0.00046589
3159.38647705,0.00060398
3161.31528442,0.00064055
3163.24409180,0.00067723
3165.17289917,0.00074470
3167.10170654,0.00066515
3169.03051392,0.00071291
3170.95932129,0.00059465
3172.88812866,0.00061830
3174.81693604,0.00073522
3176.74574341,0.00065370
3178.67455078,0.00051549
3180.60335815,0.00060163
3182.53216553,0.00074567
3184.46097290,0.00062191
3186.38978027,0.00064909
3188.31858765,0.00063686
3190.24739502,0.00060381
3192.17620239,0.00063602
3194.10500977,0.00059354
3196.03381714,0.00065639
3197.96262451,0.00067667
3199.89143188,0.00064117
3201.82023926,0.00056880
3203.74904663,0.00060516
3205.67785400,0.00059873
3207.60666138,0.00060872
3209.53546875,0.00073761
3211.46427612,0.00071398
3213.39308350,0.00071610
3215.32189087,0.00062980
3217.25069824,0.00057976
3219.17950562,0.00060800
3221.10831299,0.00058636
3223.03712036,0.00065598
3224.96592773,0.00070870
3226.89473511,0.00064506
3228.82354248,0.00054051
3230.75234985,0.00062312
3232.68115723,0.00068770
3234.60996460,0.00072644
3236.53877197,0.00064318
3238.46757935,0.00052625
3240.39638672,0.00067427
3242.32519409,0.00060276
3244.25400146,0.00053221
3246.18280884,0.00058496
3248.11161621,0.00059834
3250.04042358,0.00066387
3251.96923096,0.00064324
3253.89803833,0.00058637
3255.82684570,0.00063212
3257.75565308,0.00071956
3259.68446045,0.00060493
3261.61326782,0.00059329
3263.54207520,0.00058589
3265.47088257,0.00059053
3267.39968994,0.00073378
3269.32849731,0.00065610
3271.25730469,0.00068297
3273.18611206,0.00063116
3275.11491943,0.00061141
3277.04372681,0.00072721
3278.97253418,0.00068101
3280.90134155,0.00062836
3282.83014893,0.00056203
3284.75895630,0.00071058
3286.68776367,0.00065524
3288.61657104,0.00055252
3290.54537842,0.00069379
3292.47418579,0.00066701
3294.40299316,0.00072263
3296.33180054,0.00070896
3298.26060791,0.00066639
3300.18941528,0.00069542
3302.11822266,0.00067497
3304.04703003,0.00064641
3305.97583740,0.00064438
3307.90464478,0.00070592
3309.83345215,0.00063100
3311.76225952,0.00065313
3313.69106689,0.00067781
3315.61987427,0.00064407
3317.54868164,0.00075524
3319.47748901,0.00074353
3321.40629639,0.00070664
3323.33510376,0.00069707
3325.26391113,0.00067979
3327.19271851,0.00066076
3329.12152588,0.00062572
3331.05033325,0.00069000
3332.97914062,0.00071326
3334.90794800,0.00072205
3336.83675537,0.00081490
3338.76556274,0.00074254
3340.69437012,0.00062225
3342.62317749,0.00073562
3344.55198486,0.00080649
3346.48079224,0.00079793
3348.40959961,0.00079503
3350.33840698,0.00075296
3352.26721436,0.00079682
3354.19602173,0.00074296
3356.12482910,0.00070011
3358.05363647,0.00076927
3359.98244385,0.00070895
3361.91125122,0.00074768
3363.84005859,0.00081900
3365.76886597,0.00073055
3367.69767334,0.00071349
3369.62648071,0.00072384
3371.55528809,0.00074650
3373.48409546,0.00080896
3375.41290283,0.00078112
3377.34171020,0.00074676
3379.27051758,0.00076561
3381.19932495,0.00073848
3383.12813232,0.00072056
3385.05693970,0.00081260
3386.98574707,0.00076300
3388.91455444,0.00068528
3390.84336182,0.00079136
3392.77216919,0.00076837
3394.70097656,0.00074826
3396.62978394,0.00079680
3398.55859131,0.00079500
3400.48739868,0.00078314
3402.41620605,0.00076739
3404.34501343,0.00082479
3406.27382080,0.00078875
3408.20262817,0.00073186
3410.13143555,0.00078508
3412.06024292,0.00084075
3413.98905029,0.00077901
3415.91785767,0.00071420
3417.84666504,0.00078272
3419.77547241,0.00074728
3421.70427979,0.00071451
3423.63308716,0.00072869
3425.56189453,0.00071472
3427.49070190,0.00072857
3429.41950928,0.00076764
3431.34831665,0.00082073
3433.27712402,0.00082324
3435.20593140,0.00081483
3437.13473877,0.00073804
3439.06354614,0.00083004
3440.99235352,0.00090713
3442.92116089,0.00082270
3444.84996826,0.00085088
3446.77877563,0.00072938
3448.70758301,0.00071420
3450.63639038,0.00078721
3452.56519775,0.00082362
3454.49400513,0.00089890
3456.42281250,0.00080790
3458.35161987,0.00082887
3460.28042725,0.00086281
3462.20923462,0.00084145
3464.13804199,0.00083030
3466.06684937,0.00078895
3467.99565674,0.00076874
3469.92446411,0.00070323
3471.85327148,0.00074615
3473.78207886,0.00082108
3475.71088623,0.00082828
3477.63969360,0.00079662
3479.56850098,0.00079161
3481.49730835,0.00079948
3483.42611572,0.00077035
3485.35492310,0.00081145
3487.28373047,0.00083048
3489.21253784,0.00082782
3491.14134521,0.00085235
3493.07015259,0.00082332
3494.99895996,0.00071541
3496.92776733,0.00074952
3498.85657471,0.00075514
3500.78538208,0.00063101
3502.71418945,0.00074423
3504.64299683,0.00081425
3506.57180420,0.00081945
3508.50061157,0.00082065
3510.42941895,0.00080449
3512.35822632,0.00085928
3514.28703369,0.00081411
3516.21584106,0.00084708
3518.14464844,0.00081712
3520.07345581,0.00085936
3522.00226318,0.00094541
3523.93107056,0.00076190
3525.85987793,0.00077482
3527.78868530,0.00083661
3529.71749268,0.00082628
3531.64630005,0.00089894
3533.57510742,0.00082332
3535.50391479,0.00077077
3537.43272217,0.00081458
3539.36152954,0.00076940
3541.29033691,0.00074177
3543.21914429,0.00079401
3545.14795166,0.00078734
3547.07675903,0.00071359
3549.00556641,0.00071144
3550.93437378,0.00079117
3552.86318115,0.00076253
3554.79198853,0.00077724
3556.72079590,0.00086560
3558.64960327,0.00080331
3560.57841064,0.00080507
3562.50721802,0.00085247
3564.43602539,0.00082114
3566.36483276,0.00069725
3568.29364014,0.00063783
3570.22244751,0.00077906
3572.15125488,0.00082434
3574.08006226,0.00080354
3576.00886963,0.00076523
3577.93767700,0.00075699
3579.86648437,0.00081295
3581.79529175,0.00083245
3583.72409912,0.00088145
3585.65290649,0.00077505
3587.58171387,0.00069352
3589.51052124,0.00078211
3591.43932861,0.00079677
3593.36813599,0.00080969
3595.29694336,0.00078912
3597.22575073,0.00073735
3599.15455811,0.00075420
3601.08336548,0.00076464
3603.01217285,0.00073166
3604.94098022,0.00074660
3606.86978760,0.00075451
3608.79859497,0.00065707
3610.72740234,0.00066517
3612.65620972,0.00072623
3614.58501709,0.00076647
3616.51382446,0.00080605
3618.44263184,0.00068466
3620.37143921,0.00068718
3622.30024658,0.00076940
3624.22905395,0.00075137
3626.15786133,0.00076846
3628.08666870,0.00064282
3630.01547607,0.00063349
3631.94428345,0.00075751
3633.87309082,0.00074496
3635.80189819,0.00076816
3637.73070557,0.00079513
3639.65951294,0.00082409
3641.58832031,0.00076730
3643.51712769,0.00070141
3645.44593506,0.00074415
3647.37474243,0.00072806
3649.30354980,0.00066936
3651.23235718,0.00067381
3653.16116455,0.00077148
3655.08997192,0.00067717
3657.01877930,0.00064497
3658.94758667,0.00077268
3660.87639404,0.00071504
3662.80520142,0.00073932
3664.73400879,0.00073716
3666.66281616,0.00076467
3668.59162354,0.00074517
3670.52043091,0.00059480
3672.44923828,0.00075066
3674.37804565,0.00076942
3676.30685303,0.00061023
3678.23566040,0.00067502
3680.16446777,0.00076277
3682.09327515,0.00067706
3684.02208252,0.00064076
3685.95088989,0.00075753
3687.87969727,0.00066765
3689.80850464,0.00061719
3691.73731201,0.00065449
3693.66611938,0.00065812
3695.59492676,0.00075449
3697.52373413,0.00073207
3699.45254150,0.00071224
3701.38134888,0.00063251
3703.31015625,0.00061110
3705.23896362,0.00070761
3707.16777100,0.00066847
3709.09657837,0.00066083
3711.02538574,0.00056654
3712.95419312,0.00060340
3714.88300049,0.00070730
3716.81180786,0.00066290
3718.74061523,0.00071753
3720.66942261,0.00067563
3722.59822998,0.00069546
3724.52703735,0.00063863
3726.45584473,0.00055767
3728.38465210,0.00068711
3730.31345947,0.00061496
3732.24226685,0.00060582
3734.17107422,0.00057513
3736.09988159,0.00053181
3738.02868896,0.00064575
3739.95749634,0.00059117
3741.88630371,0.00061394
3743.81511108,0.00054428
3745.74391846,0.00048149
3747.67272583,0.00068062
3749.60153320,0.00064873
3751.53034058,0.00053642
3753.45914795,0.00056202
3755.38795532,0.00057625
3757.31676270,0.00058984
3759.24557007,0.00056637
3761.17437744,0.00057120
3763.10318481,0.00063563
3765.03199219,0.00066267
3766.96079956,0.00068059
3768.88960693,0.00062468
3770.81841431,0.00057583
3772.74722168,0.00062491
3774.67602905,0.00060720
3776.60483643,0.00059890
3778.53364380,0.00062019
3780.46245117,0.00065319
3782.39125854,0.00062932
3784.32006592,0.00059458
3786.24887329,0.00062141
3788.17768066,0.00055937
3790.10648804,0.00064959
3792.03529541,0.00069770
3793.96410278,0.00062356
3795.89291016,0.00065465
3797.82171753,0.00060916
3799.75052490,0.00060063
3801.67933228,0.00056865
3803.60813965,0.00055939
3805.53694702,0.00057731
3807.46575439,0.00052005
3809.39456177,0.00057156
3811.32336914,0.00065338
3813.25217651,0.00062483
3815.18098389,0.00050770
3817.10979126,0.00057839
3819.03859863,0.00065389
3820.96740601,0.00055908
3822.89621338,0.00057990
3824.82502075,0.00064100
3826.75382812,0.00057786
3828.68263550,0.00057249
3830.61144287,0.00069822
3832.54025024,0.00055359
3834.46905762,0.00052340
3836.39786499,0.00062952
3838.32667236,0.00048075
3840.25547974,0.00053260
3842.18428711,0.00051953
3844.11309448,0.00053155
3846.04190186,0.00065072
3847.97070923,0.00057239
3849.89951660,0.00058447
3851.82832397,0.00050959
3853.75713135,0.00038785
3855.68593872,0.00045711
3857.61474609,0.00057335
3859.54355347,0.00054398
3861.47236084,0.00055724
3863.40116821,0.00064571
3865.32997559,0.00056145
3867.25878296,0.00057637
3869.18759033,0.00060485
3871.11639770,0.00052166
3873.04520508,0.00055127
3874.97401245,0.00067002
3876.90281982,0.00061394
3878.83162720,0.00050988
3880.76043457,0.00053466
3882.68924194,0.00047262
3884.61804932,0.00053771
3886.54685669,0.00056974
3888.47566406,0.00053041
3890.40447144,0.00055296
3892.33327881,0.00047743
3894.26208618,0.00055147
3896.19089355,0.00060515
3898.11970093,0.00056046
3900.04850830,0.00050340
3901.97731567,0.00050421
3903.90612305,0.00053261
3905.83493042,0.00050770
3907.76373779,0.00058345
3909.69254517,0.00052108
3911.62135254,0.00055505
3913.55015991,0.00064203
3915.47896728,0.00054230
3917.40777466,0.00055400
3919.33658203,0.00053372
3921.26538940,0.00052036
3923.19419678,0.00050755
3925.12300415,0.00045269
3927.05181152,0.00054247
3928.98061890,0.00062608
3930.90942627,0.00055030
3932.83823364,0.00055173
3934.76704102,0.00062167
3936.69584839,0.00053849
3938.62465576,0.00055498
3940.55346313,0.00053631
3942.48227051,0.00047690
3944.41107788,0.00054015
3946.33988525,0.00050996
3948.26869263,0.00051852
3950.19750000,0.00054994
3952.12630737,0.00055857
3954.05511475,0.00052858
3955.98392212,0.00050588
3957.91272949,0.00055114
3959.84153687,0.00056204
3961.77034424,0.00059055
3963.69915161,0.00056969
3965.62795898,0.00052128
3967.55676636,0.00045424
3969.48557373,0.00047625
3971.41438110,0.00054705
3973.34318848,0.00050016
3975.27199585,0.00052833
3977.20080322,0.00050712
3979.12961060,0.00044814
3981.05841797,0.00046327
3982.98722534,0.00047413
3984.91603271,0.00054159
3986.84484009,0.00060120
3988.77364746,0.00053917
3990.70245483,0.00044824
3992.63126221,0.00053465
3994.56006958,0.00055616
3996.48887695,0.00046873
3998.41768433,0.00050191
4000.34649170,0.00048022
4002.27529907,0.00048501
4004.20410645,0.00054870
4006.13291382,0.00045553
4008.06172119,0.00045103
4009.99052856,0.00059365
4011.91933594,0.00048884
4013.84814331,0.00041760
4015.77695068,0.00047158
4017.70575806,0.00044005
4019.63456543,0.00055144
4021.56337280,0.00049626
4023.49218018,0.00044931
4025.42098755,0.00053610
4027.34979492,0.00043582
4029.27860229,0.00049959
4031.20740967,0.00051873
4033.13621704,0.00043957
4035.06502441,0.00053563
4036.99383179,0.00056769
4038.92263916,0.00049482
4040.85144653,0.00047947
4042.78025391,0.00053008
4044.70906128,0.00048117
4046.63786865,0.00045172
4048.56667603,0.00047641
4050.49548340,0.00046046
4052.42429077,0.00049180
4054.35309814,0.00051411
4056.28190552,0.00046940
4058.21071289,0.00046272
4060.13952026,0.00053522
4062.06832764,0.00043654
4063.99713501,0.00039005
4065.92594238,0.00053795
4067.85474976,0.00052539
4069.78355713,0.00048734
4071.71236450,0.00045216
4073.64117187,0.00044260
4075.56997925,0.00048448
4077.49878662,0.00047555
4079.42759399,0.00051079
4081.35640137,0.00047803
4083.28520874,0.00043292
4085.21401611,0.00045562
4087.14282349,0.00048830
4089.07163086,0.00046443
4091.00043823,0.00039843
4092.92924561,0.00043737
4094.85805298,0.00044267
4096.78686035,0.00046493
4098.71566772,0.00054403
4100.64447510,0.00053489
4102.57328247,0.00054641
4104.50208984,0.00052213
4106.43089722,0.00046985
4108.35970459,0.00050453
4110.28851196,0.00047651
4112.21731934,0.00043883
4114.14612671,0.00052226
4116.07493408,0.00052444
4118.00374145,0.00042822
4119.93254883,0.00045291
4121.86135620,0.00053529
4123.79016357,0.00048825
4125.71897095,0.00044991
4127.64777832,0.00049964
4129.57658569,0.00044052
4131.50539307,0.00041923
4133.43420044,0.00052169
4135.36300781,0.00054291
4137.29181519,0.00047914
4139.22062256,0.00040612
4141.14942993,0.00039475
4143.07823730,0.00042263
4145.00704468,0.00042407
4146.93585205,0.00042043
4148.86465942,0.00045805
4150.79346680,0.00050534
4152.72227417,0.00050798
4154.65108154,0.00045835
4156.57988892,0.00039247
4158.50869629,0.00041950
4160.43750366,0.00046787
4162.36631103,0.00043780
4164.29511841,0.00040517
4166.22392578,0.00042263
4168.15273315,0.00044967
4170.08154053,0.00045912
4172.01034790,0.00044658
4173.93915527,0.00041992
4175.86796265,0.00042803
4177.79677002,0.00041480
4179.72557739,0.00040905
4181.65438477,0.00041819
4183.58319214,0.00045099
4185.51199951,0.00046790
4187.44080688,0.00039233
4189.36961426,0.00045062
4191.29842163,0.00045539
4193.22722900,0.00038484
4195.15603638,0.00044583
4197.08484375,0.00040148
4199.01365112,0.00037599
4200.94245850,0.00042253
4202.87126587,0.00038134
4204.80007324,0.00037670
4206.72888062,0.00046006
4208.65768799,0.00041733
4210.58649536,0.00039606
4212.51530273,0.00047879
4214.44411011,0.00038381
4216.37291748,0.00038689
4218.30172485,0.00041714
4220.23053223,0.00038738
4222.15933960,0.00042557
4224.08814697,0.00037065
4226.01695435,0.00041800
4227.94576172,0.00044162
4229.87456909,0.00040994
4231.80337646,0.00043359
4233.73218384,0.00045178
4235.66099121,0.00047336
4237.58979858,0.00039290
4239.51860596,0.00037298
4241.44741333,0.00040012
4243.37622070,0.00041308
4245.30502808,0.00045720
4247.23383545,0.00046953
4249.16264282,0.00041540
4251.09145020,0.00038735
4253.02025757,0.00043695
4254.94906494,0.00039201
4256.87787231,0.00040367
4258.80667969,0.00042336
4260.73548706,0.00037624
4262.66429443,0.00038566
4264.59310181,0.00038972
4266.52190918,0.00041471
4268.45071655,0.00035168
4270.37952393,0.00036774
4272.30833130,0.00045638
4274.23713867,0.00038202
4276.16594604,0.00034775
4278.09475342,0.00036047
4280.02356079,0.00032406
4281.95236816,0.00033210
4283.88117554,0.00038790
4285.80998291,0.00037518
4287.73879028,0.00039774
4289.66759766,0.00046206
4291.59640503,0.00041945
4293.52521240,0.00044175
4295.45401978,0.00040952
4297.38282715,0.00026994
4299.31163452,0.00035083
4301.24044189,0.00042467
4303.16924927,0.00035602
4305.09805664,0.00034567
4307.02686401,0.00037525
4308.95567139,0.00045155
4310.88447876,0.00037782
4312.81328613,0.00030359
4314.74209351,0.00035908
4316.67090088,0.00031597
4318.59970825,0.00039162
4320.52851562,0.00037189
4322.45732300,0.00026080
4324.38613037,0.00035472
4326.31493774,0.00042445
4328.24374512,0.00045455
4330.17255249,0.00042044
4332.10135986,0.00034214
4334.03016724,0.00028733
4335.95897461,0.00034267
4337.88778198,0.00039849
4339.81658936,0.00034966
4341.74539673,0.00036898
4343.67420410,0.00035625
4345.60301147,0.00036097
4347.53181885,0.00040293
4349.46062622,0.00046336
4351.38943359,0.00040728
4353.31824097,0.00031222
4355.24704834,0.00040155
4357.17585571,0.00037451
4359.10466309,0.00038667
4361.03347046,0.00042378
4362.96227783,0.00034038
4364.89108520,0.00031959
4366.81989258,0.00038464
4368.74869995,0.00042163
4370.67750732,0.00034504
4372.60631470,0.00038968
4374.53512207,0.00038137
4376.46392944,0.00032597
4378.39273682,0.00033351
4380.32154419,0.00031745
4382.25035156,0.00035145
4384.17915894,0.00032978
4386.10796631,0.00033496
4388.03677368,0.00030659
4389.96558105,0.00038779
4391.89438843,0.00043963
4393.82319580,0.00035551
4395.75200317,0.00041129
4397.68081055,0.00036793
4399.60961792,0.00036844
4401.53842529,0.00036420
4403.46723267,0.00033073
4405.39604004,0.00038966
4407.32484741,0.00037091
4409.25365478,0.00026171
4411.18246216,0.00021970
4413.11126953,0.00038575
4415.04007690,0.00037787
4416.96888428,0.00035278
4418.89769165,0.00033476
4420.82649902,0.00027718
4422.75530640,0.00034623
4424.68411377,0.00026309
4426.61292114,0.00030551
4428.54172852,0.00032108
4430.47053589,0.00035745
4432.39934326,0.00043337
4434.32815063,0.00029273
4436.25695801,0.00030526
4438.18576538,0.00033319
4440.11457275,0.00038917
4442.04338013,0.00039561
4443.97218750,0.00038600
4445.90099487,0.00039479
4447.82980225,0.00026299
4449.75860962,0.00031181
4451.68741699,0.00035614
4453.61622437,0.00035682
4455.54503174,0.00031142
4457.47383911,0.00032134
4459.40264648,0.00042839
4461.33145386,0.00033189
4463.26026123,0.00033731
4465.18906860,0.00034645
4467.11787598,0.00033789
4469.04668335,0.00037194
4470.97549072,0.00027204
4472.90429810,0.00029663
4474.83310547,0.00034351
4476.76191284,0.00030908
4478.69072021,0.00028770
4480.61952759,0.00034279
4482.54833496,0.00039357
4484.47714233,0.00031741
4486.40594971,0.00032092
4488.33475708,0.00027530
4490.26356445,0.00028288
4492.19237183,0.00037001
4494.12117920,0.00031950
4496.04998657,0.00041295
4497.97879395,0.00030889
4499.90760132,0.00020567
4501.83640869,0.00034782
4503.76521606,0.00032705
4505.69402344,0.00040045
4507.62283081,0.00031610
4509.55163818,0.00032856
4511.48044556,0.00044098
4513.40925293,0.00031538
4515.33806030,0.00036309
4517.26686768,0.00027072
4519.19567505,0.00030267
4521.12448242,0.00034992
4523.05328979,0.00023609
4524.98209717,0.00032007
4526.91090454,0.00027677
4528.83971191,0.00029314
4530.76851929,0.00033096
4532.69732666,0.00032206
4534.62613403,0.00031095
4536.55494141,0.00032662
4538.48374878,0.00034385
4540.41255615,0.00033051
4542.34136353,0.00037902
4544.27017090,0.00021433
4546.19897827,0.00030204
4548.12778564,0.00034096
4550.05659302,0.00024619
4551.98540039,0.00038045
4553.91420776,0.00027676
4555.84301514,0.00035102
4557.77182251,0.00037319
4559.70062988,0.00031615
4561.62943726,0.00034886
4563.55824463,0.00029657
4565.48705200,0.00033897
4567.41585937,0.00022647
4569.34466675,0.00031382
4571.27347412,0.00036175
4573.20228149,0.00026036
4575.13108887,0.00036474
4577.05989624,0.00035015
4578.98870361,0.00031519
4580.91751099,0.00031045
4582.84631836,0.00030472
4584.77512573,0.00026597
4586.70393311,0.00031716
4588.63274048,0.00037590
4590.56154785,0.00029310
4592.49035522,0.00031348
4594.41916260,0.00032785
4596.34796997,0.00027794
4598.27677734,0.00027468
4600.20558472,0.00035469
4602.13439209,0.00031378
4604.06319946,0.00025798
4605.99200684,0.00030929
4607.92081421,0.00027137
4609.84962158,0.00027644
4611.77842895,0.00028592
4613.70723633,0.00028903
4615.63604370,0.00022702
4617.56485107,0.00021304
4619.49365845,0.00031597
4621.42246582,0.00026132
4623.35127319,0.00029083
4625.28008057,0.00038312
4627.20888794,0.00030953
4629.13769531,0.00028859
4631.06650269,0.00033621
4632.99531006,0.00028835
4634.92411743,0.00029974
4636.85292480,0.00033902
4638.78173218,0.00029643
4640.71053955,0.00026076
4642.63934692,0.00021126
4644.56815430,0.00022450
4646.49696167,0.00023418
4648.42576904,0.00028530
4650.35457642,0.00033608
4652.28338379,0.00032491
4654.21219116,0.00031323
4656.14099853,0.00028042
4658.06980591,0.00034144
4659.99861328,0.00029506
4661.92742065,0.00031149
4663.85622803,0.00031727
4665.78503540,0.00022253
4667.71384277,0.00033173
4669.64265015,0.00030312
4671.57145752,0.00024454
4673.50026489,0.00021912
4675.42907227,0.00019058
4677.35787964,0.00021648
4679.28668701,0.00024076
4681.21549438,0.00024728
4683.14430176,0.00014959
4685.07310913,0.00026743
4687.00191650,0.00028561
4688.93072388,0.00024706
4690.85953125,0.00034622
4692.78833862,0.00024245
4694.71714600,0.00026998
4696.64595337,0.00032335
4698.57476074,0.00027517
4700.50356812,0.00029745
4702.43237549,0.00034172
4704.36118286,0.00029513
4706.28999023,0.00025413
4708.21879761,0.00031646
4710.14760498,0.00024505
4712.07641235,0.00026148
4714.00521973,0.00030602
4715.93402710,0.00022275
4717.86283447,0.00022556
4719.79164185,0.00026006
4721.72044922,0.00027303
4723.64925659,0.00021826
4725.57806396,0.00019310
4727.50687134,0.00026068
4729.43567871,0.00029207
4731.36448608,0.00025764
4733.29329346,0.00023885
4735.22210083,0.00021921
4737.15090820,0.00025181
4739.07971558,0.00026949
4741.00852295,0.00018037
4742.93733032,0.00024428
4744.86613770,0.00025840
4746.79494507,0.00019227
4748.72375244,0.00027593
4750.65255981,0.00026957
4752.58136719,0.00021256
4754.51017456,0.00026559
4756.43898193,0.00027305
4758.36778931,0.00022091
4760.29659668,0.00024403
4762.22540405,0.00025285
4764.15421143,0.00030449
4766.08301880,0.00027461
4768.01182617,0.00019769
4769.94063354,0.00026192
4771.86944092,0.00025211
4773.79824829,0.00032239
4775.72705566,0.00027828
4777.65586304,0.00022692
4779.58467041,0.00032834
4781.51347778,0.00020733
4783.44228516,0.00019904
4785.37109253,0.00022633
4787.29989990,0.00024452
4789.22870728,0.00031750
4791.15751465,0.00023144
4793.08632202,0.00023765
4795.01512939,0.00027944
4796.94393677,0.00026227
4798.87274414,0.00025386
4800.80155151,0.00021534
4802.73035889,0.00020647
4804.65916626,0.00025423
4806.58797363,0.00023716
4808.51678101,0.00021968
4810.44558838,0.00024153
4812.37439575,0.00022643
4814.30320312,0.00025049
4816.23201050,0.00021898
4818.16081787,0.00025495
4820.08962524,0.00029592
4822.01843262,0.00023298
4823.94723999,0.00023340
4825.87604736,0.00021732
4827.80485474,0.00020512
4829.73366211,0.00015972
4831.66246948,0.00023923
4833.59127686,0.00031773
4835.52008423,0.00022465
4837.44889160,0.00022495
4839.37769897,0.00020698
4841.30650635,0.00017851
4843.23531372,0.00017875
4845.16412109,0.00023042
4847.09292847,0.00021621
4849.02173584,0.00022930
4850.95054321,0.00035991
4852.87935059,0.00020749
4854.80815796,0.00017310
4856.73696533,0.00028003
4858.66577270,0.00019871
4860.59458008,0.00020834
4862.52338745,0.00023601
4864.45219482,0.00022086
4866.38100220,0.00024393
4868.30980957,0.00028361
4870.23861694,0.00024782
4872.16742432,0.00022164
4874.09623169,0.00027812
4876.02503906,0.00027246
4877.95384644,0.00025623
4879.88265381,0.00024661
4881.81146118,0.00020648
4883.74026855,0.00020926
4885.66907593,0.00024855
4887.59788330,0.00022525
4889.52669067,0.00020927
4891.45549805,0.00025061
4893.38430542,0.00021956
4895.31311279,0.00016648
4897.24192017,0.00019282
4899.17072754,0.00023702
4901.09953491,0.00027507
4903.02834228,0.00025998
4904.95714966,0.00022962
4906.88595703,0.00032388
4908.81476440,0.00026820
4910.74357178,0.00018414
4912.67237915,0.00024160
4914.60118652,0.00014243
4916.52999390,0.00017987
4918.45880127,0.00028615
4920.38760864,0.00026386
4922.31641602,0.00024323
4924.24522339,0.00020929
4926.17403076,0.00021265
4928.10283813,0.00015489
4930.03164551,0.00019854
4931.96045288,0.00022759
4933.88926025,0.00016124
4935.81806763,0.00019003
4937.74687500,0.00018426
4939.67568237,0.00024377
4941.60448975,0.00024739
4943.53329712,0.00019962
4945.46210449,0.00021018
4947.39091187,0.00015728
4949.31971924,0.00018298
4951.24852661,0.00023162
4953.17733398,0.00023204
4955.10614136,0.00024000
4957.03494873,0.00020417
4958.96375610,0.00016292
4960.89256348,0.00019468
4962.82137085,0.00021185
4964.75017822,0.00015320
4966.67898560,0.00017304
4968.60779297,0.00026670
4970.53660034,0.00019376
4972.46540771,0.00012284
4974.39421509,0.00020369
4976.32302246,0.00016940
4978.25182983,0.00021517
4980.18063721,0.00022982
4982.10944458,0.00012557
4984.03825195,0.00019325
4985.96705933,0.00016039
4987.89586670,0.00016699
4989.82467407,0.00017257
4991.75348145,0.00013092
4993.68228882,0.00025275
4995.61109619,0.00021163
4997.53990356,0.00017760
4999.46871094,0.00020221
5001.39751831,0.00019496
5003.32632568,0.00024413
5005.25513306,0.00018241
5007.18394043,0.00017711
5009.11274780,0.00024430
5011.04155518,0.00019100
5012.97036255,0.00021149
5014.89916992,0.00028468
5016.82797729,0.00015967
5018.75678467,0.00010115
5020.68559204,0.00018010
5022.61439941,0.00016969
5024.54320679,0.00015370
5026.47201416,0.00021080
5028.40082153,0.00028971
5030.32962891,0.00025254
5032.25843628,0.00016771
5034.18724365,0.00014842
5036.11605103,0.00023433
5038.04485840,0.00021062
5039.97366577,0.00014412
5041.90247314,0.00027718
5043.83128052,0.00020610
5045.76008789,0.00019821
5047.68889526,0.00022882
5049.61770264,0.00008158
5051.54651001,0.00020171
5053.47531738,0.00023804
5055.40412476,0.00016467
5057.33293213,0.00017218
5059.26173950,0.00017639
5061.19054687,0.00022951
5063.11935425,0.00020387
5065.04816162,0.00015965
5066.97696899,0.00017418
5068.90577637,0.00024442
5070.83458374,0.00023724
5072.76339111,0.00018017
5074.69219849,0.00016588
5076.62100586,0.00013540
5078.54981323,0.00017442
5080.47862061,0.00022727
5082.40742798,0.00020381
5084.33623535,0.00011385
5086.26504272,0.00014034
5088.19385010,0.00022023
5090.12265747,0.00015882
5092.05146484,0.00018848
5093.98027222,0.00021261
5095.90907959,0.00011950
5097.83788696,0.00018115
5099.76669434,0.00023259
5101.69550171,0.00018203
5103.62430908,0.00023888
5105.55311645,0.00022130
5107.48192383,0.00015649
5109.41073120,0.00015354
5111.33953857,0.00015812
5113.26834595,0.00020972
5115.19715332,0.00016179
5117.12596069,0.00013844
5119.05476807,0.00016085
5120.98357544,0.00014857
5122.91238281,0.00019589
5124.84119019,0.00018735
5126.76999756,0.00012783
5128.69880493,0.00008294
5130.62761230,0.00011567
5132.55641968,0.00014324
5134.48522705,0.00016974
5136.41403442,0.00020223
5138.34284180,0.00016137
5140.27164917,0.00016598
5142.20045654,0.00016486
5144.12926392,0.00020170
5146.05807129,0.00019257
5147.98687866,0.00017079
5149.91568603,0.00017788
5151.84449341,0.00011607
5153.77330078,0.00020185
5155.70210815,0.00021738
5157.63091553,0.00015618
5159.55972290,0.00017178
5161.48853027,0.00012440
5163.41733765,0.00012390
5165.34614502,0.00015110
5167.27495239,0.00014118
5169.20375977,0.00016554
5171.13256714,0.00017908
5173.06137451,0.00012425
5174.99018188,0.00011627
5176.91898926,0.00015243
5178.84779663,0.00021612
5180.77660400,0.00021680
5182.70541138,0.00016785
5184.63421875,0.00019354
5186.56302612,0.00014680
5188.49183350,0.00017454
5190.42064087,0.00015122
5192.34944824,0.00016024
5194.27825562,0.00024251
5196.20706299,0.00004714
5198.13587036,0.00010214
5200.06467773,0.00018595
5201.99348511,0.00006850
5203.92229248,0.00012984
5205.85109985,0.00016853
5207.77990723,0.00020904
5209.70871460,0.00022435
5211.63752197,0.00020328
5213.56632935,0.00010991
5215.49513672,0.00008199
5217.42394409,0.00016803
5219.35275146,0.00012529
5221.28155884,0.00012194
5223.21036621,0.00016811
5225.13917358,0.00022793
5227.06798096,0.00017348
5228.99678833,0.00014551
5230.92559570,0.00022787
5232.85440308,0.00017501
5234.78321045,0.00023127
5236.71201782,0.00024558
5238.64082520,0.00009651
5240.56963257,0.00008105
5242.49843994,0.00017738
5244.42724731,0.00018519
5246.35605469,0.00012935
5248.28486206,0.00012935
5250.21366943,0.00012399
5252.14247681,0.00012758
5254.07128418,0.00012800
5256.00009155,0.00010306
5257.92889893,0.00006597
5259.85770630,0.00016963
5261.78651367,0.00021574
5263.71532104,0.00008113
5265.64412842,0.00011289
5267.57293579,0.00013961
5269.50174316,0.00015590
5271.43055054,0.00018591
5273.35935791,0.00015018
5275.28816528,0.00009880
5277.21697266,0.00006237
5279.14578003,0.00013724
5281.07458740,0.00010140
5283.00339478,0.00006839
5284.93220215,0.00010626
5286.86100952,0.00016091
5288.78981689,0.00017837
5290.71862427,0.00012447
5292.64743164,0.00015819
5294.57623901,0.00011194
5296.50504639,0.00014949
5298.43385376,0.00016523
5300.36266113,0.00009578
5302.29146851,0.00012359
5304.22027588,0.00010757
5306.14908325,0.00013528
5308.07789062,0.00011049
5310.00669800,0.00012129
5311.93550537,0.00009801
5313.86431274,0.00010219
5315.79312012,0.00021373
5317.72192749,0.00010100
5319.65073486,0.00012075
5321.57954224,0.00018280
5323.50834961,0.00008192
5325.43715698,0.00012280
5327.36596436,0.00017017
5329.29477173,0.00013761
5331.22357910,0.00014990
5333.15238647,0.00014573
5335.08119385,0.00013863
5337.01000122,0.00017735
5338.93880859,0.00012627
5340.86761597,0.00012609
5342.79642334,0.00013847
5344.72523071,0.00013089
5346.65403809,0.00013683
5348.58284546,0.00006979
5350.51165283,0.00012091
5352.44046020,0.00013437
5354.36926758,0.00010105
5356.29807495,0.00007249
5358.22688232,0.00014612
5360.15568970,0.00026298
5362.08449707,0.00018773
5364.01330444,0.00018705
5365.94211182,0.00010391
5367.87091919,0.00009838
5369.79972656,0.00013653
5371.72853394,0.00006252
5373.65734131,0.00014097
5375.58614868,0.00011956
5377.51495605,0.00017436
5379.44376343,0.00018490
5381.37257080,0.00008802
5383.30137817,0.00011391
5385.23018555,0.00010020
5387.15899292,0.00010215
5389.08780029,0.00011197
5391.01660767,0.00015573
5392.94541504,0.00014952
5394.87422241,0.00018766
5396.80302978,0.00019086
5398.73183716,0.00014463
5400.66064453,0.00015686
5402.58945190,0.00004151
5404.51825928,0.00013347
5406.44706665,0.00016352
5408.37587402,0.00007953
5410.30468140,0.00013711
5412.23348877,0.00007495
5414.16229614,0.00008962
5416.09110352,0.00011055
5418.01991089,0.00010103
5419.94871826,0.00012172
5421.87752563,0.00017495
5423.80633301,0.00014450
5425.73514038,0.00002623
5427.66394775,0.00011875
5429.59275513,0.00008800
5431.52156250,0.00002789
5433.45036987,0.00008672
5435.37917725,0.00009670
5437.30798462,0.00016293
5439.23679199,0.00015505
5441.16559936,0.00015125
5443.09440674,0.00010994
5445.02321411,0.00005886
5446.95202148,0.00015767
5448.88082886,0.00017322
5450.80963623,0.00009991
5452.73844360,0.00012212
5454.66725098,0.00017459
5456.59605835,0.00014343
5458.52486572,0.00012707
5460.45367310,0.00010197
5462.38248047,0.00010171
5464.31128784,0.00016783
5466.24009521,0.00017530
5468.16890259,0.00015321
5470.09770996,0.00011236
5472.02651733,0.00015065
5473.95532471,0.00018213
5475.88413208,0.00013450
5477.81293945,0.00011191
5479.74174683,0.00011225
5481.67055420,0.00016861
5483.59936157,0.00010883
5485.52816895,0.00007109
5487.45697632,0.00012222
5489.38578369,0.00007681
5491.31459106,0.00010143
5493.24339844,0.00014890
5495.17220581,0.00015749
5497.10101318,0.00014353
5499.02982056,0.00011742
5500.95862793,0.00009722
5502.88743530,0.00013230
5504.81624268,0.00024116
5506.74505005,0.00016896
5508.67385742,0.00010045
5510.60266479,0.00011188
5512.53147217,0.00006125
5514.46027954,0.00007481
5516.38908691,0.00008869
5518.31789429,0.00012907
5520.24670166,0.00011956
5522.17550903,0.00012206
5524.10431641,0.00016996
5526.03312378,0.00011777
5527.96193115,0.00011380
5529.89073853,0.00008728
5531.81954590,0.00009805
5533.74835327,0.00011088
5535.67716064,0.00007136
5537.60596802,0.00010790
5539.53477539,0.00008268
5541.46358276,0.00011589
5543.39239014,0.00012922
5545.32119751,0.00006202
5547.25000488,0.00012220
5549.17881226,0.00017914
5551.10761963,0.00014666
5553.03642700,0.00011754
5554.96523437,0.00013059
5556.89404175,0.00010920
5558.82284912,0.00007388
5560.75165649,0.00010301
5562.68046387,0.00013414
5564.60927124,0.00010222
5566.53807861,0.00013115
5568.46688599,0.00016047
5570.39569336,0.00008418
5572.32450073,0.00013326
5574.25330811,0.00015926
5576.18211548,0.00009043
5578.11092285,0.00012513
5580.03973022,0.00013946
5581.96853760,0.00004865
5583.89734497,0.00002617
5585.82615234,0.00011091
5587.75495972,0.00008088
5589.68376709,0.00008250
5591.61257446,0.00011273
5593.54138184,0.00010219
5595.47018921,0.00011690
5597.39899658,0.00004016
5599.32780395,0.00013362
5601.25661133,0.00020979
5603.18541870,0.00007330
5605.11422607,0.00006590
5607.04303345,0.00010919
5608.97184082,0.00002376
5610.90064819,-0.00000743
5612.82945557,0.00010756
5614.75826294,0.00011458
5616.68707031,0.00011914
5618.61587769,0.00010321
5620.54468506,0.00004603
5622.47349243,0.00014239
5624.40229980,0.00013855
5626.33110718,0.00008843
5628.25991455,0.00009699
5630.18872192,0.00012718
5632.11752930,0.00013492
5634.04633667,0.00011155
5635.97514404,0.00014064
5637.90395142,0.00006550
5639.83275879,0.00002947
5641.76156616,0.00007549
5643.69037353,0.00007364
5645.61918091,0.00008138
5647.54798828,0.00009494
5649.47679565,0.00014564
5651.40560303,0.00011312
5653.33441040,0.00004920
5655.26321777,0.00009540
5657.19202515,0.00008405
5659.12083252,0.00011550
5661.04963989,0.00017284
5662.97844727,0.00006909
5664.90725464,0.00009252
5666.83606201,0.00012502
5668.76486938,0.00006781
5670.69367676,0.00012249
5672.62248413,0.00012608
5674.55129150,0.00012021
5676.48009888,0.00008518
5678.40890625,0.00008585
5680.33771362,0.00010002
5682.26652100,0.00011653
5684.19532837,0.00017864
5686.12413574,0.00007713
5688.05294311,0.00010414
5689.98175049,0.00010477
5691.91055786,0.00006662
5693.83936523,0.00013421
5695.76817261,0.00007148
5697.69697998,0.00010107
5699.62578735,0.00010547
5701.55459473,0.00010645
5703.48340210,0.00012752
5705.41220947,0.00011408
5707.34101685,0.00008342
5709.26982422,0.00005093
5711.19863159,0.00012755
5713.12743896,0.00007941
5715.05624634,0.00012740
5716.98505371,0.00011024
5718.91386108,0.00007863
5720.84266846,0.00014470
5722.77147583,0.00001754
5724.70028320,0.00013183
5726.62909058,0.00012606
5728.55789795,0.00002621
5730.48670532,0.00009442
5732.41551270,0.00013008
5734.34432007,0.00020891
5736.27312744,0.00010787
5738.20193481,0.00008207
5740.13074219,0.00004386
5742.05954956,0.00002090
5743.98835693,0.00008722
5745.91716431,0.00003107
5747.84597168,0.00012818
5749.77477905,0.00010188
5751.70358643,0.00006797
5753.63239380,0.00014293
5755.56120117,0.00011110
5757.49000854,0.00015175
5759.41881592,0.00011725
5761.34762329,0.00009259
5763.27643066,0.00015695
5765.20523804,0.00011150
5767.13404541,0.00006028
5769.06285278,0.00008740
5770.99166016,0.00007282
5772.92046753,0.00007470
5774.84927490,0.00017743
5776.77808228,0.00014635
5778.70688965,0.00003809
5780.63569702,0.00009901
5782.56450439,0.00008175
5784.49331177,0.00001924
5786.42211914,0.00009081
5788.35092651,0.00006603
5790.27973389,0.00009445
5792.20854126,0.00009407
5794.13734863,0.00003339
5796.06615601,0.00011238
5797.99496338,0.00007841
5799.92377075,0.00005294
5801.85257812,0.00007748
5803.78138550,0.00011596
5805.71019287,0.00010556
5807.63900024,0.00005283
5809.56780762,0.00010660
5811.49661499,0.00004496
5813.42542236,0.00006708
5815.35422974,0.00008378
5817.28303711,0.00005109
5819.21184448,0.00013343
5821.14065186,0.00010636
5823.06945923,0.00013265
5824.99826660,0.00013523
5826.92707397,0.00007280
5828.85588135,0.00004009
5830.78468872,0.00004410
5832.71349609,0.00010543
5834.64230347,0.00007731
5836.57111084,0.00005735
5838.49991821,0.00008922
5840.42872559,0.00012265
5842.35753296,0.00008982
5844.28634033,0.00010814
5846.21514770,0.00015060
5848.14395508,0.00006790
5850.07276245,0.00008815
5852.00156982,0.00010533
5853.93037720,0.00008921
5855.85918457,0.00010503
5857.78799194,0.00006268
5859.71679932,0.00005641
5861.64560669,0.00005043
5863.57441406,0.00004533
5865.50322144,0.00008567
5867.43202881,0.00009011
5869.36083618,0.00004003
5871.28964355,0.00008614
5873.21845093,0.00012071
5875.14725830,0.00005563
5877.07606567,0.00008917
5879.00487305,0.00007555
5880.93368042,0.00007485
5882.86248779,0.00011229
5884.79129517,-0.00000446
5886.72010254,-0.00000054
5888.64890991,0.00006867
5890.57771728,0.00005541
5892.50652466,0.00008300
5894.43533203,0.00011079
5896.36413940,0.00011947
5898.29294678,0.00006048
5900.22175415,0.00007491
5902.15056152,0.00011104
5904.07936890,0.00005598
5906.00817627,0.00009601
5907.93698364,0.00008538
5909.86579102,0.00011472
5911.79459839,0.00016769
5913.72340576,0.00009715
5915.65221313,0.00008762
5917.58102051,0.00006619
5919.50982788,0.00011197
5921.43863525,0.00008901
5923.36744263,0.00004757
5925.29625000,0.00011074
5927.22505737,0.00000813
5929.15386475,0.00004121
5931.08267212,0.00008659
5933.01147949,0.00002338
5934.94028686,0.00009830
5936.86909424,0.00008256
5938.79790161,0.00008208
5940.72670898,0.00013746
5942.65551636,0.00012510
5944.58432373,0.00013786
5946.51313110,0.00007809
5948.44193848,0.00003573
5950.37074585,0.00007501
5952.29955322,0.00001859
5954.22836060,0.00003981
5956.15716797,0.00010576
5958.08597534,0.00004430
5960.01478271,0.00006047
5961.94359009,0.00006246
5963.87239746,0.00001377
5965.80120483,0.00006490
5967.73001221,0.00009945
5969.65881958,0.00008188
5971.58762695,0.00009590
5973.51643433,0.00010435
5975.44524170,0.00008425
5977.37404907,0.00008042
5979.30285645,0.00003518
5981.23166382,0.00002593
5983.16047119,0.00005914
5985.08927856,0.00007438
5987.01808594,0.00009782
5988.94689331,0.00007779
5990.87570068,0.00008252
5992.80450806,0.00005330
5994.73331543,0.00005628
5996.66212280,0.00011842
5998.59093018,0.00012361
6000.51973755,0.00008563
