399.26312622,0.00006336
401.19193359,0.00051087
403.12074097,0.00020574
405.04954834,0.00023840
406.97835571,0.00004009
408.90716309,-0.00042793
410.83597046,-0.00006813
412.76477783,0.00016281
414.69358521,0.00011756
416.62239258,0.00015653
418.55119995,0.00020285
420.48000732,-0.00006790
422.40881470,-0.00009915
424.33762207,0.00035045
426.26642944,0.00029532
428.19523682,0.00008614
430.12404419,0.00015814
432.05285156,0.00024451
433.98165894,0.00029833
435.91046631,0.00028633
437.83927368,0.00016719
439.76808105,-0.00010131
441.69688843,-0.00013123
443.62569580,0.00011006
445.55450317,0.00012045
447.48331055,-0.00001578
449.41211792,-0.00007164
451.34092529,0.00012927
453.26973267,0.00039069
455.19854004,0.00026873
457.12734741,0.00000334
459.05615479,-0.00014876
460.98496216,0.00000741
462.91376953,0.00022852
464.84257690,0.00013162
466.77138428,0.00029922
468.70019165,0.00013903
470.62899902,-0.00003032
472.55780640,0.00028687
474.48661377,-0.00012756
476.41542114,-0.00013193
478.34422852,0.00026978
480.27303589,0.00018174
482.20184326,-0.00007102
484.13065063,-0.00004529
486.05945801,0.00004258
487.98826538,-0.00020421
489.91707275,0.00035060
491.84588013,0.00039094
493.77468750,0.00008477
495.70349487,0.00033889
497.63230225,0.00006810
499.56110962,0.00028363
501.48991699,0.00029268
503.41872437,0.00019587
505.34753174,0.00016773
507.27633911,-0.00016391
509.20514648,0.00023184
511.13395386,0.00005166
513.06276123,-0.00011895
514.99156860,0.00029210
516.92037598,0.00011685
518.84918335,0.00001425
520.77799072,0.00032225
522.70679810,0.00057896
524.63560547,0.00029037
526.56441284,0.00002691
528.49322021,0.00004935
530.42202759,0.00023565
532.35083496,0.00046343
534.27964233,0.00019091
536.20844971,0.00011804
538.13725708,0.00023348
540.06606445,0.00019407
541.99487183,0.00009202
543.92367920,-0.00006635
545.85248657,0.00004598
547.78129395,0.00011937
549.71010132,0.00024778
551.63890869,0.00030479
553.56771606,0.00030812
555.49652344,0.00025031
557.42533081,0.00000364
559.35413818,0.00029867
561.28294556,0.00021870
563.21175293,0.00009283
565.14056030,0.00023914
567.06936768,-0.00007262
568.99817505,0.00018686
570.92698242,0.00022076
572.85578979,0.00005379
574.78459717,0.00000802
576.71340454,-0.00025165
578.64221191,0.00016041
580.57101929,0.00012687
582.49982666,-0.00015360
584.42863403,0.00005624
586.35744141,0.00018365
588.28624878,0.00032585
590.21505615,0.00018211
592.14386353,0.00003432
594.07267090,0.00000520
596.00147827,-0.00002034
597.93028564,0.00012538
599.85909302,-0.00002354
601.78790039,-0.00015312
603.71670776,0.00001331
605.64551514,-0.00002829
607.57432251,0.00004919
609.50312988,0.00026011
611.43193726,0.00005224
613.36074463,0.00000706
615.28955200,0.00018306
617.21835938,0.00012592
619.14716675,0.00012460
621.07597412,0.00014766
623.00478149,0.00012152
624.93358887,0.00006824
626.86239624,0.00018762
628.79120361,0.00025116
630.72001099,0.00006537
632.64881836,0.00017262
634.57762573,0.00022629
636.50643311,0.00012367
638.43524048,0.00015589
640.36404785,0.00004199
642.29285522,-0.00003737
644.22166260,0.00039397
646.15046997,0.00034033
648.07927734,0.00005419
650.00808472,0.00008280
651.93689209,0.00009307
653.86569946,0.00002931
655.79450684,0.00032713
657.72331421,0.00028001
659.65212158,0.00023169
661.58092896,0.00028909
663.50973633,0.00036310
665.43854370,0.00029848
667.36735107,0.00001732
669.29615845,0.00019725
671.22496582,0.00014833
673.15377319,0.00009843
675.08258057,0.00011702
677.01138794,0.00009576
678.94019531,0.00017615
680.86900269,0.00024247
682.79781006,0.00052609
684.72661743,-0.00003510
686.65542480,0.00000960
688.58423218,0.00065956
690.51303955,0.00016575
692.44184692,0.00007091
694.37065430,0.00044164
696.29946167,0.00045410
698.22826904,0.00018540
700.15707642,0.00028534
702.08588379,0.00037398
704.01469116,0.00013631
705.94349854,0.00031717
707.87230591,0.00030998
709.80111328,0.00023719
711.72992065,0.00019447
713.65872803,0.00020181
715.58753540,0.00006821
717.51634277,-0.00010230
719.44515015,0.00012798
721.37395752,0.00013968
723.30276489,0.00028227
725.23157227,0.00012260
727.16037964,0.00014844
729.08918701,0.00034467
731.01799438,0.00001057
732.94680176,0.00025812
734.87560913,0.00021191
736.80441650,-0.00008982
738.73322388,0.00004961
740.66203125,-0.00001182
742.59083862,-0.00010155
744.51964600,-0.00000302
746.44845337,0.00000653
748.37726074,0.00006115
750.30606812,0.00017873
752.23487549,0.00007136
754.16368286,0.00018024
756.09249023,0.00014540
758.02129761,0.00020007
759.95010498,0.00027664
761.87891235,0.00003997
763.80771973,0.00028399
765.73652710,0.00027135
767.66533447,0.00016642
769.59414185,0.00019769
771.52294922,0.00023984
773.45175659,0.00017825
775.38056396,-0.00000553
777.30937134,0.00037249
779.23817871,0.00022892
781.16698608,0.00023245
783.09579346,0.00040072
785.02460083,0.00008734
786.95340820,0.00006735
788.88221558,-0.00004277
790.81102295,0.00017744
792.73983032,0.00014076
794.66863770,0.00021173
796.59744507,0.00037715
798.52625244,-0.00014580
800.45505981,0.00012371
802.38386719,0.00036839
804.31267456,0.00011643
806.24148193,0.00015907
808.17028931,0.00020994
810.09909668,0.00025970
812.02790405,0.00028679
813.95671143,0.00013366
815.88551880,0.00024462
817.81432617,0.00032138
819.74313354,0.00004606
821.67194092,0.00017700
823.60074829,0.00004860
825.52955566,-0.00001478
827.45836304,0.00014626
829.38717041,0.00006697
831.31597778,0.00028640
833.24478516,0.00004846
835.17359253,-0.00002467
837.10239990,0.00022415
839.03120728,0.00018230
840.96001465,0.00023181
842.88882202,0.00015929
844.81762939,0.00011757
846.74643677,-0.00002704
848.67524414,0.00006008
850.60405151,0.00031044
852.53285889,0.00021720
854.46166626,0.00013182
856.39047363,0.00009995
858.31928101,0.00025225
860.24808838,0.00025201
862.17689575,0.00010390
864.10570313,0.00011646
866.03451050,0.00015502
867.96331787,0.00016380
869.89212524,0.00013736
871.82093262,-0.00001181
873.74973999,-0.00016168
875.67854736,0.00020610
877.60735474,0.00032132
879.53616211,0.00025163
881.46496948,0.00021590
883.39377686,0.00009348
885.32258423,0.00029315
887.25139160,0.00014532
889.18019897,0.00018150
891.10900635,0.00034583
893.03781372,0.00015483
894.96662109,0.00020110
896.89542847,0.00027469
898.82423584,0.00019748
900.75304321,0.00031858
902.68185059,0.00050885
904.61065796,0.00019734
906.53946533,0.00016071
908.46827271,0.00026786
910.39708008,0.00008864
912.32588745,0.00029147
914.25469482,0.00030481
916.18350220,0.00014505
918.11230957,0.00016189
920.04111694,0.00028372
921.96992432,0.00029881
923.89873169,0.00029936
925.82753906,0.00035776
927.75634644,0.00029984
929.68515381,0.00039399
931.61396118,0.00012649
933.54276855,0.00021008
935.47157593,0.00065331
937.40038330,0.00041384
939.32919067,0.00026828
941.25799805,0.00025684
943.18680542,0.00021378
945.11561279,0.00026300
947.04442017,0.00048008
948.97322754,0.00045249
950.90203491,0.00015728
952.83084229,0.00035783
954.75964966,0.00034690
956.68845703,0.00014813
958.61726440,0.00035227
960.54607178,0.00043251
962.47487915,0.00023898
964.40368652,0.00013746
966.33249390,0.00022581
968.26130127,0.00043460
970.19010864,0.00046436
972.11891602,0.00025990
974.04772339,0.00026936
975.97653076,0.00026505
977.90533813,0.00025027
979.83414551,0.00031836
981.76295288,0.00038409
983.69176025,0.00053780
985.62056763,0.00052884
987.54937500,0.00048467
989.47818237,0.00043288
991.40698975,0.00055637
993.33579712,0.00079526
995.26460449,0.00071847
997.19341187,0.00070794
999.12221924,0.00071410
1001.05102661,0.00069586
1002.97983398,0.00086324
1004.90864136,0.00084106
1006.83744873,0.00079904
1008.76625610,0.00084683
1010.69506348,0.00086923
1012.62387085,0.00106519
1014.55267822,0.00103441
1016.48148560,0.00101784
1018.41029297,0.00120342
1020.33910034,0.00102523
1022.26790771,0.00101483
1024.19671509,0.00113334
1026.12552246,0.00112211
1028.05432983,0.00135062
1029.98313721,0.00142143
1031.91194458,0.00134532
1033.84075195,0.00143280
1035.76955933,0.00153070
1037.69836670,0.00143783
1039.62717407,0.00140193
1041.55598145,0.00145150
1043.48478882,0.00125633
1045.41359619,0.00128333
1047.34240356,0.00132155
1049.27121094,0.00107805
1051.20001831,0.00131078
1053.12882568,0.00149897
1055.05763306,0.00112667
1056.98644043,0.00114917
1058.91524780,0.00128439
1060.84405518,0.00104464
1062.77286255,0.00115179
1064.70166992,0.00108844
1066.63047729,0.00090258
1068.55928467,0.00126588
1070.48809204,0.00116634
1072.41689941,0.00095156
1074.34570679,0.00117886
1076.27451416,0.00100003
1078.20332153,0.00080351
1080.13212891,0.00094243
1082.06093628,0.00105088
1083.98974365,0.00097254
1085.91855103,0.00076394
1087.84735840,0.00075973
1089.77616577,0.00078924
1091.70497314,0.00076294
1093.63378052,0.00070944
1095.56258789,0.00053640
1097.49139526,0.00061690
1099.42020264,0.00072054
1101.34901001,0.00068858
1103.27781738,0.00065536
1105.20662476,0.00060347
1107.13543213,0.00078998
1109.06423950,0.00075235
1110.99304687,0.00062824
1112.92185425,0.00071367
1114.85066162,0.00064786
1116.77946899,0.00064691
1118.70827637,0.00064253
1120.63708374,0.00079811
1122.56589111,0.00085170
1124.49469849,0.00062777
1126.42350586,0.00071583
1128.35231323,0.00075295
1130.28112061,0.00077986
1132.20992798,0.00085204
1134.13873535,0.00072573
1136.06754272,0.00061216
1137.99635010,0.00069023
1139.92515747,0.00085197
1141.85396484,0.00077791
1143.78277222,0.00079730
1145.71157959,0.00091930
1147.64038696,0.00092251
1149.56919434,0.00095308
1151.49800171,0.00110136
1153.42680908,0.00106527
1155.35561646,0.00082359
1157.28442383,0.00113140
1159.21323120,0.00134033
1161.14203857,0.00116496
1163.07084595,0.00125668
1164.99965332,0.00129201
1166.92846069,0.00134717
1168.85726807,0.00139144
1170.78607544,0.00139608
1172.71488281,0.00141957
1174.64369019,0.00126901
1176.57249756,0.00148944
1178.50130493,0.00177784
1180.43011230,0.00151230
1182.35891968,0.00152855
1184.28772705,0.00181215
1186.21653442,0.00182929
1188.14534180,0.00192839
1190.07414917,0.00185352
1192.00295654,0.00178384
1193.93176392,0.00198568
1195.86057129,0.00211817
1197.78937866,0.00227444
1199.71818604,0.00235876
1201.64699341,0.00252632
1203.57580078,0.00267662
1205.50460815,0.00262494
1207.43341553,0.00260143
1209.36222290,0.00268477
1211.29103027,0.00301722
1213.21983765,0.00309999
1215.14864502,0.00293242
1217.07745239,0.00297127
1219.00625977,0.00299443
1220.93506714,0.00311044
1222.86387451,0.00330857
1224.79268188,0.00310835
1226.72148926,0.00302827
1228.65029663,0.00340423
1230.57910400,0.00321140
1232.50791138,0.00305088
1234.43671875,0.00330494
1236.36552612,0.00322825
1238.29433350,0.00330321
1240.22314087,0.00317433
1242.15194824,0.00310785
1244.08075562,0.00342315
1246.00956299,0.00337643
1247.93837036,0.00323358
1249.86717773,0.00314132
1251.79598511,0.00316407
1253.72479248,0.00307378
1255.65359985,0.00300016
1257.58240723,0.00317246
1259.51121460,0.00314289
1261.44002197,0.00307370
1263.36882935,0.00303676
1265.29763672,0.00307319
1267.22644409,0.00299292
1269.15525146,0.00281857
1271.08405884,0.00283832
1273.01286621,0.00284475
1274.94167358,0.00274829
1276.87048096,0.00258718
1278.79928833,0.00262148
1280.72809570,0.00262570
1282.65690308,0.00268034
1284.58571045,0.00269177
1286.51451782,0.00238687
1288.44332520,0.00242871
1290.37213257,0.00244289
1292.30093994,0.00244091
1294.22974731,0.00258309
1296.15855469,0.00240161
1298.08736206,0.00239203
1300.01616943,0.00252641
1301.94497681,0.00253223
1303.87378418,0.00247358
1305.80259155,0.00247053
1307.73139893,0.00255409
1309.66020630,0.00250981
1311.58901367,0.00261035
1313.51782104,0.00277533
1315.44662842,0.00276810
1317.37543579,0.00289646
1319.30424316,0.00289012
1321.23305054,0.00283010
1323.16185791,0.00304649
1325.09066528,0.00296515
1327.01947266,0.00301813
1328.94828003,0.00324574
1330.87708740,0.00318512
1332.80589478,0.00342749
1334.73470215,0.00330014
1336.66350952,0.00304766
1338.59231689,0.00340144
1340.52112427,0.00345349
1342.44993164,0.00344570
1344.37873901,0.00356084
1346.30754639,0.00356026
1348.23635376,0.00364533
1350.16516113,0.00359997
1352.09396851,0.00358530
1354.02277588,0.00368849
1355.95158325,0.00351011
1357.88039062,0.00333645
1359.80919800,0.00356197
1361.73800537,0.00339895
1363.66681274,0.00309980
1365.59562012,0.00342951
1367.52442749,0.00334133
1369.45323486,0.00326563
1371.38204224,0.00361436
1373.31084961,0.00322746
1375.23965698,0.00305341
1377.16846436,0.00339885
1379.09727173,0.00333607
1381.02607910,0.00317173
1382.95488647,0.00314749
1384.88369385,0.00326456
1386.81250122,0.00313767
1388.74130859,0.00314384
1390.67011597,0.00353856
1392.59892334,0.00335051
1394.52773071,0.00319171
1396.45653809,0.00339796
1398.38534546,0.00329660
1400.31415283,0.00339563
1402.24296021,0.00348681
1404.17176758,0.00332013
1406.10057495,0.00347251
1408.02938232,0.00348353
1409.95818970,0.00344482
1411.88699707,0.00358208
1413.81580444,0.00341565
1415.74461182,0.00329675
1417.67341919,0.00305337
1419.60222656,0.00295197
1421.53103394,0.00314549
1423.45984131,0.00298610
1425.38864868,0.00305378
1427.31745605,0.00316976
1429.24626343,0.00296631
1431.17507080,0.00286055
1433.10387817,0.00290104
1435.03268555,0.00263309
1436.96149292,0.00239087
1438.89030029,0.00268386
1440.81910767,0.00259822
1442.74791504,0.00265186
1444.67672241,0.00268853
1446.60552979,0.00241364
1448.53433716,0.00262164
1450.46314453,0.00249500
1452.39195190,0.00263790
1454.32075928,0.00266611
1456.24956665,0.00216604
1458.17837402,0.00243670
1460.10718140,0.00290708
1462.03598877,0.00320666
1463.96479614,0.00314144
1465.89360352,0.00317424
1467.82241089,0.00367618
1469.75121826,0.00374991
1471.68002563,0.00361899
1473.60883301,0.00366570
1475.53764038,0.00390320
1477.46644775,0.00438295
1479.39525513,0.00461978
1481.32406250,0.00466872
1483.25286987,0.00507164
1485.18167725,0.00512291
1487.11048462,0.00510622
1489.03929199,0.00506997
1490.96809937,0.00485105
1492.89690674,0.00587212
1494.82571411,0.00581352
1496.75452148,0.00505127
1498.68332886,0.00589915
1500.61213623,0.00595973
1502.54094360,0.00635167
1504.46975098,0.00611786
1506.39855835,0.00443742
1508.32736572,0.00538187
1510.25617310,0.00627472
1512.18498047,0.00614261
1514.11378784,0.00649770
1516.04259521,0.00590744
1517.97140259,0.00622962
1519.90020996,0.00591959
1521.82901733,0.00512519
1523.75782471,0.00613254
1525.68663208,0.00620958
1527.61543945,0.00623239
1529.54424683,0.00680099
1531.47305420,0.00656915
1533.40186157,0.00603267
1535.33066895,0.00650817
1537.25947632,0.00680586
1539.18828369,0.00494407
1541.11709106,0.00506399
1543.04589844,0.00602887
1544.97470581,0.00602695
1546.90351318,0.00684682
1548.83232056,0.00650650
1550.76112793,0.00680768
1552.68993530,0.00660021
1554.61874268,0.00611456
1556.54755005,0.00649204
1558.47635742,0.00453218
1560.40516479,0.00486094
1562.33397217,0.00694391
1564.26277954,0.00651376
1566.19158691,0.00665750
1568.12039429,0.00667257
1570.04920166,0.00589081
1571.97800903,0.00677828
1573.90681641,0.00681433
1575.83562378,0.00542020
1577.76443115,0.00612438
1579.69323853,0.00701767
1581.62204590,0.00692368
1583.55085327,0.00688882
1585.47966064,0.00662915
1587.40846802,0.00672812
1589.33727539,0.00665684
1591.26608276,0.00674508
1593.19489014,0.00677713
1595.12369751,0.00660195
1597.05250488,0.00676479
1598.98131226,0.00675924
1600.91011963,0.00679010
1602.83892700,0.00673818
1604.76773437,0.00667334
1606.69654175,0.00665374
1608.62534912,0.00680542
1610.55415649,0.00658679
1612.48296387,0.00671472
1614.41177124,0.00695636
1616.34057861,0.00582184
1618.26938599,0.00631253
1620.19819336,0.00717901
1622.12700073,0.00653640
1624.05580811,0.00664258
1625.98461548,0.00689764
1627.91342285,0.00681961
1629.84223022,0.00691888
1631.77103760,0.00755292
1633.69984497,0.00694219
1635.62865234,0.00588375
1637.55745972,0.00694995
1639.48626709,0.00760311
1641.41507446,0.00733525
1643.34388184,0.00770810
1645.27268921,0.00711449
1647.20149658,0.00620080
1649.13030396,0.00776373
1651.05911133,0.00740960
1652.98791870,0.00504701
1654.91672607,0.00674149
1656.84553345,0.00829792
1658.77434082,0.00812974
1660.70314819,0.00837775
1662.63195557,0.00770894
1664.56076294,0.00794559
1666.48957031,0.00846001
1668.41837769,0.00759757
1670.34718506,0.00757313
1672.27599243,0.00859080
1674.20479980,0.00783979
1676.13360718,0.00772888
1678.06241455,0.00886828
1679.99122192,0.00847056
1681.92002930,0.00852525
1683.84883667,0.00711976
1685.77764404,0.00710923
1687.70645142,0.00945257
1689.63525879,0.00836042
1691.56406616,0.00922252
1693.49287354,0.00935681
1695.42168091,0.00707371
1697.35048828,0.00859344
1699.27929565,0.00762387
1701.20810303,0.00695106
1703.13691040,0.00932244
1705.06571777,0.00875473
1706.99452515,0.00891214
1708.92333252,0.00948130
1710.85213989,0.00917085
1712.78094727,0.00940531
1714.70975464,0.00867204
1716.63856201,0.00801795
1718.56736938,0.00797095
1720.49617676,0.00922836
1722.42498413,0.00958406
1724.35379150,0.00901102
1726.28259888,0.00977241
1728.21140625,0.00909910
1730.14021362,0.00934152
1732.06902100,0.00882518
1733.99782837,0.00676261
1735.92663574,0.00865107
1737.85544312,0.00931145
1739.78425049,0.00842326
1741.71305786,0.00925323
1743.64186523,0.00921002
1745.57067261,0.00928439
1747.49947998,0.00950675
1749.42828735,0.00914000
1751.35709473,0.00860826
1753.28590210,0.00947623
1755.21470947,0.00980548
1757.14351685,0.00900033
1759.07232422,0.01007125
1761.00113159,0.00936944
1762.92993896,0.00914663
1764.85874634,0.01043057
1766.78755371,0.00932605
1768.71636108,0.00957804
1770.64516846,0.00946221
1772.57397583,0.00840501
1774.50278320,0.00927417
1776.43159058,0.00980217
1778.36039795,0.00975724
1780.28920532,0.00952347
1782.21801270,0.00960303
1784.14682007,0.00970064
1786.07562744,0.00948815
1788.00443481,0.01001742
1789.93324219,0.00986464
1791.86204956,0.00888217
1793.79085693,0.00903681
1795.71966431,0.00977492
1797.64847168,0.00980304
1799.57727905,0.00946473
1801.50608643,0.00930328
1803.43489380,0.00961573
1805.36370117,0.00975545
1807.29250854,0.00973830
1809.22131592,0.00970659
1811.15012329,0.00947710
1813.07893066,0.00972098
1815.00773804,0.00965370
1816.93654541,0.00969527
1818.86535278,0.00975905
1820.79416016,0.00976435
1822.72296753,0.00991271
1824.65177490,0.00916037
1826.58058228,0.00948333
1828.50938965,0.00941953
1830.43819702,0.00893970
1832.36700439,0.00978205
1834.29581177,0.00958751
1836.22461914,0.00958197
1838.15342651,0.00954102
1840.08223389,0.00955401
1842.01104126,0.00960954
1843.93984863,0.00861895
1845.86865601,0.00913465
1847.79746338,0.00955497
1849.72627075,0.00940589
1851.65507812,0.00956330
1853.58388550,0.00932325
1855.51269287,0.00970068
1857.44150024,0.00958130
1859.37030762,0.00937049
1861.29911499,0.00943487
1863.22792236,0.00923894
1865.15672974,0.00946550
1867.08553711,0.00909720
1869.01434448,0.00872187
1870.94315186,0.00917539
1872.87195923,0.00933287
1874.80076660,0.00926237
1876.72957397,0.00939251
1878.65838135,0.00927709
1880.58718872,0.00914197
1882.51599609,0.00923637
1884.44480347,0.00906332
1886.37361084,0.00903752
1888.30241821,0.00900788
1890.23122559,0.00882651
1892.16003296,0.00919481
1894.08884033,0.00919975
1896.01764771,0.00893400
1897.94645508,0.00910317
1899.87526245,0.00905798
1901.80406982,0.00898512
1903.73287720,0.00898562
1905.66168457,0.00892622
1907.59049194,0.00879591
1909.51929932,0.00871248
1911.44810669,0.00881333
1913.37691406,0.00898764
1915.30572144,0.00907236
1917.23452881,0.00861605
1919.16333618,0.00863994
1921.09214355,0.00887296
1923.02095093,0.00859333
1924.94975830,0.00891189
1926.87856567,0.00898165
1928.80737305,0.00880760
1930.73618042,0.00889184
1932.66498779,0.00878833
1934.59379517,0.00873702
1936.52260254,0.00866462
1938.45140991,0.00874967
1940.38021729,0.00866777
1942.30902466,0.00860032
1944.23783203,0.00875983
1946.16663940,0.00879080
1948.09544678,0.00881992
1950.02425415,0.00872730
1951.95306152,0.00868473
1953.88186890,0.00867620
1955.81067627,0.00874459
1957.73948364,0.00868241
1959.66829102,0.00855152
1961.59709839,0.00870379
1963.52590576,0.00870191
1965.45471313,0.00861583
1967.38352051,0.00857443
1969.31232788,0.00860797
1971.24113525,0.00857152
1973.16994263,0.00853219
1975.09875000,0.00852119
1977.02755737,0.00848950
1978.95636475,0.00856925
1980.88517212,0.00847475
1982.81397949,0.00857874
1984.74278687,0.00853020
1986.67159424,0.00843176
1988.60040161,0.00853158
1990.52920898,0.00830853
1992.45801636,0.00840755
1994.38682373,0.00844380
1996.31563110,0.00835128
1998.24443848,0.00844431
2000.17324585,0.00837225
2002.10205322,0.00831316
2004.03086060,0.00828611
2005.95966797,0.00837994
2007.88847534,0.00831782
2009.81728271,0.00826695
2011.74609009,0.00832673
2013.67489746,0.00822603
2015.60370483,0.00826658
2017.53251221,0.00832680
2019.46131958,0.00823768
2021.39012695,0.00816465
2023.31893433,0.00821886
2025.24774170,0.00824593
2027.17654907,0.00823261
2029.10535645,0.00816136
2031.03416382,0.00816168
2032.96297119,0.00814730
2034.89177856,0.00804187
2036.82058594,0.00824560
2038.74939331,0.00817604
2040.67820068,0.00802421
2042.60700806,0.00804618
2044.53581543,0.00796290
2046.46462280,0.00811122
2048.39343018,0.00801842
2050.32223755,0.00799609
2052.25104492,0.00815061
2054.17985229,0.00802771
2056.10865967,0.00804181
2058.03746704,0.00798070
2059.96627441,0.00784242
2061.89508179,0.00791087
2063.82388916,0.00792232
2065.75269653,0.00788408
2067.68150391,0.00799965
2069.61031128,0.00797226
2071.53911865,0.00782923
2073.46792603,0.00787064
2075.39673340,0.00779830
2077.32554077,0.00777757
2079.25434814,0.00790424
2081.18315552,0.00777610
2083.11196289,0.00773912
2085.04077026,0.00786979
2086.96957764,0.00779728
2088.89838501,0.00782588
2090.82719238,0.00792100
2092.75599976,0.00787815
2094.68480713,0.00782755
2096.61361450,0.00781882
2098.54242187,0.00783261
2100.47122925,0.00771161
2102.40003662,0.00768841
2104.32884399,0.00765407
2106.25765137,0.00758871
2108.18645874,0.00765128
2110.11526611,0.00761731
2112.04407349,0.00774042
2113.97288086,0.00774780
2115.90168823,0.00760016
2117.83049561,0.00761392
2119.75930298,0.00778156
2121.68811035,0.00787539
2123.61691772,0.00763101
2125.54572510,0.00760761
2127.47453247,0.00761541
2129.40333984,0.00765425
2131.33214722,0.00782180
2133.26095459,0.00764013
2135.18976196,0.00760163
2137.11856934,0.00765764
2139.04737671,0.00763224
2140.97618408,0.00764908
2142.90499146,0.00759482
2144.83379883,0.00756905
2146.76260620,0.00761465
2148.69141357,0.00767699
2150.62022095,0.00770705
2152.54902832,0.00773041
2154.47783569,0.00771341
2156.40664307,0.00768037
2158.33545044,0.00752367
2160.26425781,0.00755520
2162.19306519,0.00771610
2164.12187256,0.00757961
2166.05067993,0.00752491
2167.97948730,0.00748568
2169.90829468,0.00753544
2171.83710205,0.00756421
2173.76590942,0.00748021
2175.69471680,0.00758987
2177.62352417,0.00753100
2179.55233154,0.00752868
2181.48113892,0.00757872
2183.40994629,0.00748747
2185.33875366,0.00755887
2187.26756104,0.00758736
2189.19636841,0.00751902
2191.12517578,0.00751715
2193.05398315,0.00743922
2194.98279053,0.00742180
2196.91159790,0.00757345
2198.84040527,0.00755718
2200.76921265,0.00753435
2202.69802002,0.00747551
2204.62682739,0.00743074
2206.55563477,0.00754562
2208.48444214,0.00742311
2210.41324951,0.00744879
2212.34205688,0.00754289
2214.27086426,0.00742987
2216.19967163,0.00747928
2218.12847900,0.00750612
2220.05728638,0.00736865
2221.98609375,0.00733611
2223.91490112,0.00746441
2225.84370850,0.00744227
2227.77251587,0.00737051
2229.70132324,0.00743181
2231.63013062,0.00745536
2233.55893799,0.00734328
2235.48774536,0.00735987
2237.41655273,0.00745101
2239.34536011,0.00735893
2241.27416748,0.00745270
2243.20297485,0.00736826
2245.13178223,0.00720560
2247.06058960,0.00735585
2248.98939697,0.00732750
2250.91820435,0.00728601
2252.84701172,0.00724982
2254.77581909,0.00722294
2256.70462646,0.00732300
2258.63343384,0.00745620
2260.56224121,0.00743012
2262.49104858,0.00723743
2264.41985596,0.00726472
2266.34866333,0.00730361
2268.27747070,0.00724052
2270.20627808,0.00715131
2272.13508545,0.00722666
2274.06389282,0.00736698
2275.99270020,0.00733261
2277.92150757,0.00732380
2279.85031494,0.00716092
2281.77912231,0.00715883
2283.70792969,0.00727385
2285.63673706,0.00719038
2287.56554443,0.00725732
2289.49435181,0.00733584
2291.42315918,0.00721914
2293.35196655,0.00707903
2295.28077393,0.00715777
2297.20958130,0.00717616
2299.13838867,0.00702049
2301.06719604,0.00701832
2302.99600342,0.00712283
2304.92481079,0.00709980
2306.85361816,0.00692579
2308.78242554,0.00685733
2310.71123291,0.00682528
2312.64004028,0.00676110
2314.56884766,0.00673654
2316.49765503,0.00669645
2318.42646240,0.00660170
2320.35526978,0.00650914
2322.28407715,0.00642704
2324.21288452,0.00631382
2326.14169189,0.00629155
2328.07049927,0.00622416
2329.99930664,0.00621544
2331.92811401,0.00611524
2333.85692139,0.00593537
2335.78572876,0.00605618
2337.71453613,0.00605171
2339.64334351,0.00606324
2341.57215088,0.00614522
2343.50095825,0.00613504
2345.42976562,0.00633279
2347.35857300,0.00664509
2349.28738037,0.00666472
2351.21618774,0.00643265
2353.14499512,0.00629482
2355.07380249,0.00590586
2357.00260986,0.00577345
2358.93141724,0.00577337
2360.86022461,0.00552325
2362.78903198,0.00571962
2364.71783936,0.00566351
2366.64664673,0.00567027
2368.57545410,0.00588013
2370.50426147,0.00590787
2372.43306885,0.00624030
2374.36187622,0.00634740
2376.29068359,0.00651786
2378.21949097,0.00667281
2380.14829834,0.00660463
2382.07710571,0.00669797
2384.00591309,0.00670179
2385.93472046,0.00682961
2387.86352783,0.00681696
2389.79233521,0.00676568
2391.72114258,0.00688117
2393.64994995,0.00679553
2395.57875732,0.00677584
2397.50756470,0.00682931
2399.43637207,0.00687933
2401.36517944,0.00683516
2403.29398682,0.00668245
2405.22279419,0.00670086
2407.15160156,0.00678557
2409.08040894,0.00685706
2411.00921631,0.00691100
2412.93802368,0.00682142
2414.86683105,0.00667026
2416.79563843,0.00665549
2418.72444580,0.00674729
2420.65325317,0.00676322
2422.58206055,0.00668949
2424.51086792,0.00660955
2426.43967529,0.00664389
2428.36848267,0.00676339
2430.29729004,0.00670914
2432.22609741,0.00668235
2434.15490479,0.00680622
2436.08371216,0.00673053
2438.01251953,0.00659865
2439.94132690,0.00666161
2441.87013428,0.00674212
2443.79894165,0.00662550
2445.72774902,0.00656233
2447.65655640,0.00664133
2449.58536377,0.00658560
2451.51417114,0.00656967
2453.44297852,0.00658388
2455.37178589,0.00658280
2457.30059326,0.00659847
2459.22940063,0.00655546
2461.15820801,0.00654494
2463.08701538,0.00648595
2465.01582275,0.00646744
2466.94463013,0.00650285
2468.87343750,0.00652516
2470.80224487,0.00650307
2472.73105225,0.00648731
2474.65985962,0.00653229
2476.58866699,0.00642900
2478.51747437,0.00650974
2480.44628174,0.00655139
2482.37508911,0.00631153
2484.30389648,0.00639977
2486.23270386,0.00651416
2488.16151123,0.00640122
2490.09031860,0.00635259
2492.01912598,0.00639027
2493.94793335,0.00637447
2495.87674072,0.00636045
2497.80554810,0.00646304
2499.73435547,0.00642516
2501.66316284,0.00635818
2503.59197021,0.00634516
2505.52077759,0.00638408
2507.44958496,0.00646610
2509.37839233,0.00628539
2511.30719971,0.00621769
2513.23600708,0.00637425
2515.16481445,0.00639264
2517.09362183,0.00630009
2519.02242920,0.00619791
2520.95123657,0.00622474
2522.88004395,0.00627781
2524.80885132,0.00634629
2526.73765869,0.00631509
2528.66646606,0.00617488
2530.59527344,0.00628133
2532.52408081,0.00626431
2534.45288818,0.00614628
2536.38169556,0.00624759
2538.31050293,0.00621374
2540.23931030,0.00613542
2542.16811768,0.00619013
2544.09692505,0.00622531
2546.02573242,0.00614536
2547.95453979,0.00611086
2549.88334717,0.00621636
2551.81215454,0.00617451
2553.74096191,0.00609029
2555.66976929,0.00618152
2557.59857666,0.00620537
2559.52738403,0.00609245
2561.45619141,0.00611350
2563.38499878,0.00613168
2565.31380615,0.00602777
2567.24261353,0.00606417
2569.17142090,0.00611333
2571.10022827,0.00612952
2573.02903564,0.00610286
2574.95784302,0.00603117
2576.88665039,0.00606377
2578.81545776,0.00606798
2580.74426514,0.00608203
2582.67307251,0.00608612
2584.60187988,0.00612689
2586.53068726,0.00616950
2588.45949463,0.00607100
2590.38830200,0.00602834
2592.31710937,0.00597272
2594.24591675,0.00597422
2596.17472412,0.00603463
2598.10353149,0.00602175
2600.03233887,0.00603631
2601.96114624,0.00603572
2603.88995361,0.00599360
2605.81876099,0.00587955
2607.74756836,0.00588386
2609.67637573,0.00601440
2611.60518311,0.00600932
2613.53399048,0.00588835
2615.46279785,0.00586736
2617.39160522,0.00588196
2619.32041260,0.00576749
2621.24921997,0.00587935
2623.17802734,0.00592200
2625.10683472,0.00579441
2627.03564209,0.00595061
2628.96444946,0.00594972
2630.89325684,0.00579782
2632.82206421,0.00578676
2634.75087158,0.00582279
2636.67967895,0.00578006
2638.60848633,0.00573027
2640.53729370,0.00588333
2642.46610107,0.00589701
2644.39490845,0.00576951
2646.32371582,0.00581893
2648.25252319,0.00583885
2650.18133057,0.00572469
2652.11013794,0.00578180
2654.03894531,0.00586708
2655.96775269,0.00571495
2657.89656006,0.00563338
2659.82536743,0.00567511
2661.75417480,0.00576953
2663.68298218,0.00576957
2665.61178955,0.00569254
2667.54059692,0.00570249
2669.46940430,0.00561105
2671.39821167,0.00563120
2673.32701904,0.00576477
2675.25582642,0.00571931
2677.18463379,0.00567320
2679.11344116,0.00572607
2681.04224854,0.00566573
2682.97105591,0.00559459
2684.89986328,0.00561305
2686.82867065,0.00560957
2688.75747803,0.00568404
2690.68628540,0.00561236
2692.61509277,0.00556810
2694.54390015,0.00554855
2696.47270752,0.00542827
2698.40151489,0.00555039
2700.33032227,0.00545139
2702.25912964,0.00538757
2704.18793701,0.00552111
2706.11674438,0.00555414
2708.04555176,0.00559447
2709.97435913,0.00544446
2711.90316650,0.00554483
2713.83197388,0.00558197
2715.76078125,0.00539836
2717.68958862,0.00552442
2719.61839600,0.00555535
2721.54720337,0.00544774
2723.47601074,0.00543764
2725.40481812,0.00554993
2727.33362549,0.00546456
2729.26243286,0.00535623
2731.19124023,0.00547811
2733.12004761,0.00541860
2735.04885498,0.00540644
2736.97766235,0.00545441
2738.90646973,0.00536848
2740.83527710,0.00535217
2742.76408447,0.00540497
2744.69289185,0.00534614
2746.62169922,0.00531582
2748.55050659,0.00538510
2750.47931396,0.00532954
2752.40812134,0.00535999
2754.33692871,0.00534479
2756.26573608,0.00528113
2758.19454346,0.00534381
2760.12335083,0.00528174
2762.05215820,0.00530368
2763.98096558,0.00540782
2765.90977295,0.00535656
2767.83858032,0.00530471
2769.76738770,0.00534815
2771.69619507,0.00524055
2773.62500244,0.00516498
2775.55380981,0.00530100
2777.48261719,0.00525889
2779.41142456,0.00519535
2781.34023193,0.00525185
2783.26903931,0.00530935
2785.19784668,0.00526710
2787.12665405,0.00520185
2789.05546143,0.00522630
2790.98426880,0.00512147
2792.91307617,0.00509222
2794.84188354,0.00515366
2796.77069092,0.00513626
2798.69949829,0.00509510
2800.62830566,0.00509892
2802.55711304,0.00515891
2804.48592041,0.00517512
2806.41472778,0.00516379
2808.34353516,0.00506123
2810.27234253,0.00514007
2812.20114990,0.00516628
2814.12995728,0.00491988
2816.05876465,0.00491846
2817.98757202,0.00498740
2819.91637939,0.00503475
2821.84518677,0.00503491
2823.77399414,0.00496099
2825.70280151,0.00500330
2827.63160889,0.00503551
2829.56041626,0.00498323
2831.48922363,0.00491361
2833.41803101,0.00496245
2835.34683838,0.00493541
2837.27564575,0.00492613
2839.20445312,0.00500161
2841.13326050,0.00490256
2843.06206787,0.00485602
2844.99087524,0.00485395
2846.91968262,0.00481371
2848.84848999,0.00475728
2850.77729736,0.00478315
2852.70610474,0.00486161
2854.63491211,0.00477581
2856.56371948,0.00472940
2858.49252686,0.00471394
2860.42133423,0.00474744
2862.35014160,0.00482960
2864.27894897,0.00471449
2866.20775635,0.00468409
2868.13656372,0.00479414
2870.06537109,0.00472571
2871.99417847,0.00471073
2873.92298584,0.00482503
2875.85179321,0.00478040
2877.78060059,0.00468571
2879.70940796,0.00467460
2881.63821533,0.00468986
2883.56702270,0.00463751
2885.49583008,0.00469793
2887.42463745,0.00476475
2889.35344482,0.00458866
2891.28225220,0.00468344
2893.21105957,0.00476269
2895.13986694,0.00455090
2897.06867432,0.00456275
2898.99748169,0.00459872
2900.92628906,0.00458909
2902.85509644,0.00458157
2904.78390381,0.00448944
2906.71271118,0.00446807
2908.64151855,0.00448885
2910.57032593,0.00451534
2912.49913330,0.00451449
2914.42794067,0.00441025
2916.35674805,0.00442587
2918.28555542,0.00452617
2920.21436279,0.00445868
2922.14317017,0.00444570
2924.07197754,0.00444666
2926.00078491,0.00442554
2927.92959229,0.00441571
2929.85839966,0.00433905
2931.78720703,0.00432505
2933.71601440,0.00431379
2935.64482178,0.00444567
2937.57362915,0.00443090
2939.50243652,0.00429927
2941.43124390,0.00439407
2943.36005127,0.00438484
2945.28885864,0.00438591
2947.21766602,0.00432481
2949.14647339,0.00435987
2951.07528076,0.00442525
2953.00408813,0.00430533
2954.93289551,0.00433087
2956.86170288,0.00424112
2958.79051025,0.00429615
2960.71931763,0.00435505
2962.64812500,0.00427245
2964.57693237,0.00437246
2966.50573975,0.00429994
2968.43454712,0.00418315
2970.36335449,0.00409353
2972.29216187,0.00418668
2974.22096924,0.00432843
2976.14977661,0.00430551
2978.07858398,0.00431305
2980.00739136,0.00419929
2981.93619873,0.00425523
2983.86500610,0.00425760
2985.79381348,0.00415752
2987.72262085,0.00425755
2989.65142822,0.00420029
2991.58023560,0.00415352
2993.50904297,0.00422764
2995.43785034,0.00423979
2997.36665771,0.00418566
2999.29546509,0.00421472
3001.22427246,0.00425505
3003.15307983,0.00421761
3005.08188721,0.00426998
3007.01069458,0.00423342
3008.93950195,0.00417350
3010.86830933,0.00416842
3012.79711670,0.00416783
3014.72592407,0.00416477
3016.65473145,0.00410229
3018.58353882,0.00416214
3020.51234619,0.00405840
3022.44115356,0.00393985
3024.36996094,0.00408859
3026.29876831,0.00396645
3028.22757568,0.00396032
3030.15638306,0.00412045
3032.08519043,0.00398982
3034.01399780,0.00408740
3035.94280518,0.00412402
3037.87161255,0.00399591
3039.80041992,0.00404876
3041.72922729,0.00393235
3043.65803467,0.00389956
3045.58684204,0.00400545
3047.51564941,0.00400236
3049.44445679,0.00391712
3051.37326416,0.00385467
3053.30207153,0.00393664
3055.23087891,0.00396461
3057.15968628,0.00393177
3059.08849365,0.00389063
3061.01730103,0.00396578
3062.94610840,0.00401847
3064.87491577,0.00391783
3066.80372314,0.00388474
3068.73253052,0.00383781
3070.66133789,0.00388145
3072.59014526,0.00389419
3074.51895264,0.00384181
3076.44776001,0.00387490
3078.37656738,0.00389261
3080.30537476,0.00389696
3082.23418213,0.00391309
3084.16298950,0.00396031
3086.09179687,0.00382900
3088.02060425,0.00384573
3089.94941162,0.00394986
3091.87821899,0.00387344
3093.80702637,0.00386787
3095.73583374,0.00377606
3097.66464111,0.00384952
3099.59344849,0.00379996
3101.52225586,0.00372069
3103.45106323,0.00391820
3105.37987061,0.00383515
3107.30867798,0.00382001
3109.23748535,0.00384189
3111.16629272,0.00381426
3113.09510010,0.00378783
3115.02390747,0.00367768
3116.95271484,0.00373433
3118.88152222,0.00377382
3120.81032959,0.00382532
3122.73913696,0.00380290
3124.66794434,0.00381117
3126.59675171,0.00383007
3128.52555908,0.00369077
3130.45436645,0.00373072
3132.38317383,0.00375012
3134.31198120,0.00368257
3136.24078857,0.00369598
3138.16959595,0.00371773
3140.09840332,0.00365469
3142.02721069,0.00371388
3143.95601807,0.00377729
3145.88482544,0.00365751
3147.81363281,0.00374172
3149.74244019,0.00368089
3151.67124756,0.00362404
3153.60005493,0.00374731
3155.52886230,0.00368318
3157.45766968,0.00371957
3159.38647705,0.00369984
3161.31528442,0.00369369
3163.24409180,0.00377318
3165.17289917,0.00371582
3167.10170654,0.00368876
3169.03051392,0.00373312
3170.95932129,0.00373773
3172.88812866,0.00365013
3174.81693604,0.00369028
3176.74574341,0.00368227
3178.67455078,0.00360819
3180.60335815,0.00367059
3182.53216553,0.00366165
3184.46097290,0.00365036
3186.38978027,0.00366627
3188.31858765,0.00371747
3190.24739502,0.00370820
3192.17620239,0.00365025
3194.10500977,0.00369868
3196.03381714,0.00367822
3197.96262451,0.00368315
3199.89143188,0.00381009
3201.82023926,0.00384782
3203.74904663,0.00369964
3205.67785400,0.00368352
3207.60666138,0.00377934
3209.53546875,0.00372933
3211.46427612,0.00375556
3213.39308350,0.00372740
3215.32189087,0.00369230
3217.25069824,0.00378359
3219.17950562,0.00378715
3221.10831299,0.00381852
3223.03712036,0.00377546
3224.96592773,0.00370180
3226.89473511,0.00375863
3228.82354248,0.00377994
3230.75234985,0.00381856
3232.68115723,0.00380560
3234.60996460,0.00371307
3236.53877197,0.00370265
3238.46757935,0.00381042
3240.39638672,0.00392404
3242.32519409,0.00383649
3244.25400146,0.00380619
3246.18280884,0.00385834
3248.11161621,0.00374452
3250.04042358,0.00376497
3251.96923096,0.00390202
3253.89803833,0.00394486
3255.82684570,0.00388829
3257.75565308,0.00387571
3259.68446045,0.00399380
3261.61326782,0.00393856
3263.54207520,0.00381415
3265.47088257,0.00387668
3267.39968994,0.00398373
3269.32849731,0.00396892
3271.25730469,0.00390137
3273.18611206,0.00392486
3275.11491943,0.00402078
3277.04372681,0.00407144
3278.97253418,0.00402411
3280.90134155,0.00404308
3282.83014893,0.00400037
3284.75895630,0.00395928
3286.68776367,0.00401442
3288.61657104,0.00396823
3290.54537842,0.00403995
3292.47418579,0.00406758
3294.40299316,0.00401731
3296.33180054,0.00405560
3298.26060791,0.00409771
3300.18941528,0.00407574
3302.11822266,0.00399279
3304.04703003,0.00407294
3305.97583740,0.00403875
3307.90464478,0.00406051
3309.83345215,0.00415812
3311.76225952,0.00409001
3313.69106689,0.00409529
3315.61987427,0.00399459
3317.54868164,0.00409263
3319.47748901,0.00418464
3321.40629639,0.00414472
3323.33510376,0.00414647
3325.26391113,0.00406618
3327.19271851,0.00423659
3329.12152588,0.00415600
3331.05033325,0.00412448
3332.97914062,0.00428383
3334.90794800,0.00414208
3336.83675537,0.00418801
3338.76556274,0.00421248
3340.69437012,0.00414157
3342.62317749,0.00415730
3344.55198486,0.00424003
3346.48079224,0.00428505
3348.40959961,0.00426125
3350.33840698,0.00425502
3352.26721436,0.00424894
3354.19602173,0.00434426
3356.12482910,0.00425747
3358.05363647,0.00428077
3359.98244385,0.00435846
3361.91125122,0.00430682
3363.84005859,0.00437235
3365.76886597,0.00429071
3367.69767334,0.00431499
3369.62648071,0.00434660
3371.55528809,0.00438304
3373.48409546,0.00441347
3375.41290283,0.00436021
3377.34171020,0.00445646
3379.27051758,0.00443724
3381.19932495,0.00448077
3383.12813232,0.00440449
3385.05693970,0.00439265
3386.98574707,0.00460369
3388.91455444,0.00455550
3390.84336182,0.00452722
3392.77216919,0.00450814
3394.70097656,0.00449499
3396.62978394,0.00454577
3398.55859131,0.00458109
3400.48739868,0.00454049
3402.41620605,0.00453670
3404.34501343,0.00460581
3406.27382080,0.00456221
3408.20262817,0.00465670
3410.13143555,0.00465593
3412.06024292,0.00463781
3413.98905029,0.00473165
3415.91785767,0.00469201
3417.84666504,0.00472458
3419.77547241,0.00472517
3421.70427979,0.00467594
3423.63308716,0.00470281
3425.56189453,0.00472457
3427.49070190,0.00466004
3429.41950928,0.00473247
3431.34831665,0.00477148
3433.27712402,0.00471934
3435.20593140,0.00477440
3437.13473877,0.00462501
3439.06354614,0.00471869
3440.99235352,0.00481986
3442.92116089,0.00468864
3444.84996826,0.00477025
3446.77877563,0.00476350
3448.70758301,0.00482425
3450.63639038,0.00485527
3452.56519775,0.00481717
3454.49400513,0.00488324
3456.42281250,0.00484283
3458.35161987,0.00480421
3460.28042725,0.00485084
3462.20923462,0.00488865
3464.13804199,0.00483721
3466.06684937,0.00486792
3467.99565674,0.00493263
3469.92446411,0.00497164
3471.85327148,0.00495530
3473.78207886,0.00484851
3475.71088623,0.00487446
3477.63969360,0.00494425
3479.56850098,0.00495278
3481.49730835,0.00491513
3483.42611572,0.00492604
3485.35492310,0.00497955
3487.28373047,0.00500762
3489.21253784,0.00494386
3491.14134521,0.00496916
3493.07015259,0.00503955
3494.99895996,0.00486441
3496.92776733,0.00499616
3498.85657471,0.00514285
3500.78538208,0.00499009
3502.71418945,0.00489128
3504.64299683,0.00487217
3506.57180420,0.00505428
3508.50061157,0.00502167
3510.42941895,0.00502206
3512.35822632,0.00509944
3514.28703369,0.00500058
3516.21584106,0.00511733
3518.14464844,0.00514490
3520.07345581,0.00512921
3522.00226318,0.00511168
3523.93107056,0.00500953
3525.85987793,0.00509250
3527.78868530,0.00509593
3529.71749268,0.00500736
3531.64630005,0.00514469
3533.57510742,0.00523183
3535.50391479,0.00515574
3537.43272217,0.00518294
3539.36152954,0.00517789
3541.29033691,0.00513057
3543.21914429,0.00511245
3545.14795166,0.00508756
3547.07675903,0.00499886
3549.00556641,0.00510374
3550.93437378,0.00526569
3552.86318115,0.00510987
3554.79198853,0.00523210
3556.72079590,0.00528985
3558.64960327,0.00520389
3560.57841064,0.00526307
3562.50721802,0.00516844
3564.43602539,0.00520926
3566.36483276,0.00490441
3568.29364014,0.00478864
3570.22244751,0.00525185
3572.15125488,0.00523457
3574.08006226,0.00513353
3576.00886963,0.00519979
3577.93767700,0.00516823
3579.86648437,0.00528895
3581.79529175,0.00534780
3583.72409912,0.00524064
3585.65290649,0.00513176
3587.58171387,0.00483235
3589.51052124,0.00489452
3591.43932861,0.00532039
3593.36813599,0.00526243
3595.29694336,0.00513835
3597.22575073,0.00515766
3599.15455811,0.00516262
3601.08336548,0.00520734
3603.01217285,0.00524342
3604.94098022,0.00534084
3606.86978760,0.00521945
3608.79859497,0.00486833
3610.72740234,0.00501148
3612.65620972,0.00518913
3614.58501709,0.00501635
3616.51382446,0.00529170
3618.44263184,0.00497729
3620.37143921,0.00485886
3622.30024658,0.00540989
3624.22905395,0.00534743
3626.15786133,0.00555660
3628.08666870,0.00471923
3630.01547607,0.00432073
3631.94428345,0.00534935
3633.87309082,0.00528532
3635.80189819,0.00538551
3637.73070557,0.00547014
3639.65951294,0.00546100
3641.58832031,0.00554827
3643.51712769,0.00551875
3645.44593506,0.00563267
3647.37474243,0.00500410
3649.30354980,0.00455540
3651.23235718,0.00466626
3653.16116455,0.00550198
3655.08997192,0.00543616
3657.01877930,0.00493490
3658.94758667,0.00572009
3660.87639404,0.00562816
3662.80520142,0.00571831
3664.73400879,0.00566981
3666.66281616,0.00561949
3668.59162354,0.00549376
3670.52043091,0.00449618
3672.44923828,0.00558947
3674.37804565,0.00539158
3676.30685303,0.00443447
3678.23566040,0.00554595
3680.16446777,0.00564176
3682.09327515,0.00571560
3684.02208252,0.00587204
3685.95088989,0.00578377
3687.87969727,0.00534318
3689.80850464,0.00484035
3691.73731201,0.00549261
3693.66611938,0.00575421
3695.59492676,0.00586892
3697.52373413,0.00580037
3699.45254150,0.00572915
3701.38134888,0.00565437
3703.31015625,0.00542474
3705.23896362,0.00588582
3707.16777100,0.00564105
3709.09657837,0.00556672
3711.02538574,0.00525423
3712.95419312,0.00489559
3714.88300049,0.00568523
3716.81180786,0.00559214
3718.74061523,0.00565851
3720.66942261,0.00555182
3722.59822998,0.00531144
3724.52703735,0.00546915
3726.45584473,0.00508344
3728.38465210,0.00549596
3730.31345947,0.00547442
3732.24226685,0.00506661
3734.17107422,0.00486907
3736.09988159,0.00465682
3738.02868896,0.00491462
3739.95749634,0.00525522
3741.88630371,0.00557686
3743.81511108,0.00430584
3745.74391846,0.00404243
3747.67272583,0.00520723
3749.60153320,0.00445299
3751.53034058,0.00419610
3753.45914795,0.00474460
3755.38795532,0.00507984
3757.31676270,0.00521211
3759.24557007,0.00476831
3761.17437744,0.00497692
3763.10318481,0.00525134
3765.03199219,0.00496017
3766.96079956,0.00502970
3768.88960693,0.00503584
3770.81841431,0.00476692
3772.74722168,0.00510616
3774.67602905,0.00521884
3776.60483643,0.00501689
3778.53364380,0.00500011
3780.46245117,0.00484872
3782.39125854,0.00502548
3784.32006592,0.00503600
3786.24887329,0.00488849
3788.17768066,0.00498756
3790.10648804,0.00496729
3792.03529541,0.00490074
3793.96410278,0.00505228
3795.89291016,0.00471035
3797.82171753,0.00466867
3799.75052490,0.00494600
3801.67933228,0.00394566
3803.60813965,0.00455682
3805.53694702,0.00492558
3807.46575439,0.00405638
3809.39456177,0.00482768
3811.32336914,0.00470135
3813.25217651,0.00491409
3815.18098389,0.00443753
3817.10979126,0.00387122
3819.03859863,0.00484801
3820.96740601,0.00387775
3822.89621338,0.00414739
3824.82502075,0.00474195
3826.75382812,0.00429751
3828.68263550,0.00476621
3830.61144287,0.00443121
3832.54025024,0.00430271
3834.46905762,0.00443126
3836.39786499,0.00420162
3838.32667236,0.00384452
3840.25547974,0.00408351
3842.18428711,0.00439274
3844.11309448,0.00415952
3846.04190186,0.00450686
3847.97070923,0.00443603
3849.89951660,0.00445972
3851.82832397,0.00407432
3853.75713135,0.00301259
3855.68593872,0.00356793
3857.61474609,0.00446154
3859.54355347,0.00425439
3861.47236084,0.00418710
3863.40116821,0.00409941
3865.32997559,0.00383718
3867.25878296,0.00439958
3869.18759033,0.00398995
3871.11639770,0.00370099
3873.04520508,0.00441125
3874.97401245,0.00391618
3876.90281982,0.00426607
3878.83162720,0.00435890
3880.76043457,0.00366458
3882.68924194,0.00427614
3884.61804932,0.00403628
3886.54685669,0.00363398
3888.47566406,0.00420004
3890.40447144,0.00406198
3892.33327881,0.00383484
3894.26208618,0.00417840
3896.19089355,0.00422794
3898.11970093,0.00401913
3900.04850830,0.00376395
3901.97731567,0.00371321
3903.90612305,0.00371949
3905.83493042,0.00375123
3907.76373779,0.00413689
3909.69254517,0.00402412
3911.62135254,0.00401031
3913.55015991,0.00409914
3915.47896728,0.00391065
3917.40777466,0.00393850
3919.33658203,0.00384078
3921.26538940,0.00406044
3923.19419678,0.00395102
3925.12300415,0.00378964
3927.05181152,0.00399617
3928.98061890,0.00389562
3930.90942627,0.00382056
3932.83823364,0.00366481
3934.76704102,0.00385218
3936.69584839,0.00389690
3938.62465576,0.00378805
3940.55346313,0.00389326
3942.48227051,0.00370387
3944.41107788,0.00370594
3946.33988525,0.00376643
3948.26869263,0.00376535
3950.19750000,0.00368217
3952.12630737,0.00374662
3954.05511475,0.00382631
3955.98392212,0.00370421
3957.91272949,0.00382148
3959.84153687,0.00380279
3961.77034424,0.00374902
3963.69915161,0.00366672
3965.62795898,0.00366351
3967.55676636,0.00374451
3969.48557373,0.00370110
3971.41438110,0.00371143
3973.34318848,0.00362035
3975.27199585,0.00371803
3977.20080322,0.00373116
3979.12961060,0.00365621
3981.05841797,0.00366800
3982.98722534,0.00358493
3984.91603271,0.00359125
3986.84484009,0.00360310
3988.77364746,0.00365735
3990.70245483,0.00353093
3992.63126221,0.00352417
3994.56006958,0.00361186
3996.48887695,0.00349847
3998.41768433,0.00358167
4000.34649170,0.00358464
4002.27529907,0.00355467
4004.20410645,0.00355606
4006.13291382,0.00352799
4008.06172119,0.00355665
4009.99052856,0.00350574
4011.91933594,0.00348838
4013.84814331,0.00342911
4015.77695068,0.00341148
4017.70575806,0.00350921
4019.63456543,0.00349705
4021.56337280,0.00345146
4023.49218018,0.00349205
4025.42098755,0.00343658
4027.34979492,0.00336497
4029.27860229,0.00343352
4031.20740967,0.00345395
4033.13621704,0.00343527
4035.06502441,0.00338653
4036.99383179,0.00334866
4038.92263916,0.00338166
4040.85144653,0.00338098
4042.78025391,0.00334158
4044.70906128,0.00329922
4046.63786865,0.00333778
4048.56667603,0.00337587
4050.49548340,0.00329414
4052.42429077,0.00329343
4054.35309814,0.00337377
4056.28190552,0.00331155
4058.21071289,0.00332900
4060.13952026,0.00336307
4062.06832764,0.00322214
4063.99713501,0.00324819
4065.92594238,0.00334798
4067.85474976,0.00332542
4069.78355713,0.00323347
4071.71236450,0.00315724
4073.64117187,0.00325021
4075.56997925,0.00326522
4077.49878662,0.00316178
4079.42759399,0.00324227
4081.35640137,0.00321525
4083.28520874,0.00309224
4085.21401611,0.00316718
4087.14282349,0.00310365
4089.07163086,0.00309477
4091.00043823,0.00316971
4092.92924561,0.00307206
4094.85805298,0.00308392
4096.78686035,0.00309780
4098.71566772,0.00306321
4100.64447510,0.00308234
4102.57328247,0.00320006
4104.50208984,0.00318166
4106.43089722,0.00300324
4108.35970459,0.00300589
4110.28851196,0.00298060
4112.21731934,0.00302704
4114.14612671,0.00308972
4116.07493408,0.00303573
4118.00374145,0.00308764
4119.93254883,0.00307566
4121.86135620,0.00298088
4123.79016357,0.00299114
4125.71897095,0.00304978
4127.64777832,0.00297479
4129.57658569,0.00298577
4131.50539307,0.00300597
4133.43420044,0.00292643
4135.36300781,0.00299256
4137.29181519,0.00297082
4139.22062256,0.00293271
4141.14942993,0.00300796
4143.07823730,0.00301110
4145.00704468,0.00293123
4146.93585205,0.00290098
4148.86465942,0.00292872
4150.79346680,0.00296360
4152.72227417,0.00294978
4154.65108154,0.00287912
4156.57988892,0.00295500
4158.50869629,0.00291238
4160.43750366,0.00287784
4162.36631103,0.00291486
4164.29511841,0.00280491
4166.22392578,0.00286422
4168.15273315,0.00282450
4170.08154053,0.00282257
4172.01034790,0.00284823
4173.93915527,0.00271447
4175.86796265,0.00278992
4177.79677002,0.00274678
4179.72557739,0.00270197
4181.65438477,0.00278769
4183.58319214,0.00275124
4185.51199951,0.00277643
4187.44080688,0.00278207
4189.36961426,0.00273498
4191.29842163,0.00279284
4193.22722900,0.00275422
4195.15603638,0.00266561
4197.08484375,0.00274638
4199.01365112,0.00271644
4200.94245850,0.00268048
4202.87126587,0.00276621
4204.80007324,0.00274964
4206.72888062,0.00267794
4208.65768799,0.00262909
4210.58649536,0.00268174
4212.51530273,0.00268871
4214.44411011,0.00264618
4216.37291748,0.00270446
4218.30172485,0.00269276
4220.23053223,0.00258370
4222.15933960,0.00261886
4224.08814697,0.00266074
4226.01695435,0.00256221
4227.94576172,0.00261646
4229.87456909,0.00265858
4231.80337646,0.00259852
4233.73218384,0.00254788
4235.66099121,0.00251237
4237.58979858,0.00254668
4239.51860596,0.00252326
4241.44741333,0.00254905
4243.37622070,0.00255110
4245.30502808,0.00251969
4247.23383545,0.00254037
4249.16264282,0.00253208
4251.09145020,0.00254046
4253.02025757,0.00255208
4254.94906494,0.00253886
4256.87787231,0.00243004
4258.80667969,0.00248008
4260.73548706,0.00253262
4262.66429443,0.00244222
4264.59310181,0.00249747
4266.52190918,0.00249394
4268.45071655,0.00245404
4270.37952393,0.00242609
4272.30833130,0.00249310
4274.23713867,0.00254240
4276.16594604,0.00244162
4278.09475342,0.00246422
4280.02356079,0.00242562
4281.95236816,0.00240669
4283.88117554,0.00253034
4285.80998291,0.00250595
4287.73879028,0.00234035
4289.66759766,0.00236915
4291.59640503,0.00243683
4293.52521240,0.00235092
4295.45401978,0.00243228
4297.38282715,0.00240048
4299.31163452,0.00230981
4301.24044189,0.00234904
4303.16924927,0.00233002
4305.09805664,0.00239596
4307.02686401,0.00237839
4308.95567139,0.00233711
4310.88447876,0.00238138
4312.81328613,0.00238768
4314.74209351,0.00238909
4316.67090088,0.00238395
4318.59970825,0.00236608
4320.52851562,0.00229665
4322.45732300,0.00231113
4324.38613037,0.00234092
4326.31493774,0.00226938
4328.24374512,0.00227190
4330.17255249,0.00231122
4332.10135986,0.00230390
4334.03016724,0.00230182
4335.95897461,0.00227745
4337.88778198,0.00224423
4339.81658936,0.00224515
4341.74539673,0.00220579
4343.67420410,0.00218183
4345.60301147,0.00221624
4347.53181885,0.00224207
4349.46062622,0.00220777
4351.38943359,0.00215643
4353.31824097,0.00215725
4355.24704834,0.00214199
4357.17585571,0.00217615
4359.10466309,0.00217552
4361.03347046,0.00215356
4362.96227783,0.00222830
4364.89108520,0.00218797
4366.81989258,0.00216086
4368.74869995,0.00223288
4370.67750732,0.00219674
4372.60631470,0.00211796
4374.53512207,0.00218331
4376.46392944,0.00223079
4378.39273682,0.00208071
4380.32154419,0.00207122
4382.25035156,0.00215690
4384.17915894,0.00213226
4386.10796631,0.00214069
4388.03677368,0.00207155
4389.96558105,0.00208683
4391.89438843,0.00221772
4393.82319580,0.00213629
4395.75200317,0.00206499
4397.68081055,0.00213350
4399.60961792,0.00216074
4401.53842529,0.00208248
4403.46723267,0.00201478
4405.39604004,0.00210087
4407.32484741,0.00209944
4409.25365478,0.00203044
4411.18246216,0.00206393
4413.11126953,0.00202670
4415.04007690,0.00200918
4416.96888428,0.00204859
4418.89769165,0.00197764
4420.82649902,0.00197113
4422.75530640,0.00204717
4424.68411377,0.00196329
4426.61292114,0.00193095
4428.54172852,0.00200326
4430.47053589,0.00198373
4432.39934326,0.00194041
4434.32815063,0.00192650
4436.25695801,0.00200400
4438.18576538,0.00201225
4440.11457275,0.00196986
4442.04338013,0.00196114
4443.97218750,0.00194586
4445.90099487,0.00198410
4447.82980225,0.00194139
4449.75860962,0.00202243
4451.68741699,0.00200727
4453.61622437,0.00187058
4455.54503174,0.00199684
4457.47383911,0.00194999
4459.40264648,0.00190362
4461.33145386,0.00194143
4463.26026123,0.00187781
4465.18906860,0.00189745
4467.11787598,0.00184814
4469.04668335,0.00185157
4470.97549072,0.00191927
4472.90429810,0.00195615
4474.83310547,0.00190585
4476.76191284,0.00183152
4478.69072021,0.00188601
4480.61952759,0.00189541
4482.54833496,0.00190534
4484.47714233,0.00185182
4486.40594971,0.00181748
4488.33475708,0.00185214
4490.26356445,0.00182126
4492.19237183,0.00189143
4494.12117920,0.00187286
4496.04998657,0.00183090
4497.97879395,0.00185408
4499.90760132,0.00179946
4501.83640869,0.00179834
4503.76521606,0.00180878
4505.69402344,0.00182669
4507.62283081,0.00179816
4509.55163818,0.00181691
4511.48044556,0.00184889
4513.40925293,0.00176944
4515.33806030,0.00181341
4517.26686768,0.00181127
4519.19567505,0.00176986
4521.12448242,0.00177523
4523.05328979,0.00173074
4524.98209717,0.00172196
4526.91090454,0.00174055
4528.83971191,0.00182514
4530.76851929,0.00180502
4532.69732666,0.00174548
4534.62613403,0.00174611
4536.55494141,0.00170077
4538.48374878,0.00169780
4540.41255615,0.00168517
4542.34136353,0.00168260
4544.27017090,0.00165942
4546.19897827,0.00168148
4548.12778564,0.00171088
4550.05659302,0.00168271
4551.98540039,0.00171330
4553.91420776,0.00170601
4555.84301514,0.00170622
4557.77182251,0.00165844
4559.70062988,0.00166227
4561.62943726,0.00167457
4563.55824463,0.00167466
4565.48705200,0.00174885
4567.41585937,0.00164024
4569.34466675,0.00163542
4571.27347412,0.00164486
4573.20228149,0.00160230
4575.13108887,0.00161988
4577.05989624,0.00159661
4578.98870361,0.00167640
4580.91751099,0.00164370
4582.84631836,0.00163279
4584.77512573,0.00159443
4586.70393311,0.00158721
4588.63274048,0.00164380
4590.56154785,0.00155909
4592.49035522,0.00163059
4594.41916260,0.00157949
4596.34796997,0.00160086
4598.27677734,0.00167679
4600.20558472,0.00160499
4602.13439209,0.00164425
4604.06319946,0.00153785
4605.99200684,0.00153016
4607.92081421,0.00156370
4609.84962158,0.00152041
4611.77842895,0.00152084
4613.70723633,0.00155187
4615.63604370,0.00158845
4617.56485107,0.00147120
4619.49365845,0.00154059
4621.42246582,0.00161980
4623.35127319,0.00158653
4625.28008057,0.00160564
4627.20888794,0.00153272
4629.13769531,0.00149138
4631.06650269,0.00147689
4632.99531006,0.00150377
4634.92411743,0.00152389
4636.85292480,0.00147813
4638.78173218,0.00146446
4640.71053955,0.00155136
4642.63934692,0.00153679
4644.56815430,0.00144112
4646.49696167,0.00150083
4648.42576904,0.00149280
4650.35457642,0.00149880
4652.28338379,0.00144681
4654.21219116,0.00136697
4656.14099853,0.00149012
4658.06980591,0.00154613
4659.99861328,0.00150798
4661.92742065,0.00143305
4663.85622803,0.00142739
4665.78503540,0.00145187
4667.71384277,0.00144864
4669.64265015,0.00144047
4671.57145752,0.00141128
4673.50026489,0.00145445
4675.42907227,0.00143689
4677.35787964,0.00144360
4679.28668701,0.00143764
4681.21549438,0.00135961
4683.14430176,0.00139135
4685.07310913,0.00143195
4687.00191650,0.00143632
4688.93072388,0.00144964
4690.85953125,0.00142609
4692.78833862,0.00141495
4694.71714600,0.00146464
4696.64595337,0.00137697
4698.57476074,0.00135435
4700.50356812,0.00143560
4702.43237549,0.00138647
4704.36118286,0.00143806
4706.28999023,0.00141723
4708.21879761,0.00134247
4710.14760498,0.00139034
4712.07641235,0.00135271
4714.00521973,0.00126140
4715.93402710,0.00131360
4717.86283447,0.00141647
4719.79164185,0.00134500
4721.72044922,0.00134309
4723.64925659,0.00139856
4725.57806396,0.00140220
4727.50687134,0.00137844
4729.43567871,0.00133302
4731.36448608,0.00135862
4733.29329346,0.00128222
4735.22210083,0.00131405
4737.15090820,0.00137128
4739.07971558,0.00129798
4741.00852295,0.00131779
4742.93733032,0.00126982
4744.86613770,0.00128331
4746.79494507,0.00136458
4748.72375244,0.00129049
4750.65255981,0.00124301
4752.58136719,0.00131544
4754.51017456,0.00130255
4756.43898193,0.00128596
4758.36778931,0.00131202
4760.29659668,0.00123226
4762.22540405,0.00126145
4764.15421143,0.00128173
4766.08301880,0.00120504
4768.01182617,0.00121423
4769.94063354,0.00126826
4771.86944092,0.00127764
4773.79824829,0.00122911
4775.72705566,0.00124410
4777.65586304,0.00121286
4779.58467041,0.00121253
4781.51347778,0.00124474
4783.44228516,0.00121036
4785.37109253,0.00125556
4787.29989990,0.00123742
4789.22870728,0.00122990
4791.15751465,0.00125764
4793.08632202,0.00122025
4795.01512939,0.00120247
4796.94393677,0.00120736
4798.87274414,0.00124499
4800.80155151,0.00125973
4802.73035889,0.00126409
4804.65916626,0.00124702
4806.58797363,0.00121823
4808.51678101,0.00120379
4810.44558838,0.00117100
4812.37439575,0.00114374
4814.30320312,0.00116654
4816.23201050,0.00121137
4818.16081787,0.00115991
4820.08962524,0.00115872
4822.01843262,0.00120835
4823.94723999,0.00117812
4825.87604736,0.00114816
4827.80485474,0.00115453
4829.73366211,0.00117999
4831.66246948,0.00110843
4833.59127686,0.00109660
4835.52008423,0.00115959
4837.44889160,0.00110826
4839.37769897,0.00109988
4841.30650635,0.00113823
4843.23531372,0.00113617
4845.16412109,0.00104859
4847.09292847,0.00103276
4849.02173584,0.00114486
4850.95054321,0.00111122
4852.87935059,0.00110881
4854.80815796,0.00113266
4856.73696533,0.00107767
4858.66577270,0.00114989
4860.59458008,0.00117003
4862.52338745,0.00114376
4864.45219482,0.00112352
4866.38100220,0.00109363
4868.30980957,0.00113633
4870.23861694,0.00108736
4872.16742432,0.00112282
4874.09623169,0.00113873
4876.02503906,0.00101326
4877.95384644,0.00111489
4879.88265381,0.00120089
4881.81146118,0.00114957
4883.74026855,0.00111092
4885.66907593,0.00104190
4887.59788330,0.00106934
4889.52669067,0.00110609
4891.45549805,0.00103920
4893.38430542,0.00104319
4895.31311279,0.00108701
4897.24192017,0.00103213
4899.17072754,0.00102633
4901.09953491,0.00102169
4903.02834228,0.00100428
4904.95714966,0.00112185
4906.88595703,0.00111629
4908.81476440,0.00099234
4910.74357178,0.00102761
4912.67237915,0.00110131
4914.60118652,0.00104103
4916.52999390,0.00101118
4918.45880127,0.00106555
4920.38760864,0.00108217
4922.31641602,0.00110467
4924.24522339,0.00109371
4926.17403076,0.00106374
4928.10283813,0.00098194
4930.03164551,0.00092150
4931.96045288,0.00102340
4933.88926025,0.00101516
4935.81806763,0.00099673
4937.74687500,0.00106481
4939.67568237,0.00097741
4941.60448975,0.00096775
4943.53329712,0.00104394
4945.46210449,0.00096794
4947.39091187,0.00096608
4949.31971924,0.00100313
4951.24852661,0.00092191
4953.17733398,0.00096579
4955.10614136,0.00104530
4957.03494873,0.00100853
4958.96375610,0.00102504
4960.89256348,0.00104672
4962.82137085,0.00098373
4964.75017822,0.00098198
4966.67898560,0.00102184
4968.60779297,0.00095528
4970.53660034,0.00095858
4972.46540771,0.00100871
4974.39421509,0.00094737
4976.32302246,0.00094829
4978.25182983,0.00096142
4980.18063721,0.00092024
4982.10944458,0.00093825
4984.03825195,0.00097178
4985.96705933,0.00095686
4987.89586670,0.00091845
4989.82467407,0.00091740
4991.75348145,0.00093003
4993.68228882,0.00093886
4995.61109619,0.00096125
4997.53990356,0.00096523
4999.46871094,0.00098900
5001.39751831,0.00096937
5003.32632568,0.00089581
5005.25513306,0.00087402
5007.18394043,0.00083676
5009.11274780,0.00088490
5011.04155518,0.00091172
5012.97036255,0.00084077
5014.89916992,0.00092309
5016.82797729,0.00087315
5018.75678467,0.00078354
5020.68559204,0.00089888
5022.61439941,0.00091690
5024.54320679,0.00090316
5026.47201416,0.00089408
5028.40082153,0.00086217
5030.32962891,0.00087640
5032.25843628,0.00087018
5034.18724365,0.00082782
5036.11605103,0.00083488
5038.04485840,0.00087921
5039.97366577,0.00081733
5041.90247314,0.00084238
5043.83128052,0.00093244
5045.76008789,0.00087927
5047.68889526,0.00083533
5049.61770264,0.00082200
5051.54651001,0.00087776
5053.47531738,0.00092687
5055.40412476,0.00084924
5057.33293213,0.00083511
5059.26173950,0.00087252
5061.19054687,0.00089558
5063.11935425,0.00086357
5065.04816162,0.00078722
5066.97696899,0.00085899
5068.90577637,0.00086038
5070.83458374,0.00080741
5072.76339111,0.00087668
5074.69219849,0.00082159
5076.62100586,0.00082584
5078.54981323,0.00081633
5080.47862061,0.00072775
5082.40742798,0.00077215
5084.33623535,0.00070881
5086.26504272,0.00075963
5088.19385010,0.00088042
5090.12265747,0.00082704
5092.05146484,0.00083128
5093.98027222,0.00082158
5095.90907959,0.00077122
5097.83788696,0.00072668
5099.76669434,0.00076527
5101.69550171,0.00083240
5103.62430908,0.00081419
5105.55311645,0.00081443
5107.48192383,0.00080747
5109.41073120,0.00080998
5111.33953857,0.00077307
5113.26834595,0.00073301
5115.19715332,0.00079093
5117.12596069,0.00078679
5119.05476807,0.00071592
5120.98357544,0.00075968
5122.91238281,0.00082433
5124.84119019,0.00072456
5126.76999756,0.00072151
5128.69880493,0.00080978
5130.62761230,0.00074487
5132.55641968,0.00074430
5134.48522705,0.00078501
5136.41403442,0.00074280
5138.34284180,0.00074511
5140.27164917,0.00075081
5142.20045654,0.00070797
5144.12926392,0.00070367
5146.05807129,0.00079036
5147.98687866,0.00080915
5149.91568603,0.00075531
5151.84449341,0.00081155
5153.77330078,0.00074854
5155.70210815,0.00065646
5157.63091553,0.00077359
5159.55972290,0.00077871
5161.48853027,0.00074528
5163.41733765,0.00076121
5165.34614502,0.00075924
5167.27495239,0.00078629
5169.20375977,0.00070122
5171.13256714,0.00067086
5173.06137451,0.00071025
5174.99018188,0.00072303
5176.91898926,0.00075754
5178.84779663,0.00071461
5180.77660400,0.00072716
5182.70541138,0.00073535
5184.63421875,0.00065324
5186.56302612,0.00068529
5188.49183350,0.00071860
5190.42064087,0.00067944
5192.34944824,0.00069250
5194.27825562,0.00074086
5196.20706299,0.00074235
5198.13587036,0.00066681
5200.06467773,0.00066529
5201.99348511,0.00072488
5203.92229248,0.00073978
5205.85109985,0.00072251
5207.77990723,0.00065110
5209.70871460,0.00066050
5211.63752197,0.00067761
5213.56632935,0.00065937
5215.49513672,0.00065046
5217.42394409,0.00061575
5219.35275146,0.00068020
5221.28155884,0.00067224
5223.21036621,0.00062191
5225.13917358,0.00062001
5227.06798096,0.00066100
5228.99678833,0.00068088
5230.92559570,0.00058623
5232.85440308,0.00065715
5234.78321045,0.00063996
5236.71201782,0.00061827
5238.64082520,0.00067506
5240.56963257,0.00061232
5242.49843994,0.00071765
5244.42724731,0.00066478
5246.35605469,0.00059348
5248.28486206,0.00065177
5250.21366943,0.00063145
5252.14247681,0.00065394
5254.07128418,0.00062416
5256.00009155,0.00061854
5257.92889893,0.00057642
5259.85770630,0.00064987
5261.78651367,0.00070300
5263.71532104,0.00059811
5265.64412842,0.00063420
5267.57293579,0.00065342
5269.50174316,0.00069658
5271.43055054,0.00065652
5273.35935791,0.00058505
5275.28816528,0.00061100
5277.21697266,0.00064469
5279.14578003,0.00066233
5281.07458740,0.00057335
5283.00339478,0.00062858
5284.93220215,0.00063704
5286.86100952,0.00061427
5288.78981689,0.00068387
5290.71862427,0.00061468
5292.64743164,0.00062831
5294.57623901,0.00066008
5296.50504639,0.00062010
5298.43385376,0.00060192
5300.36266113,0.00061402
5302.29146851,0.00060493
5304.22027588,0.00061424
5306.14908325,0.00065437
5308.07789062,0.00062551
5310.00669800,0.00063826
5311.93550537,0.00062024
5313.86431274,0.00062708
5315.79312012,0.00060170
5317.72192749,0.00052882
5319.65073486,0.00059245
5321.57954224,0.00060530
5323.50834961,0.00060972
5325.43715698,0.00061269
5327.36596436,0.00057538
5329.29477173,0.00058284
5331.22357910,0.00062905
5333.15238647,0.00059586
5335.08119385,0.00050264
5337.01000122,0.00051644
5338.93880859,0.00052199
5340.86761597,0.00059139
5342.79642334,0.00060612
5344.72523071,0.00051849
5346.65403809,0.00051483
5348.58284546,0.00051830
5350.51165283,0.00055221
5352.44046020,0.00053570
5354.36926758,0.00055546
5356.29807495,0.00058543
5358.22688232,0.00058684
5360.15568970,0.00058160
5362.08449707,0.00052795
5364.01330444,0.00059020
5365.94211182,0.00053007
5367.87091919,0.00045997
5369.79972656,0.00054624
5371.72853394,0.00058650
5373.65734131,0.00058617
5375.58614868,0.00053248
5377.51495605,0.00054137
5379.44376343,0.00057190
5381.37257080,0.00062084
5383.30137817,0.00063161
5385.23018555,0.00050919
5387.15899292,0.00045136
5389.08780029,0.00049580
5391.01660767,0.00054675
5392.94541504,0.00051588
5394.87422241,0.00051120
5396.80302978,0.00052888
5398.73183716,0.00053900
5400.66064453,0.00059916
5402.58945190,0.00056354
5404.51825928,0.00051102
5406.44706665,0.00055219
5408.37587402,0.00050692
5410.30468140,0.00041325
5412.23348877,0.00052186
5414.16229614,0.00054733
5416.09110352,0.00045387
5418.01991089,0.00050318
5419.94871826,0.00049169
5421.87752563,0.00047504
5423.80633301,0.00046952
5425.73514038,0.00051938
5427.66394775,0.00060033
5429.59275513,0.00053166
5431.52156250,0.00049225
5433.45036987,0.00047313
5435.37917725,0.00051417
5437.30798462,0.00054021
5439.23679199,0.00049428
5441.16559936,0.00048561
5443.09440674,0.00043819
5445.02321411,0.00048056
5446.95202148,0.00051087
5448.88082886,0.00051098
5450.80963623,0.00051881
5452.73844360,0.00043608
5454.66725098,0.00048917
5456.59605835,0.00052394
5458.52486572,0.00044260
5460.45367310,0.00047390
5462.38248047,0.00051406
5464.31128784,0.00050963
5466.24009521,0.00049799
5468.16890259,0.00048699
5470.09770996,0.00048270
5472.02651733,0.00044465
5473.95532471,0.00045790
5475.88413208,0.00044200
5477.81293945,0.00040195
5479.74174683,0.00044053
5481.67055420,0.00040647
5483.59936157,0.00046527
5485.52816895,0.00050699
5487.45697632,0.00043413
5489.38578369,0.00051734
5491.31459106,0.00049337
5493.24339844,0.00045885
5495.17220581,0.00050958
5497.10101318,0.00043435
5499.02982056,0.00039523
5500.95862793,0.00042393
5502.88743530,0.00047039
5504.81624268,0.00040743
5506.74505005,0.00035802
5508.67385742,0.00043569
5510.60266479,0.00042920
5512.53147217,0.00039594
5514.46027954,0.00044710
5516.38908691,0.00050617
5518.31789429,0.00041539
5520.24670166,0.00039172
5522.17550903,0.00042863
5524.10431641,0.00036451
5526.03312378,0.00046748
5527.96193115,0.00046501
5529.89073853,0.00036893
5531.81954590,0.00041122
5533.74835327,0.00039985
5535.67716064,0.00044313
5537.60596802,0.00044806
5539.53477539,0.00040862
5541.46358276,0.00040407
5543.39239014,0.00043498
5545.32119751,0.00051651
5547.25000488,0.00043098
5549.17881226,0.00037400
5551.10761963,0.00037897
5553.03642700,0.00037390
5554.96523437,0.00040235
5556.89404175,0.00031967
5558.82284912,0.00038927
5560.75165649,0.00043203
5562.68046387,0.00032371
5564.60927124,0.00038788
5566.53807861,0.00043190
5568.46688599,0.00044072
5570.39569336,0.00039663
5572.32450073,0.00034536
5574.25330811,0.00040205
5576.18211548,0.00034890
5578.11092285,0.00034445
5580.03973022,0.00041571
5581.96853760,0.00041350
5583.89734497,0.00043213
5585.82615234,0.00042907
5587.75495972,0.00037887
5589.68376709,0.00033653
5591.61257446,0.00036900
5593.54138184,0.00041349
5595.47018921,0.00038797
5597.39899658,0.00039846
5599.32780395,0.00041210
5601.25661133,0.00039990
5603.18541870,0.00038778
5605.11422607,0.00033674
5607.04303345,0.00036143
5608.97184082,0.00037306
5610.90064819,0.00035253
5612.82945557,0.00039003
5614.75826294,0.00035700
5616.68707031,0.00042688
5618.61587769,0.00045843
5620.54468506,0.00036564
5622.47349243,0.00040223
5624.40229980,0.00034322
5626.33110718,0.00032670
5628.25991455,0.00040118
5630.18872192,0.00035556
5632.11752930,0.00034135
5634.04633667,0.00031978
5635.97514404,0.00034191
5637.90395142,0.00041845
5639.83275879,0.00039989
5641.76156616,0.00035369
5643.69037353,0.00035492
5645.61918091,0.00035139
5647.54798828,0.00034975
5649.47679565,0.00035775
5651.40560303,0.00034381
5653.33441040,0.00038987
5655.26321777,0.00033858
5657.19202515,0.00030284
5659.12083252,0.00039950
5661.04963989,0.00034574
5662.97844727,0.00036619
5664.90725464,0.00042313
5666.83606201,0.00036544
5668.76486938,0.00038142
5670.69367676,0.00032514
5672.62248413,0.00028475
5674.55129150,0.00035413
5676.48009888,0.00033660
5678.40890625,0.00035418
5680.33771362,0.00037376
5682.26652100,0.00027991
5684.19532837,0.00033336
5686.12413574,0.00036956
5688.05294311,0.00032631
5689.98175049,0.00036020
5691.91055786,0.00029820
5693.83936523,0.00031742
5695.76817261,0.00036170
5697.69697998,0.00032282
5699.62578735,0.00030585
5701.55459473,0.00028778
5703.48340210,0.00034222
5705.41220947,0.00031928
5707.34101685,0.00031590
5709.26982422,0.00034843
5711.19863159,0.00030614
5713.12743896,0.00032268
5715.05624634,0.00028168
5716.98505371,0.00027206
5718.91386108,0.00032446
5720.84266846,0.00032700
5722.77147583,0.00033390
5724.70028320,0.00030717
5726.62909058,0.00032546
5728.55789795,0.00037739
5730.48670532,0.00029279
5732.41551270,0.00027241
5734.34432007,0.00036249
5736.27312744,0.00025597
5738.20193481,0.00023110
5740.13074219,0.00033103
5742.05954956,0.00031259
5743.98835693,0.00034434
5745.91716431,0.00033031
5747.84597168,0.00030246
5749.77477905,0.00032587
5751.70358643,0.00033669
5753.63239380,0.00031237
5755.56120117,0.00026604
5757.49000854,0.00029719
5759.41881592,0.00025234
5761.34762329,0.00025816
5763.27643066,0.00035827
5765.20523804,0.00033969
5767.13404541,0.00030377
5769.06285278,0.00029462
5770.99166016,0.00026988
5772.92046753,0.00024088
5774.84927490,0.00025755
5776.77808228,0.00028922
5778.70688965,0.00029592
5780.63569702,0.00025642
5782.56450439,0.00026231
5784.49331177,0.00032354
5786.42211914,0.00031104
5788.35092651,0.00029841
5790.27973389,0.00028019
5792.20854126,0.00032860
5794.13734863,0.00032082
5796.06615601,0.00026204
5797.99496338,0.00033316
5799.92377075,0.00030036
5801.85257812,0.00030591
5803.78138550,0.00031603
5805.71019287,0.00026578
5807.63900024,0.00034086
5809.56780762,0.00034843
5811.49661499,0.00027581
5813.42542236,0.00024270
5815.35422974,0.00028666
5817.28303711,0.00026083
5819.21184448,0.00025723
5821.14065186,0.00033446
5823.06945923,0.00027386
5824.99826660,0.00027112
5826.92707397,0.00029632
5828.85588135,0.00025467
5830.78468872,0.00025659
5832.71349609,0.00027161
5834.64230347,0.00024523
5836.57111084,0.00025812
5838.49991821,0.00029844
5840.42872559,0.00016978
5842.35753296,0.00017300
5844.28634033,0.00029738
5846.21514770,0.00025505
5848.14395508,0.00023667
5850.07276245,0.00024793
5852.00156982,0.00023643
5853.93037720,0.00024588
5855.85918457,0.00031923
5857.78799194,0.00029665
5859.71679932,0.00022054
5861.64560669,0.00028439
5863.57441406,0.00026141
5865.50322144,0.00023074
5867.43202881,0.00025631
5869.36083618,0.00024973
5871.28964355,0.00027722
5873.21845093,0.00026603
5875.14725830,0.00023808
5877.07606567,0.00022766
5879.00487305,0.00021030
5880.93368042,0.00016994
5882.86248779,0.00022624
5884.79129517,0.00029806
5886.72010254,0.00024878
5888.64890991,0.00028086
5890.57771728,0.00026878
5892.50652466,0.00021145
5894.43533203,0.00021528
5896.36413940,0.00015800
5898.29294678,0.00019315
5900.22175415,0.00025800
5902.15056152,0.00023113
5904.07936890,0.00022990
5906.00817627,0.00024813
5907.93698364,0.00024492
5909.86579102,0.00026869
5911.79459839,0.00029175
5913.72340576,0.00025353
5915.65221313,0.00027440
5917.58102051,0.00023549
5919.50982788,0.00014283
5921.43863525,0.00022148
5923.36744263,0.00025072
5925.29625000,0.00021718
5927.22505737,0.00025265
5929.15386475,0.00026417
5931.08267212,0.00026641
5933.01147949,0.00025074
5934.94028686,0.00020004
5936.86909424,0.00018126
5938.79790161,0.00020967
5940.72670898,0.00021909
5942.65551636,0.00021913
5944.58432373,0.00021429
5946.51313110,0.00021914
5948.44193848,0.00024276
5950.37074585,0.00022651
5952.29955322,0.00020645
5954.22836060,0.00019289
5956.15716797,0.00022832
5958.08597534,0.00024251
5960.01478271,0.00020572
5961.94359009,0.00022870
5963.87239746,0.00026400
5965.80120483,0.00023400
5967.73001221,0.00014403
5969.65881958,0.00017102
5971.58762695,0.00018344
5973.51643433,0.00017996
5975.44524170,0.00023888
5977.37404907,0.00017827
5979.30285645,0.00023913
5981.23166382,0.00024966
5983.16047119,0.00016943
5985.08927856,0.00021346
5987.01808594,0.00019707
5988.94689331,0.00019598
5990.87570068,0.00019358
5992.80450806,0.00019855
5994.73331543,0.00017704
5996.66212280,0.00017298
5998.59093018,0.00022896
6000.51973755,0.00021859
