399.26312622,0.00040421
401.19193359,0.00011566
403.12074097,-0.00026628
405.04954834,-0.00012967
406.97835571,-0.00007584
408.90716309,-0.00004355
410.83597046,0.00025194
412.76477783,-0.00000663
414.69358521,0.00023334
416.62239258,0.00021696
418.55119995,-0.00016602
420.48000732,0.00029507
422.40881470,0.00032142
424.33762207,0.00044494
426.26642944,0.00023539
428.19523682,-0.00025686
430.12404419,0.00042029
432.05285156,0.00039932
433.98165894,0.00015724
435.91046631,0.00016612
437.83927368,0.00008232
439.76808105,0.00034927
441.69688843,-0.00005392
443.62569580,0.00044992
445.55450317,0.00077648
447.48331055,0.00010352
449.41211792,0.00013020
451.34092529,0.00019959
453.26973267,-0.00009858
455.19854004,0.00010700
457.12734741,0.00046325
459.05615479,0.00009832
460.98496216,0.00022878
462.91376953,0.00012384
464.84257690,0.00017251
466.77138428,0.00028522
468.70019165,-0.00016092
470.62899902,0.00042345
472.55780640,0.00038708
474.48661377,0.00010193
476.41542114,0.00025027
478.34422852,0.00015731
480.27303589,0.00035593
482.20184326,0.00002696
484.13065063,0.00024671
486.05945801,0.00057555
487.98826538,0.00013821
489.91707275,0.00000105
491.84588013,-0.00000908
493.77468750,0.00056979
495.70349487,0.00059362
497.63230225,-0.00003800
499.56110962,0.00007766
501.48991699,0.00025035
503.41872437,0.00032589
505.34753174,-0.00007940
507.27633911,-0.00011705
509.20514648,0.00026167
511.13395386,0.00019910
513.06276123,0.00023664
514.99156860,0.00017928
516.92037598,0.00051980
518.84918335,0.00023552
520.77799072,-0.00017894
522.70679810,0.00045050
524.63560547,0.00043513
526.56441284,0.00018498
528.49322021,0.00031681
530.42202759,0.00046687
532.35083496,0.00036129
534.27964233,0.00017580
536.20844971,0.00019211
538.13725708,0.00016737
540.06606445,0.00026106
541.99487183,0.00029822
543.92367920,-0.00008005
545.85248657,0.00023725
547.78129395,0.00053293
549.71010132,-0.00023311
551.63890869,0.00002912
553.56771606,0.00028060
555.49652344,-0.00000491
557.42533081,0.00037316
559.35413818,0.00018068
561.28294556,0.00009019
563.21175293,0.00042525
565.14056030,0.00039418
567.06936768,0.00027263
568.99817505,0.00020632
570.92698242,0.00037235
572.85578979,0.00049957
574.78459717,0.00033921
576.71340454,0.00028692
578.64221191,0.00034076
580.57101929,0.00027297
582.49982666,0.00006710
584.42863403,0.00015036
586.35744141,0.00029360
588.28624878,0.00011380
590.21505615,0.00013250
592.14386353,-0.00002382
594.07267090,0.00017297
596.00147827,0.00044893
597.93028564,0.00002389
599.85909302,0.00002917
601.78790039,0.00013046
603.71670776,-0.00000562
605.64551514,0.00019662
607.57432251,0.00023174
609.50312988,-0.00021719
611.43193726,-0.00005321
613.36074463,0.00061729
615.28955200,0.00056729
617.21835938,0.00020153
619.14716675,-0.00004610
621.07597412,-0.00015448
623.00478149,0.00010094
624.93358887,0.00015829
626.86239624,0.00017234
628.79120361,0.00003394
630.72001099,-0.00013254
632.64881836,0.00002616
634.57762573,0.00010233
636.50643311,0.00027635
638.43524048,0.00018879
640.36404785,0.00014151
642.29285522,0.00015659
644.22166260,0.00023647
646.15046997,0.00047918
648.07927734,0.00026961
650.00808472,0.00029721
651.93689209,0.00026567
653.86569946,0.00023556
655.79450684,0.00045883
657.72331421,0.00040510
659.65212158,0.00020162
661.58092896,0.00019366
663.50973633,0.00030659
665.43854370,0.00023433
667.36735107,0.00036327
669.29615845,0.00049557
671.22496582,0.00019355
673.15377319,0.00016442
675.08258057,0.00039075
677.01138794,0.00044115
678.94019531,0.00070603
680.86900269,0.00047891
682.79781006,0.00017817
684.72661743,0.00031539
686.65542480,0.00023972
688.58423218,0.00043773
690.51303955,0.00036360
692.44184692,0.00046289
694.37065430,0.00065261
696.29946167,0.00029572
698.22826904,0.00042886
700.15707642,0.00028466
702.08588379,0.00010441
704.01469116,0.00053954
705.94349854,0.00044548
707.87230591,0.00026767
709.80111328,0.00044524
711.72992065,0.00026460
713.65872803,0.00020938
715.58753540,0.00006620
717.51634277,-0.00002685
719.44515015,0.00039666
721.37395752,0.00035116
723.30276489,0.00029960
725.23157227,0.00013094
727.16037964,-0.00012144
729.08918701,0.00001752
731.01799438,0.00006097
732.94680176,0.00013045
734.87560913,0.00011588
736.80441650,0.00019742
738.73322388,0.00027202
740.66203125,0.00028681
742.59083862,0.00035953
744.51964600,0.00008811
746.44845337,0.00020059
748.37726074,0.00036522
750.30606812,0.00007439
752.23487549,0.00029820
754.16368286,0.00026175
756.09249023,0.00008370
758.02129761,0.00035522
759.95010498,0.00033661
761.87891235,0.00027160
763.80771973,0.00020989
765.73652710,0.00017328
767.66533447,0.00027956
769.59414185,0.00031981
771.52294922,0.00036954
773.45175659,0.00024963
775.38056396,0.00000246
777.30937134,0.00014218
779.23817871,0.00041252
781.16698608,0.00026934
783.09579346,0.00011312
785.02460083,0.00020718
786.95340820,0.00039755
788.88221558,0.00024217
790.81102295,0.00010448
792.73983032,0.00031198
794.66863770,0.00012365
796.59744507,0.00016897
798.52625244,0.00033382
800.45505981,0.00000699
802.38386719,0.00007976
804.31267456,0.00030334
806.24148193,0.00024668
808.17028931,0.00010553
810.09909668,0.00007872
812.02790405,0.00024105
813.95671143,0.00027296
815.88551880,0.00011028
817.81432617,0.00018162
819.74313354,0.00043847
821.67194092,0.00039821
823.60074829,0.00023364
825.52955566,0.00023044
827.45836304,0.00019026
829.38717041,0.00021463
831.31597778,0.00036541
833.24478516,0.00034871
835.17359253,0.00027502
837.10239990,0.00021460
839.03120728,0.00025203
840.96001465,0.00036454
842.88882202,0.00032761
844.81762939,0.00019615
846.74643677,0.00005300
848.67524414,0.00039931
850.60405151,0.00039286
852.53285889,0.00006258
854.46166626,0.00033596
856.39047363,0.00019520
858.31928101,0.00038570
860.24808838,0.00048816
862.17689575,0.00014245
864.10570313,0.00041496
866.03451050,0.00018893
867.96331787,0.00030608
869.89212524,0.00038459
871.82093262,0.00013536
873.74973999,0.00063367
875.67854736,0.00037367
877.60735474,-0.00002720
879.53616211,0.00022706
881.46496948,0.00030129
883.39377686,-0.00000716
885.32258423,0.00009422
887.25139160,0.00042554
889.18019897,0.00014553
891.10900635,0.00027388
893.03781372,0.00028346
894.96662109,0.00024466
896.89542847,0.00038523
898.82423584,0.00022940
900.75304321,0.00057414
902.68185059,0.00041653
904.61065796,0.00020450
906.53946533,0.00027189
908.46827271,0.00009093
910.39708008,0.00040232
912.32588745,0.00034912
914.25469482,0.00026975
916.18350220,0.00044868
918.11230957,0.00042008
920.04111694,0.00060190
921.96992432,0.00057537
923.89873169,0.00048458
925.82753906,0.00048764
927.75634644,0.00028704
929.68515381,0.00033768
931.61396118,0.00046601
933.54276855,0.00023506
935.47157593,0.00026883
937.40038330,0.00044462
939.32919067,0.00047183
941.25799805,0.00054970
943.18680542,0.00051686
945.11561279,0.00051133
947.04442017,0.00044473
948.97322754,0.00061065
950.90203491,0.00068005
952.83084229,0.00052932
954.75964966,0.00063962
956.68845703,0.00053334
958.61726440,0.00052540
960.54607178,0.00045842
962.47487915,0.00059814
964.40368652,0.00091476
966.33249390,0.00064023
968.26130127,0.00050126
970.19010864,0.00053440
972.11891602,0.00068028
974.04772339,0.00070718
975.97653076,0.00075983
977.90533813,0.00095963
979.83414551,0.00084750
981.76295288,0.00094723
983.69176025,0.00096778
985.62056763,0.00097369
987.54937500,0.00109879
989.47818237,0.00127670
991.40698975,0.00149764
993.33579712,0.00126205
995.26460449,0.00141048
997.19341187,0.00188498
999.12221924,0.00189493
1001.05102661,0.00189403
1002.97983398,0.00214818
1004.90864136,0.00233186
1006.83744873,0.00249136
1008.76625610,0.00261618
1010.69506348,0.00261918
1012.62387085,0.00294198
1014.55267822,0.00300876
1016.48148560,0.00308860
1018.41029297,0.00342440
1020.33910034,0.00321241
1022.26790771,0.00331451
1024.19671509,0.00362059
1026.12552246,0.00372077
1028.05432983,0.00393333
1029.98313721,0.00402347
1031.91194458,0.00408628
1033.84075195,0.00410238
1035.76955933,0.00425231
1037.69836670,0.00436516
1039.62717407,0.00439126
1041.55598145,0.00444213
1043.48478882,0.00426976
1045.41359619,0.00426915
1047.34240356,0.00421347
1049.27121094,0.00406743
1051.20001831,0.00417298
1053.12882568,0.00411604
1055.05763306,0.00399149
1056.98644043,0.00397170
1058.91524780,0.00379823
1060.84405518,0.00358409
1062.77286255,0.00365833
1064.70166992,0.00360661
1066.63047729,0.00341204
1068.55928467,0.00335970
1070.48809204,0.00295321
1072.41689941,0.00283476
1074.34570679,0.00305985
1076.27451416,0.00283845
1078.20332153,0.00265179
1080.13212891,0.00262143
1082.06093628,0.00257372
1083.98974365,0.00236071
1085.91855103,0.00223344
1087.84735840,0.00224527
1089.77616577,0.00203746
1091.70497314,0.00212144
1093.63378052,0.00212336
1095.56258789,0.00177153
1097.49139526,0.00178830
1099.42020264,0.00202325
1101.34901001,0.00199142
1103.27781738,0.00181339
1105.20662476,0.00171490
1107.13543213,0.00166529
1109.06423950,0.00174415
1110.99304687,0.00172392
1112.92185425,0.00163726
1114.85066162,0.00164221
1116.77946899,0.00159843
1118.70827637,0.00173597
1120.63708374,0.00183667
1122.56589111,0.00168834
1124.49469849,0.00155162
1126.42350586,0.00162809
1128.35231323,0.00180956
1130.28112061,0.00191252
1132.20992798,0.00188577
1134.13873535,0.00186028
1136.06754272,0.00205291
1137.99635010,0.00206288
1139.92515747,0.00206188
1141.85396484,0.00219831
1143.78277222,0.00225038
1145.71157959,0.00254650
1147.64038696,0.00281090
1149.56919434,0.00281917
1151.49800171,0.00291512
1153.42680908,0.00313498
1155.35561646,0.00297704
1157.28442383,0.00309954
1159.21323120,0.00364077
1161.14203857,0.00361080
1163.07084595,0.00369552
1164.99965332,0.00379182
1166.92846069,0.00382901
1168.85726807,0.00404940
1170.78607544,0.00401394
1172.71488281,0.00418483
1174.64369019,0.00449610
1176.57249756,0.00468817
1178.50130493,0.00475564
1180.43011230,0.00505759
1182.35891968,0.00516239
1184.28772705,0.00502703
1186.21653442,0.00556755
1188.14534180,0.00590069
1190.07414917,0.00606806
1192.00295654,0.00635427
1193.93176392,0.00653487
1195.86057129,0.00695009
1197.78937866,0.00715580
1199.71818604,0.00734194
1201.64699341,0.00781416
1203.57580078,0.00815655
1205.50460815,0.00839609
1207.43341553,0.00894777
1209.36222290,0.00932307
1211.29103027,0.00939468
1213.21983765,0.00965188
1215.14864502,0.00980970
1217.07745239,0.01009497
1219.00625977,0.01045541
1220.93506714,0.01064121
1222.86387451,0.01065561
1224.79268188,0.01058416
1226.72148926,0.01074964
1228.65029663,0.01082932
1230.57910400,0.01094506
1232.50791138,0.01106566
1234.43671875,0.01087767
1236.36552612,0.01081484
1238.29433350,0.01092559
1240.22314087,0.01094121
1242.15194824,0.01085000
1244.08075562,0.01069186
1246.00956299,0.01071751
1247.93837036,0.01096110
1249.86717773,0.01085474
1251.79598511,0.01063596
1253.72479248,0.01060897
1255.65359985,0.01046081
1257.58240723,0.01032515
1259.51121460,0.01007762
1261.44002197,0.01001133
1263.36882935,0.01008534
1265.29763672,0.00965437
1267.22644409,0.00944148
1269.15525146,0.00956650
1271.08405884,0.00952137
1273.01286621,0.00937601
1274.94167358,0.00915270
1276.87048096,0.00912868
1278.79928833,0.00886045
1280.72809570,0.00854709
1282.65690308,0.00859430
1284.58571045,0.00839797
1286.51451782,0.00821435
1288.44332520,0.00793730
1290.37213257,0.00791544
1292.30093994,0.00812792
1294.22974731,0.00786061
1296.15855469,0.00776219
1298.08736206,0.00782342
1300.01616943,0.00797925
1301.94497681,0.00791524
1303.87378418,0.00799390
1305.80259155,0.00842871
1307.73139893,0.00820184
1309.66020630,0.00829326
1311.58901367,0.00856033
1313.51782104,0.00861017
1315.44662842,0.00892080
1317.37543579,0.00893696
1319.30424316,0.00927135
1321.23305054,0.00986465
1323.16185791,0.00992899
1325.09066528,0.01002400
1327.01947266,0.01034195
1328.94828003,0.01050455
1330.87708740,0.01098263
1332.80589478,0.01124356
1334.73470215,0.01116786
1336.66350952,0.01153532
1338.59231689,0.01139641
1340.52112427,0.01150104
1342.44993164,0.01215758
1344.37873901,0.01214007
1346.30754639,0.01200107
1348.23635376,0.01207598
1350.16516113,0.01220724
1352.09396851,0.01216359
1354.02277588,0.01198893
1355.95158325,0.01168151
1357.88039062,0.01156615
1359.80919800,0.01153781
1361.73800537,0.01096327
1363.66681274,0.01109470
1365.59562012,0.01156133
1367.52442749,0.01122030
1369.45323486,0.01115974
1371.38204224,0.01121798
1373.31084961,0.01077991
1375.23965698,0.01073471
1377.16846436,0.01111628
1379.09727173,0.01119320
1381.02607910,0.01112186
1382.95488647,0.01112392
1384.88369385,0.01095662
1386.81250122,0.01062215
1388.74130859,0.01081221
1390.67011597,0.01158996
1392.59892334,0.01142528
1394.52773071,0.01059906
1396.45653809,0.01110277
1398.38534546,0.01136084
1400.31415283,0.01118036
1402.24296021,0.01183943
1404.17176758,0.01140352
1406.10057495,0.01135753
1408.02938232,0.01180656
1409.95818970,0.01161786
1411.88699707,0.01161075
1413.81580444,0.01119103
1415.74461182,0.01147390
1417.67341919,0.01021658
1419.60222656,0.00925114
1421.53103394,0.01093999
1423.45984131,0.01050369
1425.38864868,0.00993588
1427.31745605,0.01020944
1429.24626343,0.00942509
1431.17507080,0.00912819
1433.10387817,0.00949712
1435.03268555,0.00865644
1436.96149292,0.00731872
1438.89030029,0.00841112
1440.81910767,0.00864157
1442.74791504,0.00801606
1444.67672241,0.00842177
1446.60552979,0.00763314
1448.53433716,0.00770593
1450.46314453,0.00813641
1452.39195190,0.00815550
1454.32075928,0.00846298
1456.24956665,0.00720597
1458.17837402,0.00731775
1460.10718140,0.00956554
1462.03598877,0.01014000
1463.96479614,0.01015649
1465.89360352,0.01060604
1467.82241089,0.01198590
1469.75121826,0.01296352
1471.68002563,0.01137571
1473.60883301,0.01206147
1475.53764038,0.01379961
1477.46644775,0.01455014
1479.39525513,0.01608034
1481.32406250,0.01629309
1483.25286987,0.01719043
1485.18167725,0.01776971
1487.11048462,0.01747090
1489.03929199,0.01728225
1490.96809937,0.01739796
1492.89690674,0.02010524
1494.82571411,0.01960090
1496.75452148,0.01774995
1498.68332886,0.01974950
1500.61213623,0.02062859
1502.54094360,0.02212213
1504.46975098,0.02063881
1506.39855835,0.01527314
1508.32736572,0.01831627
1510.25617310,0.02166260
1512.18498047,0.02098710
1514.11378784,0.02242186
1516.04259521,0.02043121
1517.97140259,0.02121194
1519.90020996,0.02046487
1521.82901733,0.01771657
1523.75782471,0.02174054
1525.68663208,0.02123122
1527.61543945,0.02094695
1529.54424683,0.02341096
1531.47305420,0.02239660
1533.40186157,0.02051592
1535.33066895,0.02172641
1537.25947632,0.02315741
1539.18828369,0.01668670
1541.11709106,0.01736601
1543.04589844,0.02061647
1544.97470581,0.01955340
1546.90351318,0.02333845
1548.83232056,0.02170846
1550.76112793,0.02210499
1552.68993530,0.02198691
1554.61874268,0.01987669
1556.54755005,0.02136600
1558.47635742,0.01502131
1560.40516479,0.01603557
1562.33397217,0.02265088
1564.26277954,0.02133214
1566.19158691,0.02207507
1568.12039429,0.02161720
1570.04920166,0.01899613
1571.97800903,0.02183802
1573.90681641,0.02202692
1575.83562378,0.01729335
1577.76443115,0.01948879
1579.69323853,0.02221479
1581.62204590,0.02081901
1583.55085327,0.02100746
1585.47966064,0.02049651
1587.40846802,0.02052073
1589.33727539,0.02024521
1591.26608276,0.01987671
1593.19489014,0.01993380
1595.12369751,0.01922195
1597.05250488,0.01925240
1598.98131226,0.01919308
1600.91011963,0.01896018
1602.83892700,0.01847432
1604.76773437,0.01839247
1606.69654175,0.01806356
1608.62534912,0.01786103
1610.55415649,0.01751400
1612.48296387,0.01754228
1614.41177124,0.01740410
1616.34057861,0.01423888
1618.26938599,0.01537630
1620.19819336,0.01756411
1622.12700073,0.01553509
1624.05580811,0.01550752
1625.98461548,0.01609829
1627.91342285,0.01598778
1629.84223022,0.01607712
1631.77103760,0.01716819
1633.69984497,0.01598465
1635.62865234,0.01341343
1637.55745972,0.01545208
1639.48626709,0.01711061
1641.41507446,0.01677896
1643.34388184,0.01744829
1645.27268921,0.01596467
1647.20149658,0.01421979
1649.13030396,0.01800296
1651.05911133,0.01721913
1652.98791870,0.01138929
1654.91672607,0.01539709
1656.84553345,0.01955790
1658.77434082,0.01905276
1660.70314819,0.01967751
1662.63195557,0.01831751
1664.56076294,0.01941338
1666.48957031,0.02111041
1668.41837769,0.01885262
1670.34718506,0.01864468
1672.27599243,0.02131587
1674.20479980,0.01982466
1676.13360718,0.01941349
1678.06241455,0.02258638
1679.99122192,0.02212087
1681.92002930,0.02200158
1683.84883667,0.01814276
1685.77764404,0.01837214
1687.70645142,0.02528182
1689.63525879,0.02237724
1691.56406616,0.02471355
1693.49287354,0.02549061
1695.42168091,0.01908780
1697.35048828,0.02362370
1699.27929565,0.02105584
1701.20810303,0.01927926
1703.13691040,0.02637360
1705.06571777,0.02440784
1706.99452515,0.02487571
1708.92333252,0.02715415
1710.85213989,0.02640418
1712.78094727,0.02727419
1714.70975464,0.02555893
1716.63856201,0.02311917
1718.56736938,0.02286295
1720.49617676,0.02733302
1722.42498413,0.02849328
1724.35379150,0.02667098
1726.28259888,0.02918699
1728.21140625,0.02714067
1730.14021362,0.02767523
1732.06902100,0.02709350
1733.99782837,0.02099715
1735.92663574,0.02615259
1737.85544312,0.02876064
1739.78425049,0.02575418
1741.71305786,0.02826064
1743.64186523,0.02880383
1745.57067261,0.02891994
1747.49947998,0.02911798
1749.42828735,0.02794225
1751.35709473,0.02693672
1753.28590210,0.02986115
1755.21470947,0.03137633
1757.14351685,0.02885401
1759.07232422,0.03178738
1761.00113159,0.02987568
1762.92993896,0.02893501
1764.85874634,0.03330005
1766.78755371,0.02994655
1768.71636108,0.03028196
1770.64516846,0.03032267
1772.57397583,0.02731278
1774.50278320,0.03050739
1776.43159058,0.03223838
1778.36039795,0.03188995
1780.28920532,0.03163391
1782.21801270,0.03173631
1784.14682007,0.03179595
1786.07562744,0.03131488
1788.00443481,0.03279187
1789.93324219,0.03211291
1791.86204956,0.02913171
1793.79085693,0.03040406
1795.71966431,0.03274871
1797.64847168,0.03228410
1799.57727905,0.03180784
1801.50608643,0.03135699
1803.43489380,0.03249007
1805.36370117,0.03313664
1807.29250854,0.03280425
1809.22131592,0.03297626
1811.15012329,0.03204114
1813.07893066,0.03331235
1815.00773804,0.03328565
1816.93654541,0.03278453
1818.86535278,0.03335761
1820.79416016,0.03332929
1822.72296753,0.03371830
1824.65177490,0.03140123
1826.58058228,0.03266959
1828.50938965,0.03269072
1830.43819702,0.03066558
1832.36700439,0.03360462
1834.29581177,0.03337461
1836.22461914,0.03321259
1838.15342651,0.03320538
1840.08223389,0.03339546
1842.01104126,0.03323156
1843.93984863,0.02976092
1845.86865601,0.03172498
1847.79746338,0.03331231
1849.72627075,0.03291531
1851.65507812,0.03382343
1853.58388550,0.03300608
1855.51269287,0.03346457
1857.44150024,0.03331213
1859.37030762,0.03304705
1861.29911499,0.03337092
1863.22792236,0.03309463
1865.15672974,0.03334319
1867.08553711,0.03230447
1869.01434448,0.03098411
1870.94315186,0.03210546
1872.87195923,0.03332562
1874.80076660,0.03283866
1876.72957397,0.03307511
1878.65838135,0.03290685
1880.58718872,0.03273768
1882.51599609,0.03303291
1884.44480347,0.03252341
1886.37361084,0.03311945
1888.30241821,0.03228584
1890.23122559,0.03165392
1892.16003296,0.03292690
1894.08884033,0.03240075
1896.01764771,0.03223464
1897.94645508,0.03255733
1899.87526245,0.03254486
1901.80406982,0.03260329
1903.73287720,0.03229379
1905.66168457,0.03262063
1907.59049194,0.03218357
1909.51929932,0.03208584
1911.44810669,0.03229520
1913.37691406,0.03211505
1915.30572144,0.03260449
1917.23452881,0.03107885
1919.16333618,0.03116136
1921.09214355,0.03241819
1923.02095093,0.03126324
1924.94975830,0.03194007
1926.87856567,0.03205671
1928.80737305,0.03170879
1930.73618042,0.03221456
1932.66498779,0.03189390
1934.59379517,0.03227989
1936.52260254,0.03181469
1938.45140991,0.03194629
1940.38021729,0.03200050
1942.30902466,0.03102378
1944.23783203,0.03147808
1946.16663940,0.03168342
1948.09544678,0.03169077
1950.02425415,0.03171498
1951.95306152,0.03172062
1953.88186890,0.03173909
1955.81067627,0.03152978
1957.73948364,0.03170168
1959.66829102,0.03161560
1961.59709839,0.03147877
1963.52590576,0.03154033
1965.45471313,0.03151035
1967.38352051,0.03120310
1969.31232788,0.03133566
1971.24113525,0.03135920
1973.16994263,0.03121961
1975.09875000,0.03150130
1977.02755737,0.03112576
1978.95636475,0.03128061
1980.88517212,0.03133365
1982.81397949,0.03107553
1984.74278687,0.03114640
1986.67159424,0.03081007
1988.60040161,0.03094035
1990.52920898,0.03053715
1992.45801636,0.03022706
1994.38682373,0.03071689
1996.31563110,0.03073234
1998.24443848,0.03056246
2000.17324585,0.03060467
2002.10205322,0.03072548
2004.03086060,0.03048625
2005.95966797,0.03042150
2007.88847534,0.03032989
2009.81728271,0.03018801
2011.74609009,0.03028391
2013.67489746,0.03012829
2015.60370483,0.02996442
2017.53251221,0.02984768
2019.46131958,0.02993367
2021.39012695,0.02987979
2023.31893433,0.02983332
2025.24774170,0.02979989
2027.17654907,0.02955537
2029.10535645,0.02952805
2031.03416382,0.02939655
2032.96297119,0.02940791
2034.89177856,0.02935714
2036.82058594,0.02920767
2038.74939331,0.02919520
2040.67820068,0.02906337
2042.60700806,0.02899604
2044.53581543,0.02893748
2046.46462280,0.02894343
2048.39343018,0.02884207
2050.32223755,0.02873045
2052.25104492,0.02867746
2054.17985229,0.02865084
2056.10865967,0.02863850
2058.03746704,0.02850572
2059.96627441,0.02853433
2061.89508179,0.02847148
2063.82388916,0.02827916
2065.75269653,0.02812202
2067.68150391,0.02818103
2069.61031128,0.02820944
2071.53911865,0.02807758
2073.46792603,0.02816261
2075.39673340,0.02802162
2077.32554077,0.02790442
2079.25434814,0.02793067
2081.18315552,0.02797341
2083.11196289,0.02795023
2085.04077026,0.02773166
2086.96957764,0.02785063
2088.89838501,0.02781050
2090.82719238,0.02764166
2092.75599976,0.02770713
2094.68480713,0.02762222
2096.61361450,0.02761402
2098.54242187,0.02762868
2100.47122925,0.02747026
2102.40003662,0.02733069
2104.32884399,0.02731545
2106.25765137,0.02735184
2108.18645874,0.02732582
2110.11526611,0.02720548
2112.04407349,0.02717527
2113.97288086,0.02724538
2115.90168823,0.02724471
2117.83049561,0.02722633
2119.75930298,0.02714574
2121.68811035,0.02710037
2123.61691772,0.02715181
2125.54572510,0.02709871
2127.47453247,0.02708578
2129.40333984,0.02715104
2131.33214722,0.02700650
2133.26095459,0.02702634
2135.18976196,0.02714530
2137.11856934,0.02693027
2139.04737671,0.02693535
2140.97618408,0.02701512
2142.90499146,0.02694628
2144.83379883,0.02694553
2146.76260620,0.02685539
2148.69141357,0.02684714
2150.62022095,0.02688075
2152.54902832,0.02686890
2154.47783569,0.02683942
2156.40664307,0.02683308
2158.33545044,0.02689690
2160.26425781,0.02692130
2162.19306519,0.02695698
2164.12187256,0.02697662
2166.05067993,0.02694244
2167.97948730,0.02686884
2169.90829468,0.02676344
2171.83710205,0.02678987
2173.76590942,0.02690572
2175.69471680,0.02683447
2177.62352417,0.02683932
2179.55233154,0.02689515
2181.48113892,0.02678837
2183.40994629,0.02682400
2185.33875366,0.02690079
2187.26756104,0.02693329
2189.19636841,0.02679237
2191.12517578,0.02681786
2193.05398315,0.02696035
2194.98279053,0.02679118
2196.91159790,0.02679338
2198.84040527,0.02670536
2200.76921265,0.02676582
2202.69802002,0.02684212
2204.62682739,0.02670397
2206.55563477,0.02690849
2208.48444214,0.02676886
2210.41324951,0.02673208
2212.34205688,0.02700062
2214.27086426,0.02693082
2216.19967163,0.02680857
2218.12847900,0.02679643
2220.05728638,0.02687583
2221.98609375,0.02675148
2223.91490112,0.02678142
2225.84370850,0.02697299
2227.77251587,0.02686326
2229.70132324,0.02684691
2231.63013062,0.02696119
2233.55893799,0.02684999
2235.48774536,0.02677281
2237.41655273,0.02685244
2239.34536011,0.02679457
2241.27416748,0.02684470
2243.20297485,0.02677099
2245.13178223,0.02669757
2247.06058960,0.02680848
2248.98939697,0.02670149
2250.91820435,0.02685256
2252.84701172,0.02690948
2254.77581909,0.02678593
2256.70462646,0.02681899
2258.63343384,0.02666104
2260.56224121,0.02651766
2262.49104858,0.02653811
2264.41985596,0.02671988
2266.34866333,0.02677223
2268.27747070,0.02674107
2270.20627808,0.02670726
2272.13508545,0.02659659
2274.06389282,0.02666958
2275.99270020,0.02661000
2277.92150757,0.02660903
2279.85031494,0.02678119
2281.77912231,0.02673440
2283.70792969,0.02674669
2285.63673706,0.02683546
2287.56554443,0.02675323
2289.49435181,0.02665270
2291.42315918,0.02659825
2293.35196655,0.02650641
2295.28077393,0.02645695
2297.20958130,0.02639834
2299.13838867,0.02634700
2301.06719604,0.02629564
2302.99600342,0.02618301
2304.92481079,0.02618995
2306.85361816,0.02606424
2308.78242554,0.02574723
2310.71123291,0.02559322
2312.64004028,0.02543107
2314.56884766,0.02527290
2316.49765503,0.02506582
2318.42646240,0.02465033
2320.35526978,0.02441151
2322.28407715,0.02411715
2324.21288452,0.02380363
2326.14169189,0.02366045
2328.07049927,0.02329383
2329.99930664,0.02304739
2331.92811401,0.02294332
2333.85692139,0.02283364
2335.78572876,0.02277128
2337.71453613,0.02273422
2339.64334351,0.02267798
2341.57215088,0.02269313
2343.50095825,0.02315431
2345.42976562,0.02361765
2347.35857300,0.02456777
2349.28738037,0.02544069
2351.21618774,0.02459018
2353.14499512,0.02332248
2355.07380249,0.02254254
2357.00260986,0.02195645
2358.93141724,0.02154549
2360.86022461,0.02128703
2362.78903198,0.02124540
2364.71783936,0.02142909
2366.64664673,0.02178830
2368.57545410,0.02205171
2370.50426147,0.02262883
2372.43306885,0.02334892
2374.36187622,0.02400549
2376.29068359,0.02465288
2378.21949097,0.02498927
2380.14829834,0.02554937
2382.07710571,0.02600756
2384.00591309,0.02607217
2385.93472046,0.02619517
2387.86352783,0.02626252
2389.79233521,0.02618089
2391.72114258,0.02623807
2393.64994995,0.02636113
2395.57875732,0.02619619
2397.50756470,0.02619189
2399.43637207,0.02621633
2401.36517944,0.02620082
2403.29398682,0.02630061
2405.22279419,0.02613247
2407.15160156,0.02606295
2409.08040894,0.02604491
2411.00921631,0.02593157
2412.93802368,0.02595527
2414.86683105,0.02602118
2416.79563843,0.02600437
2418.72444580,0.02601360
2420.65325317,0.02608316
2422.58206055,0.02600853
2424.51086792,0.02594802
2426.43967529,0.02594657
2428.36848267,0.02598811
2430.29729004,0.02594636
2432.22609741,0.02588897
2434.15490479,0.02591487
2436.08371216,0.02585946
2438.01251953,0.02589754
2439.94132690,0.02582314
2441.87013428,0.02582491
2443.79894165,0.02581366
2445.72774902,0.02567111
2447.65655640,0.02580497
2449.58536377,0.02572107
2451.51417114,0.02575472
2453.44297852,0.02593371
2455.37178589,0.02565332
2457.30059326,0.02561939
2459.22940063,0.02579835
2461.15820801,0.02562783
2463.08701538,0.02556368
2465.01582275,0.02564317
2466.94463013,0.02560502
2468.87343750,0.02562038
2470.80224487,0.02554019
2472.73105225,0.02554133
2474.65985962,0.02559537
2476.58866699,0.02551298
2478.51747437,0.02553475
2480.44628174,0.02550582
2482.37508911,0.02550958
2484.30389648,0.02550006
2486.23270386,0.02539540
2488.16151123,0.02532510
2490.09031860,0.02529484
2492.01912598,0.02532643
2493.94793335,0.02533389
2495.87674072,0.02539241
2497.80554810,0.02535125
2499.73435547,0.02523018
2501.66316284,0.02515568
2503.59197021,0.02518127
2505.52077759,0.02522348
2507.44958496,0.02515209
2509.37839233,0.02518115
2511.30719971,0.02511368
2513.23600708,0.02507540
2515.16481445,0.02506661
2517.09362183,0.02508332
2519.02242920,0.02524244
2520.95123657,0.02515483
2522.88004395,0.02512398
2524.80885132,0.02506725
2526.73765869,0.02496407
2528.66646606,0.02503503
2530.59527344,0.02498061
2532.52408081,0.02491086
2534.45288818,0.02482002
2536.38169556,0.02478308
2538.31050293,0.02487147
2540.23931030,0.02484136
2542.16811768,0.02470566
2544.09692505,0.02475056
2546.02573242,0.02479351
2547.95453979,0.02474687
2549.88334717,0.02483025
2551.81215454,0.02465711
2553.74096191,0.02455210
2555.66976929,0.02474103
2557.59857666,0.02470376
2559.52738403,0.02454389
2561.45619141,0.02452695
2563.38499878,0.02455268
2565.31380615,0.02449736
2567.24261353,0.02458410
2569.17142090,0.02452787
2571.10022827,0.02437307
2573.02903564,0.02445814
2574.95784302,0.02437553
2576.88665039,0.02433748
2578.81545776,0.02435376
2580.74426514,0.02424049
2582.67307251,0.02432301
2584.60187988,0.02429336
2586.53068726,0.02411188
2588.45949463,0.02415193
2590.38830200,0.02421439
2592.31710937,0.02422341
2594.24591675,0.02415470
2596.17472412,0.02407222
2598.10353149,0.02412483
2600.03233887,0.02403139
2601.96114624,0.02396649
2603.88995361,0.02397875
2605.81876099,0.02396340
2607.74756836,0.02393092
2609.67637573,0.02384558
2611.60518311,0.02393423
2613.53399048,0.02383447
2615.46279785,0.02382844
2617.39160522,0.02393075
2619.32041260,0.02371682
2621.24921997,0.02370500
2623.17802734,0.02371669
2625.10683472,0.02368689
2627.03564209,0.02362886
2628.96444946,0.02362138
2630.89325684,0.02365142
2632.82206421,0.02349544
2634.75087158,0.02354826
2636.67967895,0.02347522
2638.60848633,0.02345894
2640.53729370,0.02347154
2642.46610107,0.02326510
2644.39490845,0.02340962
2646.32371582,0.02338717
2648.25252319,0.02327233
2650.18133057,0.02330159
2652.11013794,0.02314555
2654.03894531,0.02318394
2655.96775269,0.02326648
2657.89656006,0.02311334
2659.82536743,0.02311398
2661.75417480,0.02322461
2663.68298218,0.02305975
2665.61178955,0.02295921
2667.54059692,0.02302943
2669.46940430,0.02299645
2671.39821167,0.02296455
2673.32701904,0.02290405
2675.25582642,0.02280495
2677.18463379,0.02271618
2679.11344116,0.02272403
2681.04224854,0.02276470
2682.97105591,0.02268935
2684.89986328,0.02270767
2686.82867065,0.02272591
2688.75747803,0.02261180
2690.68628540,0.02258854
2692.61509277,0.02249475
2694.54390015,0.02241202
2696.47270752,0.02241638
2698.40151489,0.02224968
2700.33032227,0.02235653
2702.25912964,0.02239484
2704.18793701,0.02215621
2706.11674438,0.02230678
2708.04555176,0.02226768
2709.97435913,0.02203871
2711.90316650,0.02209333
2713.83197388,0.02210086
2715.76078125,0.02196535
2717.68958862,0.02192338
2719.61839600,0.02202082
2721.54720337,0.02189950
2723.47601074,0.02182682
2725.40481812,0.02186274
2727.33362549,0.02181056
2729.26243286,0.02181258
2731.19124023,0.02168640
2733.12004761,0.02163399
2735.04885498,0.02158975
2736.97766235,0.02151116
2738.90646973,0.02148825
2740.83527710,0.02136132
2742.76408447,0.02141312
2744.69289185,0.02145069
2746.62169922,0.02131369
2748.55050659,0.02121675
2750.47931396,0.02120212
2752.40812134,0.02122251
2754.33692871,0.02125349
2756.26573608,0.02120384
2758.19454346,0.02100980
2760.12335083,0.02106744
2762.05215820,0.02097714
2763.98096558,0.02077170
2765.90977295,0.02087846
2767.83858032,0.02071289
2769.76738770,0.02067529
2771.69619507,0.02077450
2773.62500244,0.02071171
2775.55380981,0.02063738
2777.48261719,0.02044541
2779.41142456,0.02046701
2781.34023193,0.02038356
2783.26903931,0.02038790
2785.19784668,0.02041790
2787.12665405,0.02015013
2789.05546143,0.02018922
2790.98426880,0.02009985
2792.91307617,0.02006134
2794.84188354,0.02009206
2796.77069092,0.01993664
2798.69949829,0.01997441
2800.62830566,0.01981166
2802.55711304,0.01972310
2804.48592041,0.01969694
2806.41472778,0.01965461
2808.34353516,0.01963949
2810.27234253,0.01948659
2812.20114990,0.01958590
2814.12995728,0.01949016
2816.05876465,0.01931529
2817.98757202,0.01923454
2819.91637939,0.01912354
2821.84518677,0.01925267
2823.77399414,0.01915386
2825.70280151,0.01899994
2827.63160889,0.01896528
2829.56041626,0.01885824
2831.48922363,0.01878869
2833.41803101,0.01874065
2835.34683838,0.01871262
2837.27564575,0.01862873
2839.20445312,0.01858537
2841.13326050,0.01843530
2843.06206787,0.01827437
2844.99087524,0.01826239
2846.91968262,0.01814457
2848.84848999,0.01805694
2850.77729736,0.01801708
2852.70610474,0.01797523
2854.63491211,0.01783397
2856.56371948,0.01771280
2858.49252686,0.01780015
2860.42133423,0.01767040
2862.35014160,0.01753703
2864.27894897,0.01761977
2866.20775635,0.01752120
2868.13656372,0.01739811
2870.06537109,0.01740423
2871.99417847,0.01734926
2873.92298584,0.01721211
2875.85179321,0.01716922
2877.78060059,0.01716455
2879.70940796,0.01702302
2881.63821533,0.01693555
2883.56702270,0.01691449
2885.49583008,0.01684519
2887.42463745,0.01680522
2889.35344482,0.01676647
2891.28225220,0.01660582
2893.21105957,0.01643877
2895.13986694,0.01643946
2897.06867432,0.01632909
2898.99748169,0.01624535
2900.92628906,0.01628474
2902.85509644,0.01609747
2904.78390381,0.01598974
2906.71271118,0.01593778
2908.64151855,0.01575157
2910.57032593,0.01570445
2912.49913330,0.01569253
2914.42794067,0.01549813
2916.35674805,0.01533566
2918.28555542,0.01534723
2920.21436279,0.01525732
2922.14317017,0.01516406
2924.07197754,0.01515173
2926.00078491,0.01503855
2927.92959229,0.01492046
2929.85839966,0.01488855
2931.78720703,0.01490797
2933.71601440,0.01486746
2935.64482178,0.01476646
2937.57362915,0.01463960
2939.50243652,0.01457505
2941.43124390,0.01457920
2943.36005127,0.01450299
2945.28885864,0.01427358
2947.21766602,0.01416206
2949.14647339,0.01428999
2951.07528076,0.01418765
2953.00408813,0.01407602
2954.93289551,0.01400180
2956.86170288,0.01378203
2958.79051025,0.01374534
2960.71931763,0.01368833
2962.64812500,0.01360345
2964.57693237,0.01354932
2966.50573975,0.01353309
2968.43454712,0.01348169
2970.36335449,0.01337796
2972.29216187,0.01339059
2974.22096924,0.01331677
2976.14977661,0.01324591
2978.07858398,0.01309237
2980.00739136,0.01299032
2981.93619873,0.01296157
2983.86500610,0.01290005
2985.79381348,0.01296552
2987.72262085,0.01280002
2989.65142822,0.01272435
2991.58023560,0.01264140
2993.50904297,0.01243005
2995.43785034,0.01246202
2997.36665771,0.01240830
2999.29546509,0.01230844
3001.22427246,0.01215918
3003.15307983,0.01211740
3005.08188721,0.01211497
3007.01069458,0.01192354
3008.93950195,0.01183322
3010.86830933,0.01176516
3012.79711670,0.01172688
3014.72592407,0.01169675
3016.65473145,0.01163887
3018.58353882,0.01147365
3020.51234619,0.01129165
3022.44115356,0.01129059
3024.36996094,0.01113105
3026.29876831,0.01102300
3028.22757568,0.01104264
3030.15638306,0.01091325
3032.08519043,0.01090095
3034.01399780,0.01084425
3035.94280518,0.01066789
3037.87161255,0.01057289
3039.80041992,0.01041825
3041.72922729,0.01038229
3043.65803467,0.01036101
3045.58684204,0.01030100
3047.51564941,0.01026251
3049.44445679,0.00995926
3051.37326416,0.00991625
3053.30207153,0.01002839
3055.23087891,0.00989456
3057.15968628,0.00983255
3059.08849365,0.00970897
3061.01730103,0.00957615
3062.94610840,0.00949945
3064.87491577,0.00944756
3066.80372314,0.00935721
3068.73253052,0.00929753
3070.66133789,0.00926698
3072.59014526,0.00907216
3074.51895264,0.00909251
3076.44776001,0.00908387
3078.37656738,0.00886105
3080.30537476,0.00882723
3082.23418213,0.00881214
3084.16298950,0.00869468
3086.09179687,0.00866432
3088.02060425,0.00859786
3089.94941162,0.00840366
3091.87821899,0.00840937
3093.80702637,0.00841046
3095.73583374,0.00835418
3097.66464111,0.00835425
3099.59344849,0.00819578
3101.52225586,0.00811734
3103.45106323,0.00807929
3105.37987061,0.00794194
3107.30867798,0.00783273
3109.23748535,0.00781158
3111.16629272,0.00778277
3113.09510010,0.00772641
3115.02390747,0.00766527
3116.95271484,0.00758846
3118.88152222,0.00758813
3120.81032959,0.00752430
3122.73913696,0.00745891
3124.66794434,0.00733271
3126.59675171,0.00729297
3128.52555908,0.00735429
3130.45436645,0.00720990
3132.38317383,0.00716559
3134.31198120,0.00710381
3136.24078857,0.00709508
3138.16959595,0.00704956
3140.09840332,0.00684940
3142.02721069,0.00683316
3143.95601807,0.00682680
3145.88482544,0.00691736
3147.81363281,0.00685749
3149.74244019,0.00673140
3151.67124756,0.00672611
3153.60005493,0.00659644
3155.52886230,0.00664075
3157.45766968,0.00660021
3159.38647705,0.00644798
3161.31528442,0.00642316
3163.24409180,0.00638708
3165.17289917,0.00642184
3167.10170654,0.00636219
3169.03051392,0.00633271
3170.95932129,0.00646344
3172.88812866,0.00632723
3174.81693604,0.00620880
3176.74574341,0.00623012
3178.67455078,0.00614558
3180.60335815,0.00625046
3182.53216553,0.00623581
3184.46097290,0.00614623
3186.38978027,0.00612394
3188.31858765,0.00607940
3190.24739502,0.00615667
3192.17620239,0.00601963
3194.10500977,0.00602262
3196.03381714,0.00602835
3197.96262451,0.00594981
3199.89143188,0.00611374
3201.82023926,0.00603977
3203.74904663,0.00598974
3205.67785400,0.00600921
3207.60666138,0.00594598
3209.53546875,0.00592333
3211.46427612,0.00600730
3213.39308350,0.00602553
3215.32189087,0.00584239
3217.25069824,0.00600356
3219.17950562,0.00606642
3221.10831299,0.00583147
3223.03712036,0.00588517
3224.96592773,0.00600461
3226.89473511,0.00596718
3228.82354248,0.00594139
3230.75234985,0.00594835
3232.68115723,0.00592661
3234.60996460,0.00595721
3236.53877197,0.00592445
3238.46757935,0.00597631
3240.39638672,0.00604749
3242.32519409,0.00598738
3244.25400146,0.00600750
3246.18280884,0.00600620
3248.11161621,0.00607217
3250.04042358,0.00610126
3251.96923096,0.00607780
3253.89803833,0.00612700
3255.82684570,0.00610003
3257.75565308,0.00606738
3259.68446045,0.00606702
3261.61326782,0.00606460
3263.54207520,0.00607636
3265.47088257,0.00612020
3267.39968994,0.00614219
3269.32849731,0.00620723
3271.25730469,0.00621297
3273.18611206,0.00621750
3275.11491943,0.00614946
3277.04372681,0.00603190
3278.97253418,0.00626755
3280.90134155,0.00627851
3282.83014893,0.00623558
3284.75895630,0.00626016
3286.68776367,0.00611709
3288.61657104,0.00632284
3290.54537842,0.00631009
3292.47418579,0.00614469
3294.40299316,0.00622228
3296.33180054,0.00622009
3298.26060791,0.00621650
3300.18941528,0.00630326
3302.11822266,0.00639922
3304.04703003,0.00634301
3305.97583740,0.00632696
3307.90464478,0.00640845
3309.83345215,0.00637843
3311.76225952,0.00635618
3313.69106689,0.00643838
3315.61987427,0.00635072
3317.54868164,0.00636512
3319.47748901,0.00648243
3321.40629639,0.00635819
3323.33510376,0.00648527
3325.26391113,0.00650938
3327.19271851,0.00648251
3329.12152588,0.00655195
3331.05033325,0.00639654
3332.97914062,0.00648746
3334.90794800,0.00647455
3336.83675537,0.00643087
3338.76556274,0.00654627
3340.69437012,0.00648841
3342.62317749,0.00645257
3344.55198486,0.00656363
3346.48079224,0.00663613
3348.40959961,0.00659431
3350.33840698,0.00666095
3352.26721436,0.00658296
3354.19602173,0.00663121
3356.12482910,0.00675736
3358.05363647,0.00664499
3359.98244385,0.00676705
3361.91125122,0.00678767
3363.84005859,0.00671082
3365.76886597,0.00678077
3367.69767334,0.00677176
3369.62648071,0.00675306
3371.55528809,0.00686160
3373.48409546,0.00694524
3375.41290283,0.00695127
3377.34171020,0.00690419
3379.27051758,0.00683634
3381.19932495,0.00704276
3383.12813232,0.00703860
3385.05693970,0.00698042
3386.98574707,0.00710004
3388.91455444,0.00703804
3390.84336182,0.00709659
3392.77216919,0.00708343
3394.70097656,0.00715813
3396.62978394,0.00722331
3398.55859131,0.00717734
3400.48739868,0.00728238
3402.41620605,0.00729833
3404.34501343,0.00732457
3406.27382080,0.00725139
3408.20262817,0.00732871
3410.13143555,0.00744887
3412.06024292,0.00736870
3413.98905029,0.00745484
3415.91785767,0.00755492
3417.84666504,0.00755720
3419.77547241,0.00744977
3421.70427979,0.00747636
3423.63308716,0.00764102
3425.56189453,0.00768536
3427.49070190,0.00770509
3429.41950928,0.00768056
3431.34831665,0.00771625
3433.27712402,0.00786130
3435.20593140,0.00785072
3437.13473877,0.00781684
3439.06354614,0.00787624
3440.99235352,0.00783170
3442.92116089,0.00790969
3444.84996826,0.00796269
3446.77877563,0.00796297
3448.70758301,0.00803395
3450.63639038,0.00806355
3452.56519775,0.00814314
3454.49400513,0.00810084
3456.42281250,0.00821810
3458.35161987,0.00821865
3460.28042725,0.00814372
3462.20923462,0.00838569
3464.13804199,0.00844785
3466.06684937,0.00843807
3467.99565674,0.00832652
3469.92446411,0.00839712
3471.85327148,0.00851225
3473.78207886,0.00844138
3475.71088623,0.00860535
3477.63969360,0.00862114
3479.56850098,0.00858402
3481.49730835,0.00858394
3483.42611572,0.00867535
3485.35492310,0.00882933
3487.28373047,0.00875385
3489.21253784,0.00873373
3491.14134521,0.00888173
3493.07015259,0.00897576
3494.99895996,0.00890267
3496.92776733,0.00894169
3498.85657471,0.00902990
3500.78538208,0.00903420
3502.71418945,0.00891991
3504.64299683,0.00898717
3506.57180420,0.00928091
3508.50061157,0.00917445
3510.42941895,0.00914131
3512.35822632,0.00930858
3514.28703369,0.00939315
3516.21584106,0.00945579
3518.14464844,0.00944808
3520.07345581,0.00949170
3522.00226318,0.00944125
3523.93107056,0.00934890
3525.85987793,0.00941468
3527.78868530,0.00960313
3529.71749268,0.00963505
3531.64630005,0.00971358
3533.57510742,0.00985523
3535.50391479,0.00974136
3537.43272217,0.00974908
3539.36152954,0.00989616
3541.29033691,0.00997793
3543.21914429,0.00993841
3545.14795166,0.00974748
3547.07675903,0.00971347
3549.00556641,0.01008667
3550.93437378,0.01008027
3552.86318115,0.00993321
3554.79198853,0.01027045
3556.72079590,0.01026852
3558.64960327,0.01034197
3560.57841064,0.01029430
3562.50721802,0.01024503
3564.43602539,0.01037098
3566.36483276,0.00965998
3568.29364014,0.00954632
3570.22244751,0.01034746
3572.15125488,0.01067534
3574.08006226,0.01055337
3576.00886963,0.01057175
3577.93767700,0.01069285
3579.86648437,0.01079346
3581.79529175,0.01082779
3583.72409912,0.01080184
3585.65290649,0.01061731
3587.58171387,0.00980717
3589.51052124,0.01016967
3591.43932861,0.01114618
3593.36813599,0.01082528
3595.29694336,0.01069046
3597.22575073,0.01100243
3599.15455811,0.01109411
3601.08336548,0.01096252
3603.01217285,0.01116998
3604.94098022,0.01134762
3606.86978760,0.01101137
3608.79859497,0.01049449
3610.72740234,0.01072712
3612.65620972,0.01105364
3614.58501709,0.01072691
3616.51382446,0.01151945
3618.44263184,0.01070970
3620.37143921,0.01041582
3622.30024658,0.01179116
3624.22905395,0.01139718
3626.15786133,0.01204886
3628.08666870,0.01036687
3630.01547607,0.00944820
3631.94428345,0.01187137
3633.87309082,0.01167042
3635.80189819,0.01190139
3637.73070557,0.01217548
3639.65951294,0.01213072
3641.58832031,0.01224141
3643.51712769,0.01214285
3645.44593506,0.01245068
3647.37474243,0.01125085
3649.30354980,0.01035739
3651.23235718,0.01057304
3653.16116455,0.01255701
3655.08997192,0.01248269
3657.01877930,0.01126648
3658.94758667,0.01298001
3660.87639404,0.01283448
3662.80520142,0.01294947
3664.73400879,0.01294778
3666.66281616,0.01302795
3668.59162354,0.01276700
3670.52043091,0.01056279
3672.44923828,0.01275422
3674.37804565,0.01216353
3676.30685303,0.01012636
3678.23566040,0.01278737
3680.16446777,0.01313004
3682.09327515,0.01329540
3684.02208252,0.01380016
3685.95088989,0.01356418
3687.87969727,0.01233927
3689.80850464,0.01125927
3691.73731201,0.01289096
3693.66611938,0.01334150
3695.59492676,0.01365698
3697.52373413,0.01387508
3699.45254150,0.01372966
3701.38134888,0.01338799
3703.31015625,0.01286294
3705.23896362,0.01416134
3707.16777100,0.01357784
3709.09657837,0.01318681
3711.02538574,0.01254834
3712.95419312,0.01179645
3714.88300049,0.01375821
3716.81180786,0.01361661
3718.74061523,0.01363798
3720.66942261,0.01334278
3722.59822998,0.01298009
3724.52703735,0.01350576
3726.45584473,0.01255477
3728.38465210,0.01352935
3730.31345947,0.01337134
3732.24226685,0.01240949
3734.17107422,0.01202966
3736.09988159,0.01140627
3738.02868896,0.01215621
3739.95749634,0.01309479
3741.88630371,0.01376827
3743.81511108,0.01076486
3745.74391846,0.01007575
3747.67272583,0.01299132
3749.60153320,0.01118330
3751.53034058,0.01034532
3753.45914795,0.01184562
3755.38795532,0.01270452
3757.31676270,0.01330092
3759.24557007,0.01236067
3761.17437744,0.01275640
3763.10318481,0.01352721
3765.03199219,0.01256382
3766.96079956,0.01292791
3768.88960693,0.01284112
3770.81841431,0.01221588
3772.74722168,0.01324642
3774.67602905,0.01320384
3776.60483643,0.01330898
3778.53364380,0.01295199
3780.46245117,0.01234033
3782.39125854,0.01320115
3784.32006592,0.01283881
3786.24887329,0.01279615
3788.17768066,0.01309306
3790.10648804,0.01299496
3792.03529541,0.01294065
3793.96410278,0.01314957
3795.89291016,0.01242448
3797.82171753,0.01226795
3799.75052490,0.01285861
3801.67933228,0.01016626
3803.60813965,0.01192289
3805.53694702,0.01294537
3807.46575439,0.01057891
3809.39456177,0.01288426
3811.32336914,0.01263433
3813.25217651,0.01301450
3815.18098389,0.01175971
3817.10979126,0.01032033
3819.03859863,0.01293925
3820.96740601,0.01044888
3822.89621338,0.01096876
3824.82502075,0.01279203
3826.75382812,0.01160794
3828.68263550,0.01252494
3830.61144287,0.01211379
3832.54025024,0.01161356
3834.46905762,0.01182481
3836.39786499,0.01134559
3838.32667236,0.01019236
3840.25547974,0.01108069
3842.18428711,0.01192331
3844.11309448,0.01130203
3846.04190186,0.01231109
3847.97070923,0.01210576
3849.89951660,0.01209472
3851.82832397,0.01091045
3853.75713135,0.00825445
3855.68593872,0.00974504
3857.61474609,0.01211873
3859.54355347,0.01184604
3861.47236084,0.01169833
3863.40116821,0.01139227
3865.32997559,0.01062595
3867.25878296,0.01192444
3869.18759033,0.01081179
3871.11639770,0.00999833
3873.04520508,0.01193258
3874.97401245,0.01085054
3876.90281982,0.01180407
3878.83162720,0.01205938
3880.76043457,0.01021390
3882.68924194,0.01183751
3884.61804932,0.01108377
3886.54685669,0.01017598
3888.47566406,0.01187160
3890.40447144,0.01121647
3892.33327881,0.01058673
3894.26208618,0.01154204
3896.19089355,0.01173734
3898.11970093,0.01120934
3900.04850830,0.01064301
3901.97731567,0.01043820
3903.90612305,0.01026557
3905.83493042,0.01056245
3907.76373779,0.01146569
3909.69254517,0.01138190
3911.62135254,0.01127541
3913.55015991,0.01144722
3915.47896728,0.01113852
3917.40777466,0.01084098
3919.33658203,0.01079947
3921.26538940,0.01115294
3923.19419678,0.01106740
3925.12300415,0.01095555
3927.05181152,0.01104589
3928.98061890,0.01109194
3930.90942627,0.01091763
3932.83823364,0.01059983
3934.76704102,0.01108744
3936.69584839,0.01112656
3938.62465576,0.01103771
3940.55346313,0.01117560
3942.48227051,0.01070006
3944.41107788,0.01081413
3946.33988525,0.01103734
3948.26869263,0.01068325
3950.19750000,0.01069608
3952.12630737,0.01091156
3954.05511475,0.01082097
3955.98392212,0.01088301
3957.91272949,0.01085585
3959.84153687,0.01082326
3961.77034424,0.01087587
3963.69915161,0.01067505
3965.62795898,0.01080325
3967.55676636,0.01077048
3969.48557373,0.01061286
3971.41438110,0.01071215
3973.34318848,0.01074098
3975.27199585,0.01067343
3977.20080322,0.01056920
3979.12961060,0.01061865
3981.05841797,0.01056194
3982.98722534,0.01049429
3984.91603271,0.01048383
3986.84484009,0.01060207
3988.77364746,0.01053727
3990.70245483,0.01041621
3992.63126221,0.01054258
3994.56006958,0.01037836
3996.48887695,0.01044406
3998.41768433,0.01042089
4000.34649170,0.01035848
4002.27529907,0.01041453
4004.20410645,0.01032744
4006.13291382,0.01043845
4008.06172119,0.01021716
4009.99052856,0.01021061
4011.91933594,0.01029374
4013.84814331,0.01022112
4015.77695068,0.01030224
4017.70575806,0.01018263
4019.63456543,0.01017843
4021.56337280,0.01018468
4023.49218018,0.01019245
4025.42098755,0.01016138
4027.34979492,0.01013593
4029.27860229,0.01013527
4031.20740967,0.01010993
4033.13621704,0.01010655
4035.06502441,0.00997643
4036.99383179,0.01002853
4038.92263916,0.00999238
4040.85144653,0.00995499
4042.78025391,0.00994726
4044.70906128,0.00986646
4046.63786865,0.00989825
4048.56667603,0.00986464
4050.49548340,0.00988642
4052.42429077,0.00980549
4054.35309814,0.00979316
4056.28190552,0.00984044
4058.21071289,0.00982061
4060.13952026,0.00976052
4062.06832764,0.00968239
4063.99713501,0.00975634
4065.92594238,0.00971670
4067.85474976,0.00968161
4069.78355713,0.00961944
4071.71236450,0.00964323
4073.64117187,0.00958955
4075.56997925,0.00946356
4077.49878662,0.00959858
4079.42759399,0.00954941
4081.35640137,0.00954001
4083.28520874,0.00950386
4085.21401611,0.00950465
4087.14282349,0.00952085
4089.07163086,0.00942278
4091.00043823,0.00954893
4092.92924561,0.00941334
4094.85805298,0.00934542
4096.78686035,0.00943161
4098.71566772,0.00934645
4100.64447510,0.00936122
4102.57328247,0.00932063
4104.50208984,0.00928121
4106.43089722,0.00930453
4108.35970459,0.00931638
4110.28851196,0.00931917
4112.21731934,0.00922702
4114.14612671,0.00916923
4116.07493408,0.00922597
4118.00374145,0.00914632
4119.93254883,0.00911945
4121.86135620,0.00910885
4123.79016357,0.00909415
4125.71897095,0.00922669
4127.64777832,0.00903912
4129.57658569,0.00902985
4131.50539307,0.00912761
4133.43420044,0.00891059
4135.36300781,0.00895195
4137.29181519,0.00904911
4139.22062256,0.00897081
4141.14942993,0.00893456
4143.07823730,0.00899582
4145.00704468,0.00890580
4146.93585205,0.00886023
4148.86465942,0.00889339
4150.79346680,0.00882550
4152.72227417,0.00884928
4154.65108154,0.00881511
4156.57988892,0.00883493
4158.50869629,0.00878269
4160.43750366,0.00877124
4162.36631103,0.00881751
4164.29511841,0.00869968
4166.22392578,0.00869082
4168.15273315,0.00868037
4170.08154053,0.00872410
4172.01034790,0.00864456
4173.93915527,0.00862699
4175.86796265,0.00874241
4177.79677002,0.00860123
4179.72557739,0.00851097
4181.65438477,0.00853991
4183.58319214,0.00859351
4185.51199951,0.00847962
4187.44080688,0.00848134
4189.36961426,0.00860056
4191.29842163,0.00852150
4193.22722900,0.00850769
4195.15603638,0.00841914
4197.08484375,0.00835381
4199.01365112,0.00837200
4200.94245850,0.00840951
4202.87126587,0.00844801
4204.80007324,0.00834729
4206.72888062,0.00825901
4208.65768799,0.00828815
4210.58649536,0.00833406
4212.51530273,0.00830224
4214.44411011,0.00830180
4216.37291748,0.00825890
4218.30172485,0.00823522
4220.23053223,0.00823835
4222.15933960,0.00822759
4224.08814697,0.00821231
4226.01695435,0.00816009
4227.94576172,0.00817536
4229.87456909,0.00805590
4231.80337646,0.00810462
4233.73218384,0.00816533
4235.66099121,0.00806119
4237.58979858,0.00804149
4239.51860596,0.00794450
4241.44741333,0.00807290
4243.37622070,0.00800934
4245.30502808,0.00789024
4247.23383545,0.00800796
4249.16264282,0.00795500
4251.09145020,0.00799426
4253.02025757,0.00790982
4254.94906494,0.00789172
4256.87787231,0.00791657
4258.80667969,0.00782190
4260.73548706,0.00795252
4262.66429443,0.00791098
4264.59310181,0.00779917
4266.52190918,0.00775182
4268.45071655,0.00769199
4270.37952393,0.00781287
4272.30833130,0.00779040
4274.23713867,0.00766033
4276.16594604,0.00775108
4278.09475342,0.00775574
4280.02356079,0.00768273
4281.95236816,0.00766913
4283.88117554,0.00753020
4285.80998291,0.00758181
4287.73879028,0.00769254
4289.66759766,0.00762802
4291.59640503,0.00763305
4293.52521240,0.00752531
4295.45401978,0.00751305
4297.38282715,0.00759429
4299.31163452,0.00742648
4301.24044189,0.00745783
4303.16924927,0.00754381
4305.09805664,0.00745398
4307.02686401,0.00747622
4308.95567139,0.00742077
4310.88447876,0.00747209
4312.81328613,0.00748854
4314.74209351,0.00733447
4316.67090088,0.00739252
4318.59970825,0.00737070
4320.52851562,0.00733661
4322.45732300,0.00727227
4324.38613037,0.00716442
4326.31493774,0.00725862
4328.24374512,0.00727425
4330.17255249,0.00731197
4332.10135986,0.00726258
4334.03016724,0.00716466
4335.95897461,0.00728681
4337.88778198,0.00721154
4339.81658936,0.00706005
4341.74539673,0.00712797
4343.67420410,0.00717550
4345.60301147,0.00716683
4347.53181885,0.00708771
4349.46062622,0.00700831
4351.38943359,0.00700577
4353.31824097,0.00696127
4355.24704834,0.00700112
4357.17585571,0.00695510
4359.10466309,0.00690514
4361.03347046,0.00699610
4362.96227783,0.00695278
4364.89108520,0.00697056
4366.81989258,0.00695919
4368.74869995,0.00695758
4370.67750732,0.00700220
4372.60631470,0.00696972
4374.53512207,0.00698352
4376.46392944,0.00688212
4378.39273682,0.00685248
4380.32154419,0.00683795
4382.25035156,0.00678709
4384.17915894,0.00681772
4386.10796631,0.00681156
4388.03677368,0.00679040
4389.96558105,0.00670990
4391.89438843,0.00668301
4393.82319580,0.00669950
4395.75200317,0.00673052
4397.68081055,0.00664572
4399.60961792,0.00657951
4401.53842529,0.00668938
4403.46723267,0.00666917
4405.39604004,0.00659059
4407.32484741,0.00654880
4409.25365478,0.00656383
4411.18246216,0.00655162
4413.11126953,0.00660560
4415.04007690,0.00660509
4416.96888428,0.00652927
4418.89769165,0.00655943
4420.82649902,0.00643495
4422.75530640,0.00647331
4424.68411377,0.00651259
4426.61292114,0.00650850
4428.54172852,0.00650754
4430.47053589,0.00636861
4432.39934326,0.00642077
4434.32815063,0.00635539
4436.25695801,0.00637393
4438.18576538,0.00638389
4440.11457275,0.00634807
4442.04338013,0.00640454
4443.97218750,0.00628704
4445.90099487,0.00634492
4447.82980225,0.00632026
4449.75860962,0.00632529
4451.68741699,0.00633586
4453.61622437,0.00618648
4455.54503174,0.00620083
4457.47383911,0.00616310
4459.40264648,0.00617209
4461.33145386,0.00622266
4463.26026123,0.00622731
4465.18906860,0.00619399
4467.11787598,0.00621444
4469.04668335,0.00620742
4470.97549072,0.00612892
4472.90429810,0.00613517
4474.83310547,0.00606677
4476.76191284,0.00609101
4478.69072021,0.00606961
4480.61952759,0.00602381
4482.54833496,0.00603093
4484.47714233,0.00599955
4486.40594971,0.00605152
4488.33475708,0.00598130
4490.26356445,0.00593458
4492.19237183,0.00596112
4494.12117920,0.00601822
4496.04998657,0.00603002
4497.97879395,0.00596536
4499.90760132,0.00594231
4501.83640869,0.00587915
4503.76521606,0.00584074
4505.69402344,0.00586678
4507.62283081,0.00593948
4509.55163818,0.00584317
4511.48044556,0.00578249
4513.40925293,0.00578349
4515.33806030,0.00579901
4517.26686768,0.00591005
4519.19567505,0.00583082
4521.12448242,0.00586115
4523.05328979,0.00576638
4524.98209717,0.00571413
4526.91090454,0.00581235
4528.83971191,0.00567981
4530.76851929,0.00576693
4532.69732666,0.00573079
4534.62613403,0.00567705
4536.55494141,0.00576665
4538.48374878,0.00567616
4540.41255615,0.00563121
4542.34136353,0.00558924
4544.27017090,0.00559456
4546.19897827,0.00561381
4548.12778564,0.00556525
4550.05659302,0.00548180
4551.98540039,0.00547920
4553.91420776,0.00555670
4555.84301514,0.00557910
4557.77182251,0.00554656
4559.70062988,0.00549724
4561.62943726,0.00547600
4563.55824463,0.00544532
4565.48705200,0.00549379
4567.41585937,0.00545378
4569.34466675,0.00539657
4571.27347412,0.00539410
4573.20228149,0.00535590
4575.13108887,0.00541939
4577.05989624,0.00537911
4578.98870361,0.00537777
4580.91751099,0.00540843
4582.84631836,0.00537162
4584.77512573,0.00537221
4586.70393311,0.00535105
4588.63274048,0.00531157
4590.56154785,0.00524998
4592.49035522,0.00529619
4594.41916260,0.00524438
4596.34796997,0.00517856
4598.27677734,0.00522967
4600.20558472,0.00520705
4602.13439209,0.00514409
4604.06319946,0.00515908
4605.99200684,0.00528330
4607.92081421,0.00524058
4609.84962158,0.00521806
4611.77842895,0.00521425
4613.70723633,0.00516930
4615.63604370,0.00513772
4617.56485107,0.00504207
4619.49365845,0.00510697
4621.42246582,0.00503069
4623.35127319,0.00505478
4625.28008057,0.00517796
4627.20888794,0.00502929
4629.13769531,0.00500329
4631.06650269,0.00501589
4632.99531006,0.00503230
4634.92411743,0.00502876
4636.85292480,0.00495185
4638.78173218,0.00497282
4640.71053955,0.00497190
4642.63934692,0.00490498
4644.56815430,0.00492175
4646.49696167,0.00493743
4648.42576904,0.00491884
4650.35457642,0.00493258
4652.28338379,0.00486898
4654.21219116,0.00490511
4656.14099853,0.00488545
4658.06980591,0.00484620
4659.99861328,0.00490824
4661.92742065,0.00480463
4663.85622803,0.00480126
4665.78503540,0.00481628
4667.71384277,0.00473444
4669.64265015,0.00470072
4671.57145752,0.00478403
4673.50026489,0.00482723
4675.42907227,0.00475436
4677.35787964,0.00474862
4679.28668701,0.00465653
4681.21549438,0.00467725
4683.14430176,0.00473740
4685.07310913,0.00474731
4687.00191650,0.00470943
4688.93072388,0.00458803
4690.85953125,0.00462081
4692.78833862,0.00459209
4694.71714600,0.00463200
4696.64595337,0.00463919
4698.57476074,0.00463700
4700.50356812,0.00468183
4702.43237549,0.00452658
4704.36118286,0.00454389
4706.28999023,0.00462499
4708.21879761,0.00464579
4710.14760498,0.00455851
4712.07641235,0.00448146
4714.00521973,0.00455084
4715.93402710,0.00456476
4717.86283447,0.00457086
4719.79164185,0.00448910
4721.72044922,0.00448314
4723.64925659,0.00451258
4725.57806396,0.00448033
4727.50687134,0.00442757
4729.43567871,0.00443907
4731.36448608,0.00447402
4733.29329346,0.00434435
4735.22210083,0.00439602
4737.15090820,0.00437960
4739.07971558,0.00433427
4741.00852295,0.00440438
4742.93733032,0.00430019
4744.86613770,0.00431338
4746.79494507,0.00431908
4748.72375244,0.00430935
4750.65255981,0.00434420
4752.58136719,0.00431300
4754.51017456,0.00428644
4756.43898193,0.00425405
4758.36778931,0.00429060
4760.29659668,0.00428962
4762.22540405,0.00423947
4764.15421143,0.00424973
4766.08301880,0.00427272
4768.01182617,0.00424473
4769.94063354,0.00424427
4771.86944092,0.00421669
4773.79824829,0.00418854
4775.72705566,0.00423312
4777.65586304,0.00417349
4779.58467041,0.00415356
4781.51347778,0.00416946
4783.44228516,0.00414352
4785.37109253,0.00412992
4787.29989990,0.00411912
4789.22870728,0.00408691
4791.15751465,0.00402587
4793.08632202,0.00410623
4795.01512939,0.00412868
4796.94393677,0.00404260
4798.87274414,0.00408312
4800.80155151,0.00414807
4802.73035889,0.00407764
4804.65916626,0.00404288
4806.58797363,0.00407574
4808.51678101,0.00400827
4810.44558838,0.00401995
4812.37439575,0.00396503
4814.30320312,0.00397080
4816.23201050,0.00406038
4818.16081787,0.00393519
4820.08962524,0.00395095
4822.01843262,0.00399072
4823.94723999,0.00394942
4825.87604736,0.00391467
4827.80485474,0.00385521
4829.73366211,0.00390498
4831.66246948,0.00393683
4833.59127686,0.00392273
4835.52008423,0.00390776
4837.44889160,0.00387002
4839.37769897,0.00385890
4841.30650635,0.00389069
4843.23531372,0.00380916
4845.16412109,0.00378158
4847.09292847,0.00384274
4849.02173584,0.00378879
4850.95054321,0.00381544
4852.87935059,0.00378998
4854.80815796,0.00377810
4856.73696533,0.00378804
4858.66577270,0.00371727
4860.59458008,0.00378572
4862.52338745,0.00379920
4864.45219482,0.00371494
4866.38100220,0.00364880
4868.30980957,0.00366276
4870.23861694,0.00363898
4872.16742432,0.00359054
4874.09623169,0.00362675
4876.02503906,0.00358691
4877.95384644,0.00363191
4879.88265381,0.00368130
4881.81146118,0.00361493
4883.74026855,0.00361566
4885.66907593,0.00366236
4887.59788330,0.00362283
4889.52669067,0.00361655
4891.45549805,0.00366595
4893.38430542,0.00359741
4895.31311279,0.00359907
4897.24192017,0.00357732
4899.17072754,0.00355364
4901.09953491,0.00357240
4903.02834228,0.00353792
4904.95714966,0.00358242
4906.88595703,0.00347858
4908.81476440,0.00347050
4910.74357178,0.00353260
4912.67237915,0.00339606
4914.60118652,0.00341515
4916.52999390,0.00348374
4918.45880127,0.00349276
4920.38760864,0.00353260
4922.31641602,0.00352955
4924.24522339,0.00347758
4926.17403076,0.00346853
4928.10283813,0.00344979
4930.03164551,0.00338293
4931.96045288,0.00336759
4933.88926025,0.00335420
4935.81806763,0.00336232
4937.74687500,0.00339094
4939.67568237,0.00338778
4941.60448975,0.00330445
4943.53329712,0.00329160
4945.46210449,0.00334463
4947.39091187,0.00332238
4949.31971924,0.00337892
4951.24852661,0.00331311
4953.17733398,0.00326404
4955.10614136,0.00332311
4957.03494873,0.00328219
4958.96375610,0.00333604
4960.89256348,0.00329993
4962.82137085,0.00324373
4964.75017822,0.00326289
4966.67898560,0.00325274
4968.60779297,0.00327821
4970.53660034,0.00319439
4972.46540771,0.00318277
4974.39421509,0.00322675
4976.32302246,0.00320952
4978.25182983,0.00321041
4980.18063721,0.00316256
4982.10944458,0.00320089
4984.03825195,0.00319788
4985.96705933,0.00309744
4987.89586670,0.00310557
4989.82467407,0.00312432
4991.75348145,0.00316748
4993.68228882,0.00320613
4995.61109619,0.00311879
4997.53990356,0.00309955
4999.46871094,0.00313744
5001.39751831,0.00307701
5003.32632568,0.00305959
5005.25513306,0.00307354
5007.18394043,0.00307491
5009.11274780,0.00307632
5011.04155518,0.00301981
5012.97036255,0.00305732
5014.89916992,0.00309664
5016.82797729,0.00304728
5018.75678467,0.00307677
5020.68559204,0.00305147
5022.61439941,0.00297361
5024.54320679,0.00299529
5026.47201416,0.00305451
5028.40082153,0.00306368
5030.32962891,0.00300318
5032.25843628,0.00295578
5034.18724365,0.00295123
5036.11605103,0.00295055
5038.04485840,0.00293673
5039.97366577,0.00292215
5041.90247314,0.00290577
5043.83128052,0.00288026
5045.76008789,0.00287677
5047.68889526,0.00287124
5049.61770264,0.00286084
5051.54651001,0.00288704
5053.47531738,0.00289978
5055.40412476,0.00288645
5057.33293213,0.00293150
5059.26173950,0.00293999
5061.19054687,0.00287775
5063.11935425,0.00286409
5065.04816162,0.00283308
5066.97696899,0.00280175
5068.90577637,0.00282586
5070.83458374,0.00282209
5072.76339111,0.00279230
5074.69219849,0.00280540
5076.62100586,0.00280262
5078.54981323,0.00277105
5080.47862061,0.00273730
5082.40742798,0.00267655
5084.33623535,0.00273620
5086.26504272,0.00275637
5088.19385010,0.00270371
5090.12265747,0.00275806
5092.05146484,0.00273027
5093.98027222,0.00271680
5095.90907959,0.00271580
5097.83788696,0.00265643
5099.76669434,0.00265572
5101.69550171,0.00266972
5103.62430908,0.00267500
5105.55311645,0.00265959
5107.48192383,0.00265890
5109.41073120,0.00267848
5111.33953857,0.00271651
5113.26834595,0.00262847
5115.19715332,0.00261822
5117.12596069,0.00271125
5119.05476807,0.00261638
5120.98357544,0.00268810
5122.91238281,0.00266695
5124.84119019,0.00255779
5126.76999756,0.00263574
5128.69880493,0.00259638
5130.62761230,0.00262959
5132.55641968,0.00259501
5134.48522705,0.00253411
5136.41403442,0.00256618
5138.34284180,0.00248098
5140.27164917,0.00249065
5142.20045654,0.00260697
5144.12926392,0.00259330
5146.05807129,0.00251124
5147.98687866,0.00259834
5149.91568603,0.00256888
5151.84449341,0.00251433
5153.77330078,0.00254931
5155.70210815,0.00240899
5157.63091553,0.00238598
5159.55972290,0.00241557
5161.48853027,0.00247245
5163.41733765,0.00250028
5165.34614502,0.00245560
5167.27495239,0.00244013
5169.20375977,0.00240016
5171.13256714,0.00252954
5173.06137451,0.00247307
5174.99018188,0.00240058
5176.91898926,0.00246998
5178.84779663,0.00237451
5180.77660400,0.00237215
5182.70541138,0.00240005
5184.63421875,0.00247084
5186.56302612,0.00242273
5188.49183350,0.00236929
5190.42064087,0.00245554
5192.34944824,0.00234429
5194.27825562,0.00230106
5196.20706299,0.00231504
5198.13587036,0.00230359
5200.06467773,0.00228240
5201.99348511,0.00231504
5203.92229248,0.00239091
5205.85109985,0.00229160
5207.77990723,0.00230067
5209.70871460,0.00227976
5211.63752197,0.00221693
5213.56632935,0.00229966
5215.49513672,0.00232660
5217.42394409,0.00233524
5219.35275146,0.00227809
5221.28155884,0.00221597
5223.21036621,0.00224003
5225.13917358,0.00226045
5227.06798096,0.00222153
5228.99678833,0.00225656
5230.92559570,0.00228624
5232.85440308,0.00218241
5234.78321045,0.00224254
5236.71201782,0.00231152
5238.64082520,0.00227555
5240.56963257,0.00223701
5242.49843994,0.00219712
5244.42724731,0.00221360
5246.35605469,0.00222063
5248.28486206,0.00225344
5250.21366943,0.00218918
5252.14247681,0.00215855
5254.07128418,0.00216880
5256.00009155,0.00210470
5257.92889893,0.00216461
5259.85770630,0.00216383
5261.78651367,0.00214201
5263.71532104,0.00208266
5265.64412842,0.00202723
5267.57293579,0.00212350
5269.50174316,0.00210014
5271.43055054,0.00213685
5273.35935791,0.00219165
5275.28816528,0.00208963
5277.21697266,0.00213575
5279.14578003,0.00217885
5281.07458740,0.00208103
5283.00339478,0.00213976
5284.93220215,0.00215779
5286.86100952,0.00206978
5288.78981689,0.00214278
5290.71862427,0.00212436
5292.64743164,0.00208315
5294.57623901,0.00211069
5296.50504639,0.00210157
5298.43385376,0.00212526
5300.36266113,0.00208910
5302.29146851,0.00207729
5304.22027588,0.00204810
5306.14908325,0.00200907
5308.07789062,0.00199781
5310.00669800,0.00196832
5311.93550537,0.00200849
5313.86431274,0.00206369
5315.79312012,0.00208512
5317.72192749,0.00200970
5319.65073486,0.00199109
5321.57954224,0.00200555
5323.50834961,0.00199164
5325.43715698,0.00202772
5327.36596436,0.00197693
5329.29477173,0.00199513
5331.22357910,0.00199828
5333.15238647,0.00191991
5335.08119385,0.00197967
5337.01000122,0.00200418
5338.93880859,0.00191863
5340.86761597,0.00197877
5342.79642334,0.00198714
5344.72523071,0.00184280
5346.65403809,0.00193201
5348.58284546,0.00194550
5350.51165283,0.00186887
5352.44046020,0.00192012
5354.36926758,0.00189904
5356.29807495,0.00188978
5358.22688232,0.00191834
5360.15568970,0.00199730
5362.08449707,0.00193840
5364.01330444,0.00192650
5365.94211182,0.00195023
5367.87091919,0.00184400
5369.79972656,0.00190762
5371.72853394,0.00184817
5373.65734131,0.00181859
5375.58614868,0.00185713
5377.51495605,0.00182528
5379.44376343,0.00186991
5381.37257080,0.00184551
5383.30137817,0.00188883
5385.23018555,0.00187150
5387.15899292,0.00183083
5389.08780029,0.00182189
5391.01660767,0.00182472
5392.94541504,0.00183302
5394.87422241,0.00176474
5396.80302978,0.00181377
5398.73183716,0.00174895
5400.66064453,0.00173534
5402.58945190,0.00180180
5404.51825928,0.00177011
5406.44706665,0.00182958
5408.37587402,0.00176571
5410.30468140,0.00171969
5412.23348877,0.00177021
5414.16229614,0.00177061
5416.09110352,0.00181924
5418.01991089,0.00183885
5419.94871826,0.00173845
5421.87752563,0.00172759
5423.80633301,0.00178460
5425.73514038,0.00177331
5427.66394775,0.00174983
5429.59275513,0.00163308
5431.52156250,0.00174396
5433.45036987,0.00178038
5435.37917725,0.00162168
5437.30798462,0.00176735
5439.23679199,0.00171789
5441.16559936,0.00165511
5443.09440674,0.00174458
5445.02321411,0.00165593
5446.95202148,0.00164789
5448.88082886,0.00165221
5450.80963623,0.00163772
5452.73844360,0.00170547
5454.66725098,0.00172777
5456.59605835,0.00169493
5458.52486572,0.00170632
5460.45367310,0.00162894
5462.38248047,0.00161094
5464.31128784,0.00171691
5466.24009521,0.00165065
5468.16890259,0.00163618
5470.09770996,0.00167354
5472.02651733,0.00163946
5473.95532471,0.00163651
5475.88413208,0.00160324
5477.81293945,0.00154961
5479.74174683,0.00158273
5481.67055420,0.00164634
5483.59936157,0.00161713
5485.52816895,0.00163485
5487.45697632,0.00162690
5489.38578369,0.00160404
5491.31459106,0.00163285
5493.24339844,0.00159143
5495.17220581,0.00158031
5497.10101318,0.00156229
5499.02982056,0.00157554
5500.95862793,0.00164871
5502.88743530,0.00166407
5504.81624268,0.00161862
5506.74505005,0.00151000
5508.67385742,0.00142998
5510.60266479,0.00150820
5512.53147217,0.00153668
5514.46027954,0.00146179
5516.38908691,0.00153173
5518.31789429,0.00151457
5520.24670166,0.00147534
5522.17550903,0.00148342
5524.10431641,0.00145108
5526.03312378,0.00154690
5527.96193115,0.00150971
5529.89073853,0.00147498
5531.81954590,0.00152517
5533.74835327,0.00149974
5535.67716064,0.00147017
5537.60596802,0.00142530
5539.53477539,0.00144371
5541.46358276,0.00147936
5543.39239014,0.00154865
5545.32119751,0.00147278
5547.25000488,0.00139247
5549.17881226,0.00148826
5551.10761963,0.00148179
5553.03642700,0.00150136
5554.96523437,0.00145642
5556.89404175,0.00142363
5558.82284912,0.00150164
5560.75165649,0.00143040
5562.68046387,0.00142836
5564.60927124,0.00148768
5566.53807861,0.00140325
5568.46688599,0.00138778
5570.39569336,0.00142450
5572.32450073,0.00136792
5574.25330811,0.00137825
5576.18211548,0.00138241
5578.11092285,0.00139930
5580.03973022,0.00145015
5581.96853760,0.00138140
5583.89734497,0.00138071
5585.82615234,0.00139041
5587.75495972,0.00137284
5589.68376709,0.00145387
5591.61257446,0.00143842
5593.54138184,0.00132875
5595.47018921,0.00135556
5597.39899658,0.00134154
5599.32780395,0.00127598
5601.25661133,0.00138093
5603.18541870,0.00139052
5605.11422607,0.00138576
5607.04303345,0.00143530
5608.97184082,0.00138431
5610.90064819,0.00136550
5612.82945557,0.00136616
5614.75826294,0.00136068
5616.68707031,0.00133057
5618.61587769,0.00134119
5620.54468506,0.00132802
5622.47349243,0.00131834
5624.40229980,0.00131319
5626.33110718,0.00124123
5628.25991455,0.00129047
5630.18872192,0.00128054
5632.11752930,0.00121893
5634.04633667,0.00123536
5635.97514404,0.00129976
5637.90395142,0.00128622
5639.83275879,0.00119448
5641.76156616,0.00125180
5643.69037353,0.00128574
5645.61918091,0.00131216
5647.54798828,0.00129282
5649.47679565,0.00125937
5651.40560303,0.00128845
5653.33441040,0.00129452
5655.26321777,0.00130930
5657.19202515,0.00122731
5659.12083252,0.00128014
5661.04963989,0.00126440
5662.97844727,0.00118991
5664.90725464,0.00127146
5666.83606201,0.00126114
5668.76486938,0.00128102
5670.69367676,0.00122672
5672.62248413,0.00124265
5674.55129150,0.00126479
5676.48009888,0.00121713
5678.40890625,0.00125392
5680.33771362,0.00116819
5682.26652100,0.00122268
5684.19532837,0.00122249
5686.12413574,0.00115774
5688.05294311,0.00125345
5689.98175049,0.00119598
5691.91055786,0.00118177
5693.83936523,0.00123669
5695.76817261,0.00116615
5697.69697998,0.00111249
5699.62578735,0.00116278
5701.55459473,0.00123017
5703.48340210,0.00119963
5705.41220947,0.00113016
5707.34101685,0.00115038
5709.26982422,0.00112633
5711.19863159,0.00112613
5713.12743896,0.00121956
5715.05624634,0.00116227
5716.98505371,0.00116072
5718.91386108,0.00112891
5720.84266846,0.00105989
5722.77147583,0.00120407
5724.70028320,0.00121555
5726.62909058,0.00113327
5728.55789795,0.00113084
5730.48670532,0.00110813
5732.41551270,0.00109448
5734.34432007,0.00115348
5736.27312744,0.00113703
5738.20193481,0.00113591
5740.13074219,0.00118471
5742.05954956,0.00103690
5743.98835693,0.00107757
5745.91716431,0.00113637
5747.84597168,0.00103953
5749.77477905,0.00109998
5751.70358643,0.00111221
5753.63239380,0.00113656
5755.56120117,0.00110263
5757.49000854,0.00104720
5759.41881592,0.00108111
5761.34762329,0.00104487
5763.27643066,0.00103168
5765.20523804,0.00105891
5767.13404541,0.00109234
5769.06285278,0.00106798
5770.99166016,0.00106773
5772.92046753,0.00108539
5774.84927490,0.00106647
5776.77808228,0.00104605
5778.70688965,0.00099153
5780.63569702,0.00101302
5782.56450439,0.00103058
5784.49331177,0.00105632
5786.42211914,0.00106162
5788.35092651,0.00097526
5790.27973389,0.00094793
5792.20854126,0.00096282
5794.13734863,0.00100054
5796.06615601,0.00096960
5797.99496338,0.00093450
5799.92377075,0.00097495
5801.85257812,0.00095104
5803.78138550,0.00094826
5805.71019287,0.00100840
5807.63900024,0.00102432
5809.56780762,0.00099950
5811.49661499,0.00101451
5813.42542236,0.00104094
5815.35422974,0.00097460
5817.28303711,0.00090300
5819.21184448,0.00095122
5821.14065186,0.00099311
5823.06945923,0.00100755
5824.99826660,0.00101387
5826.92707397,0.00092982
5828.85588135,0.00091969
5830.78468872,0.00093163
5832.71349609,0.00088556
5834.64230347,0.00090426
5836.57111084,0.00092522
5838.49991821,0.00091791
5840.42872559,0.00088905
5842.35753296,0.00089899
5844.28634033,0.00092205
5846.21514770,0.00093742
5848.14395508,0.00094065
5850.07276245,0.00091445
5852.00156982,0.00096489
5853.93037720,0.00090530
5855.85918457,0.00085575
5857.78799194,0.00092369
5859.71679932,0.00088784
5861.64560669,0.00095997
5863.57441406,0.00096625
5865.50322144,0.00084911
5867.43202881,0.00088283
5869.36083618,0.00089644
5871.28964355,0.00090560
5873.21845093,0.00086423
5875.14725830,0.00084960
5877.07606567,0.00093117
5879.00487305,0.00089280
5880.93368042,0.00093173
5882.86248779,0.00093603
5884.79129517,0.00085756
5886.72010254,0.00090706
5888.64890991,0.00086695
5890.57771728,0.00081558
5892.50652466,0.00084602
5894.43533203,0.00088459
5896.36413940,0.00089114
5898.29294678,0.00085611
5900.22175415,0.00087907
5902.15056152,0.00086003
5904.07936890,0.00086345
5906.00817627,0.00089121
5907.93698364,0.00085797
5909.86579102,0.00082777
5911.79459839,0.00081060
5913.72340576,0.00088635
5915.65221313,0.00084374
5917.58102051,0.00080790
5919.50982788,0.00088745
5921.43863525,0.00074329
5923.36744263,0.00072799
5925.29625000,0.00081660
5927.22505737,0.00079613
5929.15386475,0.00089042
5931.08267212,0.00088098
5933.01147949,0.00082176
5934.94028686,0.00081105
5936.86909424,0.00081538
5938.79790161,0.00085666
5940.72670898,0.00081063
5942.65551636,0.00083594
5944.58432373,0.00087792
5946.51313110,0.00083236
5948.44193848,0.00077604
5950.37074585,0.00073678
5952.29955322,0.00079459
5954.22836060,0.00080586
5956.15716797,0.00077092
5958.08597534,0.00077394
5960.01478271,0.00078153
5961.94359009,0.00082548
5963.87239746,0.00083798
5965.80120483,0.00079218
5967.73001221,0.00073393
5969.65881958,0.00071628
5971.58762695,0.00074320
5973.51643433,0.00077674
5975.44524170,0.00080217
5977.37404907,0.00074908
5979.30285645,0.00069415
5981.23166382,0.00076803
5983.16047119,0.00075871
5985.08927856,0.00066356
5987.01808594,0.00069891
5988.94689331,0.00068986
5990.87570068,0.00068948
5992.80450806,0.00073725
5994.73331543,0.00068793
5996.66212280,0.00071819
5998.59093018,0.00077873
6000.51973755,0.00075452
