399.26312622,0.00014009
401.19193359,0.00016350
403.12074097,0.00033008
405.04954834,-0.00038517
406.97835571,0.00003958
408.90716309,0.00024646
410.83597046,0.00027585
412.76477783,0.00036969
414.69358521,0.00005497
416.62239258,0.00067116
418.55119995,0.00003702
420.48000732,0.00038063
422.40881470,0.00055130
424.33762207,-0.00019553
426.26642944,0.00034500
428.19523682,-0.00012601
430.12404419,-0.00039787
432.05285156,-0.00001324
433.98165894,0.00004146
435.91046631,0.00035161
437.83927368,0.00053789
439.76808105,0.00047887
441.69688843,0.00014948
443.62569580,0.00033017
445.55450317,0.00047198
447.48331055,-0.00006494
449.41211792,0.00012554
451.34092529,0.00028320
453.26973267,-0.00018665
455.19854004,0.00000956
457.12734741,0.00021545
459.05615479,-0.00007744
460.98496216,0.00011430
462.91376953,0.00038477
464.84257690,0.00050161
466.77138428,0.00054896
468.70019165,-0.00003333
470.62899902,-0.00024667
472.55780640,0.00017930
474.48661377,-0.00004868
476.41542114,-0.00010940
478.34422852,0.00023333
480.27303589,0.00027791
482.20184326,0.00033777
484.13065063,0.00015523
486.05945801,0.00004813
487.98826538,0.00029552
489.91707275,0.00058463
491.84588013,0.00025991
493.77468750,0.00036983
495.70349487,0.00058053
497.63230225,0.00048221
499.56110962,0.00013899
501.48991699,0.00033045
503.41872437,0.00042876
505.34753174,-0.00012730
507.27633911,-0.00009780
509.20514648,0.00016934
511.13395386,0.00010829
513.06276123,0.00033223
514.99156860,0.00024102
516.92037598,0.00012888
518.84918335,0.00039564
520.77799072,0.00026081
522.70679810,0.00020567
524.63560547,0.00006325
526.56441284,-0.00020086
528.49322021,0.00017477
530.42202759,0.00024179
532.35083496,0.00028566
534.27964233,0.00034187
536.20844971,-0.00009051
538.13725708,-0.00016451
540.06606445,0.00032439
541.99487183,0.00008707
543.92367920,-0.00006538
545.85248657,0.00010680
547.78129395,0.00005291
549.71010132,0.00034059
551.63890869,0.00002937
553.56771606,0.00023099
555.49652344,0.00050384
557.42533081,0.00027135
559.35413818,0.00026575
561.28294556,0.00011613
563.21175293,0.00021574
565.14056030,0.00008427
567.06936768,0.00020204
568.99817505,0.00022587
570.92698242,0.00025350
572.85578979,-0.00002147
574.78459717,-0.00025995
576.71340454,0.00023653
578.64221191,0.00020698
580.57101929,0.00039427
582.49982666,0.00030792
584.42863403,0.00002645
586.35744141,0.00015662
588.28624878,-0.00000502
590.21505615,0.00020175
592.14386353,0.00027551
594.07267090,0.00015209
596.00147827,0.00051325
597.93028564,0.00034765
599.85909302,-0.00002403
601.78790039,0.00009418
603.71670776,0.00020834
605.64551514,0.00005263
607.57432251,-0.00019104
609.50312988,0.00007614
611.43193726,-0.00001269
613.36074463,0.00000872
615.28955200,0.00041317
617.21835938,0.00018164
619.14716675,0.00018219
621.07597412,-0.00003233
623.00478149,-0.00006250
624.93358887,0.00015233
626.86239624,0.00002487
628.79120361,0.00049365
630.72001099,0.00046514
632.64881836,0.00007753
634.57762573,0.00042875
636.50643311,0.00041592
638.43524048,0.00017949
640.36404785,0.00010616
642.29285522,0.00014588
644.22166260,0.00020412
646.15046997,0.00006590
648.07927734,0.00031847
650.00808472,0.00021540
651.93689209,0.00004484
653.86569946,0.00001798
655.79450684,-0.00001853
657.72331421,0.00052947
659.65212158,0.00028399
661.58092896,0.00003756
663.50973633,0.00010856
665.43854370,0.00015793
667.36735107,0.00071629
669.29615845,0.00051227
671.22496582,0.00037483
673.15377319,0.00035511
675.08258057,0.00018133
677.01138794,0.00044557
678.94019531,0.00045715
680.86900269,0.00035064
682.79781006,0.00040008
684.72661743,0.00069603
686.65542480,0.00051985
688.58423218,0.00001889
690.51303955,0.00028001
692.44184692,0.00058302
694.37065430,0.00036302
696.29946167,0.00042866
698.22826904,0.00062942
700.15707642,0.00044707
702.08588379,0.00053681
704.01469116,0.00049627
705.94349854,0.00037159
707.87230591,0.00040330
709.80111328,0.00019850
711.72992065,0.00031649
713.65872803,0.00019537
715.58753540,-0.00001787
717.51634277,0.00021967
719.44515015,0.00014015
721.37395752,0.00011341
723.30276489,0.00028326
725.23157227,-0.00006588
727.16037964,-0.00002358
729.08918701,0.00027576
731.01799438,0.00006779
732.94680176,0.00021431
734.87560913,0.00027939
736.80441650,0.00023123
738.73322388,0.00022336
740.66203125,-0.00006598
742.59083862,0.00009329
744.51964600,0.00008691
746.44845337,0.00003129
748.37726074,0.00046767
750.30606812,0.00019294
752.23487549,0.00017556
754.16368286,0.00047141
756.09249023,-0.00000904
758.02129761,0.00001704
759.95010498,0.00014709
761.87891235,0.00027814
763.80771973,0.00036755
765.73652710,0.00008743
767.66533447,0.00024214
769.59414185,0.00010650
771.52294922,-0.00016086
773.45175659,-0.00002480
775.38056396,0.00039131
777.30937134,0.00036131
779.23817871,-0.00008814
781.16698608,0.00013060
783.09579346,0.00014856
785.02460083,0.00010828
786.95340820,0.00023256
788.88221558,0.00005048
790.81102295,0.00020131
792.73983032,0.00030064
794.66863770,0.00017828
796.59744507,0.00018085
798.52625244,0.00015333
800.45505981,0.00011184
802.38386719,0.00019232
804.31267456,0.00033532
806.24148193,0.00048541
808.17028931,0.00042228
810.09909668,0.00021751
812.02790405,-0.00001802
813.95671143,-0.00018532
815.88551880,0.00017399
817.81432617,0.00032643
819.74313354,0.00026415
821.67194092,0.00036357
823.60074829,0.00022304
825.52955566,0.00011514
827.45836304,0.00018155
829.38717041,0.00044871
831.31597778,0.00037467
833.24478516,0.00017778
835.17359253,0.00033123
837.10239990,0.00039121
839.03120728,0.00040478
840.96001465,0.00031617
842.88882202,0.00034027
844.81762939,0.00040319
846.74643677,0.00039115
848.67524414,0.00027883
850.60405151,0.00012549
852.53285889,0.00042185
854.46166626,0.00037411
856.39047363,0.00005532
858.31928101,0.00024969
860.24808838,0.00032687
862.17689575,0.00018019
864.10570313,0.00014579
866.03451050,0.00016536
867.96331787,0.00026262
869.89212524,0.00009334
871.82093262,0.00008639
873.74973999,0.00050425
875.67854736,0.00023044
877.60735474,0.00029354
879.53616211,0.00061607
881.46496948,0.00016706
883.39377686,0.00015036
885.32258423,0.00013433
887.25139160,0.00013138
889.18019897,0.00032170
891.10900635,0.00031143
893.03781372,0.00044783
894.96662109,0.00043268
896.89542847,0.00028361
898.82423584,0.00015834
900.75304321,0.00030961
902.68185059,0.00031030
904.61065796,0.00022235
906.53946533,0.00032892
908.46827271,0.00020618
910.39708008,0.00027661
912.32588745,0.00041056
914.25469482,0.00040965
916.18350220,0.00027209
918.11230957,0.00033069
920.04111694,0.00050378
921.96992432,0.00045987
923.89873169,0.00033012
925.82753906,0.00014298
927.75634644,0.00034844
929.68515381,0.00054873
931.61396118,0.00050206
933.54276855,0.00031388
935.47157593,0.00050401
937.40038330,0.00068747
939.32919067,0.00043381
941.25799805,0.00063523
943.18680542,0.00061156
945.11561279,0.00072127
947.04442017,0.00066582
948.97322754,0.00034666
950.90203491,0.00042805
952.83084229,0.00028755
954.75964966,0.00058167
956.68845703,0.00055780
958.61726440,0.00038288
960.54607178,0.00053079
962.47487915,0.00048292
964.40368652,0.00071216
966.33249390,0.00073167
968.26130127,0.00069267
970.19010864,0.00063674
972.11891602,0.00071017
974.04772339,0.00076798
975.97653076,0.00046011
977.90533813,0.00052438
979.83414551,0.00072607
981.76295288,0.00079919
983.69176025,0.00056952
985.62056763,0.00056712
987.54937500,0.00094254
989.47818237,0.00101406
991.40698975,0.00130407
993.33579712,0.00142943
995.26460449,0.00123125
997.19341187,0.00129252
999.12221924,0.00152595
1001.05102661,0.00168666
1002.97983398,0.00159343
1004.90864136,0.00178795
1006.83744873,0.00182430
1008.76625610,0.00164918
1010.69506348,0.00195752
1012.62387085,0.00212462
1014.55267822,0.00232465
1016.48148560,0.00245764
1018.41029297,0.00260332
1020.33910034,0.00296591
1022.26790771,0.00283578
1024.19671509,0.00292689
1026.12552246,0.00316328
1028.05432983,0.00315126
1029.98313721,0.00319398
1031.91194458,0.00319334
1033.84075195,0.00323170
1035.76955933,0.00323497
1037.69836670,0.00343690
1039.62717407,0.00346611
1041.55598145,0.00335325
1043.48478882,0.00344909
1045.41359619,0.00346714
1047.34240356,0.00339755
1049.27121094,0.00313908
1051.20001831,0.00313684
1053.12882568,0.00326573
1055.05763306,0.00316347
1056.98644043,0.00289164
1058.91524780,0.00283597
1060.84405518,0.00293565
1062.77286255,0.00272996
1064.70166992,0.00284243
1066.63047729,0.00260604
1068.55928467,0.00238365
1070.48809204,0.00245429
1072.41689941,0.00209321
1074.34570679,0.00231523
1076.27451416,0.00222338
1078.20332153,0.00191923
1080.13212891,0.00202629
1082.06093628,0.00197969
1083.98974365,0.00209827
1085.91855103,0.00183076
1087.84735840,0.00163199
1089.77616577,0.00163971
1091.70497314,0.00151124
1093.63378052,0.00151973
1095.56258789,0.00132286
1097.49139526,0.00136232
1099.42020264,0.00168824
1101.34901001,0.00149460
1103.27781738,0.00125260
1105.20662476,0.00143790
1107.13543213,0.00132384
1109.06423950,0.00142405
1110.99304687,0.00149251
1112.92185425,0.00127890
1114.85066162,0.00140580
1116.77946899,0.00095728
1118.70827637,0.00108446
1120.63708374,0.00146823
1122.56589111,0.00113568
1124.49469849,0.00139027
1126.42350586,0.00139931
1128.35231323,0.00128981
1130.28112061,0.00149478
1132.20992798,0.00146893
1134.13873535,0.00139902
1136.06754272,0.00150288
1137.99635010,0.00162618
1139.92515747,0.00162111
1141.85396484,0.00180749
1143.78277222,0.00179559
1145.71157959,0.00193715
1147.64038696,0.00222375
1149.56919434,0.00224767
1151.49800171,0.00218168
1153.42680908,0.00209842
1155.35561646,0.00247638
1157.28442383,0.00260417
1159.21323120,0.00270830
1161.14203857,0.00283610
1163.07084595,0.00273881
1164.99965332,0.00305789
1166.92846069,0.00300977
1168.85726807,0.00317247
1170.78607544,0.00353240
1172.71488281,0.00340493
1174.64369019,0.00340152
1176.57249756,0.00350413
1178.50130493,0.00389030
1180.43011230,0.00402700
1182.35891968,0.00382293
1184.28772705,0.00412839
1186.21653442,0.00453334
1188.14534180,0.00456942
1190.07414917,0.00475874
1192.00295654,0.00506303
1193.93176392,0.00518312
1195.86057129,0.00539416
1197.78937866,0.00573620
1199.71818604,0.00617919
1201.64699341,0.00619158
1203.57580078,0.00632677
1205.50460815,0.00669441
1207.43341553,0.00659020
1209.36222290,0.00704134
1211.29103027,0.00738046
1213.21983765,0.00746588
1215.14864502,0.00780432
1217.07745239,0.00784208
1219.00625977,0.00804999
1220.93506714,0.00802762
1222.86387451,0.00805756
1224.79268188,0.00824513
1226.72148926,0.00833805
1228.65029663,0.00848186
1230.57910400,0.00834513
1232.50791138,0.00863473
1234.43671875,0.00871519
1236.36552612,0.00850983
1238.29433350,0.00863336
1240.22314087,0.00844293
1242.15194824,0.00841427
1244.08075562,0.00848054
1246.00956299,0.00833792
1247.93837036,0.00847038
1249.86717773,0.00854075
1251.79598511,0.00819152
1253.72479248,0.00818324
1255.65359985,0.00827312
1257.58240723,0.00790221
1259.51121460,0.00783526
1261.44002197,0.00787455
1263.36882935,0.00762065
1265.29763672,0.00747906
1267.22644409,0.00771080
1269.15525146,0.00758419
1271.08405884,0.00726308
1273.01286621,0.00728250
1274.94167358,0.00699766
1276.87048096,0.00700093
1278.79928833,0.00694814
1280.72809570,0.00672799
1282.65690308,0.00664624
1284.58571045,0.00645150
1286.51451782,0.00650910
1288.44332520,0.00611285
1290.37213257,0.00608529
1292.30093994,0.00619594
1294.22974731,0.00590929
1296.15855469,0.00602615
1298.08736206,0.00595506
1300.01616943,0.00610997
1301.94497681,0.00610566
1303.87378418,0.00615870
1305.80259155,0.00642119
1307.73139893,0.00624150
1309.66020630,0.00646260
1311.58901367,0.00666471
1313.51782104,0.00667642
1315.44662842,0.00676292
1317.37543579,0.00696392
1319.30424316,0.00718820
1321.23305054,0.00749215
1323.16185791,0.00792115
1325.09066528,0.00792956
1327.01947266,0.00800068
1328.94828003,0.00815237
1330.87708740,0.00841492
1332.80589478,0.00871307
1334.73470215,0.00879364
1336.66350952,0.00892493
1338.59231689,0.00886944
1340.52112427,0.00890652
1342.44993164,0.00920635
1344.37873901,0.00931826
1346.30754639,0.00919805
1348.23635376,0.00942605
1350.16516113,0.00937112
1352.09396851,0.00916114
1354.02277588,0.00923414
1355.95158325,0.00880159
1357.88039062,0.00888220
1359.80919800,0.00892867
1361.73800537,0.00840587
1363.66681274,0.00846658
1365.59562012,0.00878979
1367.52442749,0.00872280
1369.45323486,0.00866550
1371.38204224,0.00876927
1373.31084961,0.00814896
1375.23965698,0.00816664
1377.16846436,0.00861230
1379.09727173,0.00851522
1381.02607910,0.00856000
1382.95488647,0.00840863
1384.88369385,0.00846388
1386.81250122,0.00811579
1388.74130859,0.00834752
1390.67011597,0.00905024
1392.59892334,0.00848844
1394.52773071,0.00823586
1396.45653809,0.00846494
1398.38534546,0.00841582
1400.31415283,0.00854190
1402.24296021,0.00903941
1404.17176758,0.00880971
1406.10057495,0.00870251
1408.02938232,0.00895208
1409.95818970,0.00865146
1411.88699707,0.00891759
1413.81580444,0.00871163
1415.74461182,0.00854131
1417.67341919,0.00794212
1419.60222656,0.00727829
1421.53103394,0.00817698
1423.45984131,0.00794147
1425.38864868,0.00766245
1427.31745605,0.00789841
1429.24626343,0.00729613
1431.17507080,0.00693807
1433.10387817,0.00710027
1435.03268555,0.00638714
1436.96149292,0.00545594
1438.89030029,0.00648324
1440.81910767,0.00657364
1442.74791504,0.00610062
1444.67672241,0.00634415
1446.60552979,0.00568001
1448.53433716,0.00594393
1450.46314453,0.00614835
1452.39195190,0.00612113
1454.32075928,0.00638270
1456.24956665,0.00544372
1458.17837402,0.00572458
1460.10718140,0.00724430
1462.03598877,0.00759771
1463.96479614,0.00770401
1465.89360352,0.00803573
1467.82241089,0.00918999
1469.75121826,0.00980731
1471.68002563,0.00868763
1473.60883301,0.00925254
1475.53764038,0.01026677
1477.46644775,0.01109877
1479.39525513,0.01224397
1481.32406250,0.01217584
1483.25286987,0.01305440
1485.18167725,0.01323570
1487.11048462,0.01296898
1489.03929199,0.01302629
1490.96809937,0.01304962
1492.89690674,0.01519596
1494.82571411,0.01464330
1496.75452148,0.01341027
1498.68332886,0.01522092
1500.61213623,0.01536963
1502.54094360,0.01655458
1504.46975098,0.01559175
1506.39855835,0.01135633
1508.32736572,0.01397153
1510.25617310,0.01623314
1512.18498047,0.01570338
1514.11378784,0.01697491
1516.04259521,0.01519507
1517.97140259,0.01589460
1519.90020996,0.01530191
1521.82901733,0.01342212
1523.75782471,0.01631949
1525.68663208,0.01584652
1527.61543945,0.01587434
1529.54424683,0.01742447
1531.47305420,0.01695317
1533.40186157,0.01537566
1535.33066895,0.01616020
1537.25947632,0.01753309
1539.18828369,0.01232473
1541.11709106,0.01288944
1543.04589844,0.01533501
1544.97470581,0.01456239
1546.90351318,0.01734820
1548.83232056,0.01614440
1550.76112793,0.01667179
1552.68993530,0.01640562
1554.61874268,0.01484340
1556.54755005,0.01592585
1558.47635742,0.01130171
1560.40516479,0.01217701
1562.33397217,0.01696109
1564.26277954,0.01567702
1566.19158691,0.01604437
1568.12039429,0.01592516
1570.04920166,0.01411453
1571.97800903,0.01625014
1573.90681641,0.01614358
1575.83562378,0.01293959
1577.76443115,0.01436445
1579.69323853,0.01583917
1581.62204590,0.01544242
1583.55085327,0.01550934
1585.47966064,0.01521200
1587.40846802,0.01536725
1589.33727539,0.01489721
1591.26608276,0.01476933
1593.19489014,0.01467254
1595.12369751,0.01447876
1597.05250488,0.01447710
1598.98131226,0.01429519
1600.91011963,0.01423335
1602.83892700,0.01364993
1604.76773437,0.01375808
1606.69654175,0.01344534
1608.62534912,0.01323149
1610.55415649,0.01296312
1612.48296387,0.01299777
1614.41177124,0.01306207
1616.34057861,0.01054120
1618.26938599,0.01142471
1620.19819336,0.01320286
1622.12700073,0.01169734
1624.05580811,0.01173587
1625.98461548,0.01240694
1627.91342285,0.01237371
1629.84223022,0.01228996
1631.77103760,0.01312810
1633.69984497,0.01215242
1635.62865234,0.01025001
1637.55745972,0.01192687
1639.48626709,0.01313485
1641.41507446,0.01293149
1643.34388184,0.01350892
1645.27268921,0.01231119
1647.20149658,0.01094894
1649.13030396,0.01372356
1651.05911133,0.01307075
1652.98791870,0.00877993
1654.91672607,0.01187414
1656.84553345,0.01500105
1658.77434082,0.01462272
1660.70314819,0.01508546
1662.63195557,0.01392034
1664.56076294,0.01490584
1666.48957031,0.01640449
1668.41837769,0.01458765
1670.34718506,0.01445953
1672.27599243,0.01643108
1674.20479980,0.01527910
1676.13360718,0.01503421
1678.06241455,0.01747819
1679.99122192,0.01719259
1681.92002930,0.01717355
1683.84883667,0.01428676
1685.77764404,0.01427913
1687.70645142,0.01956214
1689.63525879,0.01736670
1691.56406616,0.01919347
1693.49287354,0.01979646
1695.42168091,0.01473040
1697.35048828,0.01836890
1699.27929565,0.01626886
1701.20810303,0.01495726
1703.13691040,0.02061750
1705.06571777,0.01900758
1706.99452515,0.01956064
1708.92333252,0.02130429
1710.85213989,0.02060790
1712.78094727,0.02119644
1714.70975464,0.01988819
1716.63856201,0.01823275
1718.56736938,0.01803806
1720.49617676,0.02149701
1722.42498413,0.02244259
1724.35379150,0.02101514
1726.28259888,0.02309557
1728.21140625,0.02147260
1730.14021362,0.02163574
1732.06902100,0.02123821
1733.99782837,0.01644854
1735.92663574,0.02046972
1737.85544312,0.02272071
1739.78425049,0.02036394
1741.71305786,0.02240871
1743.64186523,0.02257696
1745.57067261,0.02258080
1747.49947998,0.02309290
1749.42828735,0.02210260
1751.35709473,0.02134869
1753.28590210,0.02373533
1755.21470947,0.02472314
1757.14351685,0.02269763
1759.07232422,0.02511770
1761.00113159,0.02357709
1762.92993896,0.02288368
1764.85874634,0.02625086
1766.78755371,0.02349958
1768.71636108,0.02389416
1770.64516846,0.02377928
1772.57397583,0.02146824
1774.50278320,0.02408808
1776.43159058,0.02540876
1778.36039795,0.02514498
1780.28920532,0.02480431
1782.21801270,0.02505504
1784.14682007,0.02509638
1786.07562744,0.02477070
1788.00443481,0.02602619
1789.93324219,0.02518840
1791.86204956,0.02297376
1793.79085693,0.02413609
1795.71966431,0.02580509
1797.64847168,0.02528576
1799.57727905,0.02504038
1801.50608643,0.02484119
1803.43489380,0.02556093
1805.36370117,0.02609212
1807.29250854,0.02597022
1809.22131592,0.02606045
1811.15012329,0.02525775
1813.07893066,0.02607051
1815.00773804,0.02605526
1816.93654541,0.02598799
1818.86535278,0.02622788
1820.79416016,0.02592377
1822.72296753,0.02648690
1824.65177490,0.02480261
1826.58058228,0.02580006
1828.50938965,0.02582914
1830.43819702,0.02428265
1832.36700439,0.02633187
1834.29581177,0.02600509
1836.22461914,0.02614344
1838.15342651,0.02600789
1840.08223389,0.02626967
1842.01104126,0.02628247
1843.93984863,0.02325807
1845.86865601,0.02495839
1847.79746338,0.02613280
1849.72627075,0.02546722
1851.65507812,0.02655768
1853.58388550,0.02607263
1855.51269287,0.02619000
1857.44150024,0.02613336
1859.37030762,0.02579009
1861.29911499,0.02601032
1863.22792236,0.02586074
1865.15672974,0.02596875
1867.08553711,0.02511569
1869.01434448,0.02407686
1870.94315186,0.02521512
1872.87195923,0.02611261
1874.80076660,0.02554822
1876.72957397,0.02585677
1878.65838135,0.02578901
1880.58718872,0.02561789
1882.51599609,0.02574489
1884.44480347,0.02540782
1886.37361084,0.02579436
1888.30241821,0.02508644
1890.23122559,0.02467173
1892.16003296,0.02569741
1894.08884033,0.02529404
1896.01764771,0.02505096
1897.94645508,0.02537781
1899.87526245,0.02528327
1901.80406982,0.02543676
1903.73287720,0.02530574
1905.66168457,0.02531188
1907.59049194,0.02503566
1909.51929932,0.02480129
1911.44810669,0.02497406
1913.37691406,0.02497969
1915.30572144,0.02530916
1917.23452881,0.02427337
1919.16333618,0.02430432
1921.09214355,0.02523527
1923.02095093,0.02424778
1924.94975830,0.02483376
1926.87856567,0.02504015
1928.80737305,0.02467586
1930.73618042,0.02503143
1932.66498779,0.02461830
1934.59379517,0.02495525
1936.52260254,0.02467855
1938.45140991,0.02477807
1940.38021729,0.02475673
1942.30902466,0.02394008
1944.23783203,0.02447391
1946.16663940,0.02447431
1948.09544678,0.02449095
1950.02425415,0.02465075
1951.95306152,0.02442301
1953.88186890,0.02453796
1955.81067627,0.02451356
1957.73948364,0.02452232
1959.66829102,0.02444134
1961.59709839,0.02445714
1963.52590576,0.02436445
1965.45471313,0.02410193
1967.38352051,0.02396766
1969.31232788,0.02421775
1971.24113525,0.02429418
1973.16994263,0.02405847
1975.09875000,0.02422143
1977.02755737,0.02403678
1978.95636475,0.02414797
1980.88517212,0.02414298
1982.81397949,0.02390440
1984.74278687,0.02409802
1986.67159424,0.02379053
1988.60040161,0.02384972
1990.52920898,0.02361094
1992.45801636,0.02324662
1994.38682373,0.02360138
1996.31563110,0.02351549
1998.24443848,0.02358997
2000.17324585,0.02357299
2002.10205322,0.02332245
2004.03086060,0.02340201
2005.95966797,0.02338186
2007.88847534,0.02336800
2009.81728271,0.02326497
2011.74609009,0.02313918
2013.67489746,0.02313432
2015.60370483,0.02292011
2017.53251221,0.02280287
2019.46131958,0.02294658
2021.39012695,0.02283155
2023.31893433,0.02272859
2025.24774170,0.02285197
2027.17654907,0.02267300
2029.10535645,0.02250087
2031.03416382,0.02259305
2032.96297119,0.02247723
2034.89177856,0.02236903
2036.82058594,0.02244471
2038.74939331,0.02235974
2040.67820068,0.02223538
2042.60700806,0.02221911
2044.53581543,0.02229681
2046.46462280,0.02224402
2048.39343018,0.02209087
2050.32223755,0.02206565
2052.25104492,0.02191324
2054.17985229,0.02191720
2056.10865967,0.02198582
2058.03746704,0.02169188
2059.96627441,0.02161846
2061.89508179,0.02170534
2063.82388916,0.02151013
2065.75269653,0.02158256
2067.68150391,0.02167109
2069.61031128,0.02143680
2071.53911865,0.02158993
2073.46792603,0.02158537
2075.39673340,0.02136535
2077.32554077,0.02141779
2079.25434814,0.02133228
2081.18315552,0.02132033
2083.11196289,0.02117314
2085.04077026,0.02109156
2086.96957764,0.02122969
2088.89838501,0.02110330
2090.82719238,0.02102677
2092.75599976,0.02106912
2094.68480713,0.02109575
2096.61361450,0.02093356
2098.54242187,0.02094719
2100.47122925,0.02105975
2102.40003662,0.02092111
2104.32884399,0.02095875
2106.25765137,0.02078275
2108.18645874,0.02067816
2110.11526611,0.02080771
2112.04407349,0.02071899
2113.97288086,0.02072596
2115.90168823,0.02072252
2117.83049561,0.02072012
2119.75930298,0.02067246
2121.68811035,0.02064554
2123.61691772,0.02067259
2125.54572510,0.02065258
2127.47453247,0.02080136
2129.40333984,0.02065171
2131.33214722,0.02055572
2133.26095459,0.02069887
2135.18976196,0.02053099
2137.11856934,0.02052853
2139.04737671,0.02061140
2140.97618408,0.02056507
2142.90499146,0.02055790
2144.83379883,0.02061525
2146.76260620,0.02059802
2148.69141357,0.02043445
2150.62022095,0.02055794
2152.54902832,0.02053840
2154.47783569,0.02043097
2156.40664307,0.02057372
2158.33545044,0.02043282
2160.26425781,0.02045142
2162.19306519,0.02056336
2164.12187256,0.02049169
2166.05067993,0.02051152
2167.97948730,0.02033282
2169.90829468,0.02033040
2171.83710205,0.02055718
2173.76590942,0.02048413
2175.69471680,0.02048879
2177.62352417,0.02057892
2179.55233154,0.02045539
2181.48113892,0.02042119
2183.40994629,0.02043987
2185.33875366,0.02047018
2187.26756104,0.02045208
2189.19636841,0.02037055
2191.12517578,0.02052654
2193.05398315,0.02050589
2194.98279053,0.02041291
2196.91159790,0.02057378
2198.84040527,0.02054462
2200.76921265,0.02045597
2202.69802002,0.02054605
2204.62682739,0.02048200
2206.55563477,0.02038149
2208.48444214,0.02062472
2210.41324951,0.02061496
2212.34205688,0.02051224
2214.27086426,0.02064199
2216.19967163,0.02046362
2218.12847900,0.02049761
2220.05728638,0.02062592
2221.98609375,0.02051422
2223.91490112,0.02052056
2225.84370850,0.02046607
2227.77251587,0.02041778
2229.70132324,0.02057993
2231.63013062,0.02065960
2233.55893799,0.02043605
2235.48774536,0.02043170
2237.41655273,0.02043641
2239.34536011,0.02031608
2241.27416748,0.02049979
2243.20297485,0.02046029
2245.13178223,0.02039053
2247.06058960,0.02050246
2248.98939697,0.02046660
2250.91820435,0.02044899
2252.84701172,0.02048100
2254.77581909,0.02052060
2256.70462646,0.02049489
2258.63343384,0.02038665
2260.56224121,0.02048934
2262.49104858,0.02067980
2264.41985596,0.02050060
2266.34866333,0.02041602
2268.27747070,0.02042765
2270.20627808,0.02034064
2272.13508545,0.02045986
2274.06389282,0.02043429
2275.99270020,0.02042589
2277.92150757,0.02036802
2279.85031494,0.02033318
2281.77912231,0.02050662
2283.70792969,0.02037181
2285.63673706,0.02030599
2287.56554443,0.02040527
2289.49435181,0.02037074
2291.42315918,0.02030573
2293.35196655,0.02028807
2295.28077393,0.02022317
2297.20958130,0.02018032
2299.13838867,0.02018673
2301.06719604,0.02005485
2302.99600342,0.02006627
2304.92481079,0.01993468
2306.85361816,0.01969833
2308.78242554,0.01974197
2310.71123291,0.01960092
2312.64004028,0.01930801
2314.56884766,0.01921379
2316.49765503,0.01910785
2318.42646240,0.01878886
2320.35526978,0.01852076
2322.28407715,0.01826403
2324.21288452,0.01817376
2326.14169189,0.01816618
2328.07049927,0.01788604
2329.99930664,0.01756092
2331.92811401,0.01737723
2333.85692139,0.01758267
2335.78572876,0.01747172
2337.71453613,0.01723504
2339.64334351,0.01734313
2341.57215088,0.01731360
2343.50095825,0.01764363
2345.42976562,0.01806508
2347.35857300,0.01880527
2349.28738037,0.01938252
2351.21618774,0.01873410
2353.14499512,0.01787557
2355.07380249,0.01715189
2357.00260986,0.01668584
2358.93141724,0.01638525
2360.86022461,0.01614041
2362.78903198,0.01624824
2364.71783936,0.01638104
2366.64664673,0.01659149
2368.57545410,0.01692726
2370.50426147,0.01734618
2372.43306885,0.01783332
2374.36187622,0.01824070
2376.29068359,0.01868623
2378.21949097,0.01924178
2380.14829834,0.01946929
2382.07710571,0.01963817
2384.00591309,0.02001370
2385.93472046,0.02002254
2387.86352783,0.02003767
2389.79233521,0.02005063
2391.72114258,0.01996633
2393.64994995,0.02003112
2395.57875732,0.02003125
2397.50756470,0.02000633
2399.43637207,0.01999879
2401.36517944,0.02003231
2403.29398682,0.01984653
2405.22279419,0.01987543
2407.15160156,0.02004123
2409.08040894,0.01991184
2411.00921631,0.01984927
2412.93802368,0.01975931
2414.86683105,0.01990865
2416.79563843,0.01989414
2418.72444580,0.01985183
2420.65325317,0.01996622
2422.58206055,0.01971661
2424.51086792,0.01970402
2426.43967529,0.01966469
2428.36848267,0.01968790
2430.29729004,0.01982934
2432.22609741,0.01977088
2434.15490479,0.01980557
2436.08371216,0.01965514
2438.01251953,0.01961185
2439.94132690,0.01971117
2441.87013428,0.01968886
2443.79894165,0.01959004
2445.72774902,0.01948616
2447.65655640,0.01955479
2449.58536377,0.01963428
2451.51417114,0.01964915
2453.44297852,0.01960133
2455.37178589,0.01960080
2457.30059326,0.01960831
2459.22940063,0.01951645
2461.15820801,0.01944093
2463.08701538,0.01943747
2465.01582275,0.01943560
2466.94463013,0.01947614
2468.87343750,0.01937804
2470.80224487,0.01917817
2472.73105225,0.01943054
2474.65985962,0.01946956
2476.58866699,0.01930010
2478.51747437,0.01940503
2480.44628174,0.01934938
2482.37508911,0.01933800
2484.30389648,0.01921659
2486.23270386,0.01927240
2488.16151123,0.01940092
2490.09031860,0.01910891
2492.01912598,0.01912267
2493.94793335,0.01929115
2495.87674072,0.01920029
2497.80554810,0.01912064
2499.73435547,0.01921115
2501.66316284,0.01923449
2503.59197021,0.01914234
2505.52077759,0.01909145
2507.44958496,0.01906095
2509.37839233,0.01905632
2511.30719971,0.01907348
2513.23600708,0.01907959
2515.16481445,0.01893489
2517.09362183,0.01906836
2519.02242920,0.01911908
2520.95123657,0.01893682
2522.88004395,0.01907158
2524.80885132,0.01891884
2526.73765869,0.01892435
2528.66646606,0.01901297
2530.59527344,0.01879043
2532.52408081,0.01889169
2534.45288818,0.01890408
2536.38169556,0.01883561
2538.31050293,0.01886499
2540.23931030,0.01882632
2542.16811768,0.01884054
2544.09692505,0.01885967
2546.02573242,0.01878878
2547.95453979,0.01874596
2549.88334717,0.01866930
2551.81215454,0.01854931
2553.74096191,0.01866969
2555.66976929,0.01863902
2557.59857666,0.01859897
2559.52738403,0.01868122
2561.45619141,0.01857641
2563.38499878,0.01852581
2565.31380615,0.01846543
2567.24261353,0.01843726
2569.17142090,0.01838486
2571.10022827,0.01845613
2573.02903564,0.01851863
2574.95784302,0.01831920
2576.88665039,0.01832902
2578.81545776,0.01836636
2580.74426514,0.01839657
2582.67307251,0.01838822
2584.60187988,0.01822956
2586.53068726,0.01820617
2588.45949463,0.01829047
2590.38830200,0.01830411
2592.31710937,0.01822220
2594.24591675,0.01827837
2596.17472412,0.01815410
2598.10353149,0.01802501
2600.03233887,0.01819731
2601.96114624,0.01808693
2603.88995361,0.01801781
2605.81876099,0.01808713
2607.74756836,0.01801269
2609.67637573,0.01809988
2611.60518311,0.01803928
2613.53399048,0.01784919
2615.46279785,0.01785106
2617.39160522,0.01785609
2619.32041260,0.01789092
2621.24921997,0.01780158
2623.17802734,0.01777329
2625.10683472,0.01784219
2627.03564209,0.01771731
2628.96444946,0.01773250
2630.89325684,0.01766238
2632.82206421,0.01760064
2634.75087158,0.01763573
2636.67967895,0.01758783
2638.60848633,0.01761908
2640.53729370,0.01748065
2642.46610107,0.01752202
2644.39490845,0.01754320
2646.32371582,0.01741317
2648.25252319,0.01747745
2650.18133057,0.01740074
2652.11013794,0.01731120
2654.03894531,0.01728139
2655.96775269,0.01728240
2657.89656006,0.01718498
2659.82536743,0.01721486
2661.75417480,0.01733844
2663.68298218,0.01722902
2665.61178955,0.01719543
2667.54059692,0.01709440
2669.46940430,0.01711207
2671.39821167,0.01708763
2673.32701904,0.01702001
2675.25582642,0.01712827
2677.18463379,0.01704726
2679.11344116,0.01695592
2681.04224854,0.01686314
2682.97105591,0.01696118
2684.89986328,0.01689878
2686.82867065,0.01675515
2688.75747803,0.01681192
2690.68628540,0.01670725
2692.61509277,0.01682084
2694.54390015,0.01668459
2696.47270752,0.01663101
2698.40151489,0.01675684
2700.33032227,0.01654011
2702.25912964,0.01661162
2704.18793701,0.01658982
2706.11674438,0.01647236
2708.04555176,0.01644292
2709.97435913,0.01645996
2711.90316650,0.01645545
2713.83197388,0.01626991
2715.76078125,0.01632597
2717.68958862,0.01630691
2719.61839600,0.01625602
2721.54720337,0.01621303
2723.47601074,0.01608173
2725.40481812,0.01614222
2727.33362549,0.01604089
2729.26243286,0.01599793
2731.19124023,0.01610791
2733.12004761,0.01597007
2735.04885498,0.01586486
2736.97766235,0.01595863
2738.90646973,0.01593029
2740.83527710,0.01580191
2742.76408447,0.01574902
2744.69289185,0.01575463
2746.62169922,0.01572873
2748.55050659,0.01556772
2750.47931396,0.01555168
2752.40812134,0.01554826
2754.33692871,0.01547264
2756.26573608,0.01552537
2758.19454346,0.01540941
2760.12335083,0.01528987
2762.05215820,0.01527823
2763.98096558,0.01535115
2765.90977295,0.01535595
2767.83858032,0.01515492
2769.76738770,0.01521024
2771.69619507,0.01518094
2773.62500244,0.01504474
2775.55380981,0.01509773
2777.48261719,0.01499995
2779.41142456,0.01496653
2781.34023193,0.01495014
2783.26903931,0.01493479
2785.19784668,0.01491154
2787.12665405,0.01480878
2789.05546143,0.01488071
2790.98426880,0.01473057
2792.91307617,0.01464688
2794.84188354,0.01465888
2796.77069092,0.01448978
2798.69949829,0.01462123
2800.62830566,0.01451073
2802.55711304,0.01433917
2804.48592041,0.01435634
2806.41472778,0.01415293
2808.34353516,0.01423318
2810.27234253,0.01429698
2812.20114990,0.01416529
2814.12995728,0.01413948
2816.05876465,0.01403863
2817.98757202,0.01397135
2819.91637939,0.01397605
2821.84518677,0.01391898
2823.77399414,0.01380451
2825.70280151,0.01376686
2827.63160889,0.01371681
2829.56041626,0.01363888
2831.48922363,0.01363262
2833.41803101,0.01360653
2835.34683838,0.01355629
2837.27564575,0.01339389
2839.20445312,0.01330439
2841.13326050,0.01336844
2843.06206787,0.01328428
2844.99087524,0.01314597
2846.91968262,0.01311430
2848.84848999,0.01308974
2850.77729736,0.01294107
2852.70610474,0.01281997
2854.63491211,0.01287957
2856.56371948,0.01285765
2858.49252686,0.01273754
2860.42133423,0.01261694
2862.35014160,0.01256386
2864.27894897,0.01269768
2866.20775635,0.01255626
2868.13656372,0.01239527
2870.06537109,0.01256089
2871.99417847,0.01237513
2873.92298584,0.01221950
2875.85179321,0.01235959
2877.78060059,0.01233594
2879.70940796,0.01224156
2881.63821533,0.01212761
2883.56702270,0.01207967
2885.49583008,0.01202909
2887.42463745,0.01199239
2889.35344482,0.01198956
2891.28225220,0.01189132
2893.21105957,0.01178554
2895.13986694,0.01167589
2897.06867432,0.01165793
2898.99748169,0.01161858
2900.92628906,0.01149598
2902.85509644,0.01140175
2904.78390381,0.01136971
2906.71271118,0.01137140
2908.64151855,0.01126231
2910.57032593,0.01121688
2912.49913330,0.01107852
2914.42794067,0.01092243
2916.35674805,0.01101535
2918.28555542,0.01082348
2920.21436279,0.01058614
2922.14317017,0.01068091
2924.07197754,0.01065123
2926.00078491,0.01057885
2927.92959229,0.01058006
2929.85839966,0.01046489
2931.78720703,0.01042450
2933.71601440,0.01038714
2935.64482178,0.01024904
2937.57362915,0.01024474
2939.50243652,0.01028778
2941.43124390,0.01028912
2943.36005127,0.01012559
2945.28885864,0.00997929
2947.21766602,0.01011021
2949.14647339,0.01001013
2951.07528076,0.00980736
2953.00408813,0.00985390
2954.93289551,0.00985952
2956.86170288,0.00973570
2958.79051025,0.00958532
2960.71931763,0.00956301
2962.64812500,0.00949932
2964.57693237,0.00942954
2966.50573975,0.00939375
2968.43454712,0.00929054
2970.36335449,0.00939732
2972.29216187,0.00934110
2974.22096924,0.00918142
2976.14977661,0.00924957
2978.07858398,0.00917547
2980.00739136,0.00905799
2981.93619873,0.00907357
2983.86500610,0.00905864
2985.79381348,0.00883872
2987.72262085,0.00884859
2989.65142822,0.00888261
2991.58023560,0.00857246
2993.50904297,0.00860608
2995.43785034,0.00864066
2997.36665771,0.00856275
2999.29546509,0.00851506
3001.22427246,0.00841336
3003.15307983,0.00847182
3005.08188721,0.00830895
3007.01069458,0.00823638
3008.93950195,0.00818352
3010.86830933,0.00807017
3012.79711670,0.00811727
3014.72592407,0.00795884
3016.65473145,0.00796689
3018.58353882,0.00796952
3020.51234619,0.00787575
3022.44115356,0.00782249
3024.36996094,0.00766997
3026.29876831,0.00771012
3028.22757568,0.00764282
3030.15638306,0.00754979
3032.08519043,0.00754857
3034.01399780,0.00739205
3035.94280518,0.00738847
3037.87161255,0.00740365
3039.80041992,0.00726746
3041.72922729,0.00723793
3043.65803467,0.00718664
3045.58684204,0.00709925
3047.51564941,0.00708107
3049.44445679,0.00700878
3051.37326416,0.00700754
3053.30207153,0.00695342
3055.23087891,0.00686984
3057.15968628,0.00688450
3059.08849365,0.00679108
3061.01730103,0.00670215
3062.94610840,0.00662763
3064.87491577,0.00662125
3066.80372314,0.00661440
3068.73253052,0.00653834
3070.66133789,0.00652704
3072.59014526,0.00640518
3074.51895264,0.00628228
3076.44776001,0.00635486
3078.37656738,0.00635363
3080.30537476,0.00616635
3082.23418213,0.00624127
3084.16298950,0.00623258
3086.09179687,0.00606113
3088.02060425,0.00618396
3089.94941162,0.00606565
3091.87821899,0.00604173
3093.80702637,0.00604502
3095.73583374,0.00581661
3097.66464111,0.00596889
3099.59344849,0.00597398
3101.52225586,0.00579086
3103.45106323,0.00581679
3105.37987061,0.00585187
3107.30867798,0.00572019
3109.23748535,0.00562948
3111.16629272,0.00572390
3113.09510010,0.00564150
3115.02390747,0.00556419
3116.95271484,0.00555474
3118.88152222,0.00552630
3120.81032959,0.00554637
3122.73913696,0.00549718
3124.66794434,0.00547819
3126.59675171,0.00549967
3128.52555908,0.00545736
3130.45436645,0.00531862
3132.38317383,0.00532431
3134.31198120,0.00535785
3136.24078857,0.00523204
3138.16959595,0.00520714
3140.09840332,0.00526064
3142.02721069,0.00533943
3143.95601807,0.00524367
3145.88482544,0.00511359
3147.81363281,0.00519171
3149.74244019,0.00515499
3151.67124756,0.00506040
3153.60005493,0.00505790
3155.52886230,0.00515393
3157.45766968,0.00513337
3159.38647705,0.00496316
3161.31528442,0.00504431
3163.24409180,0.00505438
3165.17289917,0.00495783
3167.10170654,0.00503664
3169.03051392,0.00496193
3170.95932129,0.00489459
3172.88812866,0.00496777
3174.81693604,0.00498618
3176.74574341,0.00495859
3178.67455078,0.00488772
3180.60335815,0.00486121
3182.53216553,0.00490750
3184.46097290,0.00492827
3186.38978027,0.00486636
3188.31858765,0.00486257
3190.24739502,0.00483451
3192.17620239,0.00476554
3194.10500977,0.00481932
3196.03381714,0.00486920
3197.96262451,0.00487589
3199.89143188,0.00479109
3201.82023926,0.00479580
3203.74904663,0.00479368
3205.67785400,0.00478487
3207.60666138,0.00488081
3209.53546875,0.00474321
3211.46427612,0.00479657
3213.39308350,0.00487038
3215.32189087,0.00477032
3217.25069824,0.00481529
3219.17950562,0.00481990
3221.10831299,0.00490558
3223.03712036,0.00488952
3224.96592773,0.00481354
3226.89473511,0.00479420
3228.82354248,0.00486134
3230.75234985,0.00495131
3232.68115723,0.00483693
3234.60996460,0.00484279
3236.53877197,0.00487280
3238.46757935,0.00487235
3240.39638672,0.00483772
3242.32519409,0.00490294
3244.25400146,0.00499882
3246.18280884,0.00489267
3248.11161621,0.00497690
3250.04042358,0.00496979
3251.96923096,0.00493056
3253.89803833,0.00496833
3255.82684570,0.00499272
3257.75565308,0.00507949
3259.68446045,0.00498321
3261.61326782,0.00497205
3263.54207520,0.00501213
3265.47088257,0.00506639
3267.39968994,0.00510483
3269.32849731,0.00510871
3271.25730469,0.00515366
3273.18611206,0.00511271
3275.11491943,0.00513850
3277.04372681,0.00505864
3278.97253418,0.00509349
3280.90134155,0.00517650
3282.83014893,0.00506770
3284.75895630,0.00511571
3286.68776367,0.00518061
3288.61657104,0.00518624
3290.54537842,0.00515957
3292.47418579,0.00519522
3294.40299316,0.00525102
3296.33180054,0.00525606
3298.26060791,0.00527966
3300.18941528,0.00524827
3302.11822266,0.00524211
3304.04703003,0.00523973
3305.97583740,0.00527058
3307.90464478,0.00526729
3309.83345215,0.00523133
3311.76225952,0.00524155
3313.69106689,0.00527467
3315.61987427,0.00530593
3317.54868164,0.00527278
3319.47748901,0.00542697
3321.40629639,0.00549773
3323.33510376,0.00529212
3325.26391113,0.00529973
3327.19271851,0.00539248
3329.12152588,0.00535539
3331.05033325,0.00537023
3332.97914062,0.00537121
3334.90794800,0.00537910
3336.83675537,0.00544197
3338.76556274,0.00542311
3340.69437012,0.00545674
3342.62317749,0.00548240
3344.55198486,0.00548807
3346.48079224,0.00558263
3348.40959961,0.00561253
3350.33840698,0.00564758
3352.26721436,0.00565261
3354.19602173,0.00559426
3356.12482910,0.00558223
3358.05363647,0.00560808
3359.98244385,0.00567184
3361.91125122,0.00574674
3363.84005859,0.00572583
3365.76886597,0.00563881
3367.69767334,0.00567287
3369.62648071,0.00580489
3371.55528809,0.00579345
3373.48409546,0.00569795
3375.41290283,0.00580387
3377.34171020,0.00576211
3379.27051758,0.00569132
3381.19932495,0.00583436
3383.12813232,0.00585521
3385.05693970,0.00587838
3386.98574707,0.00584357
3388.91455444,0.00595335
3390.84336182,0.00593938
3392.77216919,0.00585827
3394.70097656,0.00609339
3396.62978394,0.00603696
3398.55859131,0.00607498
3400.48739868,0.00606924
3402.41620605,0.00604918
3404.34501343,0.00619356
3406.27382080,0.00614408
3408.20262817,0.00625494
3410.13143555,0.00617081
3412.06024292,0.00625334
3413.98905029,0.00634337
3415.91785767,0.00619902
3417.84666504,0.00636248
3419.77547241,0.00633162
3421.70427979,0.00635601
3423.63308716,0.00648549
3425.56189453,0.00647365
3427.49070190,0.00647208
3429.41950928,0.00651280
3431.34831665,0.00658014
3433.27712402,0.00659875
3435.20593140,0.00660430
3437.13473877,0.00655714
3439.06354614,0.00667287
3440.99235352,0.00664390
3442.92116089,0.00654482
3444.84996826,0.00669063
3446.77877563,0.00669825
3448.70758301,0.00668056
3450.63639038,0.00674274
3452.56519775,0.00679881
3454.49400513,0.00683411
3456.42281250,0.00684243
3458.35161987,0.00686072
3460.28042725,0.00698623
3462.20923462,0.00699975
3464.13804199,0.00696735
3466.06684937,0.00700880
3467.99565674,0.00699087
3469.92446411,0.00715852
3471.85327148,0.00708656
3473.78207886,0.00700974
3475.71088623,0.00711767
3477.63969360,0.00714640
3479.56850098,0.00724783
3481.49730835,0.00715443
3483.42611572,0.00721790
3485.35492310,0.00732984
3487.28373047,0.00732173
3489.21253784,0.00734092
3491.14134521,0.00746431
3493.07015259,0.00752319
3494.99895996,0.00737769
3496.92776733,0.00751705
3498.85657471,0.00750847
3500.78538208,0.00752302
3502.71418945,0.00744182
3504.64299683,0.00739504
3506.57180420,0.00769031
3508.50061157,0.00758082
3510.42941895,0.00770284
3512.35822632,0.00776161
3514.28703369,0.00776843
3516.21584106,0.00791755
3518.14464844,0.00781858
3520.07345581,0.00791102
3522.00226318,0.00782162
3523.93107056,0.00775909
3525.85987793,0.00782192
3527.78868530,0.00787608
3529.71749268,0.00792929
3531.64630005,0.00805431
3533.57510742,0.00816059
3535.50391479,0.00798105
3537.43272217,0.00805021
3539.36152954,0.00816782
3541.29033691,0.00831950
3543.21914429,0.00830906
3545.14795166,0.00808961
3547.07675903,0.00809425
3549.00556641,0.00826972
3550.93437378,0.00841445
3552.86318115,0.00822352
3554.79198853,0.00842031
3556.72079590,0.00857881
3558.64960327,0.00845300
3560.57841064,0.00848624
3562.50721802,0.00847240
3564.43602539,0.00852964
3566.36483276,0.00806176
3568.29364014,0.00789382
3570.22244751,0.00851160
3572.15125488,0.00884927
3574.08006226,0.00879349
3576.00886963,0.00873381
3577.93767700,0.00881149
3579.86648437,0.00883535
3581.79529175,0.00888544
3583.72409912,0.00898693
3585.65290649,0.00880928
3587.58171387,0.00816793
3589.51052124,0.00834781
3591.43932861,0.00905311
3593.36813599,0.00885640
3595.29694336,0.00874436
3597.22575073,0.00895442
3599.15455811,0.00902851
3601.08336548,0.00893805
3603.01217285,0.00907893
3604.94098022,0.00937789
3606.86978760,0.00907274
3608.79859497,0.00853604
3610.72740234,0.00883104
3612.65620972,0.00899153
3614.58501709,0.00882101
3616.51382446,0.00965270
3618.44263184,0.00880287
3620.37143921,0.00852356
3622.30024658,0.00975329
3624.22905395,0.00943407
3626.15786133,0.00993296
3628.08666870,0.00842562
3630.01547607,0.00771434
3631.94428345,0.00980982
3633.87309082,0.00955151
3635.80189819,0.00983979
3637.73070557,0.01009007
3639.65951294,0.00994018
3641.58832031,0.01017384
3643.51712769,0.01005257
3645.44593506,0.01014570
3647.37474243,0.00918821
3649.30354980,0.00846822
3651.23235718,0.00868442
3653.16116455,0.01036817
3655.08997192,0.01028662
3657.01877930,0.00931097
3658.94758667,0.01071025
3660.87639404,0.01054614
3662.80520142,0.01073898
3664.73400879,0.01085250
3666.66281616,0.01088680
3668.59162354,0.01057029
3670.52043091,0.00881448
3672.44923828,0.01065616
3674.37804565,0.01011707
3676.30685303,0.00851569
3678.23566040,0.01070935
3680.16446777,0.01092857
3682.09327515,0.01098196
3684.02208252,0.01145287
3685.95088989,0.01137366
3687.87969727,0.01028902
3689.80850464,0.00944133
3691.73731201,0.01080030
3693.66611938,0.01118910
3695.59492676,0.01146095
3697.52373413,0.01151622
3699.45254150,0.01146074
3701.38134888,0.01124701
3703.31015625,0.01084984
3705.23896362,0.01183583
3707.16777100,0.01126782
3709.09657837,0.01104884
3711.02538574,0.01039016
3712.95419312,0.00975858
3714.88300049,0.01147458
3716.81180786,0.01127830
3718.74061523,0.01135162
3720.66942261,0.01108459
3722.59822998,0.01073796
3724.52703735,0.01113404
3726.45584473,0.01031721
3728.38465210,0.01123534
3730.31345947,0.01103590
3732.24226685,0.01026411
3734.17107422,0.01007535
3736.09988159,0.00948796
3738.02868896,0.01006094
3739.95749634,0.01082972
3741.88630371,0.01140278
3743.81511108,0.00883376
3745.74391846,0.00829499
3747.67272583,0.01085443
3749.60153320,0.00931606
3751.53034058,0.00858207
3753.45914795,0.00983128
3755.38795532,0.01063850
3757.31676270,0.01099583
3759.24557007,0.01008814
3761.17437744,0.01058232
3763.10318481,0.01120808
3765.03199219,0.01041566
3766.96079956,0.01064888
3768.88960693,0.01052036
3770.81841431,0.00996860
3772.74722168,0.01077096
3774.67602905,0.01092091
3776.60483643,0.01086896
3778.53364380,0.01053836
3780.46245117,0.01021951
3782.39125854,0.01077674
3784.32006592,0.01038921
3786.24887329,0.01038292
3788.17768066,0.01064697
3790.10648804,0.01064406
3792.03529541,0.01057490
3793.96410278,0.01061865
3795.89291016,0.01015044
3797.82171753,0.01002986
3799.75052490,0.01045501
3801.67933228,0.00847731
3803.60813965,0.00981489
3805.53694702,0.01057877
3807.46575439,0.00867716
3809.39456177,0.01046465
3811.32336914,0.01029176
3813.25217651,0.01059346
3815.18098389,0.00961217
3817.10979126,0.00844949
3819.03859863,0.01056735
3820.96740601,0.00854261
3822.89621338,0.00904129
3824.82502075,0.01054561
3826.75382812,0.00947728
3828.68263550,0.01023012
3830.61144287,0.00976665
3832.54025024,0.00949717
3834.46905762,0.00973583
3836.39786499,0.00909636
3838.32667236,0.00826064
3840.25547974,0.00895016
3842.18428711,0.00969343
3844.11309448,0.00931083
3846.04190186,0.00997383
3847.97070923,0.00981188
3849.89951660,0.00985740
3851.82832397,0.00891582
3853.75713135,0.00667534
3855.68593872,0.00793574
3857.61474609,0.00992819
3859.54355347,0.00959228
3861.47236084,0.00952960
3863.40116821,0.00929750
3865.32997559,0.00864194
3867.25878296,0.00964771
3869.18759033,0.00878111
3871.11639770,0.00811981
3873.04520508,0.00956699
3874.97401245,0.00881159
3876.90281982,0.00954670
3878.83162720,0.00974173
3880.76043457,0.00830018
3882.68924194,0.00948434
3884.61804932,0.00895376
3886.54685669,0.00823460
3888.47566406,0.00962957
3890.40447144,0.00907118
3892.33327881,0.00846101
3894.26208618,0.00936069
3896.19089355,0.00949143
3898.11970093,0.00901645
3900.04850830,0.00853549
3901.97731567,0.00842131
3903.90612305,0.00835364
3905.83493042,0.00844240
3907.76373779,0.00926422
3909.69254517,0.00930655
3911.62135254,0.00920433
3913.55015991,0.00932347
3915.47896728,0.00898511
3917.40777466,0.00874972
3919.33658203,0.00862500
3921.26538940,0.00896830
3923.19419678,0.00895685
3925.12300415,0.00870466
3927.05181152,0.00888766
3928.98061890,0.00898386
3930.90942627,0.00874452
3932.83823364,0.00848285
3934.76704102,0.00882517
3936.69584839,0.00889857
3938.62465576,0.00890466
3940.55346313,0.00892054
3942.48227051,0.00853546
3944.41107788,0.00869002
3946.33988525,0.00879367
3948.26869263,0.00855239
3950.19750000,0.00855168
3952.12630737,0.00871518
3954.05511475,0.00877061
3955.98392212,0.00870923
3957.91272949,0.00868848
3959.84153687,0.00867213
3961.77034424,0.00857150
3963.69915161,0.00852172
3965.62795898,0.00863729
3967.55676636,0.00858683
3969.48557373,0.00852230
3971.41438110,0.00851743
3973.34318848,0.00851521
3975.27199585,0.00847962
3977.20080322,0.00843667
3979.12961060,0.00849016
3981.05841797,0.00840549
3982.98722534,0.00844669
3984.91603271,0.00841551
3986.84484009,0.00839180
3988.77364746,0.00843872
3990.70245483,0.00836066
3992.63126221,0.00836442
3994.56006958,0.00829239
3996.48887695,0.00843321
3998.41768433,0.00839609
4000.34649170,0.00827362
4002.27529907,0.00829053
4004.20410645,0.00817117
4006.13291382,0.00825060
4008.06172119,0.00821546
4009.99052856,0.00829424
4011.91933594,0.00828571
4013.84814331,0.00809616
4015.77695068,0.00818650
4017.70575806,0.00814072
4019.63456543,0.00805468
4021.56337280,0.00805691
4023.49218018,0.00808210
4025.42098755,0.00805083
4027.34979492,0.00802683
4029.27860229,0.00806355
4031.20740967,0.00802267
4033.13621704,0.00790352
4035.06502441,0.00788884
4036.99383179,0.00802955
4038.92263916,0.00794458
4040.85144653,0.00790916
4042.78025391,0.00795762
4044.70906128,0.00791673
4046.63786865,0.00791216
4048.56667603,0.00786016
4050.49548340,0.00787120
4052.42429077,0.00784403
4054.35309814,0.00782349
4056.28190552,0.00779028
4058.21071289,0.00778316
4060.13952026,0.00783603
4062.06832764,0.00777290
4063.99713501,0.00774248
4065.92594238,0.00771248
4067.85474976,0.00766276
4069.78355713,0.00770842
4071.71236450,0.00773153
4073.64117187,0.00757345
4075.56997925,0.00756399
4077.49878662,0.00758082
4079.42759399,0.00748847
4081.35640137,0.00758679
4083.28520874,0.00758862
4085.21401611,0.00756830
4087.14282349,0.00749381
4089.07163086,0.00746166
4091.00043823,0.00754005
4092.92924561,0.00745133
4094.85805298,0.00746803
4096.78686035,0.00745414
4098.71566772,0.00734405
4100.64447510,0.00734901
4102.57328247,0.00747221
4104.50208984,0.00747261
4106.43089722,0.00738922
4108.35970459,0.00735375
4110.28851196,0.00725954
4112.21731934,0.00730208
4114.14612671,0.00732840
4116.07493408,0.00735715
4118.00374145,0.00731459
4119.93254883,0.00726737
4121.86135620,0.00731831
4123.79016357,0.00718059
4125.71897095,0.00717024
4127.64777832,0.00714823
4129.57658569,0.00714131
4131.50539307,0.00721514
4133.43420044,0.00712434
4135.36300781,0.00707378
4137.29181519,0.00709499
4139.22062256,0.00714942
4141.14942993,0.00714831
4143.07823730,0.00714583
4145.00704468,0.00703091
4146.93585205,0.00698749
4148.86465942,0.00706421
4150.79346680,0.00692222
4152.72227417,0.00692291
4154.65108154,0.00699030
4156.57988892,0.00695327
4158.50869629,0.00696994
4160.43750366,0.00698550
4162.36631103,0.00694081
4164.29511841,0.00687406
4166.22392578,0.00687126
4168.15273315,0.00691081
4170.08154053,0.00686760
4172.01034790,0.00675832
4173.93915527,0.00687158
4175.86796265,0.00685263
4177.79677002,0.00666186
4179.72557739,0.00675864
4181.65438477,0.00687601
4183.58319214,0.00681810
4185.51199951,0.00671046
4187.44080688,0.00673807
4189.36961426,0.00675825
4191.29842163,0.00670065
4193.22722900,0.00666043
4195.15603638,0.00660521
4197.08484375,0.00659373
4199.01365112,0.00661429
4200.94245850,0.00662671
4202.87126587,0.00658808
4204.80007324,0.00662603
4206.72888062,0.00659116
4208.65768799,0.00658983
4210.58649536,0.00663928
4212.51530273,0.00646361
4214.44411011,0.00644351
4216.37291748,0.00646677
4218.30172485,0.00645737
4220.23053223,0.00648250
4222.15933960,0.00645009
4224.08814697,0.00649007
4226.01695435,0.00645018
4227.94576172,0.00640748
4229.87456909,0.00643263
4231.80337646,0.00637330
4233.73218384,0.00635583
4235.66099121,0.00642326
4237.58979858,0.00634236
4239.51860596,0.00635620
4241.44741333,0.00636122
4243.37622070,0.00626854
4245.30502808,0.00630680
4247.23383545,0.00617025
4249.16264282,0.00625890
4251.09145020,0.00626446
4253.02025757,0.00614991
4254.94906494,0.00627592
4256.87787231,0.00606149
4258.80667969,0.00607294
4260.73548706,0.00620280
4262.66429443,0.00615275
4264.59310181,0.00616279
4266.52190918,0.00614584
4268.45071655,0.00612534
4270.37952393,0.00602943
4272.30833130,0.00614256
4274.23713867,0.00611957
4276.16594604,0.00606792
4278.09475342,0.00615272
4280.02356079,0.00607653
4281.95236816,0.00610757
4283.88117554,0.00601893
4285.80998291,0.00590096
4287.73879028,0.00588040
4289.66759766,0.00590956
4291.59640503,0.00595935
4293.52521240,0.00590599
4295.45401978,0.00594363
4297.38282715,0.00595683
4299.31163452,0.00586032
4301.24044189,0.00583054
4303.16924927,0.00586963
4305.09805664,0.00587618
4307.02686401,0.00592175
4308.95567139,0.00585029
4310.88447876,0.00578962
4312.81328613,0.00585512
4314.74209351,0.00579916
4316.67090088,0.00578985
4318.59970825,0.00575903
4320.52851562,0.00578043
4322.45732300,0.00575744
4324.38613037,0.00574256
4326.31493774,0.00576701
4328.24374512,0.00560698
4330.17255249,0.00568452
4332.10135986,0.00565815
4334.03016724,0.00558926
4335.95897461,0.00566344
4337.88778198,0.00560502
4339.81658936,0.00562641
4341.74539673,0.00561593
4343.67420410,0.00560170
4345.60301147,0.00554122
4347.53181885,0.00559732
4349.46062622,0.00565088
4351.38943359,0.00552718
4353.31824097,0.00553246
4355.24704834,0.00551442
4357.17585571,0.00554045
4359.10466309,0.00555571
4361.03347046,0.00553253
4362.96227783,0.00551042
4364.89108520,0.00550462
4366.81989258,0.00553080
4368.74869995,0.00541926
4370.67750732,0.00544229
4372.60631470,0.00548328
4374.53512207,0.00537560
4376.46392944,0.00537469
4378.39273682,0.00545439
4380.32154419,0.00538331
4382.25035156,0.00529254
4384.17915894,0.00531619
4386.10796631,0.00528290
4388.03677368,0.00530631
4389.96558105,0.00531130
4391.89438843,0.00527211
4393.82319580,0.00524928
4395.75200317,0.00527114
4397.68081055,0.00529003
4399.60961792,0.00517913
4401.53842529,0.00519884
4403.46723267,0.00521754
4405.39604004,0.00515794
4407.32484741,0.00514367
4409.25365478,0.00515004
4411.18246216,0.00516503
4413.11126953,0.00513451
4415.04007690,0.00513715
4416.96888428,0.00513151
4418.89769165,0.00510543
4420.82649902,0.00504556
4422.75530640,0.00510589
4424.68411377,0.00511921
4426.61292114,0.00498433
4428.54172852,0.00503401
4430.47053589,0.00500528
4432.39934326,0.00499796
4434.32815063,0.00505145
4436.25695801,0.00495120
4438.18576538,0.00491574
4440.11457275,0.00494529
4442.04338013,0.00494171
4443.97218750,0.00485487
4445.90099487,0.00491431
4447.82980225,0.00500457
4449.75860962,0.00487624
4451.68741699,0.00488404
4453.61622437,0.00492660
4455.54503174,0.00486598
4457.47383911,0.00487618
4459.40264648,0.00475856
4461.33145386,0.00475773
4463.26026123,0.00488124
4465.18906860,0.00477201
4467.11787598,0.00482599
4469.04668335,0.00484604
4470.97549072,0.00473556
4472.90429810,0.00477963
4474.83310547,0.00474029
4476.76191284,0.00474301
4478.69072021,0.00471129
4480.61952759,0.00468068
4482.54833496,0.00478252
4484.47714233,0.00473767
4486.40594971,0.00468120
4488.33475708,0.00475693
4490.26356445,0.00471935
4492.19237183,0.00468289
4494.12117920,0.00474926
4496.04998657,0.00464785
4497.97879395,0.00465307
4499.90760132,0.00468310
4501.83640869,0.00459706
4503.76521606,0.00460792
4505.69402344,0.00459588
4507.62283081,0.00459494
4509.55163818,0.00451818
4511.48044556,0.00454648
4513.40925293,0.00458881
4515.33806030,0.00454141
4517.26686768,0.00453479
4519.19567505,0.00452751
4521.12448242,0.00457200
4523.05328979,0.00445734
4524.98209717,0.00451184
4526.91090454,0.00452045
4528.83971191,0.00447625
4530.76851929,0.00448155
4532.69732666,0.00430205
4534.62613403,0.00443817
4536.55494141,0.00434704
4538.48374878,0.00435705
4540.41255615,0.00446481
4542.34136353,0.00426419
4544.27017090,0.00438946
4546.19897827,0.00433077
4548.12778564,0.00434013
4550.05659302,0.00434470
4551.98540039,0.00424657
4553.91420776,0.00438691
4555.84301514,0.00435675
4557.77182251,0.00434048
4559.70062988,0.00428460
4561.62943726,0.00426987
4563.55824463,0.00427293
4565.48705200,0.00425788
4567.41585937,0.00421873
4569.34466675,0.00419250
4571.27347412,0.00428067
4573.20228149,0.00416967
4575.13108887,0.00425114
4577.05989624,0.00419579
4578.98870361,0.00408332
4580.91751099,0.00422429
4582.84631836,0.00414620
4584.77512573,0.00422307
4586.70393311,0.00417353
4588.63274048,0.00407184
4590.56154785,0.00415772
4592.49035522,0.00408617
4594.41916260,0.00410835
4596.34796997,0.00413828
4598.27677734,0.00407771
4600.20558472,0.00403600
4602.13439209,0.00404071
4604.06319946,0.00403212
4605.99200684,0.00397131
4607.92081421,0.00397822
4609.84962158,0.00403197
4611.77842895,0.00401982
4613.70723633,0.00395920
4615.63604370,0.00394653
4617.56485107,0.00397075
4619.49365845,0.00397303
4621.42246582,0.00393778
4623.35127319,0.00393376
4625.28008057,0.00392097
4627.20888794,0.00397437
4629.13769531,0.00394474
4631.06650269,0.00386785
4632.99531006,0.00399994
4634.92411743,0.00393902
4636.85292480,0.00387721
4638.78173218,0.00383738
4640.71053955,0.00379819
4642.63934692,0.00392980
4644.56815430,0.00384408
4646.49696167,0.00386832
4648.42576904,0.00387400
4650.35457642,0.00379779
4652.28338379,0.00380532
4654.21219116,0.00371378
4656.14099853,0.00378102
4658.06980591,0.00376597
4659.99861328,0.00375697
4661.92742065,0.00379455
4663.85622803,0.00372264
4665.78503540,0.00372374
4667.71384277,0.00369965
4669.64265015,0.00374911
4671.57145752,0.00374598
4673.50026489,0.00368923
4675.42907227,0.00369581
4677.35787964,0.00368233
4679.28668701,0.00368521
4681.21549438,0.00366086
4683.14430176,0.00367422
4685.07310913,0.00365662
4687.00191650,0.00360517
4688.93072388,0.00361371
4690.85953125,0.00359994
4692.78833862,0.00359566
4694.71714600,0.00362332
4696.64595337,0.00358688
4698.57476074,0.00357647
4700.50356812,0.00359208
4702.43237549,0.00351840
4704.36118286,0.00353543
4706.28999023,0.00353044
4708.21879761,0.00351124
4710.14760498,0.00353860
4712.07641235,0.00346559
4714.00521973,0.00352634
4715.93402710,0.00356466
4717.86283447,0.00350690
4719.79164185,0.00349197
4721.72044922,0.00347379
4723.64925659,0.00347340
4725.57806396,0.00341258
4727.50687134,0.00344571
4729.43567871,0.00348527
4731.36448608,0.00346035
4733.29329346,0.00346971
4735.22210083,0.00343542
4737.15090820,0.00343537
4739.07971558,0.00337886
4741.00852295,0.00335089
4742.93733032,0.00341580
4744.86613770,0.00341417
4746.79494507,0.00337403
4748.72375244,0.00331905
4750.65255981,0.00334717
4752.58136719,0.00336690
4754.51017456,0.00326250
4756.43898193,0.00323898
4758.36778931,0.00331141
4760.29659668,0.00333112
4762.22540405,0.00334156
4764.15421143,0.00330795
4766.08301880,0.00328952
4768.01182617,0.00336721
4769.94063354,0.00332816
4771.86944092,0.00329855
4773.79824829,0.00332285
4775.72705566,0.00324963
4777.65586304,0.00323458
4779.58467041,0.00328040
4781.51347778,0.00322139
4783.44228516,0.00313669
4785.37109253,0.00324242
4787.29989990,0.00329365
4789.22870728,0.00323695
4791.15751465,0.00321438
4793.08632202,0.00315922
4795.01512939,0.00316017
4796.94393677,0.00314441
4798.87274414,0.00318094
4800.80155151,0.00309596
4802.73035889,0.00304803
4804.65916626,0.00317498
4806.58797363,0.00304801
4808.51678101,0.00310071
4810.44558838,0.00312485
4812.37439575,0.00306116
4814.30320312,0.00318584
4816.23201050,0.00307770
4818.16081787,0.00306247
4820.08962524,0.00301826
4822.01843262,0.00297704
4823.94723999,0.00307582
4825.87604736,0.00305275
4827.80485474,0.00309425
4829.73366211,0.00298309
4831.66246948,0.00295570
4833.59127686,0.00303267
4835.52008423,0.00295028
4837.44889160,0.00295423
4839.37769897,0.00293912
4841.30650635,0.00294940
4843.23531372,0.00295489
4845.16412109,0.00291476
4847.09292847,0.00289926
4849.02173584,0.00287984
4850.95054321,0.00294372
4852.87935059,0.00293030
4854.80815796,0.00286303
4856.73696533,0.00287818
4858.66577270,0.00286944
4860.59458008,0.00287430
4862.52338745,0.00287635
4864.45219482,0.00288663
4866.38100220,0.00293543
4868.30980957,0.00284423
4870.23861694,0.00278797
4872.16742432,0.00286056
4874.09623169,0.00287342
4876.02503906,0.00284420
4877.95384644,0.00281339
4879.88265381,0.00286177
4881.81146118,0.00281976
4883.74026855,0.00276046
4885.66907593,0.00282612
4887.59788330,0.00281736
4889.52669067,0.00281466
4891.45549805,0.00275348
4893.38430542,0.00270954
4895.31311279,0.00275716
4897.24192017,0.00274737
4899.17072754,0.00276546
4901.09953491,0.00282065
4903.02834228,0.00278807
4904.95714966,0.00269260
4906.88595703,0.00274256
4908.81476440,0.00272193
4910.74357178,0.00267279
4912.67237915,0.00273714
4914.60118652,0.00269047
4916.52999390,0.00269472
4918.45880127,0.00267485
4920.38760864,0.00264339
4922.31641602,0.00261282
4924.24522339,0.00257336
4926.17403076,0.00267090
4928.10283813,0.00266036
4930.03164551,0.00258215
4931.96045288,0.00253777
4933.88926025,0.00260114
4935.81806763,0.00261999
4937.74687500,0.00256762
4939.67568237,0.00264557
4941.60448975,0.00259190
4943.53329712,0.00259314
4945.46210449,0.00256144
4947.39091187,0.00247126
4949.31971924,0.00258384
4951.24852661,0.00254955
4953.17733398,0.00254252
4955.10614136,0.00252867
4957.03494873,0.00246702
4958.96375610,0.00258375
4960.89256348,0.00251723
4962.82137085,0.00247049
4964.75017822,0.00254186
4966.67898560,0.00245302
4968.60779297,0.00246258
4970.53660034,0.00256650
4972.46540771,0.00254050
4974.39421509,0.00250203
4976.32302246,0.00249222
4978.25182983,0.00240197
4980.18063721,0.00240012
4982.10944458,0.00244522
4984.03825195,0.00242142
4985.96705933,0.00243997
4987.89586670,0.00240798
4989.82467407,0.00243182
4991.75348145,0.00244627
4993.68228882,0.00239426
4995.61109619,0.00237393
4997.53990356,0.00234759
4999.46871094,0.00242183
5001.39751831,0.00234614
5003.32632568,0.00230264
5005.25513306,0.00237513
5007.18394043,0.00232965
5009.11274780,0.00236318
5011.04155518,0.00233007
5012.97036255,0.00235949
5014.89916992,0.00238911
5016.82797729,0.00234987
5018.75678467,0.00237828
5020.68559204,0.00233305
5022.61439941,0.00231441
5024.54320679,0.00227693
5026.47201416,0.00228931
5028.40082153,0.00222322
5030.32962891,0.00226182
5032.25843628,0.00237595
5034.18724365,0.00224716
5036.11605103,0.00227660
5038.04485840,0.00226208
5039.97366577,0.00229947
5041.90247314,0.00228837
5043.83128052,0.00216901
5045.76008789,0.00228810
5047.68889526,0.00225557
5049.61770264,0.00225452
5051.54651001,0.00222470
5053.47531738,0.00221114
5055.40412476,0.00220812
5057.33293213,0.00211801
5059.26173950,0.00226567
5061.19054687,0.00219165
5063.11935425,0.00213143
5065.04816162,0.00220917
5066.97696899,0.00216653
5068.90577637,0.00216839
5070.83458374,0.00214141
5072.76339111,0.00216478
5074.69219849,0.00216143
5076.62100586,0.00214308
5078.54981323,0.00211809
5080.47862061,0.00212124
5082.40742798,0.00214346
5084.33623535,0.00218368
5086.26504272,0.00220944
5088.19385010,0.00205141
5090.12265747,0.00210736
5092.05146484,0.00217711
5093.98027222,0.00208977
5095.90907959,0.00206682
5097.83788696,0.00202408
5099.76669434,0.00211811
5101.69550171,0.00211799
5103.62430908,0.00203760
5105.55311645,0.00206180
5107.48192383,0.00205345
5109.41073120,0.00205904
5111.33953857,0.00203325
5113.26834595,0.00201526
5115.19715332,0.00201475
5117.12596069,0.00199665
5119.05476807,0.00203809
5120.98357544,0.00200755
5122.91238281,0.00192857
5124.84119019,0.00196782
5126.76999756,0.00197364
5128.69880493,0.00197501
5130.62761230,0.00199104
5132.55641968,0.00192480
5134.48522705,0.00197011
5136.41403442,0.00200076
5138.34284180,0.00188672
5140.27164917,0.00195651
5142.20045654,0.00210558
5144.12926392,0.00194635
5146.05807129,0.00186989
5147.98687866,0.00196357
5149.91568603,0.00192249
5151.84449341,0.00195294
5153.77330078,0.00191707
5155.70210815,0.00189424
5157.63091553,0.00192188
5159.55972290,0.00187812
5161.48853027,0.00192191
5163.41733765,0.00189001
5165.34614502,0.00189166
5167.27495239,0.00194423
5169.20375977,0.00194524
5171.13256714,0.00187864
5173.06137451,0.00178606
5174.99018188,0.00182139
5176.91898926,0.00185168
5178.84779663,0.00181737
5180.77660400,0.00174269
5182.70541138,0.00182006
5184.63421875,0.00190434
5186.56302612,0.00185837
5188.49183350,0.00185091
5190.42064087,0.00178224
5192.34944824,0.00177090
5194.27825562,0.00182232
5196.20706299,0.00187408
5198.13587036,0.00185293
5200.06467773,0.00180317
5201.99348511,0.00177281
5203.92229248,0.00176716
5205.85109985,0.00185663
5207.77990723,0.00174075
5209.70871460,0.00172313
5211.63752197,0.00178812
5213.56632935,0.00171258
5215.49513672,0.00179138
5217.42394409,0.00178180
5219.35275146,0.00175199
5221.28155884,0.00180064
5223.21036621,0.00176349
5225.13917358,0.00167126
5227.06798096,0.00167752
5228.99678833,0.00173526
5230.92559570,0.00172739
5232.85440308,0.00176245
5234.78321045,0.00172486
5236.71201782,0.00174428
5238.64082520,0.00170000
5240.56963257,0.00164175
5242.49843994,0.00176398
5244.42724731,0.00169873
5246.35605469,0.00169419
5248.28486206,0.00169782
5250.21366943,0.00161252
5252.14247681,0.00172870
5254.07128418,0.00172090
5256.00009155,0.00161641
5257.92889893,0.00170072
5259.85770630,0.00172914
5261.78651367,0.00165525
5263.71532104,0.00164913
5265.64412842,0.00158728
5267.57293579,0.00160545
5269.50174316,0.00163308
5271.43055054,0.00158140
5273.35935791,0.00164752
5275.28816528,0.00168067
5277.21697266,0.00172500
5279.14578003,0.00164073
5281.07458740,0.00159627
5283.00339478,0.00170178
5284.93220215,0.00156763
5286.86100952,0.00161397
5288.78981689,0.00171570
5290.71862427,0.00159740
5292.64743164,0.00162614
5294.57623901,0.00164020
5296.50504639,0.00157439
5298.43385376,0.00161546
5300.36266113,0.00169122
5302.29146851,0.00165281
5304.22027588,0.00159287
5306.14908325,0.00156463
5308.07789062,0.00152866
5310.00669800,0.00156960
5311.93550537,0.00160435
5313.86431274,0.00156140
5315.79312012,0.00153622
5317.72192749,0.00160285
5319.65073486,0.00161166
5321.57954224,0.00156128
5323.50834961,0.00157778
5325.43715698,0.00151442
5327.36596436,0.00146965
5329.29477173,0.00150192
5331.22357910,0.00148608
5333.15238647,0.00149963
5335.08119385,0.00154147
5337.01000122,0.00148783
5338.93880859,0.00143198
5340.86761597,0.00154316
5342.79642334,0.00152049
5344.72523071,0.00141081
5346.65403809,0.00145849
5348.58284546,0.00147136
5350.51165283,0.00152696
5352.44046020,0.00151092
5354.36926758,0.00142500
5356.29807495,0.00143612
5358.22688232,0.00146223
5360.15568970,0.00152097
5362.08449707,0.00151285
5364.01330444,0.00147879
5365.94211182,0.00138722
5367.87091919,0.00139855
5369.79972656,0.00148545
5371.72853394,0.00140446
5373.65734131,0.00145434
5375.58614868,0.00145344
5377.51495605,0.00144099
5379.44376343,0.00147829
5381.37257080,0.00141111
5383.30137817,0.00144987
5385.23018555,0.00139423
5387.15899292,0.00139796
5389.08780029,0.00145018
5391.01660767,0.00138184
5392.94541504,0.00138509
5394.87422241,0.00137909
5396.80302978,0.00136693
5398.73183716,0.00132772
5400.66064453,0.00137810
5402.58945190,0.00140892
5404.51825928,0.00133514
5406.44706665,0.00136064
5408.37587402,0.00132466
5410.30468140,0.00133817
5412.23348877,0.00138668
5414.16229614,0.00130215
5416.09110352,0.00131655
5418.01991089,0.00135448
5419.94871826,0.00130207
5421.87752563,0.00134904
5423.80633301,0.00139711
5425.73514038,0.00134274
5427.66394775,0.00128932
5429.59275513,0.00128312
5431.52156250,0.00132561
5433.45036987,0.00129568
5435.37917725,0.00129408
5437.30798462,0.00130137
5439.23679199,0.00127505
5441.16559936,0.00132514
5443.09440674,0.00128393
5445.02321411,0.00127018
5446.95202148,0.00126648
5448.88082886,0.00124485
5450.80963623,0.00130563
5452.73844360,0.00129480
5454.66725098,0.00126992
5456.59605835,0.00124172
5458.52486572,0.00127489
5460.45367310,0.00126139
5462.38248047,0.00118439
5464.31128784,0.00126800
5466.24009521,0.00125553
5468.16890259,0.00118740
5470.09770996,0.00126117
5472.02651733,0.00128545
5473.95532471,0.00123003
5475.88413208,0.00120856
5477.81293945,0.00124784
5479.74174683,0.00128977
5481.67055420,0.00124324
5483.59936157,0.00118002
5485.52816895,0.00118476
5487.45697632,0.00123329
5489.38578369,0.00126869
5491.31459106,0.00119711
5493.24339844,0.00120001
5495.17220581,0.00122012
5497.10101318,0.00115934
5499.02982056,0.00122548
5500.95862793,0.00119335
5502.88743530,0.00113098
5504.81624268,0.00124079
5506.74505005,0.00126691
5508.67385742,0.00118668
5510.60266479,0.00114275
5512.53147217,0.00115834
5514.46027954,0.00113357
5516.38908691,0.00108898
5518.31789429,0.00117265
5520.24670166,0.00122501
5522.17550903,0.00115079
5524.10431641,0.00117402
5526.03312378,0.00119251
5527.96193115,0.00113923
5529.89073853,0.00115624
5531.81954590,0.00117855
5533.74835327,0.00116889
5535.67716064,0.00113064
5537.60596802,0.00115684
5539.53477539,0.00117597
5541.46358276,0.00111264
5543.39239014,0.00107439
5545.32119751,0.00110637
5547.25000488,0.00112039
5549.17881226,0.00109015
5551.10761963,0.00118025
5553.03642700,0.00112632
5554.96523437,0.00107839
5556.89404175,0.00115051
5558.82284912,0.00107134
5560.75165649,0.00112272
5562.68046387,0.00110974
5564.60927124,0.00109846
5566.53807861,0.00116492
5568.46688599,0.00108121
5570.39569336,0.00109440
5572.32450073,0.00113466
5574.25330811,0.00111241
5576.18211548,0.00103206
5578.11092285,0.00107552
5580.03973022,0.00110581
5581.96853760,0.00098033
5583.89734497,0.00102252
5585.82615234,0.00105690
5587.75495972,0.00102518
5589.68376709,0.00104693
5591.61257446,0.00110504
5593.54138184,0.00106336
5595.47018921,0.00097650
5597.39899658,0.00102386
5599.32780395,0.00104788
5601.25661133,0.00103840
5603.18541870,0.00099652
5605.11422607,0.00100862
5607.04303345,0.00106326
5608.97184082,0.00100322
5610.90064819,0.00093791
5612.82945557,0.00099898
5614.75826294,0.00103258
5616.68707031,0.00098491
5618.61587769,0.00105230
5620.54468506,0.00102376
5622.47349243,0.00096830
5624.40229980,0.00098534
5626.33110718,0.00099820
5628.25991455,0.00104714
5630.18872192,0.00094732
5632.11752930,0.00094316
5634.04633667,0.00099185
5635.97514404,0.00096261
5637.90395142,0.00103940
5639.83275879,0.00103190
5641.76156616,0.00093109
5643.69037353,0.00095991
5645.61918091,0.00100610
5647.54798828,0.00093182
5649.47679565,0.00095439
5651.40560303,0.00096591
5653.33441040,0.00100502
5655.26321777,0.00101966
5657.19202515,0.00088420
5659.12083252,0.00098091
5661.04963989,0.00102212
5662.97844727,0.00097091
5664.90725464,0.00096840
5666.83606201,0.00089624
5668.76486938,0.00091266
5670.69367676,0.00095817
5672.62248413,0.00102512
5674.55129150,0.00097521
5676.48009888,0.00090250
5678.40890625,0.00095512
5680.33771362,0.00096914
5682.26652100,0.00094551
5684.19532837,0.00091220
5686.12413574,0.00091818
5688.05294311,0.00089921
5689.98175049,0.00086826
5691.91055786,0.00092649
5693.83936523,0.00094896
5695.76817261,0.00088108
5697.69697998,0.00093121
5699.62578735,0.00094495
5701.55459473,0.00088173
5703.48340210,0.00088094
5705.41220947,0.00083437
5707.34101685,0.00095886
5709.26982422,0.00093816
5711.19863159,0.00083772
5713.12743896,0.00090361
5715.05624634,0.00082143
5716.98505371,0.00087722
5718.91386108,0.00087226
5720.84266846,0.00080672
5722.77147583,0.00087939
5724.70028320,0.00089004
5726.62909058,0.00087050
5728.55789795,0.00084033
5730.48670532,0.00086781
5732.41551270,0.00080926
5734.34432007,0.00085089
5736.27312744,0.00086012
5738.20193481,0.00077156
5740.13074219,0.00090503
5742.05954956,0.00085898
5743.98835693,0.00076429
5745.91716431,0.00082153
5747.84597168,0.00084748
5749.77477905,0.00083326
5751.70358643,0.00079771
5753.63239380,0.00078671
5755.56120117,0.00075797
5757.49000854,0.00077713
5759.41881592,0.00082033
5761.34762329,0.00084288
5763.27643066,0.00082788
5765.20523804,0.00078130
5767.13404541,0.00077328
5769.06285278,0.00083848
5770.99166016,0.00080793
5772.92046753,0.00072955
5774.84927490,0.00079204
5776.77808228,0.00075118
5778.70688965,0.00077615
5780.63569702,0.00080750
5782.56450439,0.00074841
5784.49331177,0.00080705
5786.42211914,0.00079104
5788.35092651,0.00080492
5790.27973389,0.00080268
5792.20854126,0.00079575
5794.13734863,0.00078894
5796.06615601,0.00074194
5797.99496338,0.00076054
5799.92377075,0.00073366
5801.85257812,0.00077382
5803.78138550,0.00072420
5805.71019287,0.00070933
5807.63900024,0.00080950
5809.56780762,0.00078397
5811.49661499,0.00077750
5813.42542236,0.00073528
5815.35422974,0.00072973
5817.28303711,0.00074138
5819.21184448,0.00071745
5821.14065186,0.00070577
5823.06945923,0.00068387
5824.99826660,0.00073724
5826.92707397,0.00074767
5828.85588135,0.00071223
5830.78468872,0.00066318
5832.71349609,0.00065739
5834.64230347,0.00076079
5836.57111084,0.00081281
5838.49991821,0.00077249
5840.42872559,0.00076265
5842.35753296,0.00078061
5844.28634033,0.00074180
5846.21514770,0.00069913
5848.14395508,0.00069807
5850.07276245,0.00070368
5852.00156982,0.00067147
5853.93037720,0.00070855
5855.85918457,0.00070244
5857.78799194,0.00061678
5859.71679932,0.00069145
5861.64560669,0.00072537
5863.57441406,0.00070410
5865.50322144,0.00068326
5867.43202881,0.00067316
5869.36083618,0.00072467
5871.28964355,0.00068017
5873.21845093,0.00068195
5875.14725830,0.00067386
5877.07606567,0.00062162
5879.00487305,0.00067088
5880.93368042,0.00068245
5882.86248779,0.00065950
5884.79129517,0.00067018
5886.72010254,0.00066365
5888.64890991,0.00068663
5890.57771728,0.00075748
5892.50652466,0.00070486
5894.43533203,0.00063141
5896.36413940,0.00065257
5898.29294678,0.00064792
5900.22175415,0.00065588
5902.15056152,0.00065829
5904.07936890,0.00063052
5906.00817627,0.00063647
5907.93698364,0.00064672
5909.86579102,0.00062371
5911.79459839,0.00062843
5913.72340576,0.00063053
5915.65221313,0.00064155
5917.58102051,0.00064406
5919.50982788,0.00057482
5921.43863525,0.00059154
5923.36744263,0.00062360
5925.29625000,0.00063125
5927.22505737,0.00064984
5929.15386475,0.00064037
5931.08267212,0.00062411
5933.01147949,0.00059663
5934.94028686,0.00061427
5936.86909424,0.00058883
5938.79790161,0.00060323
5940.72670898,0.00062048
5942.65551636,0.00061308
5944.58432373,0.00064954
5946.51313110,0.00056657
5948.44193848,0.00060304
5950.37074585,0.00063988
5952.29955322,0.00055526
5954.22836060,0.00055937
5956.15716797,0.00053596
5958.08597534,0.00057325
5960.01478271,0.00062320
5961.94359009,0.00058604
5963.87239746,0.00055528
5965.80120483,0.00057885
5967.73001221,0.00061277
5969.65881958,0.00056068
5971.58762695,0.00055356
5973.51643433,0.00057398
5975.44524170,0.00057059
5977.37404907,0.00062633
5979.30285645,0.00056504
5981.23166382,0.00054314
5983.16047119,0.00063050
5985.08927856,0.00049146
5987.01808594,0.00050482
5988.94689331,0.00063215
5990.87570068,0.00052384
5992.80450806,0.00052665
5994.73331543,0.00056393
5996.66212280,0.00055228
5998.59093018,0.00054228
6000.51973755,0.00056066
