399.26312622,0.00003797
401.19193359,0.00018393
403.12074097,0.00063798
405.04954834,0.00007985
406.97835571,-0.00022895
408.90716309,-0.00001034
410.83597046,0.00041801
412.76477783,0.00038080
414.69358521,0.00032497
416.62239258,0.00061871
418.55119995,0.00038499
420.48000732,0.00015341
422.40881470,0.00024721
424.33762207,0.00026571
426.26642944,0.00026526
428.19523682,0.00032830
430.12404419,-0.00016707
432.05285156,-0.00003581
433.98165894,0.00074052
435.91046631,0.00034769
437.83927368,0.00022803
439.76808105,0.00048112
441.69688843,0.00029055
443.62569580,0.00014771
445.55450317,0.00019177
447.48331055,0.00040206
449.41211792,0.00032041
451.34092529,0.00051283
453.26973267,0.00064231
455.19854004,0.00033095
457.12734741,0.00022595
459.05615479,0.00005083
460.98496216,-0.00001361
462.91376953,0.00025789
464.84257690,0.00024608
466.77138428,0.00009188
468.70019165,0.00011189
470.62899902,0.00036379
472.55780640,0.00053220
474.48661377,-0.00008273
476.41542114,0.00001973
478.34422852,0.00061079
480.27303589,0.00025980
482.20184326,0.00009004
484.13065063,0.00039198
486.05945801,0.00031944
487.98826538,-0.00013321
489.91707275,0.00006495
491.84588013,0.00004919
493.77468750,-0.00014255
495.70349487,0.00029631
497.63230225,0.00015313
499.56110962,-0.00004001
501.48991699,0.00000057
503.41872437,-0.00000433
505.34753174,0.00019358
507.27633911,0.00001470
509.20514648,-0.00002753
511.13395386,0.00024798
513.06276123,0.00028946
514.99156860,0.00048707
516.92037598,-0.00004357
518.84918335,-0.00019140
520.77799072,0.00087687
522.70679810,0.00057842
524.63560547,0.00000987
526.56441284,0.00051719
528.49322021,0.00037290
530.42202759,-0.00027747
532.35083496,0.00018493
534.27964233,0.00052411
536.20844971,0.00002228
538.13725708,0.00005055
540.06606445,-0.00001222
541.99487183,0.00001315
543.92367920,-0.00019740
545.85248657,-0.00010484
547.78129395,0.00045663
549.71010132,0.00025232
551.63890869,0.00061267
553.56771606,0.00048139
555.49652344,-0.00006306
557.42533081,-0.00000626
559.35413818,-0.00017975
561.28294556,0.00029394
563.21175293,0.00050919
565.14056030,-0.00020808
567.06936768,-0.00028815
568.99817505,0.00015844
570.92698242,0.00003957
572.85578979,-0.00017582
574.78459717,0.00025327
576.71340454,0.00027283
578.64221191,0.00029578
580.57101929,0.00016781
582.49982666,0.00000067
584.42863403,0.00020276
586.35744141,-0.00006834
588.28624878,0.00021129
590.21505615,0.00028561
592.14386353,0.00000730
594.07267090,-0.00015461
596.00147827,-0.00000429
597.93028564,-0.00001660
599.85909302,0.00017133
601.78790039,0.00021213
603.71670776,0.00023078
605.64551514,0.00027183
607.57432251,0.00014689
609.50312988,0.00051972
611.43193726,-0.00026191
613.36074463,-0.00025712
615.28955200,0.00020225
617.21835938,-0.00015562
619.14716675,0.00042100
621.07597412,0.00042477
623.00478149,-0.00000339
624.93358887,0.00001513
626.86239624,-0.00033954
628.79120361,-0.00006359
630.72001099,0.00001599
632.64881836,0.00002366
634.57762573,0.00045165
636.50643311,0.00029405
638.43524048,0.00059368
640.36404785,0.00061634
642.29285522,0.00021273
644.22166260,0.00028917
646.15046997,0.00033012
648.07927734,0.00044795
650.00808472,0.00062851
651.93689209,0.00086291
653.86569946,0.00092867
655.79450684,0.00099540
657.72331421,0.00071531
659.65212158,0.00068932
661.58092896,0.00096351
663.50973633,0.00064101
665.43854370,0.00078883
667.36735107,0.00067209
669.29615845,0.00075890
671.22496582,0.00100024
673.15377319,0.00071552
675.08258057,0.00098214
677.01138794,0.00095274
678.94019531,0.00095995
680.86900269,0.00100135
682.79781006,0.00102786
684.72661743,0.00116554
686.65542480,0.00100655
688.58423218,0.00096958
690.51303955,0.00104671
692.44184692,0.00132466
694.37065430,0.00108667
696.29946167,0.00122571
698.22826904,0.00133981
700.15707642,0.00117892
702.08588379,0.00190024
704.01469116,0.00150740
705.94349854,0.00097414
707.87230591,0.00116994
709.80111328,0.00098488
711.72992065,0.00085260
713.65872803,0.00065196
715.58753540,0.00015540
717.51634277,-0.00041902
719.44515015,-0.00013826
721.37395752,0.00013997
723.30276489,-0.00023580
725.23157227,-0.00013662
727.16037964,0.00009729
729.08918701,-0.00003609
731.01799438,-0.00009046
732.94680176,0.00017546
734.87560913,0.00017877
736.80441650,0.00009538
738.73322388,0.00018750
740.66203125,0.00039615
742.59083862,0.00020761
744.51964600,0.00005248
746.44845337,0.00012317
748.37726074,0.00007684
750.30606812,0.00018863
752.23487549,0.00005735
754.16368286,0.00002435
756.09249023,0.00009254
758.02129761,0.00030944
759.95010498,0.00027302
761.87891235,-0.00012439
763.80771973,0.00023701
765.73652710,0.00017719
767.66533447,0.00013197
769.59414185,0.00020528
771.52294922,-0.00001031
773.45175659,0.00023810
775.38056396,0.00040216
777.30937134,0.00034054
779.23817871,0.00014287
781.16698608,0.00013002
783.09579346,0.00016272
785.02460083,0.00013305
786.95340820,0.00000798
788.88221558,0.00017993
790.81102295,0.00019074
792.73983032,0.00007771
794.66863770,0.00038865
796.59744507,0.00040680
798.52625244,0.00054892
800.45505981,0.00019891
802.38386719,0.00015112
804.31267456,0.00059357
806.24148193,0.00019894
808.17028931,0.00014773
810.09909668,0.00015245
812.02790405,0.00014281
813.95671143,0.00003387
815.88551880,0.00023334
817.81432617,0.00032572
819.74313354,0.00005471
821.67194092,0.00030016
823.60074829,-0.00010045
825.52955566,0.00009375
827.45836304,0.00026032
829.38717041,0.00011515
831.31597778,0.00039571
833.24478516,0.00030467
835.17359253,0.00047840
837.10239990,0.00041302
839.03120728,0.00053693
840.96001465,0.00044158
842.88882202,0.00022651
844.81762939,0.00066639
846.74643677,0.00053077
848.67524414,0.00025350
850.60405151,0.00015044
852.53285889,0.00021998
854.46166626,0.00041325
856.39047363,0.00050658
858.31928101,0.00044965
860.24808838,0.00004275
862.17689575,0.00008586
864.10570313,0.00029898
866.03451050,0.00025561
867.96331787,0.00037403
869.89212524,0.00042362
871.82093262,0.00027494
873.74973999,0.00031321
875.67854736,0.00028426
877.60735474,0.00031447
879.53616211,0.00032591
881.46496948,-0.00014811
883.39377686,-0.00000005
885.32258423,0.00015490
887.25139160,0.00012519
889.18019897,0.00030252
891.10900635,0.00015324
893.03781372,0.00040170
894.96662109,0.00029615
896.89542847,0.00015525
898.82423584,0.00027876
900.75304321,0.00026751
902.68185059,0.00049013
904.61065796,0.00046145
906.53946533,0.00060354
908.46827271,0.00048335
910.39708008,0.00017167
912.32588745,0.00036710
914.25469482,0.00038000
916.18350220,0.00040353
918.11230957,0.00059521
920.04111694,0.00041043
921.96992432,0.00039888
923.89873169,0.00064299
925.82753906,0.00037373
927.75634644,0.00043962
929.68515381,0.00073962
931.61396118,0.00065583
933.54276855,0.00077034
935.47157593,0.00069281
937.40038330,0.00056907
939.32919067,0.00073126
941.25799805,0.00072112
943.18680542,0.00080103
945.11561279,0.00092137
947.04442017,0.00060228
948.97322754,0.00055424
950.90203491,0.00089973
952.83084229,0.00090994
954.75964966,0.00080409
956.68845703,0.00068686
958.61726440,0.00077572
960.54607178,0.00092871
962.47487915,0.00084425
964.40368652,0.00107666
966.33249390,0.00104340
968.26130127,0.00078717
970.19010864,0.00094031
972.11891602,0.00075857
974.04772339,0.00067290
975.97653076,0.00100804
977.90533813,0.00119838
979.83414551,0.00141157
981.76295288,0.00150678
983.69176025,0.00166037
985.62056763,0.00189286
987.54937500,0.00185256
989.47818237,0.00190975
991.40698975,0.00209689
993.33579712,0.00220687
995.26460449,0.00244875
997.19341187,0.00280254
999.12221924,0.00299218
1001.05102661,0.00330441
1002.97983398,0.00372918
1004.90864136,0.00395383
1006.83744873,0.00393617
1008.76625610,0.00403956
1010.69506348,0.00465318
1012.62387085,0.00485770
1014.55267822,0.00488040
1016.48148560,0.00515202
1018.41029297,0.00524094
1020.33910034,0.00565177
1022.26790771,0.00587719
1024.19671509,0.00599394
1026.12552246,0.00637271
1028.05432983,0.00655594
1029.98313721,0.00679692
1031.91194458,0.00682767
1033.84075195,0.00686684
1035.76955933,0.00725641
1037.69836670,0.00713549
1039.62717407,0.00704747
1041.55598145,0.00733947
1043.48478882,0.00694358
1045.41359619,0.00694050
1047.34240356,0.00728083
1049.27121094,0.00707306
1051.20001831,0.00694044
1053.12882568,0.00658867
1055.05763306,0.00666063
1056.98644043,0.00655952
1058.91524780,0.00626292
1060.84405518,0.00641663
1062.77286255,0.00596141
1064.70166992,0.00586149
1066.63047729,0.00570396
1068.55928467,0.00519344
1070.48809204,0.00495198
1072.41689941,0.00487846
1074.34570679,0.00493296
1076.27451416,0.00446313
1078.20332153,0.00436522
1080.13212891,0.00430410
1082.06093628,0.00406350
1083.98974365,0.00384485
1085.91855103,0.00350068
1087.84735840,0.00357841
1089.77616577,0.00323678
1091.70497314,0.00308614
1093.63378052,0.00309400
1095.56258789,0.00296579
1097.49139526,0.00296554
1099.42020264,0.00269862
1101.34901001,0.00273186
1103.27781738,0.00267707
1105.20662476,0.00269649
1107.13543213,0.00267297
1109.06423950,0.00252802
1110.99304687,0.00254167
1112.92185425,0.00244072
1114.85066162,0.00255811
1116.77946899,0.00246609
1118.70827637,0.00254102
1120.63708374,0.00264316
1122.56589111,0.00261340
1124.49469849,0.00278828
1126.42350586,0.00260343
1128.35231323,0.00260395
1130.28112061,0.00275060
1132.20992798,0.00284623
1134.13873535,0.00302384
1136.06754272,0.00307355
1137.99635010,0.00315317
1139.92515747,0.00329978
1141.85396484,0.00346772
1143.78277222,0.00371386
1145.71157959,0.00393088
1147.64038696,0.00400137
1149.56919434,0.00434659
1151.49800171,0.00471917
1153.42680908,0.00493448
1155.35561646,0.00508369
1157.28442383,0.00533003
1159.21323120,0.00575020
1161.14203857,0.00573840
1163.07084595,0.00598016
1164.99965332,0.00629602
1166.92846069,0.00627833
1168.85726807,0.00658404
1170.78607544,0.00697223
1172.71488281,0.00727055
1174.64369019,0.00742050
1176.57249756,0.00762269
1178.50130493,0.00778878
1180.43011230,0.00825274
1182.35891968,0.00883341
1184.28772705,0.00894424
1186.21653442,0.00946994
1188.14534180,0.00989900
1190.07414917,0.01014405
1192.00295654,0.01077023
1193.93176392,0.01116037
1195.86057129,0.01163603
1197.78937866,0.01219910
1199.71818604,0.01274625
1201.64699341,0.01353423
1203.57580078,0.01400207
1205.50460815,0.01452318
1207.43341553,0.01517256
1209.36222290,0.01537394
1211.29103027,0.01594211
1213.21983765,0.01664158
1215.14864502,0.01695666
1217.07745239,0.01719141
1219.00625977,0.01743822
1220.93506714,0.01789365
1222.86387451,0.01821016
1224.79268188,0.01836580
1226.72148926,0.01832822
1228.65029663,0.01848356
1230.57910400,0.01878718
1232.50791138,0.01866026
1234.43671875,0.01872145
1236.36552612,0.01874287
1238.29433350,0.01860663
1240.22314087,0.01854219
1242.15194824,0.01858227
1244.08075562,0.01856292
1246.00956299,0.01831018
1247.93837036,0.01828709
1249.86717773,0.01821237
1251.79598511,0.01806102
1253.72479248,0.01789591
1255.65359985,0.01777357
1257.58240723,0.01760174
1259.51121460,0.01727638
1261.44002197,0.01702167
1263.36882935,0.01663622
1265.29763672,0.01652907
1267.22644409,0.01646603
1269.15525146,0.01621460
1271.08405884,0.01598739
1273.01286621,0.01583284
1274.94167358,0.01550845
1276.87048096,0.01505837
1278.79928833,0.01506295
1280.72809570,0.01465017
1282.65690308,0.01431287
1284.58571045,0.01431973
1286.51451782,0.01392887
1288.44332520,0.01367048
1290.37213257,0.01346296
1292.30093994,0.01340415
1294.22974731,0.01329090
1296.15855469,0.01313178
1298.08736206,0.01318054
1300.01616943,0.01332407
1301.94497681,0.01333671
1303.87378418,0.01342215
1305.80259155,0.01371859
1307.73139893,0.01359775
1309.66020630,0.01402523
1311.58901367,0.01438420
1313.51782104,0.01430172
1315.44662842,0.01482400
1317.37543579,0.01513949
1319.30424316,0.01550613
1321.23305054,0.01608367
1323.16185791,0.01670405
1325.09066528,0.01706848
1327.01947266,0.01736631
1328.94828003,0.01814561
1330.87708740,0.01858570
1332.80589478,0.01884421
1334.73470215,0.01918827
1336.66350952,0.01934560
1338.59231689,0.01914502
1340.52112427,0.01953247
1342.44993164,0.02039145
1344.37873901,0.02037990
1346.30754639,0.02058135
1348.23635376,0.02074780
1350.16516113,0.02040353
1352.09396851,0.02042624
1354.02277588,0.02030918
1355.95158325,0.02001172
1357.88039062,0.01987902
1359.80919800,0.01957839
1361.73800537,0.01872673
1363.66681274,0.01863351
1365.59562012,0.01941430
1367.52442749,0.01888397
1369.45323486,0.01868421
1371.38204224,0.01910456
1373.31084961,0.01825925
1375.23965698,0.01824041
1377.16846436,0.01872832
1379.09727173,0.01862007
1381.02607910,0.01870079
1382.95488647,0.01877892
1384.88369385,0.01870926
1386.81250122,0.01792122
1388.74130859,0.01801597
1390.67011597,0.01953154
1392.59892334,0.01914756
1394.52773071,0.01779394
1396.45653809,0.01880644
1398.38534546,0.01879852
1400.31415283,0.01856064
1402.24296021,0.02023340
1404.17176758,0.01901749
1406.10057495,0.01914190
1408.02938232,0.02018331
1409.95818970,0.01928314
1411.88699707,0.01973905
1413.81580444,0.01903649
1415.74461182,0.01934480
1417.67341919,0.01746934
1419.60222656,0.01542031
1421.53103394,0.01808672
1423.45984131,0.01750527
1425.38864868,0.01683620
1427.31745605,0.01717950
1429.24626343,0.01590819
1431.17507080,0.01545691
1433.10387817,0.01563742
1435.03268555,0.01446300
1436.96149292,0.01219380
1438.89030029,0.01389085
1440.81910767,0.01431128
1442.74791504,0.01305938
1444.67672241,0.01385166
1446.60552979,0.01271407
1448.53433716,0.01291839
1450.46314453,0.01359953
1452.39195190,0.01377146
1454.32075928,0.01421939
1456.24956665,0.01199927
1458.17837402,0.01221262
1460.10718140,0.01614686
1462.03598877,0.01756842
1463.96479614,0.01723075
1465.89360352,0.01780453
1467.82241089,0.02026491
1469.75121826,0.02199019
1471.68002563,0.01962174
1473.60883301,0.02035302
1475.53764038,0.02336437
1477.46644775,0.02512849
1479.39525513,0.02771874
1481.32406250,0.02818049
1483.25286987,0.02987804
1485.18167725,0.03079105
1487.11048462,0.03013452
1489.03929199,0.02983278
1490.96809937,0.02983825
1492.89690674,0.03512245
1494.82571411,0.03448690
1496.75452148,0.03072251
1498.68332886,0.03481407
1500.61213623,0.03610076
1502.54094360,0.03877532
1504.46975098,0.03680729
1506.39855835,0.02639838
1508.32736572,0.03197508
1510.25617310,0.03810938
1512.18498047,0.03666472
1514.11378784,0.04019217
1516.04259521,0.03617970
1517.97140259,0.03728426
1519.90020996,0.03663209
1521.82901733,0.03106823
1523.75782471,0.03832250
1525.68663208,0.03810974
1527.61543945,0.03748464
1529.54424683,0.04180111
1531.47305420,0.04027392
1533.40186157,0.03684225
1535.33066895,0.03887815
1537.25947632,0.04204516
1539.18828369,0.02979261
1541.11709106,0.03061454
1543.04589844,0.03757409
1544.97470581,0.03583251
1546.90351318,0.04271623
1548.83232056,0.03980459
1550.76112793,0.04088651
1552.68993530,0.04118527
1554.61874268,0.03680071
1556.54755005,0.03969664
1558.47635742,0.02804956
1560.40516479,0.02959406
1562.33397217,0.04303367
1564.26277954,0.04082999
1566.19158691,0.04178006
1568.12039429,0.04153036
1570.04920166,0.03656781
1571.97800903,0.04231279
1573.90681641,0.04303007
1575.83562378,0.03382050
1577.76443115,0.03812555
1579.69323853,0.04335324
1581.62204590,0.04160585
1583.55085327,0.04248764
1585.47966064,0.04192255
1587.40846802,0.04232176
1589.33727539,0.04176259
1591.26608276,0.04187948
1593.19489014,0.04187430
1595.12369751,0.04123901
1597.05250488,0.04173139
1598.98131226,0.04136652
1600.91011963,0.04176401
1602.83892700,0.04070235
1604.76773437,0.04132267
1606.69654175,0.04084821
1608.62534912,0.04063871
1610.55415649,0.04060590
1612.48296387,0.04073811
1614.41177124,0.04145873
1616.34057861,0.03359550
1618.26938599,0.03611896
1620.19819336,0.04266622
1622.12700073,0.03771955
1624.05580811,0.03754080
1625.98461548,0.03951609
1627.91342285,0.03925639
1629.84223022,0.03893539
1631.77103760,0.04185104
1633.69984497,0.03868859
1635.62865234,0.03147303
1637.55745972,0.03670451
1639.48626709,0.04082909
1641.41507446,0.03986952
1643.34388184,0.04105201
1645.27268921,0.03718135
1647.20149658,0.03239515
1649.13030396,0.04049235
1651.05911133,0.03895108
1652.98791870,0.02442465
1654.91672607,0.03325937
1656.84553345,0.04281566
1658.77434082,0.04085448
1660.70314819,0.04245552
1662.63195557,0.03863643
1664.56076294,0.04054535
1666.48957031,0.04426031
1668.41837769,0.03851612
1670.34718506,0.03729592
1672.27599243,0.04254343
1674.20479980,0.03938255
1676.13360718,0.03782380
1678.06241455,0.04383294
1679.99122192,0.04239976
1681.92002930,0.04203773
1683.84883667,0.03429062
1685.77764404,0.03329664
1687.70645142,0.04670075
1689.63525879,0.04084025
1691.56406616,0.04446118
1693.49287354,0.04621734
1695.42168091,0.03306667
1697.35048828,0.04099155
1699.27929565,0.03662001
1701.20810303,0.03215548
1703.13691040,0.04470743
1705.06571777,0.04131864
1706.99452515,0.04147654
1708.92333252,0.04534633
1710.85213989,0.04353280
1712.78094727,0.04443965
1714.70975464,0.04139838
1716.63856201,0.03714138
1718.56736938,0.03639148
1720.49617676,0.04335654
1722.42498413,0.04532144
1724.35379150,0.04197947
1726.28259888,0.04573752
1728.21140625,0.04241312
1730.14021362,0.04267415
1732.06902100,0.04186371
1733.99782837,0.03168900
1735.92663574,0.03923610
1737.85544312,0.04388987
1739.78425049,0.03866404
1741.71305786,0.04227438
1743.64186523,0.04319007
1745.57067261,0.04319173
1747.49947998,0.04367784
1749.42828735,0.04144191
1751.35709473,0.03967938
1753.28590210,0.04424447
1755.21470947,0.04633697
1757.14351685,0.04203123
1759.07232422,0.04645253
1761.00113159,0.04385268
1762.92993896,0.04201020
1764.85874634,0.04863354
1766.78755371,0.04373649
1768.71636108,0.04393376
1770.64516846,0.04381497
1772.57397583,0.03908367
1774.50278320,0.04385100
1776.43159058,0.04642357
1778.36039795,0.04583233
1780.28920532,0.04540246
1782.21801270,0.04574887
1784.14682007,0.04574505
1786.07562744,0.04467537
1788.00443481,0.04702319
1789.93324219,0.04600894
1791.86204956,0.04145906
1793.79085693,0.04316995
1795.71966431,0.04649311
1797.64847168,0.04583251
1799.57727905,0.04530323
1801.50608643,0.04454590
1803.43489380,0.04597057
1805.36370117,0.04721808
1807.29250854,0.04644801
1809.22131592,0.04664440
1811.15012329,0.04532015
1813.07893066,0.04682056
1815.00773804,0.04727832
1816.93654541,0.04654139
1818.86535278,0.04701285
1820.79416016,0.04687567
1822.72296753,0.04753540
1824.65177490,0.04430435
1826.58058228,0.04595354
1828.50938965,0.04610676
1830.43819702,0.04316999
1832.36700439,0.04722679
1834.29581177,0.04686095
1836.22461914,0.04693149
1838.15342651,0.04676248
1840.08223389,0.04705171
1842.01104126,0.04734972
1843.93984863,0.04163161
1845.86865601,0.04456843
1847.79746338,0.04720657
1849.72627075,0.04600950
1851.65507812,0.04765991
1853.58388550,0.04657064
1855.51269287,0.04703285
1857.44150024,0.04695424
1859.37030762,0.04655027
1861.29911499,0.04687975
1863.22792236,0.04642552
1865.15672974,0.04705865
1867.08553711,0.04552495
1869.01434448,0.04345061
1870.94315186,0.04515442
1872.87195923,0.04706691
1874.80076660,0.04632679
1876.72957397,0.04655691
1878.65838135,0.04655878
1880.58718872,0.04623230
1882.51599609,0.04654305
1884.44480347,0.04589621
1886.37361084,0.04647506
1888.30241821,0.04546010
1890.23122559,0.04470757
1892.16003296,0.04645845
1894.08884033,0.04598768
1896.01764771,0.04566380
1897.94645508,0.04604079
1899.87526245,0.04590582
1901.80406982,0.04609561
1903.73287720,0.04581300
1905.66168457,0.04598115
1907.59049194,0.04568971
1909.51929932,0.04539228
1911.44810669,0.04558473
1913.37691406,0.04572641
1915.30572144,0.04625265
1917.23452881,0.04415037
1919.16333618,0.04407999
1921.09214355,0.04605506
1923.02095093,0.04452989
1924.94975830,0.04549775
1926.87856567,0.04611645
1928.80737305,0.04524172
1930.73618042,0.04595245
1932.66498779,0.04531478
1934.59379517,0.04582424
1936.52260254,0.04553454
1938.45140991,0.04545703
1940.38021729,0.04579982
1942.30902466,0.04430570
1944.23783203,0.04501943
1946.16663940,0.04550835
1948.09544678,0.04537559
1950.02425415,0.04574569
1951.95306152,0.04554709
1953.88186890,0.04559605
1955.81067627,0.04546980
1957.73948364,0.04567818
1959.66829102,0.04566013
1961.59709839,0.04546740
1963.52590576,0.04559754
1965.45471313,0.04532108
1967.38352051,0.04489214
1969.31232788,0.04528033
1971.24113525,0.04556295
1973.16994263,0.04531849
1975.09875000,0.04550586
1977.02755737,0.04521178
1978.95636475,0.04525974
1980.88517212,0.04532533
1982.81397949,0.04529278
1984.74278687,0.04549696
1986.67159424,0.04492209
1988.60040161,0.04520205
1990.52920898,0.04489621
1992.45801636,0.04420722
1994.38682373,0.04502352
1996.31563110,0.04515719
1998.24443848,0.04485994
2000.17324585,0.04492405
2002.10205322,0.04488084
2004.03086060,0.04488450
2005.95966797,0.04470645
2007.88847534,0.04463731
2009.81728271,0.04475599
2011.74609009,0.04455054
2013.67489746,0.04457176
2015.60370483,0.04431359
2017.53251221,0.04389643
2019.46131958,0.04429310
2021.39012695,0.04423203
2023.31893433,0.04409990
2025.24774170,0.04405154
2027.17654907,0.04386603
2029.10535645,0.04397669
2031.03416382,0.04385832
2032.96297119,0.04402371
2034.89177856,0.04390611
2036.82058594,0.04364020
2038.74939331,0.04366412
2040.67820068,0.04346904
2042.60700806,0.04338315
2044.53581543,0.04339922
2046.46462280,0.04354603
2048.39343018,0.04334217
2050.32223755,0.04324937
2052.25104492,0.04341612
2054.17985229,0.04320107
2056.10865967,0.04318810
2058.03746704,0.04311229
2059.96627441,0.04295409
2061.89508179,0.04296884
2063.82388916,0.04281496
2065.75269653,0.04269634
2067.68150391,0.04277329
2069.61031128,0.04281648
2071.53911865,0.04277986
2073.46792603,0.04271590
2075.39673340,0.04265317
2077.32554077,0.04262842
2079.25434814,0.04250402
2081.18315552,0.04243259
2083.11196289,0.04237025
2085.04077026,0.04224879
2086.96957764,0.04219435
2088.89838501,0.04213285
2090.82719238,0.04212863
2092.75599976,0.04211010
2094.68480713,0.04212437
2096.61361450,0.04209498
2098.54242187,0.04188550
2100.47122925,0.04186236
2102.40003662,0.04197356
2104.32884399,0.04179666
2106.25765137,0.04167864
2108.18645874,0.04175231
2110.11526611,0.04171658
2112.04407349,0.04170159
2113.97288086,0.04166140
2115.90168823,0.04170527
2117.83049561,0.04170885
2119.75930298,0.04160470
2121.68811035,0.04154029
2123.61691772,0.04149850
2125.54572510,0.04154102
2127.47453247,0.04134850
2129.40333984,0.04128494
2131.33214722,0.04131311
2133.26095459,0.04122747
2135.18976196,0.04128482
2137.11856934,0.04119959
2139.04737671,0.04108204
2140.97618408,0.04103362
2142.90499146,0.04125995
2144.83379883,0.04125293
2146.76260620,0.04100872
2148.69141357,0.04120400
2150.62022095,0.04114117
2152.54902832,0.04101257
2154.47783569,0.04103177
2156.40664307,0.04094131
2158.33545044,0.04098179
2160.26425781,0.04087682
2162.19306519,0.04075425
2164.12187256,0.04089737
2166.05067993,0.04093985
2167.97948730,0.04093979
2169.90829468,0.04090792
2171.83710205,0.04075398
2173.76590942,0.04077969
2175.69471680,0.04058821
2177.62352417,0.04059354
2179.55233154,0.04071994
2181.48113892,0.04053529
2183.40994629,0.04076145
2185.33875366,0.04069874
2187.26756104,0.04058701
2189.19636841,0.04066253
2191.12517578,0.04045311
2193.05398315,0.04049301
2194.98279053,0.04054437
2196.91159790,0.04047791
2198.84040527,0.04037407
2200.76921265,0.04053067
2202.69802002,0.04057138
2204.62682739,0.04043026
2206.55563477,0.04049096
2208.48444214,0.04031731
2210.41324951,0.04036885
2212.34205688,0.04037297
2214.27086426,0.04026630
2216.19967163,0.04033615
2218.12847900,0.04028716
2220.05728638,0.04023818
2221.98609375,0.04013804
2223.91490112,0.04018900
2225.84370850,0.04015070
2227.77251587,0.04013162
2229.70132324,0.04014921
2231.63013062,0.04001484
2233.55893799,0.03999148
2235.48774536,0.03988852
2237.41655273,0.03991883
2239.34536011,0.03987405
2241.27416748,0.03984854
2243.20297485,0.03991575
2245.13178223,0.03977036
2247.06058960,0.03978303
2248.98939697,0.03970410
2250.91820435,0.03967918
2252.84701172,0.03972800
2254.77581909,0.03953879
2256.70462646,0.03944267
2258.63343384,0.03948081
2260.56224121,0.03952640
2262.49104858,0.03939276
2264.41985596,0.03936403
2266.34866333,0.03942264
2268.27747070,0.03936435
2270.20627808,0.03939928
2272.13508545,0.03923873
2274.06389282,0.03926278
2275.99270020,0.03932587
2277.92150757,0.03918087
2279.85031494,0.03934901
2281.77912231,0.03929865
2283.70792969,0.03929315
2285.63673706,0.03927124
2287.56554443,0.03910058
2289.49435181,0.03908439
2291.42315918,0.03881291
2293.35196655,0.03899088
2295.28077393,0.03896884
2297.20958130,0.03864382
2299.13838867,0.03867863
2301.06719604,0.03849519
2302.99600342,0.03838922
2304.92481079,0.03809711
2306.85361816,0.03793925
2308.78242554,0.03767527
2310.71123291,0.03724717
2312.64004028,0.03717862
2314.56884766,0.03669496
2316.49765503,0.03622695
2318.42646240,0.03577463
2320.35526978,0.03533891
2322.28407715,0.03482969
2324.21288452,0.03441286
2326.14169189,0.03427462
2328.07049927,0.03369061
2329.99930664,0.03333196
2331.92811401,0.03300816
2333.85692139,0.03281831
2335.78572876,0.03273338
2337.71453613,0.03268408
2339.64334351,0.03280319
2341.57215088,0.03280322
2343.50095825,0.03348851
2345.42976562,0.03399727
2347.35857300,0.03539269
2349.28738037,0.03677618
2351.21618774,0.03543690
2353.14499512,0.03369462
2355.07380249,0.03234756
2357.00260986,0.03135443
2358.93141724,0.03082529
2360.86022461,0.03051064
2362.78903198,0.03057189
2364.71783936,0.03060563
2366.64664673,0.03112141
2368.57545410,0.03174324
2370.50426147,0.03243063
2372.43306885,0.03347977
2374.36187622,0.03450283
2376.29068359,0.03540016
2378.21949097,0.03621570
2380.14829834,0.03687459
2382.07710571,0.03730112
2384.00591309,0.03760828
2385.93472046,0.03754143
2387.86352783,0.03770948
2389.79233521,0.03786527
2391.72114258,0.03773504
2393.64994995,0.03778467
2395.57875732,0.03764052
2397.50756470,0.03761994
2399.43637207,0.03755665
2401.36517944,0.03764555
2403.29398682,0.03773389
2405.22279419,0.03755318
2407.15160156,0.03758616
2409.08040894,0.03744689
2411.00921631,0.03745599
2412.93802368,0.03744729
2414.86683105,0.03734219
2416.79563843,0.03739650
2418.72444580,0.03734473
2420.65325317,0.03728528
2422.58206055,0.03727659
2424.51086792,0.03733625
2426.43967529,0.03721204
2428.36848267,0.03719577
2430.29729004,0.03715573
2432.22609741,0.03710998
2434.15490479,0.03720252
2436.08371216,0.03703128
2438.01251953,0.03711118
2439.94132690,0.03716057
2441.87013428,0.03704683
2443.79894165,0.03702521
2445.72774902,0.03699461
2447.65655640,0.03699667
2449.58536377,0.03691691
2451.51417114,0.03695350
2453.44297852,0.03687035
2455.37178589,0.03684462
2457.30059326,0.03692459
2459.22940063,0.03675191
2461.15820801,0.03668656
2463.08701538,0.03672029
2465.01582275,0.03670482
2466.94463013,0.03666484
2468.87343750,0.03662859
2470.80224487,0.03659472
2472.73105225,0.03648813
2474.65985962,0.03642226
2476.58866699,0.03656284
2478.51747437,0.03655438
2480.44628174,0.03639480
2482.37508911,0.03643397
2484.30389648,0.03640600
2486.23270386,0.03639835
2488.16151123,0.03642237
2490.09031860,0.03647403
2492.01912598,0.03640881
2493.94793335,0.03621675
2495.87674072,0.03627759
2497.80554810,0.03623691
2499.73435547,0.03618442
2501.66316284,0.03607971
2503.59197021,0.03607593
2505.52077759,0.03614790
2507.44958496,0.03596362
2509.37839233,0.03611480
2511.30719971,0.03603917
2513.23600708,0.03590180
2515.16481445,0.03607555
2517.09362183,0.03596702
2519.02242920,0.03592269
2520.95123657,0.03589460
2522.88004395,0.03592215
2524.80885132,0.03594562
2526.73765869,0.03586854
2528.66646606,0.03580581
2530.59527344,0.03567983
2532.52408081,0.03573287
2534.45288818,0.03563267
2536.38169556,0.03555615
2538.31050293,0.03563556
2540.23931030,0.03552664
2542.16811768,0.03555323
2544.09692505,0.03558384
2546.02573242,0.03552055
2547.95453979,0.03545098
2549.88334717,0.03541347
2551.81215454,0.03538833
2553.74096191,0.03535482
2555.66976929,0.03555114
2557.59857666,0.03544909
2559.52738403,0.03516565
2561.45619141,0.03528746
2563.38499878,0.03534541
2565.31380615,0.03526767
2567.24261353,0.03520044
2569.17142090,0.03519659
2571.10022827,0.03526710
2573.02903564,0.03518366
2574.95784302,0.03506993
2576.88665039,0.03508571
2578.81545776,0.03509966
2580.74426514,0.03503928
2582.67307251,0.03507196
2584.60187988,0.03502869
2586.53068726,0.03495170
2588.45949463,0.03499183
2590.38830200,0.03485974
2592.31710937,0.03479679
2594.24591675,0.03488382
2596.17472412,0.03485770
2598.10353149,0.03471061
2600.03233887,0.03465679
2601.96114624,0.03464242
2603.88995361,0.03454855
2605.81876099,0.03461513
2607.74756836,0.03458516
2609.67637573,0.03460109
2611.60518311,0.03458196
2613.53399048,0.03434932
2615.46279785,0.03442381
2617.39160522,0.03450833
2619.32041260,0.03444963
2621.24921997,0.03430508
2623.17802734,0.03428838
2625.10683472,0.03435811
2627.03564209,0.03420456
2628.96444946,0.03425951
2630.89325684,0.03422621
2632.82206421,0.03410348
2634.75087158,0.03414602
2636.67967895,0.03407324
2638.60848633,0.03406198
2640.53729370,0.03408401
2642.46610107,0.03406364
2644.39490845,0.03404520
2646.32371582,0.03393724
2648.25252319,0.03380707
2650.18133057,0.03386520
2652.11013794,0.03389499
2654.03894531,0.03385927
2655.96775269,0.03385454
2657.89656006,0.03371616
2659.82536743,0.03374286
2661.75417480,0.03366911
2663.68298218,0.03357455
2665.61178955,0.03371404
2667.54059692,0.03356681
2669.46940430,0.03349862
2671.39821167,0.03355744
2673.32701904,0.03342512
2675.25582642,0.03339364
2677.18463379,0.03345116
2679.11344116,0.03347281
2681.04224854,0.03349219
2682.97105591,0.03348039
2684.89986328,0.03339130
2686.82867065,0.03332403
2688.75747803,0.03330161
2690.68628540,0.03318561
2692.61509277,0.03309210
2694.54390015,0.03315930
2696.47270752,0.03314316
2698.40151489,0.03310569
2700.33032227,0.03301980
2702.25912964,0.03289144
2704.18793701,0.03302430
2706.11674438,0.03295048
2708.04555176,0.03289501
2709.97435913,0.03306290
2711.90316650,0.03285446
2713.83197388,0.03270257
2715.76078125,0.03281436
2717.68958862,0.03276256
2719.61839600,0.03269586
2721.54720337,0.03274728
2723.47601074,0.03263056
2725.40481812,0.03262995
2727.33362549,0.03264817
2729.26243286,0.03245705
2731.19124023,0.03253464
2733.12004761,0.03252822
2735.04885498,0.03246753
2736.97766235,0.03243569
2738.90646973,0.03238661
2740.83527710,0.03245454
2742.76408447,0.03231306
2744.69289185,0.03228838
2746.62169922,0.03220807
2748.55050659,0.03210443
2750.47931396,0.03210407
2752.40812134,0.03201044
2754.33692871,0.03208501
2756.26573608,0.03206562
2758.19454346,0.03207225
2760.12335083,0.03202823
2762.05215820,0.03196659
2763.98096558,0.03198978
2765.90977295,0.03186886
2767.83858032,0.03184181
2769.76738770,0.03179764
2771.69619507,0.03176428
2773.62500244,0.03168216
2775.55380981,0.03169937
2777.48261719,0.03165752
2779.41142456,0.03151711
2781.34023193,0.03165062
2783.26903931,0.03160729
2785.19784668,0.03160689
2787.12665405,0.03143338
2789.05546143,0.03132959
2790.98426880,0.03150648
2792.91307617,0.03132317
2794.84188354,0.03132273
2796.77069092,0.03119340
2798.69949829,0.03109071
2800.62830566,0.03113207
2802.55711304,0.03093924
2804.48592041,0.03098260
2806.41472778,0.03092077
2808.34353516,0.03092210
2810.27234253,0.03093315
2812.20114990,0.03082875
2814.12995728,0.03089228
2816.05876465,0.03076143
2817.98757202,0.03059519
2819.91637939,0.03062091
2821.84518677,0.03067135
2823.77399414,0.03055570
2825.70280151,0.03056959
2827.63160889,0.03055097
2829.56041626,0.03040076
2831.48922363,0.03046316
2833.41803101,0.03029564
2835.34683838,0.03028806
2837.27564575,0.03032874
2839.20445312,0.03006557
2841.13326050,0.03009826
2843.06206787,0.02998341
2844.99087524,0.02980055
2846.91968262,0.02983191
2848.84848999,0.02969956
2850.77729736,0.02966267
2852.70610474,0.02963611
2854.63491211,0.02941122
2856.56371948,0.02936284
2858.49252686,0.02944182
2860.42133423,0.02940217
2862.35014160,0.02938925
2864.27894897,0.02932179
2866.20775635,0.02926198
2868.13656372,0.02929637
2870.06537109,0.02922691
2871.99417847,0.02921653
2873.92298584,0.02902168
2875.85179321,0.02888463
2877.78060059,0.02916983
2879.70940796,0.02902341
2881.63821533,0.02890376
2883.56702270,0.02902318
2885.49583008,0.02877458
2887.42463745,0.02879460
2889.35344482,0.02876697
2891.28225220,0.02869625
2893.21105957,0.02878552
2895.13986694,0.02853936
2897.06867432,0.02851261
2898.99748169,0.02852061
2900.92628906,0.02845712
2902.85509644,0.02849090
2904.78390381,0.02834252
2906.71271118,0.02833294
2908.64151855,0.02829784
2910.57032593,0.02811665
2912.49913330,0.02791926
2914.42794067,0.02784291
2916.35674805,0.02784611
2918.28555542,0.02770358
2920.21436279,0.02769002
2922.14317017,0.02765551
2924.07197754,0.02751848
2926.00078491,0.02749113
2927.92959229,0.02749165
2929.85839966,0.02742048
2931.78720703,0.02741706
2933.71601440,0.02749470
2935.64482178,0.02741749
2937.57362915,0.02742267
2939.50243652,0.02740070
2941.43124390,0.02736027
2943.36005127,0.02742203
2945.28885864,0.02728496
2947.21766602,0.02728395
2949.14647339,0.02735068
2951.07528076,0.02720398
2953.00408813,0.02710631
2954.93289551,0.02711589
2956.86170288,0.02695121
2958.79051025,0.02686746
2960.71931763,0.02703833
2962.64812500,0.02682057
2964.57693237,0.02669323
2966.50573975,0.02679359
2968.43454712,0.02671545
2970.36335449,0.02684365
2972.29216187,0.02681652
2974.22096924,0.02670055
2976.14977661,0.02675864
2978.07858398,0.02678261
2980.00739136,0.02676289
2981.93619873,0.02671148
2983.86500610,0.02678626
2985.79381348,0.02674128
2987.72262085,0.02661756
2989.65142822,0.02661910
2991.58023560,0.02660024
2993.50904297,0.02656613
2995.43785034,0.02651980
2997.36665771,0.02651810
2999.29546509,0.02648938
3001.22427246,0.02639337
3003.15307983,0.02627464
3005.08188721,0.02625581
3007.01069458,0.02625258
3008.93950195,0.02611177
3010.86830933,0.02608242
3012.79711670,0.02602304
3014.72592407,0.02589744
3016.65473145,0.02589115
3018.58353882,0.02584422
3020.51234619,0.02580087
3022.44115356,0.02580519
3024.36996094,0.02571269
3026.29876831,0.02562113
3028.22757568,0.02553358
3030.15638306,0.02538322
3032.08519043,0.02534170
3034.01399780,0.02520097
3035.94280518,0.02523258
3037.87161255,0.02545192
3039.80041992,0.02525104
3041.72922729,0.02514020
3043.65803467,0.02510478
3045.58684204,0.02499315
3047.51564941,0.02500812
3049.44445679,0.02490835
3051.37326416,0.02486494
3053.30207153,0.02480273
3055.23087891,0.02468513
3057.15968628,0.02456511
3059.08849365,0.02457162
3061.01730103,0.02462060
3062.94610840,0.02444561
3064.87491577,0.02432760
3066.80372314,0.02426621
3068.73253052,0.02438118
3070.66133789,0.02438305
3072.59014526,0.02422663
3074.51895264,0.02425155
3076.44776001,0.02411265
3078.37656738,0.02402078
3080.30537476,0.02393359
3082.23418213,0.02383422
3084.16298950,0.02382313
3086.09179687,0.02379335
3088.02060425,0.02380835
3089.94941162,0.02362216
3091.87821899,0.02354987
3093.80702637,0.02350081
3095.73583374,0.02332851
3097.66464111,0.02333889
3099.59344849,0.02322208
3101.52225586,0.02305212
3103.45106323,0.02307460
3105.37987061,0.02312045
3107.30867798,0.02301480
3109.23748535,0.02293384
3111.16629272,0.02291533
3113.09510010,0.02277618
3115.02390747,0.02263004
3116.95271484,0.02257282
3118.88152222,0.02257141
3120.81032959,0.02244484
3122.73913696,0.02233903
3124.66794434,0.02239898
3126.59675171,0.02236865
3128.52555908,0.02223117
3130.45436645,0.02211339
3132.38317383,0.02200727
3134.31198120,0.02189786
3136.24078857,0.02183799
3138.16959595,0.02173667
3140.09840332,0.02168858
3142.02721069,0.02168307
3143.95601807,0.02153667
3145.88482544,0.02149402
3147.81363281,0.02144143
3149.74244019,0.02128760
3151.67124756,0.02121854
3153.60005493,0.02104704
3155.52886230,0.02098921
3157.45766968,0.02098650
3159.38647705,0.02075608
3161.31528442,0.02075131
3163.24409180,0.02072378
3165.17289917,0.02060623
3167.10170654,0.02064807
3169.03051392,0.02048009
3170.95932129,0.02039058
3172.88812866,0.02035940
3174.81693604,0.02026169
3176.74574341,0.02015538
3178.67455078,0.02007505
3180.60335815,0.02014376
3182.53216553,0.01997497
3184.46097290,0.01984764
3186.38978027,0.01976715
3188.31858765,0.01965678
3190.24739502,0.01964668
3192.17620239,0.01959141
3194.10500977,0.01962227
3196.03381714,0.01944083
3197.96262451,0.01937220
3199.89143188,0.01934743
3201.82023926,0.01923592
3203.74904663,0.01927557
3205.67785400,0.01911665
3207.60666138,0.01907634
3209.53546875,0.01896980
3211.46427612,0.01892889
3213.39308350,0.01904286
3215.32189087,0.01889633
3217.25069824,0.01883445
3219.17950562,0.01872431
3221.10831299,0.01860436
3223.03712036,0.01863835
3224.96592773,0.01866322
3226.89473511,0.01856878
3228.82354248,0.01846856
3230.75234985,0.01847326
3232.68115723,0.01851436
3234.60996460,0.01847644
3236.53877197,0.01830183
3238.46757935,0.01830579
3240.39638672,0.01829312
3242.32519409,0.01828826
3244.25400146,0.01825946
3246.18280884,0.01818553
3248.11161621,0.01828149
3250.04042358,0.01817443
3251.96923096,0.01821587
3253.89803833,0.01819945
3255.82684570,0.01800757
3257.75565308,0.01805441
3259.68446045,0.01807097
3261.61326782,0.01802357
3263.54207520,0.01795923
3265.47088257,0.01804106
3267.39968994,0.01804007
3269.32849731,0.01801109
3271.25730469,0.01794431
3273.18611206,0.01775408
3275.11491943,0.01787258
3277.04372681,0.01797041
3278.97253418,0.01792745
3280.90134155,0.01786208
3282.83014893,0.01778069
3284.75895630,0.01775285
3286.68776367,0.01783155
3288.61657104,0.01779511
3290.54537842,0.01770677
3292.47418579,0.01779592
3294.40299316,0.01769560
3296.33180054,0.01769883
3298.26060791,0.01767452
3300.18941528,0.01760959
3302.11822266,0.01760182
3304.04703003,0.01751400
3305.97583740,0.01761991
3307.90464478,0.01745232
3309.83345215,0.01740103
3311.76225952,0.01754526
3313.69106689,0.01757781
3315.61987427,0.01756246
3317.54868164,0.01744776
3319.47748901,0.01754261
3321.40629639,0.01747423
3323.33510376,0.01741783
3325.26391113,0.01736951
3327.19271851,0.01729820
3329.12152588,0.01736998
3331.05033325,0.01730141
3332.97914062,0.01729344
3334.90794800,0.01721707
3336.83675537,0.01721149
3338.76556274,0.01715387
3340.69437012,0.01714149
3342.62317749,0.01731452
3344.55198486,0.01724115
3346.48079224,0.01717016
3348.40959961,0.01713573
3350.33840698,0.01716291
3352.26721436,0.01719069
3354.19602173,0.01712238
3356.12482910,0.01699974
3358.05363647,0.01699618
3359.98244385,0.01708374
3361.91125122,0.01702248
3363.84005859,0.01704398
3365.76886597,0.01698333
3367.69767334,0.01690294
3369.62648071,0.01693526
3371.55528809,0.01703733
3373.48409546,0.01701171
3375.41290283,0.01690447
3377.34171020,0.01696634
3379.27051758,0.01685666
3381.19932495,0.01684692
3383.12813232,0.01688952
3385.05693970,0.01686488
3386.98574707,0.01684816
3388.91455444,0.01684954
3390.84336182,0.01683933
3392.77216919,0.01668563
3394.70097656,0.01678257
3396.62978394,0.01671164
3398.55859131,0.01669702
3400.48739868,0.01683322
3402.41620605,0.01673285
3404.34501343,0.01680218
3406.27382080,0.01675277
3408.20262817,0.01666588
3410.13143555,0.01674258
3412.06024292,0.01682276
3413.98905029,0.01674671
3415.91785767,0.01674852
3417.84666504,0.01681173
3419.77547241,0.01672531
3421.70427979,0.01667094
3423.63308716,0.01665228
3425.56189453,0.01684021
3427.49070190,0.01673280
3429.41950928,0.01667182
3431.34831665,0.01665411
3433.27712402,0.01657137
3435.20593140,0.01682714
3437.13473877,0.01669706
3439.06354614,0.01681371
3440.99235352,0.01677178
3442.92116089,0.01663039
3444.84996826,0.01684676
3446.77877563,0.01655632
3448.70758301,0.01665577
3450.63639038,0.01689669
3452.56519775,0.01683135
3454.49400513,0.01683298
3456.42281250,0.01685687
3458.35161987,0.01686488
3460.28042725,0.01685442
3462.20923462,0.01689078
3464.13804199,0.01686981
3466.06684937,0.01695271
3467.99565674,0.01691758
3469.92446411,0.01696934
3471.85327148,0.01700250
3473.78207886,0.01696628
3475.71088623,0.01698789
3477.63969360,0.01695970
3479.56850098,0.01704356
3481.49730835,0.01683119
3483.42611572,0.01693492
3485.35492310,0.01707209
3487.28373047,0.01700576
3489.21253784,0.01710460
3491.14134521,0.01706902
3493.07015259,0.01719462
3494.99895996,0.01712176
3496.92776733,0.01712297
3498.85657471,0.01723083
3500.78538208,0.01721519
3502.71418945,0.01692872
3504.64299683,0.01695506
3506.57180420,0.01740150
3508.50061157,0.01702685
3510.42941895,0.01707845
3512.35822632,0.01733086
3514.28703369,0.01736271
3516.21584106,0.01745320
3518.14464844,0.01727634
3520.07345581,0.01747749
3522.00226318,0.01730387
3523.93107056,0.01722424
3525.85987793,0.01725896
3527.78868530,0.01718929
3529.71749268,0.01739334
3531.64630005,0.01744242
3533.57510742,0.01772236
3535.50391479,0.01760970
3537.43272217,0.01746847
3539.36152954,0.01774587
3541.29033691,0.01775930
3543.21914429,0.01761870
3545.14795166,0.01728117
3547.07675903,0.01707721
3549.00556641,0.01759082
3550.93437378,0.01777466
3552.86318115,0.01737604
3554.79198853,0.01776935
3556.72079590,0.01793624
3558.64960327,0.01779033
3560.57841064,0.01771582
3562.50721802,0.01760382
3564.43602539,0.01781162
3566.36483276,0.01668540
3568.29364014,0.01615846
3570.22244751,0.01762537
3572.15125488,0.01810255
3574.08006226,0.01781289
3576.00886963,0.01796465
3577.93767700,0.01792914
3579.86648437,0.01800459
3581.79529175,0.01800711
3583.72409912,0.01800881
3585.65290649,0.01777018
3587.58171387,0.01629888
3589.51052124,0.01676146
3591.43932861,0.01828381
3593.36813599,0.01776006
3595.29694336,0.01744656
3597.22575073,0.01774334
3599.15455811,0.01801513
3601.08336548,0.01786762
3603.01217285,0.01799525
3604.94098022,0.01842098
3606.86978760,0.01778169
3608.79859497,0.01665812
3610.72740234,0.01698372
3612.65620972,0.01750670
3614.58501709,0.01703732
3616.51382446,0.01829187
3618.44263184,0.01694840
3620.37143921,0.01628443
3622.30024658,0.01855642
3624.22905395,0.01801105
3626.15786133,0.01885208
3628.08666870,0.01602018
3630.01547607,0.01442524
3631.94428345,0.01843757
3633.87309082,0.01792356
3635.80189819,0.01818057
3637.73070557,0.01865081
3639.65951294,0.01827302
3641.58832031,0.01863377
3643.51712769,0.01843234
3645.44593506,0.01862641
3647.37474243,0.01671801
3649.30354980,0.01532395
3651.23235718,0.01555319
3653.16116455,0.01846456
3655.08997192,0.01838434
3657.01877930,0.01640981
3658.94758667,0.01898983
3660.87639404,0.01865735
3662.80520142,0.01880945
3664.73400879,0.01885217
3666.66281616,0.01863438
3668.59162354,0.01812043
3670.52043091,0.01472524
3672.44923828,0.01785147
3674.37804565,0.01709439
3676.30685303,0.01409736
3678.23566040,0.01785869
3680.16446777,0.01832867
3682.09327515,0.01839128
3684.02208252,0.01886696
3685.95088989,0.01856659
3687.87969727,0.01677218
3689.80850464,0.01526298
3691.73731201,0.01752144
3693.66611938,0.01809970
3695.59492676,0.01865286
3697.52373413,0.01869390
3699.45254150,0.01842166
3701.38134888,0.01799840
3703.31015625,0.01716297
3705.23896362,0.01892930
3707.16777100,0.01811294
3709.09657837,0.01763067
3711.02538574,0.01652791
3712.95419312,0.01535769
3714.88300049,0.01823056
3716.81180786,0.01804163
3718.74061523,0.01814563
3720.66942261,0.01781880
3722.59822998,0.01715671
3724.52703735,0.01782055
3726.45584473,0.01653477
3728.38465210,0.01791051
3730.31345947,0.01768093
3732.24226685,0.01626546
3734.17107422,0.01590885
3736.09988159,0.01506481
3738.02868896,0.01594559
3739.95749634,0.01727300
3741.88630371,0.01822491
3743.81511108,0.01415414
3745.74391846,0.01320528
3747.67272583,0.01727408
3749.60153320,0.01493861
3751.53034058,0.01367484
3753.45914795,0.01563281
3755.38795532,0.01694003
3757.31676270,0.01770420
3759.24557007,0.01631999
3761.17437744,0.01686062
3763.10318481,0.01795149
3765.03199219,0.01674378
3766.96079956,0.01714242
3768.88960693,0.01709070
3770.81841431,0.01614810
3772.74722168,0.01747554
3774.67602905,0.01766516
3776.60483643,0.01757902
3778.53364380,0.01709784
3780.46245117,0.01639659
3782.39125854,0.01752923
3784.32006592,0.01712007
3786.24887329,0.01696626
3788.17768066,0.01737839
3790.10648804,0.01731469
3792.03529541,0.01724253
3793.96410278,0.01744308
3795.89291016,0.01648501
3797.82171753,0.01623441
3799.75052490,0.01714037
3801.67933228,0.01363433
3803.60813965,0.01570701
3805.53694702,0.01721080
3807.46575439,0.01401193
3809.39456177,0.01697657
3811.32336914,0.01675228
3813.25217651,0.01731233
3815.18098389,0.01563850
3817.10979126,0.01354343
3819.03859863,0.01734034
3820.96740601,0.01402078
3822.89621338,0.01459996
3824.82502075,0.01724607
3826.75382812,0.01559037
3828.68263550,0.01682385
3830.61144287,0.01615404
3832.54025024,0.01558316
3834.46905762,0.01589240
3836.39786499,0.01507081
3838.32667236,0.01366410
3840.25547974,0.01477035
3842.18428711,0.01590404
3844.11309448,0.01522321
3846.04190186,0.01654815
3847.97070923,0.01623164
3849.89951660,0.01632525
3851.82832397,0.01472788
3853.75713135,0.01091030
3855.68593872,0.01295764
3857.61474609,0.01637170
3859.54355347,0.01593016
3861.47236084,0.01562289
3863.40116821,0.01540717
3865.32997559,0.01427645
3867.25878296,0.01592673
3869.18759033,0.01473667
3871.11639770,0.01355407
3873.04520508,0.01598713
3874.97401245,0.01461348
3876.90281982,0.01594435
3878.83162720,0.01627179
3880.76043457,0.01379096
3882.68924194,0.01605429
3884.61804932,0.01504052
3886.54685669,0.01371897
3888.47566406,0.01603717
3890.40447144,0.01525250
3892.33327881,0.01421920
3894.26208618,0.01547565
3896.19089355,0.01591977
3898.11970093,0.01521040
3900.04850830,0.01436313
3901.97731567,0.01411756
3903.90612305,0.01397087
3905.83493042,0.01425110
3907.76373779,0.01563371
3909.69254517,0.01563369
3911.62135254,0.01541681
3913.55015991,0.01585621
3915.47896728,0.01532990
3917.40777466,0.01477077
3919.33658203,0.01473352
3921.26538940,0.01526386
3923.19419678,0.01513964
3925.12300415,0.01494058
3927.05181152,0.01524561
3928.98061890,0.01533168
3930.90942627,0.01503574
3932.83823364,0.01445637
3934.76704102,0.01505629
3936.69584839,0.01528680
3938.62465576,0.01508027
3940.55346313,0.01521040
3942.48227051,0.01465650
3944.41107788,0.01477290
3946.33988525,0.01504898
3948.26869263,0.01477612
3950.19750000,0.01480715
3952.12630737,0.01499191
3954.05511475,0.01506864
3955.98392212,0.01501900
3957.91272949,0.01485805
3959.84153687,0.01490507
3961.77034424,0.01488411
3963.69915161,0.01477096
3965.62795898,0.01490582
3967.55676636,0.01477521
3969.48557373,0.01479479
3971.41438110,0.01477441
3973.34318848,0.01477036
3975.27199585,0.01479691
3977.20080322,0.01459963
3979.12961060,0.01478255
3981.05841797,0.01468447
3982.98722534,0.01471726
3984.91603271,0.01468365
3986.84484009,0.01455022
3988.77364746,0.01459771
3990.70245483,0.01439267
3992.63126221,0.01455980
3994.56006958,0.01443761
3996.48887695,0.01447063
3998.41768433,0.01453558
4000.34649170,0.01431653
4002.27529907,0.01444785
4004.20410645,0.01439425
4006.13291382,0.01442192
4008.06172119,0.01426559
4009.99052856,0.01423319
4011.91933594,0.01436426
4013.84814331,0.01427699
4015.77695068,0.01431993
4017.70575806,0.01423727
4019.63456543,0.01419119
4021.56337280,0.01420631
4023.49218018,0.01415811
4025.42098755,0.01405698
4027.34979492,0.01414560
4029.27860229,0.01410386
4031.20740967,0.01396013
4033.13621704,0.01405299
4035.06502441,0.01399783
4036.99383179,0.01398975
4038.92263916,0.01393652
4040.85144653,0.01390073
4042.78025391,0.01381530
4044.70906128,0.01377323
4046.63786865,0.01383340
4048.56667603,0.01381951
4050.49548340,0.01389681
4052.42429077,0.01376718
4054.35309814,0.01380896
4056.28190552,0.01378027
4058.21071289,0.01368273
4060.13952026,0.01368466
4062.06832764,0.01357704
4063.99713501,0.01368274
4065.92594238,0.01358466
4067.85474976,0.01358225
4069.78355713,0.01361512
4071.71236450,0.01351635
4073.64117187,0.01350136
4075.56997925,0.01344938
4077.49878662,0.01348109
4079.42759399,0.01339087
4081.35640137,0.01338916
4083.28520874,0.01337530
4085.21401611,0.01331635
4087.14282349,0.01330308
4089.07163086,0.01325377
4091.00043823,0.01324760
4092.92924561,0.01322505
4094.85805298,0.01326012
4096.78686035,0.01320893
4098.71566772,0.01319438
4100.64447510,0.01318694
4102.57328247,0.01316401
4104.50208984,0.01308671
4106.43089722,0.01308020
4108.35970459,0.01313410
4110.28851196,0.01297605
4112.21731934,0.01299921
4114.14612671,0.01299042
4116.07493408,0.01303929
4118.00374145,0.01296404
4119.93254883,0.01282788
4121.86135620,0.01294469
4123.79016357,0.01280973
4125.71897095,0.01287573
4127.64777832,0.01286210
4129.57658569,0.01276056
4131.50539307,0.01279045
4133.43420044,0.01273148
4135.36300781,0.01278430
4137.29181519,0.01270111
4139.22062256,0.01274900
4141.14942993,0.01272057
4143.07823730,0.01257897
4145.00704468,0.01270044
4146.93585205,0.01274382
4148.86465942,0.01263627
4150.79346680,0.01260457
4152.72227417,0.01260780
4154.65108154,0.01255556
4156.57988892,0.01256120
4158.50869629,0.01248535
4160.43750366,0.01247799
4162.36631103,0.01244534
4164.29511841,0.01243134
4166.22392578,0.01250899
4168.15273315,0.01239659
4170.08154053,0.01236648
4172.01034790,0.01231118
4173.93915527,0.01226866
4175.86796265,0.01225862
4177.79677002,0.01226462
4179.72557739,0.01222497
4181.65438477,0.01218125
4183.58319214,0.01221742
4185.51199951,0.01213722
4187.44080688,0.01223690
4189.36961426,0.01212428
4191.29842163,0.01208819
4193.22722900,0.01207608
4195.15603638,0.01193885
4197.08484375,0.01213996
4199.01365112,0.01197677
4200.94245850,0.01195092
4202.87126587,0.01202133
4204.80007324,0.01196181
4206.72888062,0.01200414
4208.65768799,0.01194082
4210.58649536,0.01194826
4212.51530273,0.01181821
4214.44411011,0.01189076
4216.37291748,0.01183566
4218.30172485,0.01171401
4220.23053223,0.01180763
4222.15933960,0.01173171
4224.08814697,0.01173321
4226.01695435,0.01168938
4227.94576172,0.01169499
4229.87456909,0.01167479
4231.80337646,0.01165257
4233.73218384,0.01164809
4235.66099121,0.01159678
4237.58979858,0.01156208
4239.51860596,0.01153045
4241.44741333,0.01160149
4243.37622070,0.01154321
4245.30502808,0.01155979
4247.23383545,0.01145145
4249.16264282,0.01147032
4251.09145020,0.01152220
4253.02025757,0.01138082
4254.94906494,0.01153679
4256.87787231,0.01134274
4258.80667969,0.01132135
4260.73548706,0.01141604
4262.66429443,0.01125365
4264.59310181,0.01134293
4266.52190918,0.01130679
4268.45071655,0.01128715
4270.37952393,0.01126006
4272.30833130,0.01120175
4274.23713867,0.01114868
4276.16594604,0.01115123
4278.09475342,0.01119900
4280.02356079,0.01113095
4281.95236816,0.01107171
4283.88117554,0.01105622
4285.80998291,0.01112226
4287.73879028,0.01099861
4289.66759766,0.01100594
4291.59640503,0.01107212
4293.52521240,0.01100057
4295.45401978,0.01098275
4297.38282715,0.01086114
4299.31163452,0.01088890
4301.24044189,0.01088715
4303.16924927,0.01082126
4305.09805664,0.01081323
4307.02686401,0.01086759
4308.95567139,0.01080429
4310.88447876,0.01069228
4312.81328613,0.01075884
4314.74209351,0.01068758
4316.67090088,0.01069551
4318.59970825,0.01067874
4320.52851562,0.01072389
4322.45732300,0.01066766
4324.38613037,0.01051521
4326.31493774,0.01064769
4328.24374512,0.01054341
4330.17255249,0.01055960
4332.10135986,0.01067890
4334.03016724,0.01061048
4335.95897461,0.01045297
4337.88778198,0.01044218
4339.81658936,0.01059388
4341.74539673,0.01046407
4343.67420410,0.01043249
4345.60301147,0.01045068
4347.53181885,0.01042979
4349.46062622,0.01039169
4351.38943359,0.01040752
4353.31824097,0.01042388
4355.24704834,0.01031025
4357.17585571,0.01032840
4359.10466309,0.01024834
4361.03347046,0.01029968
4362.96227783,0.01020736
4364.89108520,0.01010516
4366.81989258,0.01027462
4368.74869995,0.01017838
4370.67750732,0.01013865
4372.60631470,0.01017530
4374.53512207,0.01017223
4376.46392944,0.01012671
4378.39273682,0.01015612
4380.32154419,0.01004738
4382.25035156,0.00995279
4384.17915894,0.01010214
4386.10796631,0.01001894
4388.03677368,0.01003957
4389.96558105,0.00998202
4391.89438843,0.00996543
4393.82319580,0.00999002
4395.75200317,0.00990323
4397.68081055,0.00995919
4399.60961792,0.00983157
4401.53842529,0.00983465
4403.46723267,0.00981497
4405.39604004,0.00983205
4407.32484741,0.00984796
4409.25365478,0.00977471
4411.18246216,0.00984287
4413.11126953,0.00978033
4415.04007690,0.00979290
4416.96888428,0.00962936
4418.89769165,0.00964235
4420.82649902,0.00973607
4422.75530640,0.00960357
4424.68411377,0.00970805
4426.61292114,0.00968622
4428.54172852,0.00962117
4430.47053589,0.00954019
4432.39934326,0.00956324
4434.32815063,0.00956081
4436.25695801,0.00943447
4438.18576538,0.00952693
4440.11457275,0.00953361
4442.04338013,0.00949177
4443.97218750,0.00941947
4445.90099487,0.00941187
4447.82980225,0.00944238
4449.75860962,0.00940144
4451.68741699,0.00939719
4453.61622437,0.00939532
4455.54503174,0.00936801
4457.47383911,0.00925731
4459.40264648,0.00926050
4461.33145386,0.00923574
4463.26026123,0.00919953
4465.18906860,0.00920824
4467.11787598,0.00918360
4469.04668335,0.00919233
4470.97549072,0.00915395
4472.90429810,0.00918881
4474.83310547,0.00914043
4476.76191284,0.00911493
4478.69072021,0.00917261
4480.61952759,0.00908837
4482.54833496,0.00904209
4484.47714233,0.00910423
4486.40594971,0.00905290
4488.33475708,0.00896005
4490.26356445,0.00900382
4492.19237183,0.00890569
4494.12117920,0.00888900
4496.04998657,0.00898023
4497.97879395,0.00893938
4499.90760132,0.00888110
4501.83640869,0.00886897
4503.76521606,0.00893517
4505.69402344,0.00887040
4507.62283081,0.00889456
4509.55163818,0.00888515
4511.48044556,0.00877156
4513.40925293,0.00879768
4515.33806030,0.00878198
4517.26686768,0.00873176
4519.19567505,0.00868919
4521.12448242,0.00870605
4523.05328979,0.00862583
4524.98209717,0.00871418
4526.91090454,0.00876564
4528.83971191,0.00860288
4530.76851929,0.00865612
4532.69732666,0.00863371
4534.62613403,0.00863048
4536.55494141,0.00858174
4538.48374878,0.00859358
4540.41255615,0.00855945
4542.34136353,0.00844999
4544.27017090,0.00859446
4546.19897827,0.00846620
4548.12778564,0.00842253
4550.05659302,0.00847311
4551.98540039,0.00842897
4553.91420776,0.00839833
4555.84301514,0.00837027
4557.77182251,0.00846926
4559.70062988,0.00836803
4561.62943726,0.00833546
4563.55824463,0.00827149
4565.48705200,0.00825782
4567.41585937,0.00831614
4569.34466675,0.00821702
4571.27347412,0.00827282
4573.20228149,0.00821651
4575.13108887,0.00818418
4577.05989624,0.00818648
4578.98870361,0.00819579
4580.91751099,0.00819915
4582.84631836,0.00814652
4584.77512573,0.00819083
4586.70393311,0.00815273
4588.63274048,0.00817632
4590.56154785,0.00808295
4592.49035522,0.00807197
4594.41916260,0.00808655
4596.34796997,0.00797181
4598.27677734,0.00807661
4600.20558472,0.00802425
4602.13439209,0.00801947
4604.06319946,0.00801410
4605.99200684,0.00787587
4607.92081421,0.00791498
4609.84962158,0.00792955
4611.77842895,0.00792038
4613.70723633,0.00791438
4615.63604370,0.00793423
4617.56485107,0.00790649
4619.49365845,0.00783445
4621.42246582,0.00784771
4623.35127319,0.00778564
4625.28008057,0.00773582
4627.20888794,0.00783278
4629.13769531,0.00781374
4631.06650269,0.00774606
4632.99531006,0.00774638
4634.92411743,0.00769541
4636.85292480,0.00772000
4638.78173218,0.00769745
4640.71053955,0.00770854
4642.63934692,0.00768963
4644.56815430,0.00761891
4646.49696167,0.00772943
4648.42576904,0.00766910
4650.35457642,0.00763726
4652.28338379,0.00763770
4654.21219116,0.00758388
4656.14099853,0.00759906
4658.06980591,0.00746084
4659.99861328,0.00747677
4661.92742065,0.00751334
4663.85622803,0.00749774
4665.78503540,0.00754968
4667.71384277,0.00743388
4669.64265015,0.00743065
4671.57145752,0.00747397
4673.50026489,0.00738157
4675.42907227,0.00739807
4677.35787964,0.00734989
4679.28668701,0.00732198
4681.21549438,0.00744304
4683.14430176,0.00732678
4685.07310913,0.00727526
4687.00191650,0.00732112
4688.93072388,0.00726158
4690.85953125,0.00731343
4692.78833862,0.00728360
4694.71714600,0.00727155
4696.64595337,0.00721005
4698.57476074,0.00715593
4700.50356812,0.00726189
4702.43237549,0.00718425
4704.36118286,0.00713448
4706.28999023,0.00719250
4708.21879761,0.00716238
4710.14760498,0.00709239
4712.07641235,0.00711160
4714.00521973,0.00715458
4715.93402710,0.00708865
4717.86283447,0.00705924
4719.79164185,0.00708431
4721.72044922,0.00707291
4723.64925659,0.00700668
4725.57806396,0.00700287
4727.50687134,0.00701281
4729.43567871,0.00695901
4731.36448608,0.00696666
4733.29329346,0.00701747
4735.22210083,0.00697440
4737.15090820,0.00691476
4739.07971558,0.00695170
4741.00852295,0.00684596
4742.93733032,0.00683535
4744.86613770,0.00694199
4746.79494507,0.00687170
4748.72375244,0.00687454
4750.65255981,0.00678624
4752.58136719,0.00675020
4754.51017456,0.00687294
4756.43898193,0.00679686
4758.36778931,0.00680415
4760.29659668,0.00684090
4762.22540405,0.00672628
4764.15421143,0.00675542
4766.08301880,0.00677736
4768.01182617,0.00672367
4769.94063354,0.00673203
4771.86944092,0.00666911
4773.79824829,0.00663148
4775.72705566,0.00660500
4777.65586304,0.00661714
4779.58467041,0.00665563
4781.51347778,0.00657589
4783.44228516,0.00660755
4785.37109253,0.00661652
4787.29989990,0.00650816
4789.22870728,0.00646503
4791.15751465,0.00653002
4793.08632202,0.00656993
4795.01512939,0.00652875
4796.94393677,0.00654279
4798.87274414,0.00647246
4800.80155151,0.00646992
4802.73035889,0.00649512
4804.65916626,0.00643901
4806.58797363,0.00647636
4808.51678101,0.00644435
4810.44558838,0.00640552
4812.37439575,0.00643190
4814.30320312,0.00644524
4816.23201050,0.00639260
4818.16081787,0.00635622
4820.08962524,0.00632494
4822.01843262,0.00632162
4823.94723999,0.00637423
4825.87604736,0.00629140
4827.80485474,0.00635021
4829.73366211,0.00634281
4831.66246948,0.00618607
4833.59127686,0.00622625
4835.52008423,0.00620842
4837.44889160,0.00618098
4839.37769897,0.00621110
4841.30650635,0.00621820
4843.23531372,0.00620966
4845.16412109,0.00621811
4847.09292847,0.00619701
4849.02173584,0.00611907
4850.95054321,0.00612439
4852.87935059,0.00611551
4854.80815796,0.00611200
4856.73696533,0.00612823
4858.66577270,0.00608717
4860.59458008,0.00607114
4862.52338745,0.00607839
4864.45219482,0.00599479
4866.38100220,0.00600265
4868.30980957,0.00606265
4870.23861694,0.00596090
4872.16742432,0.00601700
4874.09623169,0.00600259
4876.02503906,0.00590649
4877.95384644,0.00594485
4879.88265381,0.00590137
4881.81146118,0.00592361
4883.74026855,0.00590652
4885.66907593,0.00590589
4887.59788330,0.00593358
4889.52669067,0.00591405
4891.45549805,0.00591013
4893.38430542,0.00583493
4895.31311279,0.00584824
4897.24192017,0.00584244
4899.17072754,0.00581944
4901.09953491,0.00582386
4903.02834228,0.00578682
4904.95714966,0.00573969
4906.88595703,0.00570989
4908.81476440,0.00572725
4910.74357178,0.00572538
4912.67237915,0.00582286
4914.60118652,0.00579463
4916.52999390,0.00573056
4918.45880127,0.00579005
4920.38760864,0.00568738
4922.31641602,0.00563217
4924.24522339,0.00562588
4926.17403076,0.00561771
4928.10283813,0.00561469
4930.03164551,0.00557364
4931.96045288,0.00557151
4933.88926025,0.00558874
4935.81806763,0.00566306
4937.74687500,0.00562496
4939.67568237,0.00551518
4941.60448975,0.00551580
4943.53329712,0.00553078
4945.46210449,0.00549041
4947.39091187,0.00550727
4949.31971924,0.00553136
4951.24852661,0.00543500
4953.17733398,0.00544142
4955.10614136,0.00545916
4957.03494873,0.00541363
4958.96375610,0.00542244
4960.89256348,0.00541532
4962.82137085,0.00542760
4964.75017822,0.00533460
4966.67898560,0.00528929
4968.60779297,0.00542096
4970.53660034,0.00544889
4972.46540771,0.00541414
4974.39421509,0.00537728
4976.32302246,0.00535750
4978.25182983,0.00535899
4980.18063721,0.00533590
4982.10944458,0.00537882
4984.03825195,0.00535293
4985.96705933,0.00528447
4987.89586670,0.00523896
4989.82467407,0.00513893
4991.75348145,0.00520915
4993.68228882,0.00528051
4995.61109619,0.00519598
4997.53990356,0.00522659
4999.46871094,0.00526772
5001.39751831,0.00519835
5003.32632568,0.00516656
5005.25513306,0.00513994
5007.18394043,0.00506798
5009.11274780,0.00509034
5011.04155518,0.00512485
5012.97036255,0.00512583
5014.89916992,0.00512727
5016.82797729,0.00509437
5018.75678467,0.00509946
5020.68559204,0.00506025
5022.61439941,0.00506923
5024.54320679,0.00508429
5026.47201416,0.00502076
5028.40082153,0.00502427
5030.32962891,0.00499863
5032.25843628,0.00498332
5034.18724365,0.00495034
5036.11605103,0.00493046
5038.04485840,0.00496503
5039.97366577,0.00496628
5041.90247314,0.00499734
5043.83128052,0.00494339
5045.76008789,0.00489889
5047.68889526,0.00490960
5049.61770264,0.00490093
5051.54651001,0.00491909
5053.47531738,0.00487774
5055.40412476,0.00485502
5057.33293213,0.00485030
5059.26173950,0.00484470
5061.19054687,0.00487971
5063.11935425,0.00484490
5065.04816162,0.00477693
5066.97696899,0.00478561
5068.90577637,0.00479150
5070.83458374,0.00473381
5072.76339111,0.00477049
5074.69219849,0.00480829
5076.62100586,0.00472876
5078.54981323,0.00470201
5080.47862061,0.00467871
5082.40742798,0.00468084
5084.33623535,0.00466757
5086.26504272,0.00460443
5088.19385010,0.00470161
5090.12265747,0.00471956
5092.05146484,0.00466803
5093.98027222,0.00466406
5095.90907959,0.00462193
5097.83788696,0.00467429
5099.76669434,0.00463597
5101.69550171,0.00462455
5103.62430908,0.00463324
5105.55311645,0.00455561
5107.48192383,0.00458039
5109.41073120,0.00453843
5111.33953857,0.00455416
5113.26834595,0.00453292
5115.19715332,0.00449827
5117.12596069,0.00454613
5119.05476807,0.00448142
5120.98357544,0.00455301
5122.91238281,0.00451482
5124.84119019,0.00446907
5126.76999756,0.00459610
5128.69880493,0.00448819
5130.62761230,0.00445053
5132.55641968,0.00450836
5134.48522705,0.00440738
5136.41403442,0.00437511
5138.34284180,0.00441768
5140.27164917,0.00442999
5142.20045654,0.00438079
5144.12926392,0.00429893
5146.05807129,0.00434686
5147.98687866,0.00437279
5149.91568603,0.00436040
5151.84449341,0.00437710
5153.77330078,0.00435573
5155.70210815,0.00441075
5157.63091553,0.00431590
5159.55972290,0.00426725
5161.48853027,0.00431224
5163.41733765,0.00426400
5165.34614502,0.00432318
5167.27495239,0.00424822
5169.20375977,0.00423516
5171.13256714,0.00425178
5173.06137451,0.00421517
5174.99018188,0.00426530
5176.91898926,0.00421647
5178.84779663,0.00422846
5180.77660400,0.00418196
5182.70541138,0.00421582
5184.63421875,0.00419486
5186.56302612,0.00409183
5188.49183350,0.00419232
5190.42064087,0.00412339
5192.34944824,0.00418403
5194.27825562,0.00421846
5196.20706299,0.00403114
5198.13587036,0.00406295
5200.06467773,0.00406956
5201.99348511,0.00405611
5203.92229248,0.00414081
5205.85109985,0.00405557
5207.77990723,0.00392176
5209.70871460,0.00399841
5211.63752197,0.00406037
5213.56632935,0.00402026
5215.49513672,0.00398890
5217.42394409,0.00406592
5219.35275146,0.00408369
5221.28155884,0.00399208
5223.21036621,0.00405974
5225.13917358,0.00393411
5227.06798096,0.00386275
5228.99678833,0.00396590
5230.92559570,0.00392749
5232.85440308,0.00395369
5234.78321045,0.00395045
5236.71201782,0.00401238
5238.64082520,0.00397188
5240.56963257,0.00392684
5242.49843994,0.00391442
5244.42724731,0.00384197
5246.35605469,0.00395364
5248.28486206,0.00381115
5250.21366943,0.00386740
5252.14247681,0.00398493
5254.07128418,0.00381164
5256.00009155,0.00392300
5257.92889893,0.00384466
5259.85770630,0.00377997
5261.78651367,0.00383437
5263.71532104,0.00371952
5265.64412842,0.00375168
5267.57293579,0.00380259
5269.50174316,0.00382652
5271.43055054,0.00379616
5273.35935791,0.00380687
5275.28816528,0.00381455
5277.21697266,0.00379522
5279.14578003,0.00381631
5281.07458740,0.00369340
5283.00339478,0.00372980
5284.93220215,0.00378960
5286.86100952,0.00374727
5288.78981689,0.00368767
5290.71862427,0.00359025
5292.64743164,0.00377304
5294.57623901,0.00377071
5296.50504639,0.00367245
5298.43385376,0.00377040
5300.36266113,0.00363346
5302.29146851,0.00362076
5304.22027588,0.00372088
5306.14908325,0.00364326
5308.07789062,0.00358772
5310.00669800,0.00366428
5311.93550537,0.00369893
5313.86431274,0.00365931
5315.79312012,0.00369495
5317.72192749,0.00357315
5319.65073486,0.00356087
5321.57954224,0.00364959
5323.50834961,0.00356294
5325.43715698,0.00355773
5327.36596436,0.00352838
5329.29477173,0.00351554
5331.22357910,0.00353066
5333.15238647,0.00353320
5335.08119385,0.00356654
5337.01000122,0.00349886
5338.93880859,0.00336606
5340.86761597,0.00344482
5342.79642334,0.00354846
5344.72523071,0.00334398
5346.65403809,0.00344231
5348.58284546,0.00355076
5350.51165283,0.00342787
5352.44046020,0.00342417
5354.36926758,0.00330606
5356.29807495,0.00348407
5358.22688232,0.00347234
5360.15568970,0.00330040
5362.08449707,0.00349248
5364.01330444,0.00340161
5365.94211182,0.00338444
5367.87091919,0.00346171
5369.79972656,0.00338561
5371.72853394,0.00337099
5373.65734131,0.00331434
5375.58614868,0.00331688
5377.51495605,0.00332181
5379.44376343,0.00334171
5381.37257080,0.00339144
5383.30137817,0.00338450
5385.23018555,0.00336439
5387.15899292,0.00331043
5389.08780029,0.00333081
5391.01660767,0.00338899
5392.94541504,0.00327506
5394.87422241,0.00320258
5396.80302978,0.00325900
5398.73183716,0.00322910
5400.66064453,0.00327200
5402.58945190,0.00333502
5404.51825928,0.00328164
5406.44706665,0.00325426
5408.37587402,0.00321316
5410.30468140,0.00321922
5412.23348877,0.00324298
5414.16229614,0.00308000
5416.09110352,0.00312100
5418.01991089,0.00331063
5419.94871826,0.00319898
5421.87752563,0.00324869
5423.80633301,0.00325974
5425.73514038,0.00318133
5427.66394775,0.00323269
5429.59275513,0.00300385
5431.52156250,0.00309379
5433.45036987,0.00321136
5435.37917725,0.00302197
5437.30798462,0.00317646
5439.23679199,0.00317607
5441.16559936,0.00302033
5443.09440674,0.00310750
5445.02321411,0.00306840
5446.95202148,0.00302169
5448.88082886,0.00313289
5450.80963623,0.00299793
5452.73844360,0.00302389
5454.66725098,0.00316308
5456.59605835,0.00298752
5458.52486572,0.00305643
5460.45367310,0.00305306
5462.38248047,0.00296741
5464.31128784,0.00303096
5466.24009521,0.00304211
5468.16890259,0.00306711
5470.09770996,0.00297983
5472.02651733,0.00306483
5473.95532471,0.00302869
5475.88413208,0.00289649
5477.81293945,0.00300604
5479.74174683,0.00301941
5481.67055420,0.00298517
5483.59936157,0.00297059
5485.52816895,0.00303941
5487.45697632,0.00293297
5489.38578369,0.00284095
5491.31459106,0.00296138
5493.24339844,0.00290488
5495.17220581,0.00288188
5497.10101318,0.00289199
5499.02982056,0.00289085
5500.95862793,0.00293800
5502.88743530,0.00292419
5504.81624268,0.00288717
5506.74505005,0.00288442
5508.67385742,0.00286204
5510.60266479,0.00282753
5512.53147217,0.00285675
5514.46027954,0.00284798
5516.38908691,0.00285880
5518.31789429,0.00284139
5520.24670166,0.00281865
5522.17550903,0.00285356
5524.10431641,0.00284863
5526.03312378,0.00280652
5527.96193115,0.00279357
5529.89073853,0.00286066
5531.81954590,0.00280737
5533.74835327,0.00275788
5535.67716064,0.00273773
5537.60596802,0.00277341
5539.53477539,0.00283642
5541.46358276,0.00273340
5543.39239014,0.00278866
5545.32119751,0.00279853
5547.25000488,0.00274858
5549.17881226,0.00274747
5551.10761963,0.00270173
5553.03642700,0.00274271
5554.96523437,0.00275359
5556.89404175,0.00276955
5558.82284912,0.00266677
5560.75165649,0.00267244
5562.68046387,0.00275600
5564.60927124,0.00265103
5566.53807861,0.00269495
5568.46688599,0.00271246
5570.39569336,0.00265492
5572.32450073,0.00273315
5574.25330811,0.00274623
5576.18211548,0.00264521
5578.11092285,0.00266816
5580.03973022,0.00268343
5581.96853760,0.00267092
5583.89734497,0.00265969
5585.82615234,0.00259890
5587.75495972,0.00268217
5589.68376709,0.00259362
5591.61257446,0.00257701
5593.54138184,0.00264223
5595.47018921,0.00255151
5597.39899658,0.00261257
5599.32780395,0.00254082
5601.25661133,0.00252894
5603.18541870,0.00256252
5605.11422607,0.00253639
5607.04303345,0.00260091
5608.97184082,0.00258885
5610.90064819,0.00255020
5612.82945557,0.00249580
5614.75826294,0.00258229
5616.68707031,0.00258634
5618.61587769,0.00256319
5620.54468506,0.00256099
5622.47349243,0.00247383
5624.40229980,0.00254528
5626.33110718,0.00250001
5628.25991455,0.00251171
5630.18872192,0.00254190
5632.11752930,0.00246348
5634.04633667,0.00243665
5635.97514404,0.00242211
5637.90395142,0.00251140
5639.83275879,0.00248985
5641.76156616,0.00249738
5643.69037353,0.00247182
5645.61918091,0.00242817
5647.54798828,0.00249618
5649.47679565,0.00241618
5651.40560303,0.00244533
5653.33441040,0.00245817
5655.26321777,0.00238689
5657.19202515,0.00241034
5659.12083252,0.00240599
5661.04963989,0.00238946
5662.97844727,0.00240530
5664.90725464,0.00246359
5666.83606201,0.00241622
5668.76486938,0.00233928
5670.69367676,0.00237445
5672.62248413,0.00243665
5674.55129150,0.00236758
5676.48009888,0.00226851
5678.40890625,0.00233413
5680.33771362,0.00234659
5682.26652100,0.00234223
5684.19532837,0.00233851
5686.12413574,0.00231544
5688.05294311,0.00232466
5689.98175049,0.00223922
5691.91055786,0.00227734
5693.83936523,0.00230814
5695.76817261,0.00231681
5697.69697998,0.00239281
5699.62578735,0.00226278
5701.55459473,0.00226595
5703.48340210,0.00227561
5705.41220947,0.00220821
5707.34101685,0.00226126
5709.26982422,0.00218536
5711.19863159,0.00227959
5713.12743896,0.00230671
5715.05624634,0.00221379
5716.98505371,0.00227201
5718.91386108,0.00219304
5720.84266846,0.00220985
5722.77147583,0.00218901
5724.70028320,0.00216241
5726.62909058,0.00221854
5728.55789795,0.00217212
5730.48670532,0.00227360
5732.41551270,0.00227965
5734.34432007,0.00224468
5736.27312744,0.00226058
5738.20193481,0.00216355
5740.13074219,0.00213172
5742.05954956,0.00212263
5743.98835693,0.00213316
5745.91716431,0.00216329
5747.84597168,0.00217396
5749.77477905,0.00214811
5751.70358643,0.00213609
5753.63239380,0.00216232
5755.56120117,0.00212938
5757.49000854,0.00211855
5759.41881592,0.00210311
5761.34762329,0.00207791
5763.27643066,0.00213486
5765.20523804,0.00212562
5767.13404541,0.00207610
5769.06285278,0.00207993
5770.99166016,0.00203664
5772.92046753,0.00210264
5774.84927490,0.00211519
5776.77808228,0.00203211
5778.70688965,0.00211658
5780.63569702,0.00206720
5782.56450439,0.00204392
5784.49331177,0.00210146
5786.42211914,0.00202328
5788.35092651,0.00201672
5790.27973389,0.00205463
5792.20854126,0.00207028
5794.13734863,0.00205642
5796.06615601,0.00204229
5797.99496338,0.00198265
5799.92377075,0.00205402
5801.85257812,0.00209857
5803.78138550,0.00198164
5805.71019287,0.00204474
5807.63900024,0.00196446
5809.56780762,0.00191909
5811.49661499,0.00196883
5813.42542236,0.00191824
5815.35422974,0.00197078
5817.28303711,0.00190839
5819.21184448,0.00190006
5821.14065186,0.00193674
5823.06945923,0.00192676
5824.99826660,0.00191969
5826.92707397,0.00192549
5828.85588135,0.00200264
5830.78468872,0.00193849
5832.71349609,0.00191469
5834.64230347,0.00195839
5836.57111084,0.00195963
5838.49991821,0.00193338
5840.42872559,0.00192259
5842.35753296,0.00191329
5844.28634033,0.00181199
5846.21514770,0.00185608
5848.14395508,0.00190918
5850.07276245,0.00187343
5852.00156982,0.00183696
5853.93037720,0.00185884
5855.85918457,0.00191592
5857.78799194,0.00182750
5859.71679932,0.00181063
5861.64560669,0.00179406
5863.57441406,0.00179326
5865.50322144,0.00188899
5867.43202881,0.00186048
5869.36083618,0.00184623
5871.28964355,0.00185500
5873.21845093,0.00183946
5875.14725830,0.00181012
5877.07606567,0.00180223
5879.00487305,0.00186485
5880.93368042,0.00183315
5882.86248779,0.00179755
5884.79129517,0.00184988
5886.72010254,0.00185130
5888.64890991,0.00180811
5890.57771728,0.00175624
5892.50652466,0.00176824
5894.43533203,0.00175501
5896.36413940,0.00169106
5898.29294678,0.00175772
5900.22175415,0.00176473
5902.15056152,0.00172890
5904.07936890,0.00174930
5906.00817627,0.00176844
5907.93698364,0.00174313
5909.86579102,0.00165582
5911.79459839,0.00175984
5913.72340576,0.00174872
5915.65221313,0.00167799
5917.58102051,0.00180948
5919.50982788,0.00176902
5921.43863525,0.00171142
5923.36744263,0.00171945
5925.29625000,0.00172837
5927.22505737,0.00168584
5929.15386475,0.00166855
5931.08267212,0.00173572
5933.01147949,0.00169065
5934.94028686,0.00171639
5936.86909424,0.00167080
5938.79790161,0.00159559
5940.72670898,0.00163517
5942.65551636,0.00165927
5944.58432373,0.00171637
5946.51313110,0.00164529
5948.44193848,0.00162640
5950.37074585,0.00164628
5952.29955322,0.00155771
5954.22836060,0.00161948
5956.15716797,0.00169595
5958.08597534,0.00164592
5960.01478271,0.00162720
5961.94359009,0.00163954
5963.87239746,0.00162934
5965.80120483,0.00166880
5967.73001221,0.00163411
5969.65881958,0.00158799
5971.58762695,0.00165940
5973.51643433,0.00159750
5975.44524170,0.00155687
5977.37404907,0.00160763
5979.30285645,0.00155419
5981.23166382,0.00157061
5983.16047119,0.00159359
5985.08927856,0.00161829
5987.01808594,0.00163778
5988.94689331,0.00150954
5990.87570068,0.00155127
5992.80450806,0.00158475
5994.73331543,0.00153697
5996.66212280,0.00163292
5998.59093018,0.00158420
6000.51973755,0.00157124
