399.26312622,0.00010146
401.19193359,-0.00005503
403.12074097,0.00024001
405.04954834,0.00021467
406.97835571,0.00024844
408.90716309,0.00025418
410.83597046,0.00016853
412.76477783,0.00023522
414.69358521,0.00019657
416.62239258,0.00011381
418.55119995,-0.00000521
420.48000732,0.00012863
422.40881470,0.00021578
424.33762207,0.00031084
426.26642944,0.00031687
428.19523682,-0.00003585
430.12404419,0.00008015
432.05285156,0.00023037
433.98165894,0.00006683
435.91046631,0.00013629
437.83927368,0.00007851
439.76808105,0.00003517
441.69688843,-0.00006825
443.62569580,-0.00009598
445.55450317,-0.00005556
447.48331055,0.00032478
449.41211792,0.00045944
451.34092529,-0.00004001
453.26973267,-0.00008005
455.19854004,0.00008708
457.12734741,0.00012588
459.05615479,0.00018905
460.98496216,0.00026383
462.91376953,0.00001613
464.84257690,-0.00006515
466.77138428,0.00011751
468.70019165,0.00000051
470.62899902,0.00009695
472.55780640,-0.00010472
474.48661377,-0.00010306
476.41542114,0.00024450
478.34422852,0.00014642
480.27303589,0.00020390
482.20184326,0.00029102
484.13065063,0.00003191
486.05945801,0.00001900
487.98826538,0.00016666
489.91707275,0.00005904
491.84588013,0.00004674
493.77468750,0.00028052
495.70349487,0.00033684
497.63230225,0.00010747
499.56110962,0.00016074
501.48991699,0.00016739
503.41872437,0.00015932
505.34753174,0.00020488
507.27633911,-0.00001122
509.20514648,0.00023155
511.13395386,0.00025534
513.06276123,0.00022055
514.99156860,0.00036491
516.92037598,-0.00001601
518.84918335,0.00000834
520.77799072,0.00016101
522.70679810,0.00009936
524.63560547,0.00015431
526.56441284,0.00014341
528.49322021,0.00020129
530.42202759,0.00018870
532.35083496,0.00013939
534.27964233,0.00020680
536.20844971,0.00020567
538.13725708,0.00005445
540.06606445,0.00008896
541.99487183,0.00003597
543.92367920,-0.00001592
545.85248657,0.00029649
547.78129395,0.00024961
549.71010132,0.00015591
551.63890869,0.00014596
553.56771606,-0.00003920
555.49652344,0.00020646
557.42533081,0.00037922
559.35413818,0.00004047
561.28294556,-0.00005460
563.21175293,0.00017403
565.14056030,0.00018296
567.06936768,0.00010001
568.99817505,0.00010392
570.92698242,0.00016322
572.85578979,0.00023250
574.78459717,0.00024783
576.71340454,0.00022238
578.64221191,0.00017152
580.57101929,0.00013701
582.49982666,0.00015058
584.42863403,0.00026900
586.35744141,0.00018959
588.28624878,0.00011010
590.21505615,0.00020162
592.14386353,0.00027411
594.07267090,0.00015056
596.00147827,0.00000471
597.93028564,0.00017705
599.85909302,0.00018667
601.78790039,0.00021646
603.71670776,0.00012480
605.64551514,-0.00003876
607.57432251,0.00023521
609.50312988,0.00034547
611.43193726,0.00029707
613.36074463,0.00024028
615.28955200,0.00000545
617.21835938,-0.00001141
619.14716675,0.00024137
621.07597412,-0.00001277
623.00478149,0.00006339
624.93358887,0.00039195
626.86239624,-0.00001615
628.79120361,0.00000441
630.72001099,0.00015051
632.64881836,0.00009810
634.57762573,0.00009484
636.50643311,0.00016158
638.43524048,0.00024872
640.36404785,0.00015873
642.29285522,0.00022636
644.22166260,0.00011454
646.15046997,0.00015574
648.07927734,0.00007811
650.00808472,0.00003026
651.93689209,0.00031572
653.86569946,0.00010076
655.79450684,0.00000111
657.72331421,0.00009453
659.65212158,0.00016291
661.58092896,0.00011201
663.50973633,0.00000124
665.43854370,-0.00005248
667.36735107,-0.00005533
669.29615845,0.00012767
671.22496582,0.00013334
673.15377319,0.00028926
675.08258057,0.00027202
677.01138794,-0.00000202
678.94019531,0.00001015
680.86900269,0.00025751
682.79781006,0.00019578
684.72661743,0.00006203
686.65542480,0.00000922
688.58423218,0.00004032
690.51303955,0.00013682
692.44184692,0.00018306
694.37065430,0.00020869
696.29946167,0.00003338
698.22826904,0.00008126
700.15707642,0.00014444
702.08588379,0.00000127
704.01469116,0.00003616
705.94349854,0.00011881
707.87230591,0.00000681
709.80111328,0.00005061
711.72992065,0.00013016
713.65872803,0.00009410
715.58753540,-0.00012140
717.51634277,0.00007287
719.44515015,0.00036493
721.37395752,0.00017977
723.30276489,0.00029030
725.23157227,0.00042803
727.16037964,0.00024365
729.08918701,0.00005375
731.01799438,0.00024078
732.94680176,0.00026894
734.87560913,0.00005390
736.80441650,0.00005869
738.73322388,-0.00006299
740.66203125,0.00010787
742.59083862,0.00018513
744.51964600,0.00018659
746.44845337,0.00038813
748.37726074,0.00018466
750.30606812,0.00005568
752.23487549,0.00018390
754.16368286,0.00032548
756.09249023,0.00001239
758.02129761,-0.00017062
759.95010498,0.00021618
761.87891235,0.00019621
763.80771973,0.00027993
765.73652710,0.00021460
767.66533447,-0.00001990
769.59414185,0.00022786
771.52294922,0.00020141
773.45175659,0.00020060
775.38056396,0.00002656
777.30937134,-0.00021082
779.23817871,0.00011241
781.16698608,0.00029668
783.09579346,0.00027926
785.02460083,0.00021408
786.95340820,0.00004293
788.88221558,0.00010805
790.81102295,0.00026489
792.73983032,0.00021330
794.66863770,0.00006333
796.59744507,0.00003106
798.52625244,0.00018545
800.45505981,0.00020027
802.38386719,0.00017798
804.31267456,0.00002478
806.24148193,-0.00006331
808.17028931,0.00017992
810.09909668,0.00015692
812.02790405,0.00023103
813.95671143,0.00012749
815.88551880,-0.00006400
817.81432617,0.00015426
819.74313354,0.00014215
821.67194092,0.00020511
823.60074829,0.00025362
825.52955566,0.00022120
827.45836304,0.00022896
829.38717041,0.00010138
831.31597778,0.00007434
833.24478516,0.00002373
835.17359253,0.00010807
837.10239990,0.00024503
839.03120728,0.00017950
840.96001465,-0.00002790
842.88882202,0.00003153
844.81762939,0.00023280
846.74643677,0.00011328
848.67524414,0.00012413
850.60405151,0.00011256
852.53285889,0.00002225
854.46166626,0.00006253
856.39047363,0.00016243
858.31928101,0.00015707
860.24808838,0.00013035
862.17689575,0.00038612
864.10570313,0.00029188
866.03451050,0.00014215
867.96331787,0.00016035
869.89212524,0.00006119
871.82093262,0.00025976
873.74973999,0.00030125
875.67854736,0.00004068
877.60735474,0.00002051
879.53616211,0.00026342
881.46496948,0.00018151
883.39377686,0.00008556
885.32258423,0.00028894
887.25139160,0.00016147
889.18019897,0.00016113
891.10900635,0.00025466
893.03781372,0.00021583
894.96662109,0.00012300
896.89542847,0.00005193
898.82423584,0.00029321
900.75304321,0.00018902
902.68185059,0.00014984
904.61065796,0.00006019
906.53946533,-0.00012654
908.46827271,0.00029102
910.39708008,0.00029002
912.32588745,0.00022424
914.25469482,0.00025269
916.18350220,-0.00001988
918.11230957,0.00014207
920.04111694,0.00021091
921.96992432,0.00011530
923.89873169,0.00026277
925.82753906,0.00021051
927.75634644,0.00015208
929.68515381,0.00009841
931.61396118,0.00001312
933.54276855,0.00021838
935.47157593,0.00022908
937.40038330,0.00017363
939.32919067,0.00033240
941.25799805,0.00025719
943.18680542,0.00017648
945.11561279,0.00017751
947.04442017,0.00012033
948.97322754,0.00019395
950.90203491,0.00016952
952.83084229,0.00010630
954.75964966,0.00031216
956.68845703,0.00021150
958.61726440,0.00009588
960.54607178,0.00041992
962.47487915,0.00030558
964.40368652,0.00017836
966.33249390,0.00032020
968.26130127,0.00011444
970.19010864,0.00007379
972.11891602,0.00026444
974.04772339,0.00021476
975.97653076,0.00013066
977.90533813,0.00034806
979.83414551,0.00033678
981.76295288,0.00020055
983.69176025,0.00043137
985.62056763,0.00042948
987.54937500,0.00028451
989.47818237,0.00024887
991.40698975,0.00026741
993.33579712,0.00028662
995.26460449,0.00033183
997.19341187,0.00039810
999.12221924,0.00026947
1001.05102661,0.00021898
1002.97983398,0.00026443
1004.90864136,0.00038600
1006.83744873,0.00034893
1008.76625610,0.00024789
1010.69506348,0.00037179
1012.62387085,0.00044070
1014.55267822,0.00046409
1016.48148560,0.00036694
1018.41029297,0.00041217
1020.33910034,0.00046227
1022.26790771,0.00033672
1024.19671509,0.00036895
1026.12552246,0.00046833
1028.05432983,0.00059167
1029.98313721,0.00055171
1031.91194458,0.00041610
1033.84075195,0.00033909
1035.76955933,0.00034352
1037.69836670,0.00043957
1039.62717407,0.00053573
1041.55598145,0.00051013
1043.48478882,0.00035694
1045.41359619,0.00039388
1047.34240356,0.00047371
1049.27121094,0.00047291
1051.20001831,0.00040074
1053.12882568,0.00033585
1055.05763306,0.00050693
1056.98644043,0.00060719
1058.91524780,0.00045961
1060.84405518,0.00037425
1062.77286255,0.00040096
1064.70166992,0.00031015
1066.63047729,0.00039144
1068.55928467,0.00047849
1070.48809204,0.00036944
1072.41689941,0.00046370
1074.34570679,0.00053482
1076.27451416,0.00043483
1078.20332153,0.00035059
1080.13212891,0.00053280
1082.06093628,0.00050921
1083.98974365,0.00034439
1085.91855103,0.00050937
1087.84735840,0.00037743
1089.77616577,0.00036595
1091.70497314,0.00045456
1093.63378052,0.00043498
1095.56258789,0.00043920
1097.49139526,0.00034088
1099.42020264,0.00048809
1101.34901001,0.00033611
1103.27781738,0.00036572
1105.20662476,0.00042437
1107.13543213,0.00022215
1109.06423950,0.00050218
1110.99304687,0.00047217
1112.92185425,0.00037474
1114.85066162,0.00032748
1116.77946899,0.00030873
1118.70827637,0.00041916
1120.63708374,0.00039829
1122.56589111,0.00041107
1124.49469849,0.00016768
1126.42350586,0.00040484
1128.35231323,0.00042217
1130.28112061,0.00011149
1132.20992798,0.00053617
1134.13873535,0.00063627
1136.06754272,0.00054335
1137.99635010,0.00051607
1139.92515747,0.00053206
1141.85396484,0.00062615
1143.78277222,0.00046347
1145.71157959,0.00037840
1147.64038696,0.00043812
1149.56919434,0.00052447
1151.49800171,0.00039825
1153.42680908,0.00037876
1155.35561646,0.00041551
1157.28442383,0.00039364
1159.21323120,0.00063815
1161.14203857,0.00058532
1163.07084595,0.00048664
1164.99965332,0.00058027
1166.92846069,0.00049169
1168.85726807,0.00056160
1170.78607544,0.00061976
1172.71488281,0.00055088
1174.64369019,0.00067009
1176.57249756,0.00067779
1178.50130493,0.00057906
1180.43011230,0.00052960
1182.35891968,0.00069618
1184.28772705,0.00083333
1186.21653442,0.00068255
1188.14534180,0.00088800
1190.07414917,0.00083807
1192.00295654,0.00063963
1193.93176392,0.00077664
1195.86057129,0.00072828
1197.78937866,0.00097973
1199.71818604,0.00097067
1201.64699341,0.00092176
1203.57580078,0.00114172
1205.50460815,0.00089755
1207.43341553,0.00090449
1209.36222290,0.00101144
1211.29103027,0.00100078
1213.21983765,0.00106923
1215.14864502,0.00120883
1217.07745239,0.00117814
1219.00625977,0.00093577
1220.93506714,0.00126859
1222.86387451,0.00139036
1224.79268188,0.00111477
1226.72148926,0.00114508
1228.65029663,0.00116653
1230.57910400,0.00123803
1232.50791138,0.00129008
1234.43671875,0.00118251
1236.36552612,0.00112910
1238.29433350,0.00124883
1240.22314087,0.00120729
1242.15194824,0.00113915
1244.08075562,0.00116920
1246.00956299,0.00115324
1247.93837036,0.00131551
1249.86717773,0.00122465
1251.79598511,0.00114736
1253.72479248,0.00114741
1255.65359985,0.00105924
1257.58240723,0.00122682
1259.51121460,0.00112015
1261.44002197,0.00114472
1263.36882935,0.00125137
1265.29763672,0.00107103
1267.22644409,0.00133153
1269.15525146,0.00143328
1271.08405884,0.00117754
1273.01286621,0.00124541
1274.94167358,0.00119084
1276.87048096,0.00105433
1278.79928833,0.00116600
1280.72809570,0.00115736
1282.65690308,0.00118126
1284.58571045,0.00117538
1286.51451782,0.00103567
1288.44332520,0.00098498
1290.37213257,0.00092925
1292.30093994,0.00095898
1294.22974731,0.00098105
1296.15855469,0.00111998
1298.08736206,0.00118392
1300.01616943,0.00091786
1301.94497681,0.00097616
1303.87378418,0.00115632
1305.80259155,0.00097991
1307.73139893,0.00094782
1309.66020630,0.00115177
1311.58901367,0.00104591
1313.51782104,0.00099730
1315.44662842,0.00113906
1317.37543579,0.00110048
1319.30424316,0.00116787
1321.23305054,0.00115978
1323.16185791,0.00113760
1325.09066528,0.00120630
1327.01947266,0.00122998
1328.94828003,0.00134579
1330.87708740,0.00139798
1332.80589478,0.00143149
1334.73470215,0.00144222
1336.66350952,0.00143259
1338.59231689,0.00136196
1340.52112427,0.00138415
1342.44993164,0.00154849
1344.37873901,0.00148842
1346.30754639,0.00149714
1348.23635376,0.00150710
1350.16516113,0.00142060
1352.09396851,0.00142725
1354.02277588,0.00150939
1355.95158325,0.00159656
1357.88039062,0.00142800
1359.80919800,0.00145851
1361.73800537,0.00153166
1363.66681274,0.00138964
1365.59562012,0.00150871
1367.52442749,0.00142294
1369.45323486,0.00133232
1371.38204224,0.00152506
1373.31084961,0.00144224
1375.23965698,0.00130493
1377.16846436,0.00134595
1379.09727173,0.00145279
1381.02607910,0.00146841
1382.95488647,0.00142619
1384.88369385,0.00137683
1386.81250122,0.00135751
1388.74130859,0.00149739
1390.67011597,0.00140740
1392.59892334,0.00139829
1394.52773071,0.00155648
1396.45653809,0.00150697
1398.38534546,0.00155935
1400.31415283,0.00153186
1402.24296021,0.00160079
1404.17176758,0.00162744
1406.10057495,0.00148443
1408.02938232,0.00159973
1409.95818970,0.00166529
1411.88699707,0.00164979
1413.81580444,0.00154683
1415.74461182,0.00162777
1417.67341919,0.00156592
1419.60222656,0.00125255
1421.53103394,0.00140061
1423.45984131,0.00144655
1425.38864868,0.00148394
1427.31745605,0.00152779
1429.24626343,0.00141492
1431.17507080,0.00135319
1433.10387817,0.00119246
1435.03268555,0.00130795
1436.96149292,0.00130987
1438.89030029,0.00124028
1440.81910767,0.00141063
1442.74791504,0.00132115
1444.67672241,0.00115382
1446.60552979,0.00124466
1448.53433716,0.00127142
1450.46314453,0.00123238
1452.39195190,0.00138688
1454.32075928,0.00122238
1456.24956665,0.00106421
1458.17837402,0.00127454
1460.10718140,0.00142645
1462.03598877,0.00145360
1463.96479614,0.00146202
1465.89360352,0.00161728
1467.82241089,0.00172257
1469.75121826,0.00178919
1471.68002563,0.00159960
1473.60883301,0.00155831
1475.53764038,0.00191522
1477.46644775,0.00187152
1479.39525513,0.00184532
1481.32406250,0.00202717
1483.25286987,0.00226762
1485.18167725,0.00226654
1487.11048462,0.00209885
1489.03929199,0.00222412
1490.96809937,0.00236624
1492.89690674,0.00262201
1494.82571411,0.00247132
1496.75452148,0.00230748
1498.68332886,0.00250334
1500.61213623,0.00259676
1502.54094360,0.00289011
1504.46975098,0.00248635
1506.39855835,0.00204699
1508.32736572,0.00250510
1510.25617310,0.00259594
1512.18498047,0.00270823
1514.11378784,0.00294062
1516.04259521,0.00265008
1517.97140259,0.00264869
1519.90020996,0.00260222
1521.82901733,0.00251187
1523.75782471,0.00285705
1525.68663208,0.00274489
1527.61543945,0.00277117
1529.54424683,0.00306381
1531.47305420,0.00291886
1533.40186157,0.00267993
1535.33066895,0.00283908
1537.25947632,0.00295048
1539.18828369,0.00232170
1541.11709106,0.00247630
1543.04589844,0.00275076
1544.97470581,0.00268977
1546.90351318,0.00317626
1548.83232056,0.00297844
1550.76112793,0.00301080
1552.68993530,0.00286373
1554.61874268,0.00275093
1556.54755005,0.00299874
1558.47635742,0.00209243
1560.40516479,0.00238374
1562.33397217,0.00326190
1564.26277954,0.00299094
1566.19158691,0.00296749
1568.12039429,0.00298644
1570.04920166,0.00280350
1571.97800903,0.00311076
1573.90681641,0.00321252
1575.83562378,0.00256534
1577.76443115,0.00290517
1579.69323853,0.00328961
1581.62204590,0.00305481
1583.55085327,0.00336884
1585.47966064,0.00322386
1587.40846802,0.00312850
1589.33727539,0.00320944
1591.26608276,0.00322184
1593.19489014,0.00328969
1595.12369751,0.00315738
1597.05250488,0.00337929
1598.98131226,0.00334941
1600.91011963,0.00326212
1602.83892700,0.00334951
1604.76773437,0.00323898
1606.69654175,0.00336488
1608.62534912,0.00338177
1610.55415649,0.00328868
1612.48296387,0.00351307
1614.41177124,0.00335917
1616.34057861,0.00294208
1618.26938599,0.00326110
1620.19819336,0.00336810
1622.12700073,0.00312445
1624.05580811,0.00338777
1625.98461548,0.00355766
1627.91342285,0.00341267
1629.84223022,0.00347060
1631.77103760,0.00379725
1633.69984497,0.00340468
1635.62865234,0.00293487
1637.55745972,0.00340760
1639.48626709,0.00378140
1641.41507446,0.00374195
1643.34388184,0.00386448
1645.27268921,0.00364889
1647.20149658,0.00309729
1649.13030396,0.00375511
1651.05911133,0.00361211
1652.98791870,0.00252712
1654.91672607,0.00341021
1656.84553345,0.00404435
1658.77434082,0.00388940
1660.70314819,0.00377303
1662.63195557,0.00357188
1664.56076294,0.00393685
1666.48957031,0.00398916
1668.41837769,0.00372767
1670.34718506,0.00359736
1672.27599243,0.00393227
1674.20479980,0.00375259
1676.13360718,0.00354934
1678.06241455,0.00401699
1679.99122192,0.00377294
1681.92002930,0.00387284
1683.84883667,0.00336420
1685.77764404,0.00331170
1687.70645142,0.00425225
1689.63525879,0.00364148
1691.56406616,0.00405845
1693.49287354,0.00407247
1695.42168091,0.00318857
1697.35048828,0.00380459
1699.27929565,0.00328165
1701.20810303,0.00318837
1703.13691040,0.00400314
1705.06571777,0.00361127
1706.99452515,0.00376395
1708.92333252,0.00393734
1710.85213989,0.00372395
1712.78094727,0.00385191
1714.70975464,0.00348528
1716.63856201,0.00315749
1718.56736938,0.00334946
1720.49617676,0.00374790
1722.42498413,0.00366152
1724.35379150,0.00340345
1726.28259888,0.00378686
1728.21140625,0.00361814
1730.14021362,0.00358723
1732.06902100,0.00349645
1733.99782837,0.00285120
1735.92663574,0.00344461
1737.85544312,0.00357714
1739.78425049,0.00334225
1741.71305786,0.00364013
1743.64186523,0.00340227
1745.57067261,0.00357448
1747.49947998,0.00364522
1749.42828735,0.00338786
1751.35709473,0.00336403
1753.28590210,0.00366457
1755.21470947,0.00376071
1757.14351685,0.00350713
1759.07232422,0.00382638
1761.00113159,0.00356344
1762.92993896,0.00355600
1764.85874634,0.00400347
1766.78755371,0.00358653
1768.71636108,0.00354887
1770.64516846,0.00341100
1772.57397583,0.00330832
1774.50278320,0.00362425
1776.43159058,0.00369119
1778.36039795,0.00376322
1780.28920532,0.00362962
1782.21801270,0.00366340
1784.14682007,0.00368405
1786.07562744,0.00364623
1788.00443481,0.00391078
1789.93324219,0.00370585
1791.86204956,0.00341549
1793.79085693,0.00367187
1795.71966431,0.00384154
1797.64847168,0.00373510
1799.57727905,0.00360884
1801.50608643,0.00360059
1803.43489380,0.00376428
1805.36370117,0.00370684
1807.29250854,0.00368921
1809.22131592,0.00370035
1811.15012329,0.00363422
1813.07893066,0.00384876
1815.00773804,0.00375598
1816.93654541,0.00382067
1818.86535278,0.00388781
1820.79416016,0.00375792
1822.72296753,0.00395238
1824.65177490,0.00367552
1826.58058228,0.00373473
1828.50938965,0.00382084
1830.43819702,0.00351056
1832.36700439,0.00372818
1834.29581177,0.00373684
1836.22461914,0.00375001
1838.15342651,0.00367657
1840.08223389,0.00369511
1842.01104126,0.00379205
1843.93984863,0.00336627
1845.86865601,0.00364558
1847.79746338,0.00388995
1849.72627075,0.00374510
1851.65507812,0.00388742
1853.58388550,0.00375850
1855.51269287,0.00385014
1857.44150024,0.00388478
1859.37030762,0.00373490
1861.29911499,0.00378031
1863.22792236,0.00367243
1865.15672974,0.00376991
1867.08553711,0.00386005
1869.01434448,0.00362075
1870.94315186,0.00363942
1872.87195923,0.00385610
1874.80076660,0.00383590
1876.72957397,0.00379161
1878.65838135,0.00384145
1880.58718872,0.00385527
1882.51599609,0.00384944
1884.44480347,0.00378792
1886.37361084,0.00374579
1888.30241821,0.00367712
1890.23122559,0.00366644
1892.16003296,0.00375256
1894.08884033,0.00378970
1896.01764771,0.00378363
1897.94645508,0.00366509
1899.87526245,0.00380674
1901.80406982,0.00387155
1903.73287720,0.00361109
1905.66168457,0.00375478
1907.59049194,0.00381526
1909.51929932,0.00370551
1911.44810669,0.00379501
1913.37691406,0.00382114
1915.30572144,0.00383968
1917.23452881,0.00367298
1919.16333618,0.00366805
1921.09214355,0.00383289
1923.02095093,0.00370554
1924.94975830,0.00375911
1926.87856567,0.00383605
1928.80737305,0.00374876
1930.73618042,0.00383070
1932.66498779,0.00383391
1934.59379517,0.00376247
1936.52260254,0.00376456
1938.45140991,0.00373081
1940.38021729,0.00372158
1942.30902466,0.00373618
1944.23783203,0.00371809
1946.16663940,0.00367999
1948.09544678,0.00374478
1950.02425415,0.00382356
1951.95306152,0.00374610
1953.88186890,0.00380690
1955.81067627,0.00388524
1957.73948364,0.00382725
1959.66829102,0.00380921
1961.59709839,0.00373883
1963.52590576,0.00377848
1965.45471313,0.00379866
1967.38352051,0.00375053
1969.31232788,0.00374036
1971.24113525,0.00367686
1973.16994263,0.00380635
1975.09875000,0.00375952
1977.02755737,0.00366184
1978.95636475,0.00384993
1980.88517212,0.00376246
1982.81397949,0.00366319
1984.74278687,0.00376807
1986.67159424,0.00383170
1988.60040161,0.00382689
1990.52920898,0.00375850
1992.45801636,0.00371548
1994.38682373,0.00366804
1996.31563110,0.00374667
1998.24443848,0.00382427
2000.17324585,0.00379723
2002.10205322,0.00368049
2004.03086060,0.00361326
2005.95966797,0.00382740
2007.88847534,0.00371797
2009.81728271,0.00363824
2011.74609009,0.00382278
2013.67489746,0.00364314
2015.60370483,0.00369504
2017.53251221,0.00371570
2019.46131958,0.00359941
2021.39012695,0.00385232
2023.31893433,0.00378020
2025.24774170,0.00363685
2027.17654907,0.00378733
2029.10535645,0.00373855
2031.03416382,0.00363418
2032.96297119,0.00372569
2034.89177856,0.00375320
2036.82058594,0.00370446
2038.74939331,0.00376367
2040.67820068,0.00369496
2042.60700806,0.00361010
2044.53581543,0.00364295
2046.46462280,0.00364702
2048.39343018,0.00367097
2050.32223755,0.00362572
2052.25104492,0.00360709
2054.17985229,0.00368520
2056.10865967,0.00367384
2058.03746704,0.00366307
2059.96627441,0.00372323
2061.89508179,0.00366460
2063.82388916,0.00355828
2065.75269653,0.00356272
2067.68150391,0.00356508
2069.61031128,0.00349277
2071.53911865,0.00357184
2073.46792603,0.00375179
2075.39673340,0.00364174
2077.32554077,0.00364082
2079.25434814,0.00373035
2081.18315552,0.00362127
2083.11196289,0.00368964
2085.04077026,0.00369378
2086.96957764,0.00365936
2088.89838501,0.00362053
2090.82719238,0.00358203
2092.75599976,0.00369699
2094.68480713,0.00368648
2096.61361450,0.00368740
2098.54242187,0.00364323
2100.47122925,0.00362874
2102.40003662,0.00365119
2104.32884399,0.00362459
2106.25765137,0.00361022
2108.18645874,0.00356010
2110.11526611,0.00372919
2112.04407349,0.00368364
2113.97288086,0.00357938
2115.90168823,0.00362355
2117.83049561,0.00346062
2119.75930298,0.00352769
2121.68811035,0.00371898
2123.61691772,0.00367644
2125.54572510,0.00350259
2127.47453247,0.00358470
2129.40333984,0.00364291
2131.33214722,0.00348859
2133.26095459,0.00364343
2135.18976196,0.00369174
2137.11856934,0.00352738
2139.04737671,0.00357044
2140.97618408,0.00367967
2142.90499146,0.00360851
2144.83379883,0.00358233
2146.76260620,0.00358926
2148.69141357,0.00354195
2150.62022095,0.00361761
2152.54902832,0.00359231
2154.47783569,0.00367030
2156.40664307,0.00363365
2158.33545044,0.00353620
2160.26425781,0.00361143
2162.19306519,0.00359708
2164.12187256,0.00372808
2166.05067993,0.00357629
2167.97948730,0.00347724
2169.90829468,0.00360601
2171.83710205,0.00358094
2173.76590942,0.00360083
2175.69471680,0.00352334
2177.62352417,0.00359056
2179.55233154,0.00354921
2181.48113892,0.00355400
2183.40994629,0.00358019
2185.33875366,0.00337085
2187.26756104,0.00349678
2189.19636841,0.00359341
2191.12517578,0.00360776
2193.05398315,0.00357285
2194.98279053,0.00352838
2196.91159790,0.00358599
2198.84040527,0.00357288
2200.76921265,0.00361378
2202.69802002,0.00354764
2204.62682739,0.00358058
2206.55563477,0.00360718
2208.48444214,0.00351377
2210.41324951,0.00344989
2212.34205688,0.00352337
2214.27086426,0.00372003
2216.19967163,0.00354314
2218.12847900,0.00347030
2220.05728638,0.00356026
2221.98609375,0.00344309
2223.91490112,0.00349775
2225.84370850,0.00359525
2227.77251587,0.00355728
2229.70132324,0.00356655
2231.63013062,0.00358063
2233.55893799,0.00349371
2235.48774536,0.00348055
2237.41655273,0.00351757
2239.34536011,0.00362258
2241.27416748,0.00360889
2243.20297485,0.00341737
2245.13178223,0.00346696
2247.06058960,0.00356667
2248.98939697,0.00353204
2250.91820435,0.00343523
2252.84701172,0.00351139
2254.77581909,0.00356863
2256.70462646,0.00345124
2258.63343384,0.00348675
2260.56224121,0.00353024
2262.49104858,0.00355224
2264.41985596,0.00342987
2266.34866333,0.00340674
2268.27747070,0.00350350
2270.20627808,0.00345038
2272.13508545,0.00349862
2274.06389282,0.00352786
2275.99270020,0.00348298
2277.92150757,0.00334015
2279.85031494,0.00345757
2281.77912231,0.00357611
2283.70792969,0.00340835
2285.63673706,0.00342228
2287.56554443,0.00338051
2289.49435181,0.00346289
2291.42315918,0.00349058
2293.35196655,0.00339590
2295.28077393,0.00335283
2297.20958130,0.00328787
2299.13838867,0.00342836
2301.06719604,0.00337023
2302.99600342,0.00334468
2304.92481079,0.00339700
2306.85361816,0.00336733
2308.78242554,0.00333203
2310.71123291,0.00319954
2312.64004028,0.00323066
2314.56884766,0.00318207
2316.49765503,0.00312257
2318.42646240,0.00312034
2320.35526978,0.00318761
2322.28407715,0.00315663
2324.21288452,0.00307269
2326.14169189,0.00316590
2328.07049927,0.00298068
2329.99930664,0.00304451
2331.92811401,0.00305233
2333.85692139,0.00293969
2335.78572876,0.00307783
2337.71453613,0.00291733
2339.64334351,0.00300660
2341.57215088,0.00305392
2343.50095825,0.00299028
2345.42976562,0.00313878
2347.35857300,0.00326695
2349.28738037,0.00330489
2351.21618774,0.00310609
2353.14499512,0.00309145
2355.07380249,0.00296090
2357.00260986,0.00286991
2358.93141724,0.00279970
2360.86022461,0.00267220
2362.78903198,0.00292194
2364.71783936,0.00281463
2366.64664673,0.00283094
2368.57545410,0.00300797
2370.50426147,0.00297922
2372.43306885,0.00305939
2374.36187622,0.00310611
2376.29068359,0.00326227
2378.21949097,0.00321286
2380.14829834,0.00330832
2382.07710571,0.00336549
2384.00591309,0.00321635
2385.93472046,0.00337751
2387.86352783,0.00334828
2389.79233521,0.00333438
2391.72114258,0.00335702
2393.64994995,0.00334515
2395.57875732,0.00327418
2397.50756470,0.00323175
2399.43637207,0.00337740
2401.36517944,0.00323715
2403.29398682,0.00332197
2405.22279419,0.00339715
2407.15160156,0.00325670
2409.08040894,0.00332955
2411.00921631,0.00335377
2412.93802368,0.00336587
2414.86683105,0.00329977
2416.79563843,0.00333551
2418.72444580,0.00336435
2420.65325317,0.00333441
2422.58206055,0.00332276
2424.51086792,0.00330392
2426.43967529,0.00334519
2428.36848267,0.00316130
2430.29729004,0.00329360
2432.22609741,0.00338067
2434.15490479,0.00320068
2436.08371216,0.00337801
2438.01251953,0.00332357
2439.94132690,0.00317786
2441.87013428,0.00321318
2443.79894165,0.00323785
2445.72774902,0.00324215
2447.65655640,0.00320173
2449.58536377,0.00320653
2451.51417114,0.00320757
2453.44297852,0.00321077
2455.37178589,0.00320885
2457.30059326,0.00324794
2459.22940063,0.00319808
2461.15820801,0.00317872
2463.08701538,0.00322299
2465.01582275,0.00320466
2466.94463013,0.00330784
2468.87343750,0.00328936
2470.80224487,0.00320496
2472.73105225,0.00316537
2474.65985962,0.00316890
2476.58866699,0.00326302
2478.51747437,0.00326429
2480.44628174,0.00319679
2482.37508911,0.00318039
2484.30389648,0.00327126
2486.23270386,0.00328440
2488.16151123,0.00319896
2490.09031860,0.00307503
2492.01912598,0.00316047
2493.94793335,0.00325827
2495.87674072,0.00317345
2497.80554810,0.00328084
2499.73435547,0.00312743
2501.66316284,0.00310258
2503.59197021,0.00322331
2505.52077759,0.00303732
2507.44958496,0.00313537
2509.37839233,0.00320266
2511.30719971,0.00317138
2513.23600708,0.00316217
2515.16481445,0.00323067
2517.09362183,0.00328871
2519.02242920,0.00315268
2520.95123657,0.00319526
2522.88004395,0.00317106
2524.80885132,0.00316223
2526.73765869,0.00324824
2528.66646606,0.00324261
2530.59527344,0.00317186
2532.52408081,0.00310559
2534.45288818,0.00314169
2536.38169556,0.00312969
2538.31050293,0.00310805
2540.23931030,0.00305277
2542.16811768,0.00317244
2544.09692505,0.00316607
2546.02573242,0.00306185
2547.95453979,0.00317293
2549.88334717,0.00307103
2551.81215454,0.00311093
2553.74096191,0.00311074
2555.66976929,0.00308072
2557.59857666,0.00310946
2559.52738403,0.00299286
2561.45619141,0.00306083
2563.38499878,0.00301950
2565.31380615,0.00309831
2567.24261353,0.00309321
2569.17142090,0.00303853
2571.10022827,0.00318566
2573.02903564,0.00311058
2574.95784302,0.00313399
2576.88665039,0.00298435
2578.81545776,0.00297509
2580.74426514,0.00321342
2582.67307251,0.00309153
2584.60187988,0.00305588
2586.53068726,0.00307581
2588.45949463,0.00302903
2590.38830200,0.00300063
2592.31710937,0.00300805
2594.24591675,0.00308803
2596.17472412,0.00306225
2598.10353149,0.00296002
2600.03233887,0.00298132
2601.96114624,0.00307779
2603.88995361,0.00305867
2605.81876099,0.00306000
2607.74756836,0.00304787
2609.67637573,0.00302419
2611.60518311,0.00303345
2613.53399048,0.00296819
2615.46279785,0.00302648
2617.39160522,0.00310551
2619.32041260,0.00301509
2621.24921997,0.00298500
2623.17802734,0.00305935
2625.10683472,0.00303952
2627.03564209,0.00301222
2628.96444946,0.00303819
2630.89325684,0.00300460
2632.82206421,0.00300291
2634.75087158,0.00306622
2636.67967895,0.00298131
2638.60848633,0.00291635
2640.53729370,0.00300338
2642.46610107,0.00297478
2644.39490845,0.00305314
2646.32371582,0.00302303
2648.25252319,0.00295789
2650.18133057,0.00303818
2652.11013794,0.00289098
2654.03894531,0.00302408
2655.96775269,0.00299158
2657.89656006,0.00286675
2659.82536743,0.00302713
2661.75417480,0.00291769
2663.68298218,0.00295873
2665.61178955,0.00292840
2667.54059692,0.00301587
2669.46940430,0.00306100
2671.39821167,0.00282017
2673.32701904,0.00299563
2675.25582642,0.00297302
2677.18463379,0.00292839
2679.11344116,0.00299475
2681.04224854,0.00291037
2682.97105591,0.00294425
2684.89986328,0.00291069
2686.82867065,0.00293964
2688.75747803,0.00293000
2690.68628540,0.00286166
2692.61509277,0.00288583
2694.54390015,0.00289281
2696.47270752,0.00281817
2698.40151489,0.00286849
2700.33032227,0.00296819
2702.25912964,0.00287135
2704.18793701,0.00285177
2706.11674438,0.00284358
2708.04555176,0.00284343
2709.97435913,0.00282501
2711.90316650,0.00285595
2713.83197388,0.00288755
2715.76078125,0.00282116
2717.68958862,0.00288263
2719.61839600,0.00282909
2721.54720337,0.00292495
2723.47601074,0.00286189
2725.40481812,0.00275550
2727.33362549,0.00295601
2729.26243286,0.00275089
2731.19124023,0.00276597
2733.12004761,0.00293828
2735.04885498,0.00287081
2736.97766235,0.00287203
2738.90646973,0.00278579
2740.83527710,0.00273896
2742.76408447,0.00280459
2744.69289185,0.00287391
2746.62169922,0.00271083
2748.55050659,0.00273765
2750.47931396,0.00293767
2752.40812134,0.00282712
2754.33692871,0.00274596
2756.26573608,0.00276972
2758.19454346,0.00276743
2760.12335083,0.00271541
2762.05215820,0.00277702
2763.98096558,0.00274932
2765.90977295,0.00270956
2767.83858032,0.00276931
2769.76738770,0.00269758
2771.69619507,0.00278040
2773.62500244,0.00272211
2775.55380981,0.00273543
2777.48261719,0.00283484
2779.41142456,0.00267708
2781.34023193,0.00273941
2783.26903931,0.00270017
2785.19784668,0.00263528
2787.12665405,0.00278325
2789.05546143,0.00268354
2790.98426880,0.00258757
2792.91307617,0.00275788
2794.84188354,0.00275338
2796.77069092,0.00266473
2798.69949829,0.00275344
2800.62830566,0.00270770
2802.55711304,0.00263657
2804.48592041,0.00269280
2806.41472778,0.00274884
2808.34353516,0.00261882
2810.27234253,0.00266110
2812.20114990,0.00280262
2814.12995728,0.00252615
2816.05876465,0.00252645
2817.98757202,0.00263529
2819.91637939,0.00257547
2821.84518677,0.00259036
2823.77399414,0.00255172
2825.70280151,0.00263495
2827.63160889,0.00267285
2829.56041626,0.00270627
2831.48922363,0.00266647
2833.41803101,0.00266617
2835.34683838,0.00265407
2837.27564575,0.00252103
2839.20445312,0.00259677
2841.13326050,0.00254329
2843.06206787,0.00259564
2844.99087524,0.00260004
2846.91968262,0.00254885
2848.84848999,0.00260028
2850.77729736,0.00242396
2852.70610474,0.00253463
2854.63491211,0.00257052
2856.56371948,0.00255385
2858.49252686,0.00258950
2860.42133423,0.00247337
2862.35014160,0.00252248
2864.27894897,0.00240656
2866.20775635,0.00242314
2868.13656372,0.00250538
2870.06537109,0.00247596
2871.99417847,0.00250391
2873.92298584,0.00246588
2875.85179321,0.00249297
2877.78060059,0.00244969
2879.70940796,0.00245280
2881.63821533,0.00246798
2883.56702270,0.00248722
2885.49583008,0.00248306
2887.42463745,0.00252672
2889.35344482,0.00262332
2891.28225220,0.00242265
2893.21105957,0.00248102
2895.13986694,0.00250894
2897.06867432,0.00240542
2898.99748169,0.00254458
2900.92628906,0.00240154
2902.85509644,0.00234845
2904.78390381,0.00248803
2906.71271118,0.00246069
2908.64151855,0.00239219
2910.57032593,0.00243151
2912.49913330,0.00244281
2914.42794067,0.00240051
2916.35674805,0.00239468
2918.28555542,0.00233378
2920.21436279,0.00243830
2922.14317017,0.00242896
2924.07197754,0.00240178
2926.00078491,0.00242867
2927.92959229,0.00232723
2929.85839966,0.00241773
2931.78720703,0.00227840
2933.71601440,0.00227803
2935.64482178,0.00242673
2937.57362915,0.00226275
2939.50243652,0.00230253
2941.43124390,0.00233894
2943.36005127,0.00236438
2945.28885864,0.00238911
2947.21766602,0.00234388
2949.14647339,0.00240770
2951.07528076,0.00238646
2953.00408813,0.00236088
2954.93289551,0.00239509
2956.86170288,0.00228979
2958.79051025,0.00211064
2960.71931763,0.00225504
2962.64812500,0.00239622
2964.57693237,0.00233648
2966.50573975,0.00229268
2968.43454712,0.00220079
2970.36335449,0.00230861
2972.29216187,0.00233990
2974.22096924,0.00236870
2976.14977661,0.00243621
2978.07858398,0.00232036
2980.00739136,0.00241037
2981.93619873,0.00235031
2983.86500610,0.00227962
2985.79381348,0.00236384
2987.72262085,0.00225499
2989.65142822,0.00227326
2991.58023560,0.00235606
2993.50904297,0.00235686
2995.43785034,0.00233775
2997.36665771,0.00232813
2999.29546509,0.00228345
3001.22427246,0.00217722
3003.15307983,0.00219108
3005.08188721,0.00225607
3007.01069458,0.00224881
3008.93950195,0.00223448
3010.86830933,0.00228100
3012.79711670,0.00229082
3014.72592407,0.00230115
3016.65473145,0.00233739
3018.58353882,0.00228663
3020.51234619,0.00226804
3022.44115356,0.00224439
3024.36996094,0.00218248
3026.29876831,0.00221515
3028.22757568,0.00228494
3030.15638306,0.00228892
3032.08519043,0.00229792
3034.01399780,0.00230528
3035.94280518,0.00224836
3037.87161255,0.00226948
3039.80041992,0.00229958
3041.72922729,0.00226938
3043.65803467,0.00223413
3045.58684204,0.00218179
3047.51564941,0.00220336
3049.44445679,0.00220020
3051.37326416,0.00218970
3053.30207153,0.00225170
3055.23087891,0.00224710
3057.15968628,0.00221707
3059.08849365,0.00214958
3061.01730103,0.00214098
3062.94610840,0.00223237
3064.87491577,0.00217872
3066.80372314,0.00216803
3068.73253052,0.00222295
3070.66133789,0.00216490
3072.59014526,0.00218382
3074.51895264,0.00220482
3076.44776001,0.00218070
3078.37656738,0.00223781
3080.30537476,0.00220891
3082.23418213,0.00217073
3084.16298950,0.00228785
3086.09179687,0.00219479
3088.02060425,0.00211341
3089.94941162,0.00221741
3091.87821899,0.00204056
3093.80702637,0.00204912
3095.73583374,0.00217552
3097.66464111,0.00214090
3099.59344849,0.00223812
3101.52225586,0.00216873
3103.45106323,0.00211171
3105.37987061,0.00213537
3107.30867798,0.00214487
3109.23748535,0.00212409
3111.16629272,0.00211546
3113.09510010,0.00221757
3115.02390747,0.00212293
3116.95271484,0.00218093
3118.88152222,0.00218558
3120.81032959,0.00211568
3122.73913696,0.00222725
3124.66794434,0.00210965
3126.59675171,0.00212531
3128.52555908,0.00209708
3130.45436645,0.00207497
3132.38317383,0.00218461
3134.31198120,0.00212775
3136.24078857,0.00215435
3138.16959595,0.00216207
3140.09840332,0.00217003
3142.02721069,0.00204621
3143.95601807,0.00205941
3145.88482544,0.00217494
3147.81363281,0.00204734
3149.74244019,0.00210442
3151.67124756,0.00209599
3153.60005493,0.00214096
3155.52886230,0.00220979
3157.45766968,0.00211207
3159.38647705,0.00210560
3161.31528442,0.00201041
3163.24409180,0.00202367
3165.17289917,0.00203516
3167.10170654,0.00203707
3169.03051392,0.00214310
3170.95932129,0.00214625
3172.88812866,0.00212053
3174.81693604,0.00201924
3176.74574341,0.00206344
3178.67455078,0.00214685
3180.60335815,0.00204507
3182.53216553,0.00207180
3184.46097290,0.00210316
3186.38978027,0.00202297
3188.31858765,0.00209262
3190.24739502,0.00215782
3192.17620239,0.00205019
3194.10500977,0.00201965
3196.03381714,0.00205107
3197.96262451,0.00203576
3199.89143188,0.00206434
3201.82023926,0.00208087
3203.74904663,0.00204320
3205.67785400,0.00215548
3207.60666138,0.00226196
3209.53546875,0.00213985
3211.46427612,0.00212240
3213.39308350,0.00214232
3215.32189087,0.00209915
3217.25069824,0.00210740
3219.17950562,0.00208878
3221.10831299,0.00214492
3223.03712036,0.00216092
3224.96592773,0.00208378
3226.89473511,0.00209199
3228.82354248,0.00216669
3230.75234985,0.00216409
3232.68115723,0.00212595
3234.60996460,0.00214497
3236.53877197,0.00215031
3238.46757935,0.00217868
3240.39638672,0.00216550
3242.32519409,0.00214043
3244.25400146,0.00216383
3246.18280884,0.00217694
3248.11161621,0.00219937
3250.04042358,0.00215476
3251.96923096,0.00214744
3253.89803833,0.00221524
3255.82684570,0.00218558
3257.75565308,0.00216528
3259.68446045,0.00224336
3261.61326782,0.00217234
3263.54207520,0.00213624
3265.47088257,0.00227194
3267.39968994,0.00225137
3269.32849731,0.00221917
3271.25730469,0.00213426
3273.18611206,0.00214042
3275.11491943,0.00232469
3277.04372681,0.00223163
3278.97253418,0.00218952
3280.90134155,0.00224884
3282.83014893,0.00220934
3284.75895630,0.00225727
3286.68776367,0.00229427
3288.61657104,0.00227113
3290.54537842,0.00225594
3292.47418579,0.00229407
3294.40299316,0.00225756
3296.33180054,0.00223723
3298.26060791,0.00229181
3300.18941528,0.00225627
3302.11822266,0.00231889
3304.04703003,0.00237570
3305.97583740,0.00228124
3307.90464478,0.00226413
3309.83345215,0.00230057
3311.76225952,0.00225670
3313.69106689,0.00225074
3315.61987427,0.00229902
3317.54868164,0.00224091
3319.47748901,0.00227092
3321.40629639,0.00238935
3323.33510376,0.00233065
3325.26391113,0.00228492
3327.19271851,0.00231604
3329.12152588,0.00230597
3331.05033325,0.00232266
3332.97914062,0.00234537
3334.90794800,0.00230055
3336.83675537,0.00229808
3338.76556274,0.00239024
3340.69437012,0.00237666
3342.62317749,0.00236520
3344.55198486,0.00238104
3346.48079224,0.00235932
3348.40959961,0.00240545
3350.33840698,0.00233394
3352.26721436,0.00236839
3354.19602173,0.00238891
3356.12482910,0.00232576
3358.05363647,0.00248663
3359.98244385,0.00235357
3361.91125122,0.00228984
3363.84005859,0.00239830
3365.76886597,0.00227784
3367.69767334,0.00238353
3369.62648071,0.00241381
3371.55528809,0.00234717
3373.48409546,0.00240143
3375.41290283,0.00242035
3377.34171020,0.00243459
3379.27051758,0.00240912
3381.19932495,0.00248920
3383.12813232,0.00247250
3385.05693970,0.00238359
3386.98574707,0.00243549
3388.91455444,0.00245634
3390.84336182,0.00249476
3392.77216919,0.00252431
3394.70097656,0.00249373
3396.62978394,0.00246070
3398.55859131,0.00243674
3400.48739868,0.00242437
3402.41620605,0.00248179
3404.34501343,0.00253426
3406.27382080,0.00244634
3408.20262817,0.00242248
3410.13143555,0.00251221
3412.06024292,0.00253168
3413.98905029,0.00250892
3415.91785767,0.00253426
3417.84666504,0.00253630
3419.77547241,0.00249254
3421.70427979,0.00251630
3423.63308716,0.00249895
3425.56189453,0.00243286
3427.49070190,0.00252544
3429.41950928,0.00253446
3431.34831665,0.00246808
3433.27712402,0.00259292
3435.20593140,0.00260404
3437.13473877,0.00259296
3439.06354614,0.00261664
3440.99235352,0.00252612
3442.92116089,0.00252657
3444.84996826,0.00249056
3446.77877563,0.00250056
3448.70758301,0.00254670
3450.63639038,0.00254761
3452.56519775,0.00261236
3454.49400513,0.00260167
3456.42281250,0.00261119
3458.35161987,0.00264438
3460.28042725,0.00267180
3462.20923462,0.00261157
3464.13804199,0.00256197
3466.06684937,0.00263582
3467.99565674,0.00254272
3469.92446411,0.00249670
3471.85327148,0.00254417
3473.78207886,0.00259354
3475.71088623,0.00264568
3477.63969360,0.00256198
3479.56850098,0.00257606
3481.49730835,0.00259655
3483.42611572,0.00254502
3485.35492310,0.00262030
3487.28373047,0.00264196
3489.21253784,0.00254902
3491.14134521,0.00253485
3493.07015259,0.00258637
3494.99895996,0.00258167
3496.92776733,0.00253962
3498.85657471,0.00256375
3500.78538208,0.00255737
3502.71418945,0.00248861
3504.64299683,0.00255283
3506.57180420,0.00257317
3508.50061157,0.00250077
3510.42941895,0.00248093
3512.35822632,0.00250661
3514.28703369,0.00257788
3516.21584106,0.00252477
3518.14464844,0.00251858
3520.07345581,0.00260786
3522.00226318,0.00256115
3523.93107056,0.00245323
3525.85987793,0.00241828
3527.78868530,0.00250043
3529.71749268,0.00252392
3531.64630005,0.00252815
3533.57510742,0.00257316
3535.50391479,0.00254606
3537.43272217,0.00259901
3539.36152954,0.00267352
3541.29033691,0.00254416
3543.21914429,0.00245003
3545.14795166,0.00248637
3547.07675903,0.00248779
3549.00556641,0.00250683
3550.93437378,0.00246505
3552.86318115,0.00252241
3554.79198853,0.00254039
3556.72079590,0.00245034
3558.64960327,0.00254877
3560.57841064,0.00248838
3562.50721802,0.00247381
3564.43602539,0.00247979
3566.36483276,0.00228351
3568.29364014,0.00227714
3570.22244751,0.00240067
3572.15125488,0.00250468
3574.08006226,0.00244034
3576.00886963,0.00239538
3577.93767700,0.00245072
3579.86648437,0.00250548
3581.79529175,0.00253076
3583.72409912,0.00249658
3585.65290649,0.00248461
3587.58171387,0.00222219
3589.51052124,0.00218159
3591.43932861,0.00242963
3593.36813599,0.00240389
3595.29694336,0.00237502
3597.22575073,0.00244130
3599.15455811,0.00245047
3601.08336548,0.00238183
3603.01217285,0.00239519
3604.94098022,0.00241072
3606.86978760,0.00234323
3608.79859497,0.00222603
3610.72740234,0.00226022
3612.65620972,0.00237749
3614.58501709,0.00231753
3616.51382446,0.00238841
3618.44263184,0.00218244
3620.37143921,0.00212471
3622.30024658,0.00235034
3624.22905395,0.00227599
3626.15786133,0.00234549
3628.08666870,0.00200043
3630.01547607,0.00192722
3631.94428345,0.00234558
3633.87309082,0.00227516
3635.80189819,0.00235646
3637.73070557,0.00236510
3639.65951294,0.00228616
3641.58832031,0.00238221
3643.51712769,0.00235463
3645.44593506,0.00226420
3647.37474243,0.00211029
3649.30354980,0.00190625
3651.23235718,0.00191214
3653.16116455,0.00231479
3655.08997192,0.00226068
3657.01877930,0.00205474
3658.94758667,0.00231312
3660.87639404,0.00230959
3662.80520142,0.00221700
3664.73400879,0.00221811
3666.66281616,0.00233385
3668.59162354,0.00219068
3670.52043091,0.00194368
3672.44923828,0.00221969
3674.37804565,0.00199276
3676.30685303,0.00173743
3678.23566040,0.00202586
3680.16446777,0.00207261
3682.09327515,0.00216268
3684.02208252,0.00219696
3685.95088989,0.00209987
3687.87969727,0.00186625
3689.80850464,0.00181630
3691.73731201,0.00210441
3693.66611938,0.00206062
3695.59492676,0.00217556
3697.52373413,0.00224469
3699.45254150,0.00206442
3701.38134888,0.00196086
3703.31015625,0.00195662
3705.23896362,0.00221764
3707.16777100,0.00207156
3709.09657837,0.00195852
3711.02538574,0.00189204
3712.95419312,0.00179718
3714.88300049,0.00205327
3716.81180786,0.00194556
3718.74061523,0.00203689
3720.66942261,0.00203708
3722.59822998,0.00193352
3724.52703735,0.00203046
3726.45584473,0.00183152
3728.38465210,0.00198432
3730.31345947,0.00196876
3732.24226685,0.00186767
3734.17107422,0.00188681
3736.09988159,0.00169313
3738.02868896,0.00171497
3739.95749634,0.00186503
3741.88630371,0.00199846
3743.81511108,0.00154884
3745.74391846,0.00142413
3747.67272583,0.00187892
3749.60153320,0.00166994
3751.53034058,0.00156045
3753.45914795,0.00174153
3755.38795532,0.00185847
3757.31676270,0.00191490
3759.24557007,0.00173715
3761.17437744,0.00180302
3763.10318481,0.00194723
3765.03199219,0.00180237
3766.96079956,0.00176674
3768.88960693,0.00176820
3770.81841431,0.00177339
3772.74722168,0.00186322
3774.67602905,0.00180823
3776.60483643,0.00183896
3778.53364380,0.00183940
3780.46245117,0.00177952
3782.39125854,0.00182093
3784.32006592,0.00183329
3786.24887329,0.00175619
3788.17768066,0.00174605
3790.10648804,0.00191057
3792.03529541,0.00179906
3793.96410278,0.00175321
3795.89291016,0.00170821
3797.82171753,0.00169137
3799.75052490,0.00173708
3801.67933228,0.00146524
3803.60813965,0.00176331
3805.53694702,0.00167601
3807.46575439,0.00146498
3809.39456177,0.00175258
3811.32336914,0.00165371
3813.25217651,0.00186825
3815.18098389,0.00161470
3817.10979126,0.00154062
3819.03859863,0.00180833
3820.96740601,0.00142364
3822.89621338,0.00163332
3824.82502075,0.00177133
3826.75382812,0.00165226
3828.68263550,0.00173763
3830.61144287,0.00168796
3832.54025024,0.00169281
3834.46905762,0.00166956
3836.39786499,0.00154987
3838.32667236,0.00146546
3840.25547974,0.00163081
3842.18428711,0.00163787
3844.11309448,0.00163387
3846.04190186,0.00169492
3847.97070923,0.00162621
3849.89951660,0.00176000
3851.82832397,0.00161221
3853.75713135,0.00123625
3855.68593872,0.00134812
3857.61474609,0.00170460
3859.54355347,0.00162497
3861.47236084,0.00162544
3863.40116821,0.00166755
3865.32997559,0.00145613
3867.25878296,0.00165050
3869.18759033,0.00154745
3871.11639770,0.00144691
3873.04520508,0.00162759
3874.97401245,0.00149048
3876.90281982,0.00167712
3878.83162720,0.00161533
3880.76043457,0.00137036
3882.68924194,0.00163700
3884.61804932,0.00156430
3886.54685669,0.00145473
3888.47566406,0.00168119
3890.40447144,0.00153024
3892.33327881,0.00143978
3894.26208618,0.00158817
3896.19089355,0.00156434
3898.11970093,0.00153457
3900.04850830,0.00146932
3901.97731567,0.00148743
3903.90612305,0.00144647
3905.83493042,0.00146390
3907.76373779,0.00163821
3909.69254517,0.00156760
3911.62135254,0.00158964
3913.55015991,0.00166027
3915.47896728,0.00157377
3917.40777466,0.00148669
3919.33658203,0.00147195
3921.26538940,0.00148855
3923.19419678,0.00153596
3925.12300415,0.00156892
3927.05181152,0.00148313
3928.98061890,0.00159269
3930.90942627,0.00160924
3932.83823364,0.00154782
3934.76704102,0.00157165
3936.69584839,0.00147094
3938.62465576,0.00147938
3940.55346313,0.00145952
3942.48227051,0.00148646
3944.41107788,0.00148333
3946.33988525,0.00153366
3948.26869263,0.00155856
3950.19750000,0.00137406
3952.12630737,0.00153839
3954.05511475,0.00157521
3955.98392212,0.00149361
3957.91272949,0.00156309
3959.84153687,0.00150155
3961.77034424,0.00147306
3963.69915161,0.00141127
3965.62795898,0.00148492
3967.55676636,0.00154368
3969.48557373,0.00149298
3971.41438110,0.00148731
3973.34318848,0.00138852
3975.27199585,0.00136437
3977.20080322,0.00144141
3979.12961060,0.00149170
3981.05841797,0.00146890
3982.98722534,0.00142736
3984.91603271,0.00141101
3986.84484009,0.00146379
3988.77364746,0.00149289
3990.70245483,0.00144515
3992.63126221,0.00141109
3994.56006958,0.00136367
3996.48887695,0.00147204
3998.41768433,0.00148727
4000.34649170,0.00142784
4002.27529907,0.00154618
4004.20410645,0.00145833
4006.13291382,0.00139379
4008.06172119,0.00145138
4009.99052856,0.00137540
4011.91933594,0.00138676
4013.84814331,0.00141086
4015.77695068,0.00139714
4017.70575806,0.00138522
4019.63456543,0.00134274
4021.56337280,0.00144490
4023.49218018,0.00144621
4025.42098755,0.00133866
4027.34979492,0.00144391
4029.27860229,0.00146293
4031.20740967,0.00137674
4033.13621704,0.00135134
4035.06502441,0.00132906
4036.99383179,0.00134592
4038.92263916,0.00135421
4040.85144653,0.00139191
4042.78025391,0.00140396
4044.70906128,0.00138529
4046.63786865,0.00141786
4048.56667603,0.00138525
4050.49548340,0.00129348
4052.42429077,0.00129164
4054.35309814,0.00133129
4056.28190552,0.00132553
4058.21071289,0.00131668
4060.13952026,0.00123256
4062.06832764,0.00128794
4063.99713501,0.00141512
4065.92594238,0.00131199
4067.85474976,0.00135449
4069.78355713,0.00140301
4071.71236450,0.00126987
4073.64117187,0.00130576
4075.56997925,0.00135312
4077.49878662,0.00127751
4079.42759399,0.00126049
4081.35640137,0.00132012
4083.28520874,0.00131406
4085.21401611,0.00129631
4087.14282349,0.00132510
4089.07163086,0.00128029
4091.00043823,0.00121312
4092.92924561,0.00125195
4094.85805298,0.00133025
4096.78686035,0.00124437
4098.71566772,0.00128344
4100.64447510,0.00140263
4102.57328247,0.00119643
4104.50208984,0.00118699
4106.43089722,0.00128300
4108.35970459,0.00124363
4110.28851196,0.00133027
4112.21731934,0.00125455
4114.14612671,0.00129010
4116.07493408,0.00131556
4118.00374145,0.00116469
4119.93254883,0.00126076
4121.86135620,0.00122184
4123.79016357,0.00121692
4125.71897095,0.00128659
4127.64777832,0.00120862
4129.57658569,0.00130226
4131.50539307,0.00123086
4133.43420044,0.00117578
4135.36300781,0.00128830
4137.29181519,0.00117724
4139.22062256,0.00113919
4141.14942993,0.00117443
4143.07823730,0.00117580
4145.00704468,0.00117602
4146.93585205,0.00111099
4148.86465942,0.00118999
4150.79346680,0.00128552
4152.72227417,0.00127309
4154.65108154,0.00121271
4156.57988892,0.00113573
4158.50869629,0.00115060
4160.43750366,0.00115180
4162.36631103,0.00119551
4164.29511841,0.00121102
4166.22392578,0.00117040
4168.15273315,0.00118561
4170.08154053,0.00120107
4172.01034790,0.00126698
4173.93915527,0.00117150
4175.86796265,0.00115530
4177.79677002,0.00120506
4179.72557739,0.00113096
4181.65438477,0.00123107
4183.58319214,0.00116784
4185.51199951,0.00111600
4187.44080688,0.00116207
4189.36961426,0.00115717
4191.29842163,0.00120608
4193.22722900,0.00111843
4195.15603638,0.00113176
4197.08484375,0.00112926
4199.01365112,0.00111071
4200.94245850,0.00115461
4202.87126587,0.00113890
4204.80007324,0.00114343
4206.72888062,0.00112564
4208.65768799,0.00116511
4210.58649536,0.00110725
4212.51530273,0.00114529
4214.44411011,0.00115183
4216.37291748,0.00105800
4218.30172485,0.00114460
4220.23053223,0.00110870
4222.15933960,0.00114942
4224.08814697,0.00112468
4226.01695435,0.00105415
4227.94576172,0.00112976
4229.87456909,0.00112657
4231.80337646,0.00111762
4233.73218384,0.00100289
4235.66099121,0.00104911
4237.58979858,0.00114794
4239.51860596,0.00108714
4241.44741333,0.00108336
4243.37622070,0.00108421
4245.30502808,0.00104083
4247.23383545,0.00102260
4249.16264282,0.00109948
4251.09145020,0.00104666
4253.02025757,0.00104195
4254.94906494,0.00107560
4256.87787231,0.00104806
4258.80667969,0.00105781
4260.73548706,0.00100025
4262.66429443,0.00114629
4264.59310181,0.00112449
4266.52190918,0.00103172
4268.45071655,0.00116415
4270.37952393,0.00105599
4272.30833130,0.00101508
4274.23713867,0.00107899
4276.16594604,0.00097818
4278.09475342,0.00097595
4280.02356079,0.00113380
4281.95236816,0.00110733
4283.88117554,0.00100824
4285.80998291,0.00106747
4287.73879028,0.00102702
4289.66759766,0.00100423
4291.59640503,0.00107004
4293.52521240,0.00106888
4295.45401978,0.00103051
4297.38282715,0.00101341
4299.31163452,0.00101531
4301.24044189,0.00101934
4303.16924927,0.00099821
4305.09805664,0.00095327
4307.02686401,0.00101759
4308.95567139,0.00099775
4310.88447876,0.00090686
4312.81328613,0.00099849
4314.74209351,0.00105420
4316.67090088,0.00096792
4318.59970825,0.00096814
4320.52851562,0.00102019
4322.45732300,0.00100027
4324.38613037,0.00101039
4326.31493774,0.00098003
4328.24374512,0.00101291
4330.17255249,0.00108438
4332.10135986,0.00103134
4334.03016724,0.00093760
4335.95897461,0.00092128
4337.88778198,0.00106884
4339.81658936,0.00101359
4341.74539673,0.00095785
4343.67420410,0.00098918
4345.60301147,0.00090032
4347.53181885,0.00098260
4349.46062622,0.00096348
4351.38943359,0.00094823
4353.31824097,0.00099994
4355.24704834,0.00093664
4357.17585571,0.00093084
4359.10466309,0.00097836
4361.03347046,0.00097274
4362.96227783,0.00088149
4364.89108520,0.00099299
4366.81989258,0.00100482
4368.74869995,0.00095153
4370.67750732,0.00100187
4372.60631470,0.00087823
4374.53512207,0.00092455
4376.46392944,0.00095819
4378.39273682,0.00093232
4380.32154419,0.00095832
4382.25035156,0.00095590
4384.17915894,0.00099781
4386.10796631,0.00095423
4388.03677368,0.00097462
4389.96558105,0.00092031
4391.89438843,0.00087378
4393.82319580,0.00094521
4395.75200317,0.00094251
4397.68081055,0.00095551
4399.60961792,0.00094870
4401.53842529,0.00097342
4403.46723267,0.00090065
4405.39604004,0.00084221
4407.32484741,0.00092156
4409.25365478,0.00087995
4411.18246216,0.00088792
4413.11126953,0.00092297
4415.04007690,0.00089218
4416.96888428,0.00090900
4418.89769165,0.00084165
4420.82649902,0.00080650
4422.75530640,0.00093820
4424.68411377,0.00094051
4426.61292114,0.00083112
4428.54172852,0.00084651
4430.47053589,0.00087660
4432.39934326,0.00087192
4434.32815063,0.00091380
4436.25695801,0.00088653
4438.18576538,0.00080308
4440.11457275,0.00083900
4442.04338013,0.00085698
4443.97218750,0.00087910
4445.90099487,0.00089303
4447.82980225,0.00083548
4449.75860962,0.00087995
4451.68741699,0.00086139
4453.61622437,0.00085994
4455.54503174,0.00084248
4457.47383911,0.00077886
4459.40264648,0.00092258
4461.33145386,0.00093499
4463.26026123,0.00081848
4465.18906860,0.00085031
4467.11787598,0.00085249
4469.04668335,0.00072657
4470.97549072,0.00080439
4472.90429810,0.00096231
4474.83310547,0.00088162
4476.76191284,0.00085396
4478.69072021,0.00079140
4480.61952759,0.00078553
4482.54833496,0.00084448
4484.47714233,0.00076684
4486.40594971,0.00075810
4488.33475708,0.00070830
4490.26356445,0.00078072
4492.19237183,0.00088142
4494.12117920,0.00075546
4496.04998657,0.00070521
4497.97879395,0.00083222
4499.90760132,0.00083055
4501.83640869,0.00067508
4503.76521606,0.00074548
4505.69402344,0.00075424
4507.62283081,0.00074707
4509.55163818,0.00081249
4511.48044556,0.00070866
4513.40925293,0.00075819
4515.33806030,0.00077219
4517.26686768,0.00077993
4519.19567505,0.00077407
4521.12448242,0.00072480
4523.05328979,0.00084717
4524.98209717,0.00077142
4526.91090454,0.00074052
4528.83971191,0.00078073
4530.76851929,0.00078019
4532.69732666,0.00085860
4534.62613403,0.00078762
4536.55494141,0.00076379
4538.48374878,0.00076390
4540.41255615,0.00075657
4542.34136353,0.00076631
4544.27017090,0.00078793
4546.19897827,0.00087065
4548.12778564,0.00079550
4550.05659302,0.00076812
4551.98540039,0.00081685
4553.91420776,0.00075946
4555.84301514,0.00071711
4557.77182251,0.00075801
4559.70062988,0.00079918
4561.62943726,0.00076590
4563.55824463,0.00071623
4565.48705200,0.00068750
4567.41585937,0.00074213
4569.34466675,0.00069414
4571.27347412,0.00063523
4573.20228149,0.00072371
4575.13108887,0.00074820
4577.05989624,0.00077962
4578.98870361,0.00074419
4580.91751099,0.00072960
4582.84631836,0.00076672
4584.77512573,0.00070208
4586.70393311,0.00068122
4588.63274048,0.00071966
4590.56154785,0.00078607
4592.49035522,0.00076888
4594.41916260,0.00076325
4596.34796997,0.00076172
4598.27677734,0.00070100
4600.20558472,0.00073063
4602.13439209,0.00074445
4604.06319946,0.00071392
4605.99200684,0.00065769
4607.92081421,0.00066892
4609.84962158,0.00068775
4611.77842895,0.00073113
4613.70723633,0.00076402
4615.63604370,0.00064538
4617.56485107,0.00070812
4619.49365845,0.00076528
4621.42246582,0.00070924
4623.35127319,0.00072187
4625.28008057,0.00075175
4627.20888794,0.00072442
4629.13769531,0.00063259
4631.06650269,0.00071520
4632.99531006,0.00068829
4634.92411743,0.00065289
4636.85292480,0.00069803
4638.78173218,0.00063607
4640.71053955,0.00070940
4642.63934692,0.00061198
4644.56815430,0.00060170
4646.49696167,0.00072684
4648.42576904,0.00063899
4650.35457642,0.00067348
4652.28338379,0.00066576
4654.21219116,0.00061142
4656.14099853,0.00067371
4658.06980591,0.00065507
4659.99861328,0.00059006
4661.92742065,0.00065809
4663.85622803,0.00065061
4665.78503540,0.00057148
4667.71384277,0.00067489
4669.64265015,0.00064985
4671.57145752,0.00063545
4673.50026489,0.00066148
4675.42907227,0.00058021
4677.35787964,0.00064475
4679.28668701,0.00063161
4681.21549438,0.00061481
4683.14430176,0.00064566
4685.07310913,0.00067278
4687.00191650,0.00075077
4688.93072388,0.00064134
4690.85953125,0.00063889
4692.78833862,0.00069445
4694.71714600,0.00058788
4696.64595337,0.00065279
4698.57476074,0.00070129
4700.50356812,0.00063030
4702.43237549,0.00065004
4704.36118286,0.00065430
4706.28999023,0.00059290
4708.21879761,0.00056923
4710.14760498,0.00060887
4712.07641235,0.00059529
4714.00521973,0.00056376
4715.93402710,0.00058867
4717.86283447,0.00059940
4719.79164185,0.00060406
4721.72044922,0.00057542
4723.64925659,0.00059442
4725.57806396,0.00065774
4727.50687134,0.00065361
4729.43567871,0.00068163
4731.36448608,0.00063915
4733.29329346,0.00057456
4735.22210083,0.00060967
4737.15090820,0.00059204
4739.07971558,0.00061312
4741.00852295,0.00060931
4742.93733032,0.00053664
4744.86613770,0.00057005
4746.79494507,0.00055485
4748.72375244,0.00052647
4750.65255981,0.00060811
4752.58136719,0.00062986
4754.51017456,0.00058567
4756.43898193,0.00059607
4758.36778931,0.00062236
4760.29659668,0.00055948
4762.22540405,0.00055280
4764.15421143,0.00061446
4766.08301880,0.00058756
4768.01182617,0.00059548
4769.94063354,0.00059413
4771.86944092,0.00054139
4773.79824829,0.00054953
4775.72705566,0.00058237
4777.65586304,0.00058175
4779.58467041,0.00058661
4781.51347778,0.00061276
4783.44228516,0.00053414
4785.37109253,0.00049291
4787.29989990,0.00053385
4789.22870728,0.00052186
4791.15751465,0.00051843
4793.08632202,0.00055138
4795.01512939,0.00060921
4796.94393677,0.00054515
4798.87274414,0.00050498
4800.80155151,0.00055414
4802.73035889,0.00053820
4804.65916626,0.00060429
4806.58797363,0.00062984
4808.51678101,0.00056922
4810.44558838,0.00054149
4812.37439575,0.00055221
4814.30320312,0.00058137
4816.23201050,0.00054972
4818.16081787,0.00055451
4820.08962524,0.00056651
4822.01843262,0.00052657
4823.94723999,0.00054653
4825.87604736,0.00051378
4827.80485474,0.00045377
4829.73366211,0.00055935
4831.66246948,0.00053923
4833.59127686,0.00047437
4835.52008423,0.00057197
4837.44889160,0.00051982
4839.37769897,0.00047599
4841.30650635,0.00050414
4843.23531372,0.00058614
4845.16412109,0.00060310
4847.09292847,0.00047154
4849.02173584,0.00055471
4850.95054321,0.00055805
4852.87935059,0.00049563
4854.80815796,0.00053398
4856.73696533,0.00047184
4858.66577270,0.00050785
4860.59458008,0.00056968
4862.52338745,0.00048471
4864.45219482,0.00038978
4866.38100220,0.00048498
4868.30980957,0.00055333
4870.23861694,0.00048529
4872.16742432,0.00049148
4874.09623169,0.00050374
4876.02503906,0.00051797
4877.95384644,0.00051874
4879.88265381,0.00049710
4881.81146118,0.00045624
4883.74026855,0.00042869
4885.66907593,0.00043484
4887.59788330,0.00050905
4889.52669067,0.00059854
4891.45549805,0.00050732
4893.38430542,0.00051035
4895.31311279,0.00053017
4897.24192017,0.00046292
4899.17072754,0.00048052
4901.09953491,0.00043693
4903.02834228,0.00050059
4904.95714966,0.00052105
4906.88595703,0.00045562
4908.81476440,0.00052507
4910.74357178,0.00049642
4912.67237915,0.00046880
4914.60118652,0.00049758
4916.52999390,0.00050758
4918.45880127,0.00049434
4920.38760864,0.00041091
4922.31641602,0.00046713
4924.24522339,0.00049532
4926.17403076,0.00042492
4928.10283813,0.00044140
4930.03164551,0.00043420
4931.96045288,0.00055168
4933.88926025,0.00055779
4935.81806763,0.00043878
4937.74687500,0.00051696
4939.67568237,0.00048879
4941.60448975,0.00048287
4943.53329712,0.00044674
4945.46210449,0.00039502
4947.39091187,0.00055085
4949.31971924,0.00053520
4951.24852661,0.00046792
4953.17733398,0.00038691
4955.10614136,0.00033126
4957.03494873,0.00047753
4958.96375610,0.00047695
4960.89256348,0.00040409
4962.82137085,0.00044164
4964.75017822,0.00042758
4966.67898560,0.00043963
4968.60779297,0.00047682
4970.53660034,0.00038973
4972.46540771,0.00038952
4974.39421509,0.00045139
4976.32302246,0.00046768
4978.25182983,0.00047560
4980.18063721,0.00041422
4982.10944458,0.00041308
4984.03825195,0.00038565
4985.96705933,0.00039560
4987.89586670,0.00044221
4989.82467407,0.00041021
4991.75348145,0.00042774
4993.68228882,0.00042383
4995.61109619,0.00043275
4997.53990356,0.00041706
4999.46871094,0.00041887
5001.39751831,0.00044827
5003.32632568,0.00041236
5005.25513306,0.00035146
5007.18394043,0.00040527
5009.11274780,0.00049751
5011.04155518,0.00036116
5012.97036255,0.00042865
5014.89916992,0.00049319
5016.82797729,0.00039031
5018.75678467,0.00047158
5020.68559204,0.00040070
5022.61439941,0.00037629
5024.54320679,0.00044092
5026.47201416,0.00046467
5028.40082153,0.00044806
5030.32962891,0.00037143
5032.25843628,0.00040439
5034.18724365,0.00038359
5036.11605103,0.00038314
5038.04485840,0.00041720
5039.97366577,0.00042869
5041.90247314,0.00039581
5043.83128052,0.00035006
5045.76008789,0.00034890
5047.68889526,0.00034275
5049.61770264,0.00041408
5051.54651001,0.00039058
5053.47531738,0.00038091
5055.40412476,0.00042535
5057.33293213,0.00040916
5059.26173950,0.00035743
5061.19054687,0.00032253
5063.11935425,0.00039523
5065.04816162,0.00034397
5066.97696899,0.00030192
5068.90577637,0.00032815
5070.83458374,0.00037123
5072.76339111,0.00044990
5074.69219849,0.00044523
5076.62100586,0.00039105
5078.54981323,0.00032299
5080.47862061,0.00037733
5082.40742798,0.00036412
5084.33623535,0.00035901
5086.26504272,0.00040657
5088.19385010,0.00036450
5090.12265747,0.00038750
5092.05146484,0.00036869
5093.98027222,0.00034258
5095.90907959,0.00028021
5097.83788696,0.00035282
5099.76669434,0.00044780
5101.69550171,0.00037304
5103.62430908,0.00040508
5105.55311645,0.00035621
5107.48192383,0.00031549
5109.41073120,0.00034510
5111.33953857,0.00038796
5113.26834595,0.00041669
5115.19715332,0.00032886
5117.12596069,0.00031913
5119.05476807,0.00038299
5120.98357544,0.00037907
5122.91238281,0.00028129
5124.84119019,0.00029908
5126.76999756,0.00035528
5128.69880493,0.00034814
5130.62761230,0.00032667
5132.55641968,0.00033552
5134.48522705,0.00038467
5136.41403442,0.00035406
5138.34284180,0.00038020
5140.27164917,0.00029541
5142.20045654,0.00034931
5144.12926392,0.00043550
5146.05807129,0.00030506
5147.98687866,0.00036337
5149.91568603,0.00031224
5151.84449341,0.00033340
5153.77330078,0.00031737
5155.70210815,0.00026783
5157.63091553,0.00036703
5159.55972290,0.00026242
5161.48853027,0.00036552
5163.41733765,0.00035106
5165.34614502,0.00028582
5167.27495239,0.00036984
5169.20375977,0.00029234
5171.13256714,0.00035040
5173.06137451,0.00033168
5174.99018188,0.00030739
5176.91898926,0.00034309
5178.84779663,0.00034680
5180.77660400,0.00033178
5182.70541138,0.00030178
5184.63421875,0.00037897
5186.56302612,0.00033940
5188.49183350,0.00032313
5190.42064087,0.00035129
5192.34944824,0.00031284
5194.27825562,0.00031270
5196.20706299,0.00035124
5198.13587036,0.00032678
5200.06467773,0.00026732
5201.99348511,0.00035358
5203.92229248,0.00031649
5205.85109985,0.00025482
5207.77990723,0.00031550
5209.70871460,0.00030131
5211.63752197,0.00030069
5213.56632935,0.00030926
5215.49513672,0.00034692
5217.42394409,0.00038076
5219.35275146,0.00033650
5221.28155884,0.00033504
5223.21036621,0.00036352
5225.13917358,0.00027171
5227.06798096,0.00025872
5228.99678833,0.00030701
5230.92559570,0.00029182
5232.85440308,0.00036987
5234.78321045,0.00030260
5236.71201782,0.00027643
5238.64082520,0.00031822
5240.56963257,0.00020265
5242.49843994,0.00023987
5244.42724731,0.00029639
5246.35605469,0.00032275
5248.28486206,0.00029943
5250.21366943,0.00021005
5252.14247681,0.00024578
5254.07128418,0.00027050
5256.00009155,0.00030270
5257.92889893,0.00031599
5259.85770630,0.00027965
5261.78651367,0.00027794
5263.71532104,0.00024750
5265.64412842,0.00027931
5267.57293579,0.00032797
5269.50174316,0.00028196
5271.43055054,0.00031528
5273.35935791,0.00029039
5275.28816528,0.00021844
5277.21697266,0.00030205
5279.14578003,0.00025712
5281.07458740,0.00023255
5283.00339478,0.00032783
5284.93220215,0.00031479
5286.86100952,0.00031851
5288.78981689,0.00033794
5290.71862427,0.00029487
5292.64743164,0.00022250
5294.57623901,0.00027223
5296.50504639,0.00029404
5298.43385376,0.00021880
5300.36266113,0.00025847
5302.29146851,0.00028421
5304.22027588,0.00030397
5306.14908325,0.00029890
5308.07789062,0.00024870
5310.00669800,0.00026023
5311.93550537,0.00026592
5313.86431274,0.00024234
5315.79312012,0.00025860
5317.72192749,0.00030890
5319.65073486,0.00028606
5321.57954224,0.00030704
5323.50834961,0.00032266
5325.43715698,0.00028396
5327.36596436,0.00026909
5329.29477173,0.00022417
5331.22357910,0.00025741
5333.15238647,0.00024904
5335.08119385,0.00026315
5337.01000122,0.00028661
5338.93880859,0.00020685
5340.86761597,0.00029999
5342.79642334,0.00034057
5344.72523071,0.00022494
5346.65403809,0.00024529
5348.58284546,0.00031920
5350.51165283,0.00024458
5352.44046020,0.00023754
5354.36926758,0.00034731
5356.29807495,0.00027997
5358.22688232,0.00023175
5360.15568970,0.00027494
5362.08449707,0.00025856
5364.01330444,0.00022730
5365.94211182,0.00028972
5367.87091919,0.00031720
5369.79972656,0.00022665
5371.72853394,0.00030218
5373.65734131,0.00028481
5375.58614868,0.00021323
5377.51495605,0.00029618
5379.44376343,0.00023648
5381.37257080,0.00019611
5383.30137817,0.00021091
5385.23018555,0.00021058
5387.15899292,0.00021546
5389.08780029,0.00024491
5391.01660767,0.00029189
5392.94541504,0.00023623
5394.87422241,0.00023827
5396.80302978,0.00022006
5398.73183716,0.00021673
5400.66064453,0.00026896
5402.58945190,0.00022087
5404.51825928,0.00024478
5406.44706665,0.00028400
5408.37587402,0.00027405
5410.30468140,0.00025208
5412.23348877,0.00023170
5414.16229614,0.00023322
5416.09110352,0.00021274
5418.01991089,0.00023878
5419.94871826,0.00027115
5421.87752563,0.00026109
5423.80633301,0.00026047
5425.73514038,0.00025613
5427.66394775,0.00022315
5429.59275513,0.00022106
5431.52156250,0.00021961
5433.45036987,0.00023445
5435.37917725,0.00023659
5437.30798462,0.00014736
5439.23679199,0.00019547
5441.16559936,0.00025044
5443.09440674,0.00022349
5445.02321411,0.00022776
5446.95202148,0.00021109
5448.88082886,0.00025693
5450.80963623,0.00022750
5452.73844360,0.00021947
5454.66725098,0.00025804
5456.59605835,0.00022538
5458.52486572,0.00021218
5460.45367310,0.00018266
5462.38248047,0.00023301
5464.31128784,0.00025660
5466.24009521,0.00024503
5468.16890259,0.00022449
5470.09770996,0.00019913
5472.02651733,0.00021795
5473.95532471,0.00019071
5475.88413208,0.00024449
5477.81293945,0.00021289
5479.74174683,0.00021906
5481.67055420,0.00024453
5483.59936157,0.00014305
5485.52816895,0.00022286
5487.45697632,0.00020718
5489.38578369,0.00019389
5491.31459106,0.00021557
5493.24339844,0.00010924
5495.17220581,0.00016003
5497.10101318,0.00023058
5499.02982056,0.00022731
5500.95862793,0.00017131
5502.88743530,0.00016937
5504.81624268,0.00021365
5506.74505005,0.00021163
5508.67385742,0.00020829
5510.60266479,0.00017987
5512.53147217,0.00019774
5514.46027954,0.00022146
5516.38908691,0.00025715
5518.31789429,0.00020662
5520.24670166,0.00017299
5522.17550903,0.00023448
5524.10431641,0.00019454
5526.03312378,0.00020954
5527.96193115,0.00019864
5529.89073853,0.00016831
5531.81954590,0.00019010
5533.74835327,0.00022670
5535.67716064,0.00023431
5537.60596802,0.00017617
5539.53477539,0.00023664
5541.46358276,0.00018704
5543.39239014,0.00016927
5545.32119751,0.00020990
5547.25000488,0.00012345
5549.17881226,0.00020953
5551.10761963,0.00024145
5553.03642700,0.00020914
5554.96523437,0.00019029
5556.89404175,0.00014979
5558.82284912,0.00017457
5560.75165649,0.00018429
5562.68046387,0.00023074
5564.60927124,0.00022074
5566.53807861,0.00019748
5568.46688599,0.00017369
5570.39569336,0.00021695
5572.32450073,0.00025161
5574.25330811,0.00015488
5576.18211548,0.00018687
5578.11092285,0.00014818
5580.03973022,0.00014514
5581.96853760,0.00019417
5583.89734497,0.00015472
5585.82615234,0.00021540
5587.75495972,0.00017714
5589.68376709,0.00014447
5591.61257446,0.00012472
5593.54138184,0.00013884
5595.47018921,0.00016875
5597.39899658,0.00013283
5599.32780395,0.00023427
5601.25661133,0.00019824
5603.18541870,0.00014430
5605.11422607,0.00019169
5607.04303345,0.00022634
5608.97184082,0.00025055
5610.90064819,0.00016899
5612.82945557,0.00018588
5614.75826294,0.00019535
5616.68707031,0.00018135
5618.61587769,0.00019980
5620.54468506,0.00013897
5622.47349243,0.00011171
5624.40229980,0.00017010
5626.33110718,0.00023522
5628.25991455,0.00016754
5630.18872192,0.00015781
5632.11752930,0.00019180
5634.04633667,0.00018034
5635.97514404,0.00019070
5637.90395142,0.00015040
5639.83275879,0.00018117
5641.76156616,0.00017782
5643.69037353,0.00018356
5645.61918091,0.00016684
5647.54798828,0.00013793
5649.47679565,0.00024406
5651.40560303,0.00019048
5653.33441040,0.00018450
5655.26321777,0.00019282
5657.19202515,0.00013337
5659.12083252,0.00018966
5661.04963989,0.00014203
5662.97844727,0.00017667
5664.90725464,0.00017944
5666.83606201,0.00009659
5668.76486938,0.00013962
5670.69367676,0.00009946
5672.62248413,0.00014139
5674.55129150,0.00024162
5676.48009888,0.00021226
5678.40890625,0.00020336
5680.33771362,0.00011456
5682.26652100,0.00004505
5684.19532837,0.00018289
5686.12413574,0.00018362
5688.05294311,0.00010529
5689.98175049,0.00018337
5691.91055786,0.00013481
5693.83936523,0.00008342
5695.76817261,0.00015198
5697.69697998,0.00017482
5699.62578735,0.00023729
5701.55459473,0.00022367
5703.48340210,0.00016498
5705.41220947,0.00021758
5707.34101685,0.00017016
5709.26982422,0.00011224
5711.19863159,0.00014178
5713.12743896,0.00010866
5715.05624634,0.00010803
5716.98505371,0.00013475
5718.91386108,0.00016305
5720.84266846,0.00014367
5722.77147583,0.00010366
5724.70028320,0.00016689
5726.62909058,0.00019061
5728.55789795,0.00019076
5730.48670532,0.00016856
5732.41551270,0.00017057
5734.34432007,0.00018395
5736.27312744,0.00011310
5738.20193481,0.00014217
5740.13074219,0.00013842
5742.05954956,0.00011718
5743.98835693,0.00014992
5745.91716431,0.00011890
5747.84597168,0.00014119
5749.77477905,0.00013902
5751.70358643,0.00015979
5753.63239380,0.00015946
5755.56120117,0.00008844
5757.49000854,0.00014064
5759.41881592,0.00012612
5761.34762329,0.00013602
5763.27643066,0.00019143
5765.20523804,0.00015233
5767.13404541,0.00017428
5769.06285278,0.00010592
5770.99166016,0.00013066
5772.92046753,0.00017304
5774.84927490,0.00007292
5776.77808228,0.00013866
5778.70688965,0.00009953
5780.63569702,0.00011755
5782.56450439,0.00020232
5784.49331177,0.00011969
5786.42211914,0.00015298
5788.35092651,0.00015043
5790.27973389,0.00014095
5792.20854126,0.00011312
5794.13734863,0.00012126
5796.06615601,0.00017379
5797.99496338,0.00011097
5799.92377075,0.00017057
5801.85257812,0.00017198
5803.78138550,0.00013723
5805.71019287,0.00010259
5807.63900024,0.00008018
5809.56780762,0.00017034
5811.49661499,0.00010631
5813.42542236,0.00006954
5815.35422974,0.00012603
5817.28303711,0.00015448
5819.21184448,0.00014656
5821.14065186,0.00014533
5823.06945923,0.00014525
5824.99826660,0.00009389
5826.92707397,0.00009186
5828.85588135,0.00012869
5830.78468872,0.00020125
5832.71349609,0.00009151
5834.64230347,0.00002428
5836.57111084,0.00014084
5838.49991821,0.00015314
5840.42872559,0.00019000
5842.35753296,0.00012949
5844.28634033,0.00008407
5846.21514770,0.00014508
5848.14395508,0.00013432
5850.07276245,0.00011097
5852.00156982,0.00011351
5853.93037720,0.00011802
5855.85918457,0.00011251
5857.78799194,0.00008260
5859.71679932,0.00003371
5861.64560669,0.00017720
5863.57441406,0.00011675
5865.50322144,0.00003542
5867.43202881,0.00015716
5869.36083618,0.00002018
5871.28964355,0.00010972
5873.21845093,0.00011732
5875.14725830,0.00006294
5877.07606567,0.00015304
5879.00487305,0.00005402
5880.93368042,0.00016912
5882.86248779,0.00011753
5884.79129517,0.00005972
5886.72010254,0.00014674
5888.64890991,0.00011780
5890.57771728,0.00014756
5892.50652466,0.00006090
5894.43533203,0.00011615
5896.36413940,0.00012613
5898.29294678,0.00007757
5900.22175415,0.00017998
5902.15056152,0.00014293
5904.07936890,0.00010297
5906.00817627,0.00005503
5907.93698364,0.00007575
5909.86579102,0.00016271
5911.79459839,0.00013343
5913.72340576,0.00014323
5915.65221313,0.00014614
5917.58102051,0.00007814
5919.50982788,0.00008039
5921.43863525,0.00008055
5923.36744263,0.00010013
5925.29625000,0.00017270
5927.22505737,0.00013856
5929.15386475,0.00011917
5931.08267212,0.00009522
5933.01147949,0.00009242
5934.94028686,0.00014594
5936.86909424,0.00013606
5938.79790161,0.00014985
5940.72670898,0.00009657
5942.65551636,0.00006379
5944.58432373,0.00010000
5946.51313110,0.00013674
5948.44193848,0.00013774
5950.37074585,0.00007600
5952.29955322,0.00010770
5954.22836060,0.00012441
5956.15716797,0.00009313
5958.08597534,0.00008299
5960.01478271,0.00008891
5961.94359009,0.00010817
5963.87239746,0.00016337
5965.80120483,0.00014735
5967.73001221,0.00007626
5969.65881958,0.00006310
5971.58762695,-0.00000008
5973.51643433,0.00010983
5975.44524170,0.00010854
5977.37404907,0.00003411
5979.30285645,0.00016558
5981.23166382,0.00008399
5983.16047119,0.00005932
5985.08927856,0.00010757
5987.01808594,0.00009284
5988.94689331,0.00005345
5990.87570068,0.00002710
5992.80450806,0.00012383
5994.73331543,0.00009253
5996.66212280,0.00006603
5998.59093018,0.00008506
6000.51973755,0.00009136
