399.26312622,-0.00006529
401.19193359,-0.00002233
403.12074097,-0.00000008
405.04954834,0.00037269
406.97835571,0.00019886
408.90716309,0.00019851
410.83597046,0.00029588
412.76477783,-0.00027304
414.69358521,0.00018269
416.62239258,0.00052325
418.55119995,-0.00003918
420.48000732,0.00021456
422.40881470,0.00052051
424.33762207,0.00026038
426.26642944,0.00040980
428.19523682,0.00029392
430.12404419,0.00034018
432.05285156,0.00069010
433.98165894,0.00052671
435.91046631,0.00057549
437.83927368,0.00007384
439.76808105,0.00026267
441.69688843,0.00058130
443.62569580,-0.00016366
445.55450317,0.00039179
447.48331055,0.00071310
449.41211792,0.00048392
451.34092529,0.00008228
453.26973267,-0.00026103
455.19854004,0.00049519
457.12734741,0.00052297
459.05615479,0.00032604
460.98496216,0.00045536
462.91376953,0.00054082
464.84257690,0.00045598
466.77138428,0.00017949
468.70019165,0.00017304
470.62899902,0.00013302
472.55780640,0.00035760
474.48661377,0.00003037
476.41542114,-0.00006629
478.34422852,0.00037838
480.27303589,0.00004430
482.20184326,0.00033588
484.13065063,0.00034399
486.05945801,0.00018775
487.98826538,0.00072735
489.91707275,0.00065483
491.84588013,0.00067726
493.77468750,0.00024523
495.70349487,0.00005680
497.63230225,0.00026624
499.56110962,-0.00006848
501.48991699,0.00018710
503.41872437,0.00002379
505.34753174,0.00008742
507.27633911,0.00044310
509.20514648,0.00010020
511.13395386,0.00012454
513.06276123,-0.00007604
514.99156860,0.00009165
516.92037598,0.00070363
518.84918335,0.00038644
520.77799072,-0.00003113
522.70679810,0.00015610
524.63560547,0.00045952
526.56441284,0.00059523
528.49322021,0.00039182
530.42202759,0.00027445
532.35083496,0.00017556
534.27964233,-0.00014903
536.20844971,0.00017831
538.13725708,0.00022864
540.06606445,0.00016058
541.99487183,0.00034433
543.92367920,0.00009289
545.85248657,0.00022830
547.78129395,-0.00000625
549.71010132,-0.00001291
551.63890869,0.00010609
553.56771606,-0.00020824
555.49652344,0.00024266
557.42533081,0.00026729
559.35413818,0.00002262
561.28294556,0.00030583
563.21175293,0.00047885
565.14056030,0.00047912
567.06936768,0.00044053
568.99817505,0.00020672
570.92698242,-0.00003667
572.85578979,0.00001953
574.78459717,0.00012660
576.71340454,0.00026472
578.64221191,0.00020398
580.57101929,0.00016664
582.49982666,0.00019811
584.42863403,0.00022538
586.35744141,0.00040536
588.28624878,0.00002917
590.21505615,-0.00006182
592.14386353,0.00046617
594.07267090,0.00045455
596.00147827,0.00011291
597.93028564,-0.00002612
599.85909302,-0.00001832
601.78790039,0.00001037
603.71670776,0.00029002
605.64551514,0.00053969
607.57432251,0.00051979
609.50312988,0.00024130
611.43193726,0.00038872
613.36074463,0.00070865
615.28955200,0.00024593
617.21835938,0.00028238
619.14716675,0.00049924
621.07597412,0.00014568
623.00478149,-0.00007699
624.93358887,-0.00003565
626.86239624,-0.00005147
628.79120361,-0.00040570
630.72001099,-0.00002249
632.64881836,0.00044069
634.57762573,0.00049217
636.50643311,0.00056932
638.43524048,0.00024246
640.36404785,0.00027775
642.29285522,0.00049699
644.22166260,0.00051597
646.15046997,0.00067869
648.07927734,0.00073946
650.00808472,0.00045998
651.93689209,0.00020042
653.86569946,0.00045362
655.79450684,0.00066610
657.72331421,0.00063483
659.65212158,0.00069451
661.58092896,0.00068388
663.50973633,0.00064381
665.43854370,0.00076662
667.36735107,0.00072362
669.29615845,0.00074208
671.22496582,0.00118461
673.15377319,0.00112775
675.08258057,0.00087763
677.01138794,0.00105648
678.94019531,0.00100787
680.86900269,0.00106567
682.79781006,0.00111046
684.72661743,0.00095346
686.65542480,0.00118432
688.58423218,0.00102792
690.51303955,0.00078071
692.44184692,0.00120513
694.37065430,0.00125490
696.29946167,0.00096908
698.22826904,0.00124000
700.15707642,0.00173528
702.08588379,0.00153372
704.01469116,0.00146633
705.94349854,0.00153702
707.87230591,0.00096628
709.80111328,0.00094154
711.72992065,0.00051608
713.65872803,0.00011524
715.58753540,0.00048454
717.51634277,0.00027017
719.44515015,0.00028336
721.37395752,0.00012260
723.30276489,0.00008327
725.23157227,0.00025663
727.16037964,0.00009003
729.08918701,0.00032945
731.01799438,0.00018004
732.94680176,-0.00009285
734.87560913,0.00000342
736.80441650,0.00016002
738.73322388,0.00025806
740.66203125,0.00020705
742.59083862,0.00039076
744.51964600,0.00036473
746.44845337,0.00012369
748.37726074,0.00023991
750.30606812,0.00020255
752.23487549,0.00021907
754.16368286,0.00027190
756.09249023,0.00022818
758.02129761,0.00027545
759.95010498,0.00003225
761.87891235,-0.00013302
763.80771973,0.00022819
765.73652710,0.00034555
767.66533447,0.00009980
769.59414185,0.00019889
771.52294922,0.00021417
773.45175659,0.00001230
775.38056396,0.00018910
777.30937134,0.00027225
779.23817871,0.00004204
781.16698608,0.00014592
783.09579346,0.00040056
785.02460083,0.00025511
786.95340820,0.00005763
788.88221558,0.00012804
790.81102295,0.00020650
792.73983032,0.00028862
794.66863770,0.00007842
796.59744507,-0.00006665
798.52625244,0.00021247
800.45505981,0.00009419
802.38386719,0.00007910
804.31267456,0.00036862
806.24148193,0.00026316
808.17028931,0.00035169
810.09909668,0.00031163
812.02790405,0.00029569
813.95671143,0.00010851
815.88551880,0.00003190
817.81432617,0.00031450
819.74313354,-0.00005394
821.67194092,0.00015866
823.60074829,0.00024416
825.52955566,0.00016284
827.45836304,0.00047062
829.38717041,0.00014795
831.31597778,0.00036078
833.24478516,0.00030194
835.17359253,0.00016460
837.10239990,0.00059362
839.03120728,0.00057301
840.96001465,0.00050143
842.88882202,0.00023203
844.81762939,0.00035460
846.74643677,0.00076103
848.67524414,0.00056170
850.60405151,0.00026943
852.53285889,0.00045590
854.46166626,0.00041912
856.39047363,0.00005805
858.31928101,0.00016461
860.24808838,0.00034720
862.17689575,0.00049238
864.10570313,0.00012368
866.03451050,0.00009688
867.96331787,0.00034267
869.89212524,-0.00021780
871.82093262,-0.00011160
873.74973999,0.00017600
875.67854736,0.00022698
877.60735474,-0.00005167
879.53616211,-0.00025856
881.46496948,0.00020796
883.39377686,0.00001266
885.32258423,0.00025934
887.25139160,0.00053890
889.18019897,0.00023826
891.10900635,0.00040922
893.03781372,0.00025365
894.96662109,0.00010328
896.89542847,0.00021802
898.82423584,0.00037228
900.75304321,0.00047193
902.68185059,0.00037732
904.61065796,0.00038711
906.53946533,0.00029733
908.46827271,0.00016415
910.39708008,0.00036256
912.32588745,0.00044730
914.25469482,0.00021594
916.18350220,0.00040791
918.11230957,0.00047863
920.04111694,0.00044492
921.96992432,0.00060176
923.89873169,0.00027129
925.82753906,0.00039358
927.75634644,0.00091580
929.68515381,0.00085186
931.61396118,0.00058366
933.54276855,0.00076369
935.47157593,0.00081008
937.40038330,0.00055981
939.32919067,0.00089874
941.25799805,0.00099288
943.18680542,0.00086120
945.11561279,0.00096343
947.04442017,0.00081827
948.97322754,0.00068356
950.90203491,0.00083568
952.83084229,0.00100239
954.75964966,0.00059940
956.68845703,0.00063502
958.61726440,0.00090063
960.54607178,0.00083293
962.47487915,0.00109625
964.40368652,0.00090418
966.33249390,0.00091875
968.26130127,0.00090410
970.19010864,0.00072978
972.11891602,0.00108902
974.04772339,0.00082888
975.97653076,0.00096655
977.90533813,0.00112580
979.83414551,0.00092495
981.76295288,0.00147445
983.69176025,0.00147931
985.62056763,0.00168937
987.54937500,0.00214751
989.47818237,0.00195158
991.40698975,0.00231398
993.33579712,0.00249116
995.26460449,0.00236556
997.19341187,0.00285452
999.12221924,0.00314887
1001.05102661,0.00327105
1002.97983398,0.00372799
1004.90864136,0.00382407
1006.83744873,0.00370208
1008.76625610,0.00414505
1010.69506348,0.00460431
1012.62387085,0.00459615
1014.55267822,0.00481416
1016.48148560,0.00539435
1018.41029297,0.00538951
1020.33910034,0.00545937
1022.26790771,0.00599798
1024.19671509,0.00611473
1026.12552246,0.00639707
1028.05432983,0.00666114
1029.98313721,0.00684618
1031.91194458,0.00700285
1033.84075195,0.00692344
1035.76955933,0.00739905
1037.69836670,0.00743493
1039.62717407,0.00712231
1041.55598145,0.00742651
1043.48478882,0.00754520
1045.41359619,0.00708754
1047.34240356,0.00672691
1049.27121094,0.00700775
1051.20001831,0.00692449
1053.12882568,0.00679320
1055.05763306,0.00688751
1056.98644043,0.00648576
1058.91524780,0.00639417
1060.84405518,0.00631624
1062.77286255,0.00618743
1064.70166992,0.00618363
1066.63047729,0.00580371
1068.55928467,0.00544539
1070.48809204,0.00520524
1072.41689941,0.00511502
1074.34570679,0.00493394
1076.27451416,0.00456982
1078.20332153,0.00438980
1080.13212891,0.00428665
1082.06093628,0.00404188
1083.98974365,0.00385605
1085.91855103,0.00389554
1087.84735840,0.00361601
1089.77616577,0.00341596
1091.70497314,0.00345217
1093.63378052,0.00321012
1095.56258789,0.00302231
1097.49139526,0.00272282
1099.42020264,0.00267143
1101.34901001,0.00280144
1103.27781738,0.00263762
1105.20662476,0.00270297
1107.13543213,0.00276526
1109.06423950,0.00279130
1110.99304687,0.00266896
1112.92185425,0.00251376
1114.85066162,0.00267981
1116.77946899,0.00263086
1118.70827637,0.00254303
1120.63708374,0.00246074
1122.56589111,0.00243674
1124.49469849,0.00250113
1126.42350586,0.00251799
1128.35231323,0.00271153
1130.28112061,0.00272731
1132.20992798,0.00285140
1134.13873535,0.00291393
1136.06754272,0.00274553
1137.99635010,0.00311811
1139.92515747,0.00336419
1141.85396484,0.00345372
1143.78277222,0.00393503
1145.71157959,0.00404386
1147.64038696,0.00411900
1149.56919434,0.00457980
1151.49800171,0.00478650
1153.42680908,0.00500754
1155.35561646,0.00523399
1157.28442383,0.00543581
1159.21323120,0.00590691
1161.14203857,0.00602283
1163.07084595,0.00602753
1164.99965332,0.00630897
1166.92846069,0.00637684
1168.85726807,0.00653802
1170.78607544,0.00711531
1172.71488281,0.00734938
1174.64369019,0.00736098
1176.57249756,0.00777895
1178.50130493,0.00807961
1180.43011230,0.00825699
1182.35891968,0.00850710
1184.28772705,0.00899400
1186.21653442,0.00959666
1188.14534180,0.00997179
1190.07414917,0.01046619
1192.00295654,0.01084103
1193.93176392,0.01136738
1195.86057129,0.01193278
1197.78937866,0.01227875
1199.71818604,0.01301641
1201.64699341,0.01369489
1203.57580078,0.01425060
1205.50460815,0.01487668
1207.43341553,0.01534366
1209.36222290,0.01570817
1211.29103027,0.01622921
1213.21983765,0.01663709
1215.14864502,0.01694985
1217.07745239,0.01762335
1219.00625977,0.01781580
1220.93506714,0.01787562
1222.86387451,0.01843907
1224.79268188,0.01872466
1226.72148926,0.01858418
1228.65029663,0.01869388
1230.57910400,0.01909280
1232.50791138,0.01890888
1234.43671875,0.01877546
1236.36552612,0.01893137
1238.29433350,0.01889798
1240.22314087,0.01887141
1242.15194824,0.01884276
1244.08075562,0.01895135
1246.00956299,0.01867309
1247.93837036,0.01848629
1249.86717773,0.01862716
1251.79598511,0.01842563
1253.72479248,0.01817768
1255.65359985,0.01799951
1257.58240723,0.01806060
1259.51121460,0.01771951
1261.44002197,0.01716664
1263.36882935,0.01713704
1265.29763672,0.01688647
1267.22644409,0.01668494
1269.15525146,0.01665197
1271.08405884,0.01621969
1273.01286621,0.01582710
1274.94167358,0.01576095
1276.87048096,0.01553100
1278.79928833,0.01505161
1280.72809570,0.01484009
1282.65690308,0.01480151
1284.58571045,0.01443202
1286.51451782,0.01399803
1288.44332520,0.01394905
1290.37213257,0.01388903
1292.30093994,0.01359862
1294.22974731,0.01347499
1296.15855469,0.01337196
1298.08736206,0.01331875
1300.01616943,0.01364195
1301.94497681,0.01366284
1303.87378418,0.01361630
1305.80259155,0.01377431
1307.73139893,0.01376187
1309.66020630,0.01426550
1311.58901367,0.01454105
1313.51782104,0.01468041
1315.44662842,0.01519591
1317.37543579,0.01543475
1319.30424316,0.01609753
1321.23305054,0.01655328
1323.16185791,0.01687206
1325.09066528,0.01745423
1327.01947266,0.01777079
1328.94828003,0.01838950
1330.87708740,0.01875868
1332.80589478,0.01905722
1334.73470215,0.01968636
1336.66350952,0.01997743
1338.59231689,0.01958743
1340.52112427,0.01955575
1342.44993164,0.02049563
1344.37873901,0.02075152
1346.30754639,0.02078169
1348.23635376,0.02080144
1350.16516113,0.02061459
1352.09396851,0.02079494
1354.02277588,0.02046272
1355.95158325,0.02032622
1357.88039062,0.02030997
1359.80919800,0.01995496
1361.73800537,0.01909607
1363.66681274,0.01874262
1365.59562012,0.01981606
1367.52442749,0.01939307
1369.45323486,0.01914055
1371.38204224,0.01946722
1373.31084961,0.01844338
1375.23965698,0.01874572
1377.16846436,0.01922786
1379.09727173,0.01911872
1381.02607910,0.01909606
1382.95488647,0.01905136
1384.88369385,0.01905615
1386.81250122,0.01816749
1388.74130859,0.01846040
1390.67011597,0.01993198
1392.59892334,0.01948819
1394.52773071,0.01826845
1396.45653809,0.01918847
1398.38534546,0.01915262
1400.31415283,0.01900407
1402.24296021,0.02068809
1404.17176758,0.01937615
1406.10057495,0.01944684
1408.02938232,0.02038559
1409.95818970,0.01951582
1411.88699707,0.01998177
1413.81580444,0.01930998
1415.74461182,0.01962881
1417.67341919,0.01762507
1419.60222656,0.01563871
1421.53103394,0.01826473
1423.45984131,0.01783637
1425.38864868,0.01727485
1427.31745605,0.01769734
1429.24626343,0.01648974
1431.17507080,0.01573019
1433.10387817,0.01603033
1435.03268555,0.01475559
1436.96149292,0.01235680
1438.89030029,0.01427558
1440.81910767,0.01465029
1442.74791504,0.01346017
1444.67672241,0.01413226
1446.60552979,0.01311140
1448.53433716,0.01344966
1450.46314453,0.01376485
1452.39195190,0.01407570
1454.32075928,0.01458563
1456.24956665,0.01202826
1458.17837402,0.01246222
1460.10718140,0.01659970
1462.03598877,0.01769673
1463.96479614,0.01737973
1465.89360352,0.01830249
1467.82241089,0.02080829
1469.75121826,0.02232840
1471.68002563,0.01987727
1473.60883301,0.02084459
1475.53764038,0.02375113
1477.46644775,0.02544645
1479.39525513,0.02837916
1481.32406250,0.02858273
1483.25286987,0.03027574
1485.18167725,0.03147658
1487.11048462,0.03075301
1489.03929199,0.03076834
1490.96809937,0.03067328
1492.89690674,0.03568925
1494.82571411,0.03507460
1496.75452148,0.03131191
1498.68332886,0.03556540
1500.61213623,0.03666026
1502.54094360,0.03940351
1504.46975098,0.03748761
1506.39855835,0.02698095
1508.32736572,0.03271328
1510.25617310,0.03894015
1512.18498047,0.03777926
1514.11378784,0.04076789
1516.04259521,0.03663740
1517.97140259,0.03826603
1519.90020996,0.03725035
1521.82901733,0.03197521
1523.75782471,0.03933424
1525.68663208,0.03868385
1527.61543945,0.03819884
1529.54424683,0.04262263
1531.47305420,0.04113190
1533.40186157,0.03752768
1535.33066895,0.03970563
1537.25947632,0.04303587
1539.18828369,0.03048659
1541.11709106,0.03138772
1543.04589844,0.03814153
1544.97470581,0.03633381
1546.90351318,0.04364217
1548.83232056,0.04060267
1550.76112793,0.04176753
1552.68993530,0.04210503
1554.61874268,0.03757938
1556.54755005,0.04050839
1558.47635742,0.02853899
1560.40516479,0.03022262
1562.33397217,0.04382685
1564.26277954,0.04151665
1566.19158691,0.04255225
1568.12039429,0.04234806
1570.04920166,0.03721002
1571.97800903,0.04278427
1573.90681641,0.04397580
1575.83562378,0.03454782
1577.76443115,0.03880182
1579.69323853,0.04445072
1581.62204590,0.04228684
1583.55085327,0.04341705
1585.47966064,0.04267282
1587.40846802,0.04281632
1589.33727539,0.04258225
1591.26608276,0.04238755
1593.19489014,0.04243082
1595.12369751,0.04192431
1597.05250488,0.04255041
1598.98131226,0.04207456
1600.91011963,0.04228187
1602.83892700,0.04156768
1604.76773437,0.04214634
1606.69654175,0.04147600
1608.62534912,0.04113866
1610.55415649,0.04105663
1612.48296387,0.04130113
1614.41177124,0.04208245
1616.34057861,0.03407016
1618.26938599,0.03642513
1620.19819336,0.04296384
1622.12700073,0.03780974
1624.05580811,0.03763033
1625.98461548,0.03984798
1627.91342285,0.03957428
1629.84223022,0.03915597
1631.77103760,0.04204563
1633.69984497,0.03883457
1635.62865234,0.03176232
1637.55745972,0.03716997
1639.48626709,0.04131490
1641.41507446,0.04037967
1643.34388184,0.04154757
1645.27268921,0.03760574
1647.20149658,0.03257755
1649.13030396,0.04093238
1651.05911133,0.03950679
1652.98791870,0.02488619
1654.91672607,0.03398652
1656.84553345,0.04320754
1658.77434082,0.04141689
1660.70314819,0.04307552
1662.63195557,0.03899845
1664.56076294,0.04114932
1666.48957031,0.04481479
1668.41837769,0.03910622
1670.34718506,0.03761271
1672.27599243,0.04316935
1674.20479980,0.04031199
1676.13360718,0.03851513
1678.06241455,0.04468191
1679.99122192,0.04313760
1681.92002930,0.04287013
1683.84883667,0.03487303
1685.77764404,0.03408585
1687.70645142,0.04777540
1689.63525879,0.04156249
1691.56406616,0.04547924
1693.49287354,0.04704326
1695.42168091,0.03385536
1697.35048828,0.04191975
1699.27929565,0.03747670
1701.20810303,0.03312349
1703.13691040,0.04564932
1705.06571777,0.04236966
1706.99452515,0.04239471
1708.92333252,0.04645687
1710.85213989,0.04477282
1712.78094727,0.04553913
1714.70975464,0.04244947
1716.63856201,0.03786692
1718.56736938,0.03703589
1720.49617676,0.04433050
1722.42498413,0.04652698
1724.35379150,0.04298359
1726.28259888,0.04688959
1728.21140625,0.04352846
1730.14021362,0.04372171
1732.06902100,0.04298221
1733.99782837,0.03220347
1735.92663574,0.04001749
1737.85544312,0.04512612
1739.78425049,0.03986323
1741.71305786,0.04344817
1743.64186523,0.04417822
1745.57067261,0.04422593
1747.49947998,0.04481886
1749.42828735,0.04283975
1751.35709473,0.04089584
1753.28590210,0.04530279
1755.21470947,0.04771095
1757.14351685,0.04346297
1759.07232422,0.04780954
1761.00113159,0.04497427
1762.92993896,0.04309066
1764.85874634,0.04974094
1766.78755371,0.04476271
1768.71636108,0.04500405
1770.64516846,0.04498634
1772.57397583,0.04020742
1774.50278320,0.04490834
1776.43159058,0.04776902
1778.36039795,0.04714138
1780.28920532,0.04649353
1782.21801270,0.04688084
1784.14682007,0.04685032
1786.07562744,0.04595599
1788.00443481,0.04845565
1789.93324219,0.04723918
1791.86204956,0.04268007
1793.79085693,0.04438739
1795.71966431,0.04784371
1797.64847168,0.04752263
1799.57727905,0.04641335
1801.50608643,0.04551323
1803.43489380,0.04738554
1805.36370117,0.04839178
1807.29250854,0.04773710
1809.22131592,0.04799224
1811.15012329,0.04659553
1813.07893066,0.04815172
1815.00773804,0.04845135
1816.93654541,0.04784914
1818.86535278,0.04845067
1820.79416016,0.04826918
1822.72296753,0.04887906
1824.65177490,0.04554918
1826.58058228,0.04733163
1828.50938965,0.04767884
1830.43819702,0.04438271
1832.36700439,0.04838458
1834.29581177,0.04821019
1836.22461914,0.04812908
1838.15342651,0.04811297
1840.08223389,0.04833031
1842.01104126,0.04872073
1843.93984863,0.04294275
1845.86865601,0.04560514
1847.79746338,0.04864887
1849.72627075,0.04744629
1851.65507812,0.04897292
1853.58388550,0.04793770
1855.51269287,0.04837758
1857.44150024,0.04825435
1859.37030762,0.04796057
1861.29911499,0.04836275
1863.22792236,0.04763371
1865.15672974,0.04849365
1867.08553711,0.04676859
1869.01434448,0.04449867
1870.94315186,0.04654887
1872.87195923,0.04834288
1874.80076660,0.04775618
1876.72957397,0.04799700
1878.65838135,0.04782889
1880.58718872,0.04774161
1882.51599609,0.04805808
1884.44480347,0.04718496
1886.37361084,0.04793998
1888.30241821,0.04699571
1890.23122559,0.04604492
1892.16003296,0.04785644
1894.08884033,0.04710877
1896.01764771,0.04698270
1897.94645508,0.04769034
1899.87526245,0.04729713
1901.80406982,0.04755817
1903.73287720,0.04721554
1905.66168457,0.04738634
1907.59049194,0.04696618
1909.51929932,0.04659497
1911.44810669,0.04708744
1913.37691406,0.04707932
1915.30572144,0.04749479
1917.23452881,0.04539438
1919.16333618,0.04536838
1921.09214355,0.04735002
1923.02095093,0.04577414
1924.94975830,0.04679421
1926.87856567,0.04743121
1928.80737305,0.04677281
1930.73618042,0.04750586
1932.66498779,0.04674477
1934.59379517,0.04705505
1936.52260254,0.04670797
1938.45140991,0.04690597
1940.38021729,0.04713221
1942.30902466,0.04555127
1944.23783203,0.04634400
1946.16663940,0.04689148
1948.09544678,0.04676574
1950.02425415,0.04697923
1951.95306152,0.04690030
1953.88186890,0.04695231
1955.81067627,0.04682492
1957.73948364,0.04697283
1959.66829102,0.04669423
1961.59709839,0.04680209
1963.52590576,0.04707855
1965.45471313,0.04668313
1967.38352051,0.04624770
1969.31232788,0.04666599
1971.24113525,0.04711506
1973.16994263,0.04665710
1975.09875000,0.04682250
1977.02755737,0.04673676
1978.95636475,0.04683024
1980.88517212,0.04689015
1982.81397949,0.04653034
1984.74278687,0.04676773
1986.67159424,0.04632110
1988.60040161,0.04647584
1990.52920898,0.04628811
1992.45801636,0.04559539
1994.38682373,0.04622327
1996.31563110,0.04638545
1998.24443848,0.04630855
2000.17324585,0.04633626
2002.10205322,0.04617484
2004.03086060,0.04618581
2005.95966797,0.04611038
2007.88847534,0.04601049
2009.81728271,0.04595027
2011.74609009,0.04591183
2013.67489746,0.04587012
2015.60370483,0.04558442
2017.53251221,0.04530949
2019.46131958,0.04548469
2021.39012695,0.04542572
2023.31893433,0.04547875
2025.24774170,0.04556330
2027.17654907,0.04527891
2029.10535645,0.04534129
2031.03416382,0.04513839
2032.96297119,0.04511426
2034.89177856,0.04523795
2036.82058594,0.04493088
2038.74939331,0.04493365
2040.67820068,0.04485238
2042.60700806,0.04476197
2044.53581543,0.04483286
2046.46462280,0.04469768
2048.39343018,0.04454563
2050.32223755,0.04449505
2052.25104492,0.04454130
2054.17985229,0.04445643
2056.10865967,0.04438873
2058.03746704,0.04445067
2059.96627441,0.04433585
2061.89508179,0.04431478
2063.82388916,0.04417580
2065.75269653,0.04387347
2067.68150391,0.04401860
2069.61031128,0.04405208
2071.53911865,0.04395103
2073.46792603,0.04391574
2075.39673340,0.04371911
2077.32554077,0.04371851
2079.25434814,0.04366604
2081.18315552,0.04364923
2083.11196289,0.04372743
2085.04077026,0.04350421
2086.96957764,0.04338794
2088.89838501,0.04343478
2090.82719238,0.04327901
2092.75599976,0.04330838
2094.68480713,0.04340691
2096.61361450,0.04320898
2098.54242187,0.04316146
2100.47122925,0.04309544
2102.40003662,0.04306541
2104.32884399,0.04314082
2106.25765137,0.04311869
2108.18645874,0.04303055
2110.11526611,0.04289002
2112.04407349,0.04290212
2113.97288086,0.04265662
2115.90168823,0.04278534
2117.83049561,0.04298263
2119.75930298,0.04260378
2121.68811035,0.04270793
2123.61691772,0.04269847
2125.54572510,0.04253752
2127.47453247,0.04255778
2129.40333984,0.04249698
2131.33214722,0.04252034
2133.26095459,0.04253105
2135.18976196,0.04252797
2137.11856934,0.04247738
2139.04737671,0.04250849
2140.97618408,0.04232868
2142.90499146,0.04238513
2144.83379883,0.04248266
2146.76260620,0.04221424
2148.69141357,0.04234049
2150.62022095,0.04233925
2152.54902832,0.04224515
2154.47783569,0.04212127
2156.40664307,0.04206925
2158.33545044,0.04218091
2160.26425781,0.04203282
2162.19306519,0.04211663
2164.12187256,0.04207137
2166.05067993,0.04202507
2167.97948730,0.04215920
2169.90829468,0.04200526
2171.83710205,0.04190851
2173.76590942,0.04194804
2175.69471680,0.04198134
2177.62352417,0.04200190
2179.55233154,0.04200953
2181.48113892,0.04188868
2183.40994629,0.04174680
2185.33875366,0.04172168
2187.26756104,0.04182845
2189.19636841,0.04179188
2191.12517578,0.04171448
2193.05398315,0.04182167
2194.98279053,0.04171021
2196.91159790,0.04174935
2198.84040527,0.04169839
2200.76921265,0.04156021
2202.69802002,0.04170866
2204.62682739,0.04165846
2206.55563477,0.04172596
2208.48444214,0.04168990
2210.41324951,0.04148536
2212.34205688,0.04148282
2214.27086426,0.04148790
2216.19967163,0.04151443
2218.12847900,0.04140347
2220.05728638,0.04129796
2221.98609375,0.04141700
2223.91490112,0.04146083
2225.84370850,0.04131032
2227.77251587,0.04119009
2229.70132324,0.04117175
2231.63013062,0.04125521
2233.55893799,0.04125482
2235.48774536,0.04125329
2237.41655273,0.04125640
2239.34536011,0.04104792
2241.27416748,0.04113244
2243.20297485,0.04114778
2245.13178223,0.04090335
2247.06058960,0.04091926
2248.98939697,0.04094140
2250.91820435,0.04087105
2252.84701172,0.04084576
2254.77581909,0.04081208
2256.70462646,0.04069439
2258.63343384,0.04085845
2260.56224121,0.04086907
2262.49104858,0.04061687
2264.41985596,0.04072091
2266.34866333,0.04062743
2268.27747070,0.04054308
2270.20627808,0.04070403
2272.13508545,0.04066327
2274.06389282,0.04055186
2275.99270020,0.04059068
2277.92150757,0.04059317
2279.85031494,0.04048637
2281.77912231,0.04045825
2283.70792969,0.04034982
2285.63673706,0.04035531
2287.56554443,0.04029845
2289.49435181,0.04019152
2291.42315918,0.04018641
2293.35196655,0.04008526
2295.28077393,0.04009300
2297.20958130,0.03989316
2299.13838867,0.03981646
2301.06719604,0.03978879
2302.99600342,0.03949449
2304.92481079,0.03937312
2306.85361816,0.03916137
2308.78242554,0.03879945
2310.71123291,0.03838207
2312.64004028,0.03814634
2314.56884766,0.03786058
2316.49765503,0.03741738
2318.42646240,0.03705138
2320.35526978,0.03644204
2322.28407715,0.03601187
2324.21288452,0.03570799
2326.14169189,0.03519644
2328.07049927,0.03473629
2329.99930664,0.03433979
2331.92811401,0.03420310
2333.85692139,0.03422597
2335.78572876,0.03394918
2337.71453613,0.03378254
2339.64334351,0.03386142
2341.57215088,0.03399213
2343.50095825,0.03452172
2345.42976562,0.03515878
2347.35857300,0.03665325
2349.28738037,0.03797260
2351.21618774,0.03671921
2353.14499512,0.03478671
2355.07380249,0.03352337
2357.00260986,0.03253226
2358.93141724,0.03193488
2360.86022461,0.03154172
2362.78903198,0.03147541
2364.71783936,0.03170282
2366.64664673,0.03216540
2368.57545410,0.03271492
2370.50426147,0.03355858
2372.43306885,0.03451408
2374.36187622,0.03546095
2376.29068359,0.03655982
2378.21949097,0.03734020
2380.14829834,0.03810380
2382.07710571,0.03860059
2384.00591309,0.03873654
2385.93472046,0.03885902
2387.86352783,0.03891194
2389.79233521,0.03908299
2391.72114258,0.03895610
2393.64994995,0.03889668
2395.57875732,0.03896714
2397.50756470,0.03881076
2399.43637207,0.03884526
2401.36517944,0.03871718
2403.29398682,0.03865668
2405.22279419,0.03880884
2407.15160156,0.03870411
2409.08040894,0.03868385
2411.00921631,0.03874021
2412.93802368,0.03874066
2414.86683105,0.03864049
2416.79563843,0.03851022
2418.72444580,0.03862194
2420.65325317,0.03859800
2422.58206055,0.03843037
2424.51086792,0.03841414
2426.43967529,0.03849249
2428.36848267,0.03844200
2430.29729004,0.03828359
2432.22609741,0.03833380
2434.15490479,0.03827524
2436.08371216,0.03823385
2438.01251953,0.03832985
2439.94132690,0.03826645
2441.87013428,0.03819679
2443.79894165,0.03813760
2445.72774902,0.03817041
2447.65655640,0.03810333
2449.58536377,0.03808186
2451.51417114,0.03810170
2453.44297852,0.03799229
2455.37178589,0.03805016
2457.30059326,0.03791452
2459.22940063,0.03784672
2461.15820801,0.03798032
2463.08701538,0.03797020
2465.01582275,0.03794885
2466.94463013,0.03788055
2468.87343750,0.03780734
2470.80224487,0.03780145
2472.73105225,0.03783190
2474.65985962,0.03766266
2476.58866699,0.03760786
2478.51747437,0.03768862
2480.44628174,0.03759969
2482.37508911,0.03762493
2484.30389648,0.03759068
2486.23270386,0.03747960
2488.16151123,0.03747799
2490.09031860,0.03762931
2492.01912598,0.03759867
2493.94793335,0.03741333
2495.87674072,0.03746812
2497.80554810,0.03745725
2499.73435547,0.03740041
2501.66316284,0.03734449
2503.59197021,0.03729715
2505.52077759,0.03728882
2507.44958496,0.03730959
2509.37839233,0.03725134
2511.30719971,0.03714233
2513.23600708,0.03722072
2515.16481445,0.03717687
2517.09362183,0.03718264
2519.02242920,0.03714324
2520.95123657,0.03700088
2522.88004395,0.03698543
2524.80885132,0.03703966
2526.73765869,0.03706477
2528.66646606,0.03672701
2530.59527344,0.03669732
2532.52408081,0.03682139
2534.45288818,0.03676275
2536.38169556,0.03679112
2538.31050293,0.03666398
2540.23931030,0.03670577
2542.16811768,0.03670350
2544.09692505,0.03659419
2546.02573242,0.03657366
2547.95453979,0.03670420
2549.88334717,0.03668807
2551.81215454,0.03646939
2553.74096191,0.03654295
2555.66976929,0.03644893
2557.59857666,0.03642980
2559.52738403,0.03642827
2561.45619141,0.03638785
2563.38499878,0.03641961
2565.31380615,0.03631086
2567.24261353,0.03646503
2569.17142090,0.03630512
2571.10022827,0.03624763
2573.02903564,0.03632607
2574.95784302,0.03615538
2576.88665039,0.03625721
2578.81545776,0.03613020
2580.74426514,0.03609237
2582.67307251,0.03618070
2584.60187988,0.03609602
2586.53068726,0.03604939
2588.45949463,0.03601126
2590.38830200,0.03594004
2592.31710937,0.03584952
2594.24591675,0.03596990
2596.17472412,0.03590254
2598.10353149,0.03576102
2600.03233887,0.03579788
2601.96114624,0.03585592
2603.88995361,0.03579376
2605.81876099,0.03561593
2607.74756836,0.03572172
2609.67637573,0.03571063
2611.60518311,0.03564874
2613.53399048,0.03566270
2615.46279785,0.03555610
2617.39160522,0.03552423
2619.32041260,0.03555098
2621.24921997,0.03557200
2623.17802734,0.03532808
2625.10683472,0.03534601
2627.03564209,0.03548490
2628.96444946,0.03527729
2630.89325684,0.03527822
2632.82206421,0.03531163
2634.75087158,0.03528842
2636.67967895,0.03522576
2638.60848633,0.03517498
2640.53729370,0.03519953
2642.46610107,0.03516471
2644.39490845,0.03520140
2646.32371582,0.03510734
2648.25252319,0.03506591
2650.18133057,0.03511937
2652.11013794,0.03499734
2654.03894531,0.03492190
2655.96775269,0.03488383
2657.89656006,0.03486636
2659.82536743,0.03487711
2661.75417480,0.03483128
2663.68298218,0.03476844
2665.61178955,0.03469877
2667.54059692,0.03468329
2669.46940430,0.03466535
2671.39821167,0.03464190
2673.32701904,0.03462839
2675.25582642,0.03453784
2677.18463379,0.03453198
2679.11344116,0.03447863
2681.04224854,0.03439566
2682.97105591,0.03444465
2684.89986328,0.03433627
2686.82867065,0.03431616
2688.75747803,0.03434142
2690.68628540,0.03420743
2692.61509277,0.03427795
2694.54390015,0.03435535
2696.47270752,0.03420077
2698.40151489,0.03405423
2700.33032227,0.03412857
2702.25912964,0.03411838
2704.18793701,0.03397999
2706.11674438,0.03404516
2708.04555176,0.03403574
2709.97435913,0.03397832
2711.90316650,0.03400059
2713.83197388,0.03394713
2715.76078125,0.03381201
2717.68958862,0.03368523
2719.61839600,0.03374492
2721.54720337,0.03374462
2723.47601074,0.03370865
2725.40481812,0.03373390
2727.33362549,0.03360170
2729.26243286,0.03354787
2731.19124023,0.03349866
2733.12004761,0.03344516
2735.04885498,0.03350917
2736.97766235,0.03350691
2738.90646973,0.03353472
2740.83527710,0.03341477
2742.76408447,0.03321720
2744.69289185,0.03329184
2746.62169922,0.03341378
2748.55050659,0.03325460
2750.47931396,0.03303903
2752.40812134,0.03312729
2754.33692871,0.03314803
2756.26573608,0.03310457
2758.19454346,0.03305780
2760.12335083,0.03289020
2762.05215820,0.03296676
2763.98096558,0.03297824
2765.90977295,0.03284694
2767.83858032,0.03281294
2769.76738770,0.03275114
2771.69619507,0.03265963
2773.62500244,0.03268135
2775.55380981,0.03273927
2777.48261719,0.03260747
2779.41142456,0.03269164
2781.34023193,0.03264965
2783.26903931,0.03240354
2785.19784668,0.03248789
2787.12665405,0.03239030
2789.05546143,0.03234351
2790.98426880,0.03239792
2792.91307617,0.03222474
2794.84188354,0.03217725
2796.77069092,0.03219491
2798.69949829,0.03217031
2800.62830566,0.03211861
2802.55711304,0.03210708
2804.48592041,0.03211191
2806.41472778,0.03196646
2808.34353516,0.03181880
2810.27234253,0.03183882
2812.20114990,0.03178215
2814.12995728,0.03173225
2816.05876465,0.03179521
2817.98757202,0.03169054
2819.91637939,0.03158905
2821.84518677,0.03154798
2823.77399414,0.03158614
2825.70280151,0.03150694
2827.63160889,0.03137180
2829.56041626,0.03145984
2831.48922363,0.03132242
2833.41803101,0.03117926
2835.34683838,0.03119275
2837.27564575,0.03118890
2839.20445312,0.03106197
2841.13326050,0.03090917
2843.06206787,0.03091353
2844.99087524,0.03072983
2846.91968262,0.03066048
2848.84848999,0.03057778
2850.77729736,0.03039435
2852.70610474,0.03044175
2854.63491211,0.03039894
2856.56371948,0.03028498
2858.49252686,0.03030826
2860.42133423,0.03043852
2862.35014160,0.03023530
2864.27894897,0.03010267
2866.20775635,0.03020444
2868.13656372,0.03010197
2870.06537109,0.03010904
2871.99417847,0.03002592
2873.92298584,0.03004126
2875.85179321,0.03007261
2877.78060059,0.02996486
2879.70940796,0.02996675
2881.63821533,0.02982060
2883.56702270,0.02981441
2885.49583008,0.02980781
2887.42463745,0.02970570
2889.35344482,0.02961602
2891.28225220,0.02960370
2893.21105957,0.02967083
2895.13986694,0.02945900
2897.06867432,0.02947229
2898.99748169,0.02940359
2900.92628906,0.02914759
2902.85509644,0.02930939
2904.78390381,0.02924047
2906.71271118,0.02904936
2908.64151855,0.02896750
2910.57032593,0.02888501
2912.49913330,0.02891858
2914.42794067,0.02866195
2916.35674805,0.02850803
2918.28555542,0.02848602
2920.21436279,0.02834557
2922.14317017,0.02845398
2924.07197754,0.02842605
2926.00078491,0.02839684
2927.92959229,0.02836948
2929.85839966,0.02826558
2931.78720703,0.02835972
2933.71601440,0.02823018
2935.64482178,0.02824178
2937.57362915,0.02827382
2939.50243652,0.02811082
2941.43124390,0.02818257
2943.36005127,0.02822266
2945.28885864,0.02823872
2947.21766602,0.02812172
2949.14647339,0.02800060
2951.07528076,0.02804975
2953.00408813,0.02800049
2954.93289551,0.02787734
2956.86170288,0.02775677
2958.79051025,0.02770384
2960.71931763,0.02766244
2962.64812500,0.02759299
2964.57693237,0.02745072
2966.50573975,0.02744282
2968.43454712,0.02750374
2970.36335449,0.02749361
2972.29216187,0.02754205
2974.22096924,0.02751003
2976.14977661,0.02754258
2978.07858398,0.02753604
2980.00739136,0.02752510
2981.93619873,0.02752663
2983.86500610,0.02744074
2985.79381348,0.02735616
2987.72262085,0.02726129
2989.65142822,0.02735607
2991.58023560,0.02723975
2993.50904297,0.02711396
2995.43785034,0.02714347
2997.36665771,0.02710688
2999.29546509,0.02718480
3001.22427246,0.02700851
3003.15307983,0.02686195
3005.08188721,0.02678620
3007.01069458,0.02679599
3008.93950195,0.02686015
3010.86830933,0.02661600
3012.79711670,0.02660557
3014.72592407,0.02662067
3016.65473145,0.02656491
3018.58353882,0.02653746
3020.51234619,0.02633816
3022.44115356,0.02628089
3024.36996094,0.02625792
3026.29876831,0.02616322
3028.22757568,0.02607520
3030.15638306,0.02598756
3032.08519043,0.02597343
3034.01399780,0.02597932
3035.94280518,0.02585212
3037.87161255,0.02579367
3039.80041992,0.02585263
3041.72922729,0.02568354
3043.65803467,0.02549439
3045.58684204,0.02554351
3047.51564941,0.02553649
3049.44445679,0.02537046
3051.37326416,0.02531985
3053.30207153,0.02527535
3055.23087891,0.02525771
3057.15968628,0.02523834
3059.08849365,0.02507734
3061.01730103,0.02505923
3062.94610840,0.02497402
3064.87491577,0.02489839
3066.80372314,0.02490610
3068.73253052,0.02481054
3070.66133789,0.02468604
3072.59014526,0.02455399
3074.51895264,0.02456094
3076.44776001,0.02444987
3078.37656738,0.02440996
3080.30537476,0.02442254
3082.23418213,0.02426744
3084.16298950,0.02426269
3086.09179687,0.02418908
3088.02060425,0.02414359
3089.94941162,0.02404774
3091.87821899,0.02393246
3093.80702637,0.02393944
3095.73583374,0.02372817
3097.66464111,0.02364549
3099.59344849,0.02358196
3101.52225586,0.02346455
3103.45106323,0.02357547
3105.37987061,0.02349004
3107.30867798,0.02327190
3109.23748535,0.02321987
3111.16629272,0.02322302
3113.09510010,0.02308004
3115.02390747,0.02288213
3116.95271484,0.02288316
3118.88152222,0.02282303
3120.81032959,0.02276729
3122.73913696,0.02271476
3124.66794434,0.02256618
3126.59675171,0.02254984
3128.52555908,0.02239753
3130.45436645,0.02237625
3132.38317383,0.02229170
3134.31198120,0.02206042
3136.24078857,0.02214640
3138.16959595,0.02201045
3140.09840332,0.02193541
3142.02721069,0.02187029
3143.95601807,0.02168265
3145.88482544,0.02162908
3147.81363281,0.02149169
3149.74244019,0.02148530
3151.67124756,0.02136040
3153.60005493,0.02129487
3155.52886230,0.02120485
3157.45766968,0.02109867
3159.38647705,0.02111735
3161.31528442,0.02081884
3163.24409180,0.02075353
3165.17289917,0.02077423
3167.10170654,0.02076741
3169.03051392,0.02068446
3170.95932129,0.02040620
3172.88812866,0.02036865
3174.81693604,0.02024394
3176.74574341,0.02015755
3178.67455078,0.02013828
3180.60335815,0.02002070
3182.53216553,0.02002508
3184.46097290,0.02006257
3186.38978027,0.01986093
3188.31858765,0.01973432
3190.24739502,0.01978403
3192.17620239,0.01956107
3194.10500977,0.01952257
3196.03381714,0.01947841
3197.96262451,0.01934336
3199.89143188,0.01932502
3201.82023926,0.01918090
3203.74904663,0.01916861
3205.67785400,0.01910658
3207.60666138,0.01907116
3209.53546875,0.01898061
3211.46427612,0.01889621
3213.39308350,0.01894978
3215.32189087,0.01881538
3217.25069824,0.01873241
3219.17950562,0.01863993
3221.10831299,0.01856287
3223.03712036,0.01859753
3224.96592773,0.01858555
3226.89473511,0.01845506
3228.82354248,0.01841300
3230.75234985,0.01844824
3232.68115723,0.01839833
3234.60996460,0.01835851
3236.53877197,0.01823130
3238.46757935,0.01830809
3240.39638672,0.01829740
3242.32519409,0.01814909
3244.25400146,0.01816013
3246.18280884,0.01810876
3248.11161621,0.01814024
3250.04042358,0.01812302
3251.96923096,0.01814320
3253.89803833,0.01807220
3255.82684570,0.01796572
3257.75565308,0.01800888
3259.68446045,0.01794663
3261.61326782,0.01793597
3263.54207520,0.01793782
3265.47088257,0.01786422
3267.39968994,0.01776205
3269.32849731,0.01788040
3271.25730469,0.01790484
3273.18611206,0.01778779
3275.11491943,0.01777501
3277.04372681,0.01770863
3278.97253418,0.01775351
3280.90134155,0.01768251
3282.83014893,0.01776819
3284.75895630,0.01778851
3286.68776367,0.01764826
3288.61657104,0.01767031
3290.54537842,0.01754681
3292.47418579,0.01756326
3294.40299316,0.01760841
3296.33180054,0.01769840
3298.26060791,0.01762072
3300.18941528,0.01751473
3302.11822266,0.01760501
3304.04703003,0.01755425
3305.97583740,0.01758600
3307.90464478,0.01743651
3309.83345215,0.01741935
3311.76225952,0.01743078
3313.69106689,0.01737456
3315.61987427,0.01748239
3317.54868164,0.01741810
3319.47748901,0.01737662
3321.40629639,0.01729771
3323.33510376,0.01733644
3325.26391113,0.01726673
3327.19271851,0.01716537
3329.12152588,0.01722337
3331.05033325,0.01724428
3332.97914062,0.01734933
3334.90794800,0.01726776
3336.83675537,0.01719805
3338.76556274,0.01713364
3340.69437012,0.01714109
3342.62317749,0.01713950
3344.55198486,0.01708124
3346.48079224,0.01708901
3348.40959961,0.01702562
3350.33840698,0.01708525
3352.26721436,0.01704767
3354.19602173,0.01708318
3356.12482910,0.01692542
3358.05363647,0.01685749
3359.98244385,0.01699100
3361.91125122,0.01682518
3363.84005859,0.01687036
3365.76886597,0.01686844
3367.69767334,0.01692538
3369.62648071,0.01678118
3371.55528809,0.01679531
3373.48409546,0.01706821
3375.41290283,0.01679997
3377.34171020,0.01679835
3379.27051758,0.01684765
3381.19932495,0.01679672
3383.12813232,0.01676472
3385.05693970,0.01677726
3386.98574707,0.01679312
3388.91455444,0.01679670
3390.84336182,0.01696589
3392.77216919,0.01680501
3394.70097656,0.01681697
3396.62978394,0.01672785
3398.55859131,0.01665036
3400.48739868,0.01674456
3402.41620605,0.01665412
3404.34501343,0.01679780
3406.27382080,0.01673017
3408.20262817,0.01678859
3410.13143555,0.01684520
3412.06024292,0.01676357
3413.98905029,0.01678329
3415.91785767,0.01680644
3417.84666504,0.01689052
3419.77547241,0.01670993
3421.70427979,0.01669266
3423.63308716,0.01681017
3425.56189453,0.01687851
3427.49070190,0.01676097
3429.41950928,0.01681392
3431.34831665,0.01697095
3433.27712402,0.01678642
3435.20593140,0.01688283
3437.13473877,0.01682816
3439.06354614,0.01684415
3440.99235352,0.01681759
3442.92116089,0.01674139
3444.84996826,0.01693902
3446.77877563,0.01669588
3448.70758301,0.01679173
3450.63639038,0.01704101
3452.56519775,0.01689573
3454.49400513,0.01689189
3456.42281250,0.01706489
3458.35161987,0.01708162
3460.28042725,0.01692724
3462.20923462,0.01695350
3464.13804199,0.01707618
3466.06684937,0.01706035
3467.99565674,0.01696350
3469.92446411,0.01712874
3471.85327148,0.01712865
3473.78207886,0.01709116
3475.71088623,0.01714553
3477.63969360,0.01716474
3479.56850098,0.01728881
3481.49730835,0.01705670
3483.42611572,0.01718307
3485.35492310,0.01730988
3487.28373047,0.01720588
3489.21253784,0.01726439
3491.14134521,0.01718703
3493.07015259,0.01737095
3494.99895996,0.01741394
3496.92776733,0.01734572
3498.85657471,0.01738957
3500.78538208,0.01750172
3502.71418945,0.01725839
3504.64299683,0.01723906
3506.57180420,0.01764978
3508.50061157,0.01732013
3510.42941895,0.01742600
3512.35822632,0.01766129
3514.28703369,0.01763804
3516.21584106,0.01776145
3518.14464844,0.01759813
3520.07345581,0.01767205
3522.00226318,0.01760026
3523.93107056,0.01748145
3525.85987793,0.01749445
3527.78868530,0.01754957
3529.71749268,0.01758903
3531.64630005,0.01778320
3533.57510742,0.01812613
3535.50391479,0.01787838
3537.43272217,0.01777435
3539.36152954,0.01800068
3541.29033691,0.01809343
3543.21914429,0.01800508
3545.14795166,0.01754188
3547.07675903,0.01729094
3549.00556641,0.01795180
3550.93437378,0.01809491
3552.86318115,0.01768699
3554.79198853,0.01815294
3556.72079590,0.01818682
3558.64960327,0.01819183
3560.57841064,0.01810895
3562.50721802,0.01793676
3564.43602539,0.01817120
3566.36483276,0.01691996
3568.29364014,0.01645186
3570.22244751,0.01789241
3572.15125488,0.01849390
3574.08006226,0.01829943
3576.00886963,0.01835473
3577.93767700,0.01831906
3579.86648437,0.01833989
3581.79529175,0.01836878
3583.72409912,0.01839844
3585.65290649,0.01808745
3587.58171387,0.01658613
3589.51052124,0.01712799
3591.43932861,0.01862992
3593.36813599,0.01814612
3595.29694336,0.01789736
3597.22575073,0.01817294
3599.15455811,0.01850998
3601.08336548,0.01828539
3603.01217285,0.01841521
3604.94098022,0.01874617
3606.86978760,0.01807564
3608.79859497,0.01710064
3610.72740234,0.01742668
3612.65620972,0.01805394
3614.58501709,0.01748470
3616.51382446,0.01870203
3618.44263184,0.01744647
3620.37143921,0.01672293
3622.30024658,0.01893010
3624.22905395,0.01842102
3626.15786133,0.01944086
3628.08666870,0.01651899
3630.01547607,0.01482061
3631.94428345,0.01884589
3633.87309082,0.01841391
3635.80189819,0.01868703
3637.73070557,0.01913431
3639.65951294,0.01887061
3641.58832031,0.01909439
3643.51712769,0.01883372
3645.44593506,0.01898325
3647.37474243,0.01707880
3649.30354980,0.01569119
3651.23235718,0.01584619
3653.16116455,0.01894779
3655.08997192,0.01886967
3657.01877930,0.01691369
3658.94758667,0.01941835
3660.87639404,0.01907539
3662.80520142,0.01936349
3664.73400879,0.01924902
3666.66281616,0.01917909
3668.59162354,0.01867888
3670.52043091,0.01511442
3672.44923828,0.01839514
3674.37804565,0.01763156
3676.30685303,0.01444675
3678.23566040,0.01830613
3680.16446777,0.01885789
3682.09327515,0.01878121
3684.02208252,0.01943325
3685.95088989,0.01914450
3687.87969727,0.01723500
3689.80850464,0.01576420
3691.73731201,0.01792050
3693.66611938,0.01858435
3695.59492676,0.01911701
3697.52373413,0.01907002
3699.45254150,0.01889608
3701.38134888,0.01843922
3703.31015625,0.01767587
3705.23896362,0.01962270
3707.16777100,0.01863001
3709.09657837,0.01805931
3711.02538574,0.01715226
3712.95419312,0.01590677
3714.88300049,0.01876670
3716.81180786,0.01857600
3718.74061523,0.01857660
3720.66942261,0.01832448
3722.59822998,0.01770481
3724.52703735,0.01837291
3726.45584473,0.01701271
3728.38465210,0.01839497
3730.31345947,0.01817356
3732.24226685,0.01669638
3734.17107422,0.01633108
3736.09988159,0.01548410
3738.02868896,0.01652259
3739.95749634,0.01781519
3741.88630371,0.01867737
3743.81511108,0.01455502
3745.74391846,0.01351870
3747.67272583,0.01775041
3749.60153320,0.01526170
3751.53034058,0.01395367
3753.45914795,0.01618408
3755.38795532,0.01738771
3757.31676270,0.01810845
3759.24557007,0.01675731
3761.17437744,0.01735995
3763.10318481,0.01852879
3765.03199219,0.01731772
3766.96079956,0.01768286
3768.88960693,0.01738529
3770.81841431,0.01657749
3772.74722168,0.01796111
3774.67602905,0.01797691
3776.60483643,0.01813563
3778.53364380,0.01763317
3780.46245117,0.01688499
3782.39125854,0.01799188
3784.32006592,0.01752888
3786.24887329,0.01753117
3788.17768066,0.01784260
3790.10648804,0.01774760
3792.03529541,0.01773939
3793.96410278,0.01799379
3795.89291016,0.01700608
3797.82171753,0.01667296
3799.75052490,0.01756800
3801.67933228,0.01404119
3803.60813965,0.01633212
3805.53694702,0.01775862
3807.46575439,0.01438514
3809.39456177,0.01743704
3811.32336914,0.01722525
3813.25217651,0.01787401
3815.18098389,0.01619915
3817.10979126,0.01409377
3819.03859863,0.01782668
3820.96740601,0.01442362
3822.89621338,0.01509885
3824.82502075,0.01773385
3826.75382812,0.01601656
3828.68263550,0.01722937
3830.61144287,0.01652581
3832.54025024,0.01598527
3834.46905762,0.01640619
3836.39786499,0.01559788
3838.32667236,0.01409837
3840.25547974,0.01522702
3842.18428711,0.01650726
3844.11309448,0.01573864
3846.04190186,0.01699236
3847.97070923,0.01681981
3849.89951660,0.01679225
3851.82832397,0.01517242
3853.75713135,0.01130632
3855.68593872,0.01327042
3857.61474609,0.01684271
3859.54355347,0.01641099
3861.47236084,0.01613047
3863.40116821,0.01581623
3865.32997559,0.01473471
3867.25878296,0.01647359
3869.18759033,0.01509134
3871.11639770,0.01392568
3873.04520508,0.01640453
3874.97401245,0.01505227
3876.90281982,0.01638687
3878.83162720,0.01680959
3880.76043457,0.01424764
3882.68924194,0.01634199
3884.61804932,0.01545248
3886.54685669,0.01409711
3888.47566406,0.01650830
3890.40447144,0.01568386
3892.33327881,0.01458921
3894.26208618,0.01609623
3896.19089355,0.01645887
3898.11970093,0.01559281
3900.04850830,0.01468235
3901.97731567,0.01448314
3903.90612305,0.01438181
3905.83493042,0.01461362
3907.76373779,0.01604227
3909.69254517,0.01607672
3911.62135254,0.01588362
3913.55015991,0.01620590
3915.47896728,0.01567679
3917.40777466,0.01522820
3919.33658203,0.01508067
3921.26538940,0.01564257
3923.19419678,0.01559608
3925.12300415,0.01525316
3927.05181152,0.01557909
3928.98061890,0.01576317
3930.90942627,0.01542127
3932.83823364,0.01488842
3934.76704102,0.01550484
3936.69584839,0.01572892
3938.62465576,0.01556566
3940.55346313,0.01568206
3942.48227051,0.01509215
3944.41107788,0.01518236
3946.33988525,0.01550382
3948.26869263,0.01512236
3950.19750000,0.01510304
3952.12630737,0.01541402
3954.05511475,0.01540863
3955.98392212,0.01538183
3957.91272949,0.01533508
3959.84153687,0.01532289
3961.77034424,0.01520036
3963.69915161,0.01503388
3965.62795898,0.01529151
3967.55676636,0.01514190
3969.48557373,0.01509253
3971.41438110,0.01519134
3973.34318848,0.01505463
3975.27199585,0.01505786
3977.20080322,0.01495019
3979.12961060,0.01506989
3981.05841797,0.01504218
3982.98722534,0.01498928
3984.91603271,0.01498613
3986.84484009,0.01492909
3988.77364746,0.01493870
3990.70245483,0.01484931
3992.63126221,0.01495917
3994.56006958,0.01485512
3996.48887695,0.01481899
3998.41768433,0.01484654
4000.34649170,0.01478655
4002.27529907,0.01479728
4004.20410645,0.01473219
4006.13291382,0.01481485
4008.06172119,0.01479045
4009.99052856,0.01472374
4011.91933594,0.01460202
4013.84814331,0.01460586
4015.77695068,0.01459689
4017.70575806,0.01456217
4019.63456543,0.01461812
4021.56337280,0.01446678
4023.49218018,0.01450175
4025.42098755,0.01438849
4027.34979492,0.01444109
4029.27860229,0.01451330
4031.20740967,0.01437412
4033.13621704,0.01445653
4035.06502441,0.01437620
4036.99383179,0.01444467
4038.92263916,0.01431937
4040.85144653,0.01418427
4042.78025391,0.01423239
4044.70906128,0.01417215
4046.63786865,0.01427751
4048.56667603,0.01421051
4050.49548340,0.01415863
4052.42429077,0.01418220
4054.35309814,0.01413959
4056.28190552,0.01406688
4058.21071289,0.01405798
4060.13952026,0.01399295
4062.06832764,0.01396542
4063.99713501,0.01404861
4065.92594238,0.01387538
4067.85474976,0.01387889
4069.78355713,0.01382820
4071.71236450,0.01376252
4073.64117187,0.01379932
4075.56997925,0.01374628
4077.49878662,0.01385080
4079.42759399,0.01377305
4081.35640137,0.01373916
4083.28520874,0.01370221
4085.21401611,0.01365317
4087.14282349,0.01366463
4089.07163086,0.01358418
4091.00043823,0.01362896
4092.92924561,0.01363804
4094.85805298,0.01360845
4096.78686035,0.01352639
4098.71566772,0.01358771
4100.64447510,0.01361525
4102.57328247,0.01347920
4104.50208984,0.01341385
4106.43089722,0.01331069
4108.35970459,0.01330600
4110.28851196,0.01332995
4112.21731934,0.01334938
4114.14612671,0.01331511
4116.07493408,0.01329704
4118.00374145,0.01322630
4119.93254883,0.01320385
4121.86135620,0.01325276
4123.79016357,0.01306435
4125.71897095,0.01317474
4127.64777832,0.01321930
4129.57658569,0.01307802
4131.50539307,0.01315152
4133.43420044,0.01306912
4135.36300781,0.01303299
4137.29181519,0.01310105
4139.22062256,0.01303395
4141.14942993,0.01293518
4143.07823730,0.01298127
4145.00704468,0.01293953
4146.93585205,0.01289350
4148.86465942,0.01287687
4150.79346680,0.01279576
4152.72227417,0.01286132
4154.65108154,0.01280859
4156.57988892,0.01279373
4158.50869629,0.01277822
4160.43750366,0.01274370
4162.36631103,0.01277161
4164.29511841,0.01267145
4166.22392578,0.01267696
4168.15273315,0.01268330
4170.08154053,0.01268982
4172.01034790,0.01265561
4173.93915527,0.01261743
4175.86796265,0.01257883
4177.79677002,0.01256780
4179.72557739,0.01262508
4181.65438477,0.01245970
4183.58319214,0.01246842
4185.51199951,0.01251413
4187.44080688,0.01246945
4189.36961426,0.01246419
4191.29842163,0.01240636
4193.22722900,0.01242467
4195.15603638,0.01227510
4197.08484375,0.01223894
4199.01365112,0.01228322
4200.94245850,0.01223204
4202.87126587,0.01224842
4204.80007324,0.01218153
4206.72888062,0.01214095
4208.65768799,0.01214124
4210.58649536,0.01216148
4212.51530273,0.01209949
4214.44411011,0.01207612
4216.37291748,0.01208008
4218.30172485,0.01201268
4220.23053223,0.01210070
4222.15933960,0.01197722
4224.08814697,0.01188391
4226.01695435,0.01203460
4227.94576172,0.01192783
4229.87456909,0.01187979
4231.80337646,0.01192214
4233.73218384,0.01185633
4235.66099121,0.01186202
4237.58979858,0.01181609
4239.51860596,0.01179208
4241.44741333,0.01179375
4243.37622070,0.01180458
4245.30502808,0.01180239
4247.23383545,0.01165133
4249.16264282,0.01165842
4251.09145020,0.01170625
4253.02025757,0.01169298
4254.94906494,0.01170838
4256.87787231,0.01162760
4258.80667969,0.01162729
4260.73548706,0.01162141
4262.66429443,0.01155694
4264.59310181,0.01148282
4266.52190918,0.01147474
4268.45071655,0.01153153
4270.37952393,0.01146573
4272.30833130,0.01145017
4274.23713867,0.01144479
4276.16594604,0.01140625
4278.09475342,0.01139150
4280.02356079,0.01131519
4281.95236816,0.01133192
4283.88117554,0.01135761
4285.80998291,0.01127051
4287.73879028,0.01131529
4289.66759766,0.01129197
4291.59640503,0.01118491
4293.52521240,0.01124635
4295.45401978,0.01113003
4297.38282715,0.01113884
4299.31163452,0.01121751
4301.24044189,0.01102275
4303.16924927,0.01104604
4305.09805664,0.01108725
4307.02686401,0.01106796
4308.95567139,0.01108047
4310.88447876,0.01103348
4312.81328613,0.01098195
4314.74209351,0.01090428
4316.67090088,0.01090016
4318.59970825,0.01088491
4320.52851562,0.01089469
4322.45732300,0.01086375
4324.38613037,0.01089786
4326.31493774,0.01092319
4328.24374512,0.01075257
4330.17255249,0.01084146
4332.10135986,0.01087363
4334.03016724,0.01070044
4335.95897461,0.01071542
4337.88778198,0.01070196
4339.81658936,0.01068733
4341.74539673,0.01071503
4343.67420410,0.01065313
4345.60301147,0.01065532
4347.53181885,0.01059219
4349.46062622,0.01051778
4351.38943359,0.01056969
4353.31824097,0.01053720
4355.24704834,0.01058946
4357.17585571,0.01051547
4359.10466309,0.01040206
4361.03347046,0.01050764
4362.96227783,0.01046620
4364.89108520,0.01042557
4366.81989258,0.01041407
4368.74869995,0.01040520
4370.67750732,0.01033874
4372.60631470,0.01032414
4374.53512207,0.01037047
4376.46392944,0.01026684
4378.39273682,0.01027581
4380.32154419,0.01019452
4382.25035156,0.01024974
4384.17915894,0.01031033
4386.10796631,0.01016177
4388.03677368,0.01020142
4389.96558105,0.01013162
4391.89438843,0.01009876
4393.82319580,0.01009553
4395.75200317,0.01008266
4397.68081055,0.01009842
4399.60961792,0.01002179
4401.53842529,0.01003714
4403.46723267,0.01005347
4405.39604004,0.01004982
4407.32484741,0.00996275
4409.25365478,0.00993720
4411.18246216,0.00992889
4413.11126953,0.00992639
4415.04007690,0.00993198
4416.96888428,0.00986692
4418.89769165,0.00997507
4420.82649902,0.00986831
4422.75530640,0.00977539
4424.68411377,0.00985482
4426.61292114,0.00979176
4428.54172852,0.00979711
4430.47053589,0.00981859
4432.39934326,0.00975614
4434.32815063,0.00962205
4436.25695801,0.00966277
4438.18576538,0.00969965
4440.11457275,0.00965630
4442.04338013,0.00960458
4443.97218750,0.00950891
4445.90099487,0.00961595
4447.82980225,0.00955135
4449.75860962,0.00948719
4451.68741699,0.00953533
4453.61622437,0.00944429
4455.54503174,0.00947649
4457.47383911,0.00947279
4459.40264648,0.00948223
4461.33145386,0.00952713
4463.26026123,0.00942105
4465.18906860,0.00938829
4467.11787598,0.00942032
4469.04668335,0.00935960
4470.97549072,0.00935426
4472.90429810,0.00934816
4474.83310547,0.00932766
4476.76191284,0.00931143
4478.69072021,0.00922073
4480.61952759,0.00925540
4482.54833496,0.00926670
4484.47714233,0.00924509
4486.40594971,0.00916536
4488.33475708,0.00910565
4490.26356445,0.00921582
4492.19237183,0.00912179
4494.12117920,0.00910681
4496.04998657,0.00915606
4497.97879395,0.00913059
4499.90760132,0.00913929
4501.83640869,0.00904060
4503.76521606,0.00903154
4505.69402344,0.00900272
4507.62283081,0.00899021
4509.55163818,0.00900494
4511.48044556,0.00897741
4513.40925293,0.00897362
4515.33806030,0.00887359
4517.26686768,0.00888471
4519.19567505,0.00894460
4521.12448242,0.00883370
4523.05328979,0.00878653
4524.98209717,0.00888620
4526.91090454,0.00883761
4528.83971191,0.00879278
4530.76851929,0.00881140
4532.69732666,0.00867863
4534.62613403,0.00867118
4536.55494141,0.00871055
4538.48374878,0.00869296
4540.41255615,0.00868034
4542.34136353,0.00861356
4544.27017090,0.00858480
4546.19897827,0.00859172
4548.12778564,0.00860161
4550.05659302,0.00859391
4551.98540039,0.00858398
4553.91420776,0.00853026
4555.84301514,0.00850494
4557.77182251,0.00852129
4559.70062988,0.00849124
4561.62943726,0.00845595
4563.55824463,0.00842720
4565.48705200,0.00844371
4567.41585937,0.00844129
4569.34466675,0.00843662
4571.27347412,0.00842025
4573.20228149,0.00836126
4575.13108887,0.00833686
4577.05989624,0.00836822
4578.98870361,0.00836242
4580.91751099,0.00832417
4582.84631836,0.00837283
4584.77512573,0.00831730
4586.70393311,0.00827960
4588.63274048,0.00826429
4590.56154785,0.00817354
4592.49035522,0.00817716
4594.41916260,0.00813073
4596.34796997,0.00815382
4598.27677734,0.00815053
4600.20558472,0.00811498
4602.13439209,0.00817110
4604.06319946,0.00808851
4605.99200684,0.00802129
4607.92081421,0.00803804
4609.84962158,0.00806711
4611.77842895,0.00806723
4613.70723633,0.00806473
4615.63604370,0.00800382
4617.56485107,0.00789006
4619.49365845,0.00794927
4621.42246582,0.00799252
4623.35127319,0.00791432
4625.28008057,0.00787253
4627.20888794,0.00788676
4629.13769531,0.00787636
4631.06650269,0.00786582
4632.99531006,0.00783739
4634.92411743,0.00774927
4636.85292480,0.00778289
4638.78173218,0.00784819
4640.71053955,0.00779213
4642.63934692,0.00780993
4644.56815430,0.00785875
4646.49696167,0.00774923
4648.42576904,0.00773914
4650.35457642,0.00774002
4652.28338379,0.00767476
4654.21219116,0.00771083
4656.14099853,0.00766722
4658.06980591,0.00771388
4659.99861328,0.00766963
4661.92742065,0.00757280
4663.85622803,0.00763850
4665.78503540,0.00759787
4667.71384277,0.00762368
4669.64265015,0.00759832
4671.57145752,0.00757142
4673.50026489,0.00756841
4675.42907227,0.00748066
4677.35787964,0.00749603
4679.28668701,0.00746643
4681.21549438,0.00742254
4683.14430176,0.00743290
4685.07310913,0.00747489
4687.00191650,0.00738884
4688.93072388,0.00736397
4690.85953125,0.00746089
4692.78833862,0.00740308
4694.71714600,0.00739273
4696.64595337,0.00732680
4698.57476074,0.00734608
4700.50356812,0.00736370
4702.43237549,0.00728032
4704.36118286,0.00728790
4706.28999023,0.00716974
4708.21879761,0.00724987
4710.14760498,0.00725983
4712.07641235,0.00710374
4714.00521973,0.00719529
4715.93402710,0.00722140
4717.86283447,0.00721877
4719.79164185,0.00714504
4721.72044922,0.00707464
4723.64925659,0.00718235
4725.57806396,0.00713815
4727.50687134,0.00702611
4729.43567871,0.00704712
4731.36448608,0.00703665
4733.29329346,0.00700917
4735.22210083,0.00707590
4737.15090820,0.00705855
4739.07971558,0.00698069
4741.00852295,0.00696378
4742.93733032,0.00693131
4744.86613770,0.00697616
4746.79494507,0.00700998
4748.72375244,0.00691640
4750.65255981,0.00692437
4752.58136719,0.00698433
4754.51017456,0.00688159
4756.43898193,0.00680693
4758.36778931,0.00689436
4760.29659668,0.00685274
4762.22540405,0.00674277
4764.15421143,0.00681209
4766.08301880,0.00678132
4768.01182617,0.00675513
4769.94063354,0.00681767
4771.86944092,0.00671893
4773.79824829,0.00672928
4775.72705566,0.00677214
4777.65586304,0.00671817
4779.58467041,0.00672196
4781.51347778,0.00669852
4783.44228516,0.00665858
4785.37109253,0.00660111
4787.29989990,0.00660838
4789.22870728,0.00668244
4791.15751465,0.00663357
4793.08632202,0.00655605
4795.01512939,0.00658282
4796.94393677,0.00653579
4798.87274414,0.00650623
4800.80155151,0.00654604
4802.73035889,0.00644699
4804.65916626,0.00650689
4806.58797363,0.00657609
4808.51678101,0.00646339
4810.44558838,0.00646512
4812.37439575,0.00644559
4814.30320312,0.00643417
4816.23201050,0.00649714
4818.16081787,0.00651953
4820.08962524,0.00645500
4822.01843262,0.00643389
4823.94723999,0.00649862
4825.87604736,0.00641966
4827.80485474,0.00633417
4829.73366211,0.00633656
4831.66246948,0.00637783
4833.59127686,0.00639552
4835.52008423,0.00627244
4837.44889160,0.00623066
4839.37769897,0.00631798
4841.30650635,0.00626296
4843.23531372,0.00620725
4845.16412109,0.00625386
4847.09292847,0.00616221
4849.02173584,0.00617983
4850.95054321,0.00626467
4852.87935059,0.00616563
4854.80815796,0.00613799
4856.73696533,0.00610421
4858.66577270,0.00606781
4860.59458008,0.00608584
4862.52338745,0.00606414
4864.45219482,0.00610036
4866.38100220,0.00612877
4868.30980957,0.00613196
4870.23861694,0.00612959
4872.16742432,0.00605155
4874.09623169,0.00599386
4876.02503906,0.00601069
4877.95384644,0.00599802
4879.88265381,0.00599293
4881.81146118,0.00602061
4883.74026855,0.00600354
4885.66907593,0.00594295
4887.59788330,0.00591339
4889.52669067,0.00592620
4891.45549805,0.00588007
4893.38430542,0.00590691
4895.31311279,0.00592120
4897.24192017,0.00582963
4899.17072754,0.00586943
4901.09953491,0.00584437
4903.02834228,0.00582621
4904.95714966,0.00593779
4906.88595703,0.00584717
4908.81476440,0.00577843
4910.74357178,0.00581794
4912.67237915,0.00573626
4914.60118652,0.00578500
4916.52999390,0.00584826
4918.45880127,0.00574923
4920.38760864,0.00572512
4922.31641602,0.00572187
4924.24522339,0.00572152
4926.17403076,0.00565072
4928.10283813,0.00561283
4930.03164551,0.00568424
4931.96045288,0.00559499
4933.88926025,0.00562813
4935.81806763,0.00567820
4937.74687500,0.00561729
4939.67568237,0.00568293
4941.60448975,0.00559034
4943.53329712,0.00552184
4945.46210449,0.00556710
4947.39091187,0.00552026
4949.31971924,0.00551197
4951.24852661,0.00548344
4953.17733398,0.00548630
4955.10614136,0.00550533
4957.03494873,0.00545742
4958.96375610,0.00545925
4960.89256348,0.00543731
4962.82137085,0.00541884
4964.75017822,0.00542700
4966.67898560,0.00540119
4968.60779297,0.00542847
4970.53660034,0.00538153
4972.46540771,0.00537488
4974.39421509,0.00544005
4976.32302246,0.00532140
4978.25182983,0.00531786
4980.18063721,0.00533799
4982.10944458,0.00526750
4984.03825195,0.00531754
4985.96705933,0.00526120
4987.89586670,0.00528235
4989.82467407,0.00529346
4991.75348145,0.00519717
4993.68228882,0.00531763
4995.61109619,0.00527989
4997.53990356,0.00517948
4999.46871094,0.00525621
5001.39751831,0.00526735
5003.32632568,0.00524150
5005.25513306,0.00517597
5007.18394043,0.00518377
5009.11274780,0.00517746
5011.04155518,0.00511474
5012.97036255,0.00510987
5014.89916992,0.00507334
5016.82797729,0.00509306
5018.75678467,0.00509754
5020.68559204,0.00511536
5022.61439941,0.00508868
5024.54320679,0.00499409
5026.47201416,0.00506500
5028.40082153,0.00509021
5030.32962891,0.00502436
5032.25843628,0.00496149
5034.18724365,0.00493424
5036.11605103,0.00492836
5038.04485840,0.00490739
5039.97366577,0.00493906
5041.90247314,0.00494617
5043.83128052,0.00498686
5045.76008789,0.00497992
5047.68889526,0.00491508
5049.61770264,0.00492765
5051.54651001,0.00494073
5053.47531738,0.00489022
5055.40412476,0.00485572
5057.33293213,0.00485509
5059.26173950,0.00483465
5061.19054687,0.00492027
5063.11935425,0.00483290
5065.04816162,0.00477717
5066.97696899,0.00485087
5068.90577637,0.00473544
5070.83458374,0.00488318
5072.76339111,0.00483075
5074.69219849,0.00469176
5076.62100586,0.00486197
5078.54981323,0.00475218
5080.47862061,0.00469831
5082.40742798,0.00468258
5084.33623535,0.00466169
5086.26504272,0.00475701
5088.19385010,0.00471753
5090.12265747,0.00471534
5092.05146484,0.00470896
5093.98027222,0.00466706
5095.90907959,0.00466389
5097.83788696,0.00464866
5099.76669434,0.00463168
5101.69550171,0.00464791
5103.62430908,0.00459473
5105.55311645,0.00456369
5107.48192383,0.00462529
5109.41073120,0.00458138
5111.33953857,0.00458636
5113.26834595,0.00457932
5115.19715332,0.00453227
5117.12596069,0.00456639
5119.05476807,0.00454779
5120.98357544,0.00452808
5122.91238281,0.00449948
5124.84119019,0.00444293
5126.76999756,0.00445285
5128.69880493,0.00450283
5130.62761230,0.00451014
5132.55641968,0.00452665
5134.48522705,0.00447071
5136.41403442,0.00443060
5138.34284180,0.00447343
5140.27164917,0.00438813
5142.20045654,0.00441515
5144.12926392,0.00446296
5146.05807129,0.00441823
5147.98687866,0.00439797
5149.91568603,0.00432931
5151.84449341,0.00436243
5153.77330078,0.00437584
5155.70210815,0.00433613
5157.63091553,0.00431274
5159.55972290,0.00430139
5161.48853027,0.00431575
5163.41733765,0.00426857
5165.34614502,0.00426038
5167.27495239,0.00428396
5169.20375977,0.00427367
5171.13256714,0.00423812
5173.06137451,0.00422545
5174.99018188,0.00423464
5176.91898926,0.00425958
5178.84779663,0.00426825
5180.77660400,0.00420645
5182.70541138,0.00418997
5184.63421875,0.00417549
5186.56302612,0.00417513
5188.49183350,0.00417851
5190.42064087,0.00413192
5192.34944824,0.00415698
5194.27825562,0.00419997
5196.20706299,0.00419528
5198.13587036,0.00414679
5200.06467773,0.00408441
5201.99348511,0.00412777
5203.92229248,0.00415126
5205.85109985,0.00402755
5207.77990723,0.00404315
5209.70871460,0.00410552
5211.63752197,0.00410697
5213.56632935,0.00411946
5215.49513672,0.00398547
5217.42394409,0.00395871
5219.35275146,0.00399061
5221.28155884,0.00401211
5223.21036621,0.00399162
5225.13917358,0.00382548
5227.06798096,0.00389473
5228.99678833,0.00398077
5230.92559570,0.00396545
5232.85440308,0.00396706
5234.78321045,0.00393788
5236.71201782,0.00399307
5238.64082520,0.00395150
5240.56963257,0.00395019
5242.49843994,0.00401010
5244.42724731,0.00386162
5246.35605469,0.00384295
5248.28486206,0.00389599
5250.21366943,0.00377564
5252.14247681,0.00389214
5254.07128418,0.00387720
5256.00009155,0.00371247
5257.92889893,0.00392326
5259.85770630,0.00388940
5261.78651367,0.00371574
5263.71532104,0.00374608
5265.64412842,0.00379460
5267.57293579,0.00385572
5269.50174316,0.00377676
5271.43055054,0.00378693
5273.35935791,0.00388367
5275.28816528,0.00385007
5277.21697266,0.00377368
5279.14578003,0.00374318
5281.07458740,0.00377136
5283.00339478,0.00379424
5284.93220215,0.00370210
5286.86100952,0.00367058
5288.78981689,0.00375568
5290.71862427,0.00363348
5292.64743164,0.00363692
5294.57623901,0.00373199
5296.50504639,0.00371526
5298.43385376,0.00368907
5300.36266113,0.00361425
5302.29146851,0.00372525
5304.22027588,0.00374134
5306.14908325,0.00366139
5308.07789062,0.00355946
5310.00669800,0.00355807
5311.93550537,0.00367893
5313.86431274,0.00358853
5315.79312012,0.00360370
5317.72192749,0.00357350
5319.65073486,0.00364363
5321.57954224,0.00363752
5323.50834961,0.00347289
5325.43715698,0.00357377
5327.36596436,0.00345267
5329.29477173,0.00349059
5331.22357910,0.00357112
5333.15238647,0.00349654
5335.08119385,0.00361674
5337.01000122,0.00351525
5338.93880859,0.00337809
5340.86761597,0.00346908
5342.79642334,0.00348298
5344.72523071,0.00333507
5346.65403809,0.00344504
5348.58284546,0.00348812
5350.51165283,0.00342340
5352.44046020,0.00348179
5354.36926758,0.00331341
5356.29807495,0.00337663
5358.22688232,0.00340121
5360.15568970,0.00333913
5362.08449707,0.00346088
5364.01330444,0.00341047
5365.94211182,0.00340877
5367.87091919,0.00339255
5369.79972656,0.00340314
5371.72853394,0.00339998
5373.65734131,0.00336734
5375.58614868,0.00336804
5377.51495605,0.00327700
5379.44376343,0.00333975
5381.37257080,0.00337120
5383.30137817,0.00330730
5385.23018555,0.00330184
5387.15899292,0.00328942
5389.08780029,0.00326233
5391.01660767,0.00328317
5392.94541504,0.00325137
5394.87422241,0.00313721
5396.80302978,0.00325045
5398.73183716,0.00327155
5400.66064453,0.00319960
5402.58945190,0.00329114
5404.51825928,0.00319384
5406.44706665,0.00319320
5408.37587402,0.00325417
5410.30468140,0.00314839
5412.23348877,0.00320058
5414.16229614,0.00316029
5416.09110352,0.00318656
5418.01991089,0.00328086
5419.94871826,0.00309362
5421.87752563,0.00313886
5423.80633301,0.00319161
5425.73514038,0.00310354
5427.66394775,0.00311924
5429.59275513,0.00301640
5431.52156250,0.00301802
5433.45036987,0.00308073
5435.37917725,0.00305992
5437.30798462,0.00309508
5439.23679199,0.00317045
5441.16559936,0.00307447
5443.09440674,0.00301154
5445.02321411,0.00307465
5446.95202148,0.00299303
5448.88082886,0.00303740
5450.80963623,0.00296873
5452.73844360,0.00295730
5454.66725098,0.00308664
5456.59605835,0.00303037
5458.52486572,0.00310378
5460.45367310,0.00298678
5462.38248047,0.00293029
5464.31128784,0.00301682
5466.24009521,0.00298919
5468.16890259,0.00300506
5470.09770996,0.00294174
5472.02651733,0.00299350
5473.95532471,0.00292382
5475.88413208,0.00284411
5477.81293945,0.00292566
5479.74174683,0.00297395
5481.67055420,0.00297602
5483.59936157,0.00290277
5485.52816895,0.00295482
5487.45697632,0.00285338
5489.38578369,0.00284044
5491.31459106,0.00297711
5493.24339844,0.00288716
5495.17220581,0.00293064
5497.10101318,0.00293842
5499.02982056,0.00286484
5500.95862793,0.00290231
5502.88743530,0.00286705
5504.81624268,0.00282277
5506.74505005,0.00279223
5508.67385742,0.00273702
5510.60266479,0.00280450
5512.53147217,0.00288774
5514.46027954,0.00287719
5516.38908691,0.00277724
5518.31789429,0.00269775
5520.24670166,0.00283419
5522.17550903,0.00282305
5524.10431641,0.00279673
5526.03312378,0.00287466
5527.96193115,0.00279787
5529.89073853,0.00279158
5531.81954590,0.00275608
5533.74835327,0.00277576
5535.67716064,0.00278482
5537.60596802,0.00270678
5539.53477539,0.00277236
5541.46358276,0.00280837
5543.39239014,0.00275348
5545.32119751,0.00271361
5547.25000488,0.00274240
5549.17881226,0.00271475
5551.10761963,0.00275471
5553.03642700,0.00273223
5554.96523437,0.00263534
5556.89404175,0.00270799
5558.82284912,0.00265766
5560.75165649,0.00270668
5562.68046387,0.00275568
5564.60927124,0.00264802
5566.53807861,0.00267302
5568.46688599,0.00268805
5570.39569336,0.00261773
5572.32450073,0.00255794
5574.25330811,0.00261494
5576.18211548,0.00260710
5578.11092285,0.00259799
5580.03973022,0.00265039
5581.96853760,0.00259521
5583.89734497,0.00254894
5585.82615234,0.00260764
5587.75495972,0.00265631
5589.68376709,0.00256321
5591.61257446,0.00260552
5593.54138184,0.00261718
5595.47018921,0.00252731
5597.39899658,0.00261531
5599.32780395,0.00264550
5601.25661133,0.00257567
5603.18541870,0.00251473
5605.11422607,0.00255817
5607.04303345,0.00258494
5608.97184082,0.00257187
5610.90064819,0.00256538
5612.82945557,0.00255015
5614.75826294,0.00257582
5616.68707031,0.00254238
5618.61587769,0.00253357
5620.54468506,0.00242814
5622.47349243,0.00243509
5624.40229980,0.00252691
5626.33110718,0.00247156
5628.25991455,0.00251959
5630.18872192,0.00247089
5632.11752930,0.00245986
5634.04633667,0.00252195
5635.97514404,0.00249677
5637.90395142,0.00243804
5639.83275879,0.00241711
5641.76156616,0.00247295
5643.69037353,0.00238367
5645.61918091,0.00239489
5647.54798828,0.00242626
5649.47679565,0.00239944
5651.40560303,0.00241990
5653.33441040,0.00238723
5655.26321777,0.00245267
5657.19202515,0.00239253
5659.12083252,0.00234469
5661.04963989,0.00238528
5662.97844727,0.00231644
5664.90725464,0.00232575
5666.83606201,0.00238018
5668.76486938,0.00235004
5670.69367676,0.00229050
5672.62248413,0.00233400
5674.55129150,0.00228364
5676.48009888,0.00228381
5678.40890625,0.00238093
5680.33771362,0.00231324
5682.26652100,0.00235721
5684.19532837,0.00230467
5686.12413574,0.00220663
5688.05294311,0.00228393
5689.98175049,0.00226853
5691.91055786,0.00234989
5693.83936523,0.00239467
5695.76817261,0.00229586
5697.69697998,0.00225318
5699.62578735,0.00222404
5701.55459473,0.00225180
5703.48340210,0.00223186
5705.41220947,0.00225488
5707.34101685,0.00228279
5709.26982422,0.00219176
5711.19863159,0.00221561
5713.12743896,0.00219712
5715.05624634,0.00215795
5716.98505371,0.00217803
5718.91386108,0.00214004
5720.84266846,0.00214420
5722.77147583,0.00214165
5724.70028320,0.00214562
5726.62909058,0.00218291
5728.55789795,0.00219600
5730.48670532,0.00211741
5732.41551270,0.00209821
5734.34432007,0.00215068
5736.27312744,0.00213939
5738.20193481,0.00219697
5740.13074219,0.00213663
5742.05954956,0.00212271
5743.98835693,0.00219918
5745.91716431,0.00212480
5747.84597168,0.00211619
5749.77477905,0.00209890
5751.70358643,0.00212188
5753.63239380,0.00212495
5755.56120117,0.00203457
5757.49000854,0.00207007
5759.41881592,0.00212675
5761.34762329,0.00207465
5763.27643066,0.00196963
5765.20523804,0.00200023
5767.13404541,0.00207373
5769.06285278,0.00207231
5770.99166016,0.00206132
5772.92046753,0.00205228
5774.84927490,0.00203207
5776.77808228,0.00199352
5778.70688965,0.00204309
5780.63569702,0.00207945
5782.56450439,0.00202345
5784.49331177,0.00201746
5786.42211914,0.00206255
5788.35092651,0.00201744
5790.27973389,0.00199676
5792.20854126,0.00200572
5794.13734863,0.00197380
5796.06615601,0.00205081
5797.99496338,0.00204673
5799.92377075,0.00198420
5801.85257812,0.00190639
5803.78138550,0.00192114
5805.71019287,0.00199373
5807.63900024,0.00188634
5809.56780762,0.00195664
5811.49661499,0.00194455
5813.42542236,0.00188810
5815.35422974,0.00198907
5817.28303711,0.00193862
5819.21184448,0.00190304
5821.14065186,0.00186772
5823.06945923,0.00190831
5824.99826660,0.00192574
5826.92707397,0.00191442
5828.85588135,0.00191019
5830.78468872,0.00187186
5832.71349609,0.00191445
5834.64230347,0.00181524
5836.57111084,0.00186291
5838.49991821,0.00191462
5840.42872559,0.00189761
5842.35753296,0.00194917
5844.28634033,0.00187489
5846.21514770,0.00193135
5848.14395508,0.00180091
5850.07276245,0.00177667
5852.00156982,0.00190155
5853.93037720,0.00174334
5855.85918457,0.00179982
5857.78799194,0.00181834
5859.71679932,0.00177353
5861.64560669,0.00178547
5863.57441406,0.00174444
5865.50322144,0.00183918
5867.43202881,0.00175950
5869.36083618,0.00170367
5871.28964355,0.00181919
5873.21845093,0.00176384
5875.14725830,0.00171174
5877.07606567,0.00172162
5879.00487305,0.00171436
5880.93368042,0.00173738
5882.86248779,0.00170516
5884.79129517,0.00169851
5886.72010254,0.00175730
5888.64890991,0.00171910
5890.57771728,0.00171200
5892.50652466,0.00176391
5894.43533203,0.00173209
5896.36413940,0.00171582
5898.29294678,0.00170520
5900.22175415,0.00173072
5902.15056152,0.00176115
5904.07936890,0.00168302
5906.00817627,0.00171262
5907.93698364,0.00171518
5909.86579102,0.00164634
5911.79459839,0.00175145
5913.72340576,0.00174971
5915.65221313,0.00165226
5917.58102051,0.00163425
5919.50982788,0.00161492
5921.43863525,0.00164189
5923.36744263,0.00165639
5925.29625000,0.00164033
5927.22505737,0.00163473
5929.15386475,0.00165764
5931.08267212,0.00168893
5933.01147949,0.00165507
5934.94028686,0.00162509
5936.86909424,0.00163364
5938.79790161,0.00162737
5940.72670898,0.00162949
5942.65551636,0.00161836
5944.58432373,0.00161719
5946.51313110,0.00163211
5948.44193848,0.00157905
5950.37074585,0.00159198
5952.29955322,0.00158668
5954.22836060,0.00157142
5956.15716797,0.00163776
5958.08597534,0.00156653
5960.01478271,0.00157122
5961.94359009,0.00160251
5963.87239746,0.00157460
5965.80120483,0.00158021
5967.73001221,0.00151815
5969.65881958,0.00160833
5971.58762695,0.00158424
5973.51643433,0.00142927
5975.44524170,0.00151354
5977.37404907,0.00159025
5979.30285645,0.00154772
5981.23166382,0.00151141
5983.16047119,0.00152157
5985.08927856,0.00151170
5987.01808594,0.00151808
5988.94689331,0.00151618
5990.87570068,0.00149484
5992.80450806,0.00153362
5994.73331543,0.00150397
5996.66212280,0.00148229
5998.59093018,0.00151925
6000.51973755,0.00148885
