399.26312622,0.00008766
401.19193359,0.00021931
403.12074097,0.00001976
405.04954834,0.00003527
406.97835571,-0.00009995
408.90716309,0.00003287
410.83597046,0.00001605
412.76477783,-0.00022645
414.69358521,0.00004870
416.62239258,0.00006896
418.55119995,0.00035993
420.48000732,0.00043312
422.40881470,-0.00006163
424.33762207,-0.00012452
426.26642944,0.00013756
428.19523682,0.00009577
430.12404419,-0.00001009
432.05285156,0.00009971
433.98165894,0.00011635
435.91046631,0.00014475
437.83927368,0.00023069
439.76808105,0.00020831
441.69688843,0.00010349
443.62569580,0.00013000
445.55450317,0.00007655
447.48331055,0.00009553
449.41211792,0.00013175
451.34092529,0.00001902
453.26973267,0.00025755
455.19854004,0.00015733
457.12734741,0.00015470
459.05615479,0.00014347
460.98496216,-0.00019178
462.91376953,0.00007933
464.84257690,0.00014506
466.77138428,0.00009009
468.70019165,0.00010085
470.62899902,0.00009915
472.55780640,0.00018545
474.48661377,0.00008979
476.41542114,0.00004740
478.34422852,-0.00009904
480.27303589,0.00000411
482.20184326,0.00004501
484.13065063,0.00006089
486.05945801,0.00008226
487.98826538,-0.00010418
489.91707275,0.00013936
491.84588013,0.00019433
493.77468750,0.00013770
495.70349487,0.00012159
497.63230225,0.00011435
499.56110962,0.00034910
501.48991699,0.00012940
503.41872437,0.00009848
505.34753174,0.00028862
507.27633911,0.00002003
509.20514648,0.00006284
511.13395386,0.00014912
513.06276123,-0.00000302
514.99156860,0.00001991
516.92037598,-0.00002499
518.84918335,0.00016909
520.77799072,0.00023051
522.70679810,0.00003093
524.63560547,0.00029530
526.56441284,0.00026828
528.49322021,0.00002303
530.42202759,0.00026592
532.35083496,0.00029216
534.27964233,0.00027495
536.20844971,0.00034201
538.13725708,0.00007148
540.06606445,0.00026233
541.99487183,0.00025297
543.92367920,-0.00002651
545.85248657,0.00024966
547.78129395,0.00004150
549.71010132,-0.00010001
551.63890869,0.00019477
553.56771606,0.00037111
555.49652344,0.00022581
557.42533081,-0.00010203
559.35413818,0.00004993
561.28294556,0.00003126
563.21175293,0.00002893
565.14056030,0.00004831
567.06936768,-0.00000319
568.99817505,0.00005567
570.92698242,-0.00009483
572.85578979,0.00025411
574.78459717,0.00030106
576.71340454,0.00013396
578.64221191,0.00027686
580.57101929,0.00014547
582.49982666,0.00022584
584.42863403,0.00003793
586.35744141,-0.00003875
588.28624878,0.00025981
590.21505615,0.00010309
592.14386353,0.00006961
594.07267090,0.00011411
596.00147827,0.00005319
597.93028564,0.00018575
599.85909302,0.00015314
601.78790039,0.00000035
603.71670776,0.00005785
605.64551514,0.00013008
607.57432251,0.00009975
609.50312988,0.00011763
611.43193726,0.00008923
613.36074463,0.00004699
615.28955200,0.00018677
617.21835938,0.00017569
619.14716675,-0.00013086
621.07597412,-0.00008940
623.00478149,0.00006415
624.93358887,0.00005196
626.86239624,0.00025433
628.79120361,0.00019434
630.72001099,-0.00001811
632.64881836,0.00005830
634.57762573,0.00001086
636.50643311,-0.00014332
638.43524048,0.00009131
640.36404785,0.00032754
642.29285522,0.00017980
644.22166260,0.00021375
646.15046997,0.00011570
648.07927734,0.00001586
650.00808472,0.00014281
651.93689209,0.00022739
653.86569946,0.00037499
655.79450684,0.00010387
657.72331421,0.00004971
659.65212158,0.00005747
661.58092896,-0.00000912
663.50973633,0.00014796
665.43854370,-0.00007579
667.36735107,-0.00008075
669.29615845,0.00002694
671.22496582,0.00021538
673.15377319,0.00013726
675.08258057,0.00016469
677.01138794,0.00012140
678.94019531,-0.00018767
680.86900269,0.00027100
682.79781006,0.00020527
684.72661743,0.00010526
686.65542480,0.00025947
688.58423218,0.00013670
690.51303955,0.00027962
692.44184692,0.00019216
694.37065430,0.00007956
696.29946167,0.00012329
698.22826904,0.00025225
700.15707642,0.00016749
702.08588379,0.00008794
704.01469116,0.00007759
705.94349854,-0.00004094
707.87230591,0.00011412
709.80111328,0.00004911
711.72992065,0.00013741
713.65872803,0.00029538
715.58753540,0.00013485
717.51634277,0.00003667
719.44515015,0.00004975
721.37395752,0.00015765
723.30276489,0.00018731
725.23157227,0.00022243
727.16037964,0.00021660
729.08918701,0.00021862
731.01799438,0.00018693
732.94680176,0.00031012
734.87560913,0.00030943
736.80441650,0.00008674
738.73322388,0.00015585
740.66203125,-0.00001523
742.59083862,-0.00004343
744.51964600,0.00000271
746.44845337,0.00005964
748.37726074,0.00022536
750.30606812,0.00004155
752.23487549,0.00014450
754.16368286,0.00000089
756.09249023,-0.00000769
758.02129761,0.00020211
759.95010498,0.00017321
761.87891235,0.00041979
763.80771973,0.00018325
765.73652710,0.00019382
767.66533447,0.00017771
769.59414185,0.00005286
771.52294922,0.00024123
773.45175659,-0.00005921
775.38056396,0.00005951
777.30937134,0.00010743
779.23817871,0.00010351
781.16698608,0.00011624
783.09579346,-0.00006190
785.02460083,0.00017810
786.95340820,0.00001581
788.88221558,-0.00001148
790.81102295,0.00004141
792.73983032,-0.00001147
794.66863770,0.00007316
796.59744507,0.00001976
798.52625244,0.00017939
800.45505981,0.00009266
802.38386719,0.00015118
804.31267456,0.00014660
806.24148193,0.00013362
808.17028931,0.00019083
810.09909668,-0.00023530
812.02790405,0.00006896
813.95671143,0.00020952
815.88551880,0.00001974
817.81432617,0.00015473
819.74313354,0.00003482
821.67194092,0.00018899
823.60074829,0.00024912
825.52955566,0.00014651
827.45836304,0.00004039
829.38717041,0.00013376
831.31597778,0.00021593
833.24478516,0.00013775
835.17359253,0.00033165
837.10239990,0.00009012
839.03120728,0.00009328
840.96001465,0.00022425
842.88882202,0.00009096
844.81762939,0.00017655
846.74643677,0.00012556
848.67524414,0.00018344
850.60405151,0.00009313
852.53285889,0.00011587
854.46166626,0.00025294
856.39047363,0.00020250
858.31928101,0.00023028
860.24808838,0.00014246
862.17689575,0.00011162
864.10570313,0.00002074
866.03451050,0.00006650
867.96331787,0.00010587
869.89212524,0.00016229
871.82093262,0.00033524
873.74973999,0.00011620
875.67854736,0.00022349
877.60735474,0.00025530
879.53616211,0.00011186
881.46496948,0.00033258
883.39377686,0.00014878
885.32258423,0.00004891
887.25139160,0.00024454
889.18019897,0.00007263
891.10900635,-0.00006677
893.03781372,0.00009107
894.96662109,0.00012720
896.89542847,0.00010955
898.82423584,0.00020380
900.75304321,0.00013306
902.68185059,0.00015319
904.61065796,0.00020616
906.53946533,0.00007373
908.46827271,0.00012414
910.39708008,0.00018431
912.32588745,0.00016558
914.25469482,0.00013360
916.18350220,0.00014581
918.11230957,0.00022412
920.04111694,0.00012132
921.96992432,0.00007741
923.89873169,0.00012414
925.82753906,0.00014351
927.75634644,0.00020524
929.68515381,0.00009722
931.61396118,0.00014256
933.54276855,0.00022520
935.47157593,0.00020692
937.40038330,0.00016121
939.32919067,-0.00001884
941.25799805,0.00014167
943.18680542,0.00024406
945.11561279,0.00022245
947.04442017,0.00016734
948.97322754,0.00005178
950.90203491,0.00031458
952.83084229,0.00017566
954.75964966,-0.00002548
956.68845703,0.00021439
958.61726440,0.00016284
960.54607178,0.00019307
962.47487915,0.00023660
964.40368652,0.00016770
966.33249390,0.00032456
968.26130127,0.00012169
970.19010864,0.00015000
972.11891602,0.00040748
974.04772339,0.00010291
975.97653076,0.00013675
977.90533813,0.00021280
979.83414551,0.00014772
981.76295288,0.00033718
983.69176025,0.00025122
985.62056763,0.00018071
987.54937500,0.00016154
989.47818237,0.00012659
991.40698975,0.00026720
993.33579712,0.00024653
995.26460449,0.00014542
997.19341187,0.00024175
999.12221924,0.00034181
1001.05102661,0.00036216
1002.97983398,0.00048072
1004.90864136,0.00028923
1006.83744873,0.00014048
1008.76625610,0.00037457
1010.69506348,0.00024168
1012.62387085,0.00011703
1014.55267822,0.00017836
1016.48148560,0.00034010
1018.41029297,0.00028183
1020.33910034,0.00002557
1022.26790771,0.00045546
1024.19671509,0.00047194
1026.12552246,0.00024595
1028.05432983,0.00049217
1029.98313721,0.00027900
1031.91194458,0.00026047
1033.84075195,0.00045434
1035.76955933,0.00035200
1037.69836670,0.00042736
1039.62717407,0.00043108
1041.55598145,0.00026347
1043.48478882,0.00029671
1045.41359619,0.00040791
1047.34240356,0.00028772
1049.27121094,0.00026587
1051.20001831,0.00048801
1053.12882568,0.00046471
1055.05763306,0.00045685
1056.98644043,0.00045516
1058.91524780,0.00027782
1060.84405518,0.00036778
1062.77286255,0.00031572
1064.70166992,0.00025421
1066.63047729,0.00034425
1068.55928467,0.00028983
1070.48809204,0.00031521
1072.41689941,0.00016077
1074.34570679,0.00024532
1076.27451416,0.00040719
1078.20332153,0.00032294
1080.13212891,0.00036779
1082.06093628,0.00019830
1083.98974365,0.00030141
1085.91855103,0.00039081
1087.84735840,0.00020692
1089.77616577,0.00031861
1091.70497314,0.00019466
1093.63378052,0.00018285
1095.56258789,0.00039340
1097.49139526,0.00025522
1099.42020264,0.00020692
1101.34901001,0.00031712
1103.27781738,0.00031701
1105.20662476,0.00028436
1107.13543213,0.00023357
1109.06423950,0.00030513
1110.99304687,0.00040686
1112.92185425,0.00027180
1114.85066162,0.00025414
1116.77946899,0.00034666
1118.70827637,0.00027208
1120.63708374,0.00021036
1122.56589111,0.00027996
1124.49469849,0.00028519
1126.42350586,0.00019169
1128.35231323,0.00041935
1130.28112061,0.00044716
1132.20992798,0.00033993
1134.13873535,0.00049225
1136.06754272,0.00034631
1137.99635010,0.00032111
1139.92515747,0.00013549
1141.85396484,0.00007093
1143.78277222,0.00041619
1145.71157959,0.00028798
1147.64038696,0.00036032
1149.56919434,0.00028864
1151.49800171,0.00004727
1153.42680908,0.00032884
1155.35561646,0.00045371
1157.28442383,0.00042077
1159.21323120,0.00033507
1161.14203857,0.00037757
1163.07084595,0.00048582
1164.99965332,0.00049143
1166.92846069,0.00058538
1168.85726807,0.00046475
1170.78607544,0.00038995
1172.71488281,0.00055040
1174.64369019,0.00043215
1176.57249756,0.00039695
1178.50130493,0.00062486
1180.43011230,0.00052539
1182.35891968,0.00055214
1184.28772705,0.00053431
1186.21653442,0.00034976
1188.14534180,0.00057683
1190.07414917,0.00055933
1192.00295654,0.00046291
1193.93176392,0.00053055
1195.86057129,0.00073577
1197.78937866,0.00089364
1199.71818604,0.00048561
1201.64699341,0.00043060
1203.57580078,0.00069396
1205.50460815,0.00071370
1207.43341553,0.00065630
1209.36222290,0.00063267
1211.29103027,0.00084665
1213.21983765,0.00083550
1215.14864502,0.00067695
1217.07745239,0.00082576
1219.00625977,0.00082102
1220.93506714,0.00068720
1222.86387451,0.00087439
1224.79268188,0.00083284
1226.72148926,0.00074371
1228.65029663,0.00087335
1230.57910400,0.00074581
1232.50791138,0.00090611
1234.43671875,0.00094826
1236.36552612,0.00078810
1238.29433350,0.00086076
1240.22314087,0.00082713
1242.15194824,0.00098096
1244.08075562,0.00087292
1246.00956299,0.00081296
1247.93837036,0.00098315
1249.86717773,0.00075942
1251.79598511,0.00078867
1253.72479248,0.00090140
1255.65359985,0.00083523
1257.58240723,0.00090340
1259.51121460,0.00096542
1261.44002197,0.00085652
1263.36882935,0.00080963
1265.29763672,0.00088560
1267.22644409,0.00076321
1269.15525146,0.00080736
1271.08405884,0.00092027
1273.01286621,0.00089310
1274.94167358,0.00093282
1276.87048096,0.00079791
1278.79928833,0.00079823
1280.72809570,0.00087384
1282.65690308,0.00068687
1284.58571045,0.00079315
1286.51451782,0.00084201
1288.44332520,0.00060860
1290.37213257,0.00079080
1292.30093994,0.00083572
1294.22974731,0.00072201
1296.15855469,0.00072100
1298.08736206,0.00059251
1300.01616943,0.00078473
1301.94497681,0.00080597
1303.87378418,0.00068150
1305.80259155,0.00069360
1307.73139893,0.00053937
1309.66020630,0.00062893
1311.58901367,0.00065268
1313.51782104,0.00065132
1315.44662842,0.00086522
1317.37543579,0.00091776
1319.30424316,0.00086182
1321.23305054,0.00076278
1323.16185791,0.00080351
1325.09066528,0.00087377
1327.01947266,0.00084042
1328.94828003,0.00090267
1330.87708740,0.00095199
1332.80589478,0.00095158
1334.73470215,0.00095159
1336.66350952,0.00104210
1338.59231689,0.00113472
1340.52112427,0.00106978
1342.44993164,0.00112351
1344.37873901,0.00103971
1346.30754639,0.00093470
1348.23635376,0.00111710
1350.16516113,0.00101162
1352.09396851,0.00105020
1354.02277588,0.00110133
1355.95158325,0.00097077
1357.88039062,0.00114456
1359.80919800,0.00098628
1361.73800537,0.00095753
1363.66681274,0.00109194
1365.59562012,0.00095656
1367.52442749,0.00096317
1369.45323486,0.00090747
1371.38204224,0.00099477
1373.31084961,0.00108287
1375.23965698,0.00094272
1377.16846436,0.00089766
1379.09727173,0.00103068
1381.02607910,0.00108106
1382.95488647,0.00102139
1384.88369385,0.00094858
1386.81250122,0.00082010
1388.74130859,0.00105171
1390.67011597,0.00110634
1392.59892334,0.00095475
1394.52773071,0.00101480
1396.45653809,0.00096804
1398.38534546,0.00099206
1400.31415283,0.00101439
1402.24296021,0.00111865
1404.17176758,0.00100585
1406.10057495,0.00094360
1408.02938232,0.00110138
1409.95818970,0.00099579
1411.88699707,0.00109561
1413.81580444,0.00096769
1415.74461182,0.00084777
1417.67341919,0.00095776
1419.60222656,0.00082999
1421.53103394,0.00088067
1423.45984131,0.00102817
1425.38864868,0.00112339
1427.31745605,0.00105021
1429.24626343,0.00098798
1431.17507080,0.00101815
1433.10387817,0.00102787
1435.03268555,0.00093317
1436.96149292,0.00073322
1438.89030029,0.00073248
1440.81910767,0.00070593
1442.74791504,0.00082921
1444.67672241,0.00093484
1446.60552979,0.00088353
1448.53433716,0.00089811
1450.46314453,0.00081207
1452.39195190,0.00082676
1454.32075928,0.00077925
1456.24956665,0.00060825
1458.17837402,0.00064297
1460.10718140,0.00100124
1462.03598877,0.00111570
1463.96479614,0.00106232
1465.89360352,0.00119640
1467.82241089,0.00116228
1469.75121826,0.00129337
1471.68002563,0.00114038
1473.60883301,0.00094937
1475.53764038,0.00125212
1477.46644775,0.00138354
1479.39525513,0.00145334
1481.32406250,0.00147253
1483.25286987,0.00145393
1485.18167725,0.00143216
1487.11048462,0.00153333
1489.03929199,0.00160574
1490.96809937,0.00146233
1492.89690674,0.00158214
1494.82571411,0.00165877
1496.75452148,0.00161626
1498.68332886,0.00176572
1500.61213623,0.00187555
1502.54094360,0.00185561
1504.46975098,0.00172802
1506.39855835,0.00146921
1508.32736572,0.00159655
1510.25617310,0.00189918
1512.18498047,0.00188924
1514.11378784,0.00193251
1516.04259521,0.00183905
1517.97140259,0.00188598
1519.90020996,0.00177882
1521.82901733,0.00162596
1523.75782471,0.00190492
1525.68663208,0.00179916
1527.61543945,0.00196400
1529.54424683,0.00220684
1531.47305420,0.00208633
1533.40186157,0.00193216
1535.33066895,0.00189829
1537.25947632,0.00199065
1539.18828369,0.00159832
1541.11709106,0.00169686
1543.04589844,0.00185639
1544.97470581,0.00186821
1546.90351318,0.00214697
1548.83232056,0.00188705
1550.76112793,0.00202988
1552.68993530,0.00207562
1554.61874268,0.00197307
1556.54755005,0.00199332
1558.47635742,0.00146397
1560.40516479,0.00165641
1562.33397217,0.00217944
1564.26277954,0.00215700
1566.19158691,0.00215407
1568.12039429,0.00207023
1570.04920166,0.00192053
1571.97800903,0.00219686
1573.90681641,0.00224134
1575.83562378,0.00183307
1577.76443115,0.00188181
1579.69323853,0.00201974
1581.62204590,0.00213694
1583.55085327,0.00223968
1585.47966064,0.00216004
1587.40846802,0.00214025
1589.33727539,0.00215495
1591.26608276,0.00225315
1593.19489014,0.00218122
1595.12369751,0.00217384
1597.05250488,0.00217155
1598.98131226,0.00204116
1600.91011963,0.00211263
1602.83892700,0.00223195
1604.76773437,0.00222629
1606.69654175,0.00210912
1608.62534912,0.00227446
1610.55415649,0.00223882
1612.48296387,0.00217595
1614.41177124,0.00225883
1616.34057861,0.00188538
1618.26938599,0.00216646
1620.19819336,0.00246946
1622.12700073,0.00215532
1624.05580811,0.00224979
1625.98461548,0.00234136
1627.91342285,0.00220561
1629.84223022,0.00219227
1631.77103760,0.00252765
1633.69984497,0.00243284
1635.62865234,0.00200480
1637.55745972,0.00235058
1639.48626709,0.00254993
1641.41507446,0.00244503
1643.34388184,0.00257676
1645.27268921,0.00234527
1647.20149658,0.00217740
1649.13030396,0.00255082
1651.05911133,0.00227886
1652.98791870,0.00168963
1654.91672607,0.00217558
1656.84553345,0.00261208
1658.77434082,0.00260126
1660.70314819,0.00256397
1662.63195557,0.00239898
1664.56076294,0.00270913
1666.48957031,0.00276019
1668.41837769,0.00236897
1670.34718506,0.00248001
1672.27599243,0.00270526
1674.20479980,0.00246129
1676.13360718,0.00244317
1678.06241455,0.00274753
1679.99122192,0.00264157
1681.92002930,0.00256492
1683.84883667,0.00206925
1685.77764404,0.00211408
1687.70645142,0.00289672
1689.63525879,0.00252239
1691.56406616,0.00275480
1693.49287354,0.00279978
1695.42168091,0.00223390
1697.35048828,0.00265847
1699.27929565,0.00212351
1701.20810303,0.00201778
1703.13691040,0.00264279
1705.06571777,0.00236189
1706.99452515,0.00244002
1708.92333252,0.00253353
1710.85213989,0.00247417
1712.78094727,0.00253235
1714.70975464,0.00240870
1716.63856201,0.00210376
1718.56736938,0.00209609
1720.49617676,0.00261711
1722.42498413,0.00257178
1724.35379150,0.00239142
1726.28259888,0.00249377
1728.21140625,0.00239537
1730.14021362,0.00247468
1732.06902100,0.00223080
1733.99782837,0.00193471
1735.92663574,0.00229265
1737.85544312,0.00243896
1739.78425049,0.00230077
1741.71305786,0.00228578
1743.64186523,0.00234124
1745.57067261,0.00247851
1747.49947998,0.00248376
1749.42828735,0.00228932
1751.35709473,0.00215867
1753.28590210,0.00248205
1755.21470947,0.00257214
1757.14351685,0.00241490
1759.07232422,0.00269027
1761.00113159,0.00247880
1762.92993896,0.00244125
1764.85874634,0.00269389
1766.78755371,0.00239421
1768.71636108,0.00251112
1770.64516846,0.00242766
1772.57397583,0.00222998
1774.50278320,0.00249647
1776.43159058,0.00244757
1778.36039795,0.00256924
1780.28920532,0.00262678
1782.21801270,0.00248436
1784.14682007,0.00255902
1786.07562744,0.00242882
1788.00443481,0.00251020
1789.93324219,0.00252077
1791.86204956,0.00225855
1793.79085693,0.00247185
1795.71966431,0.00252581
1797.64847168,0.00238082
1799.57727905,0.00246438
1801.50608643,0.00253309
1803.43489380,0.00258672
1805.36370117,0.00248827
1807.29250854,0.00248207
1809.22131592,0.00245698
1811.15012329,0.00248783
1813.07893066,0.00264249
1815.00773804,0.00256081
1816.93654541,0.00260874
1818.86535278,0.00253718
1820.79416016,0.00261294
1822.72296753,0.00267622
1824.65177490,0.00237546
1826.58058228,0.00252293
1828.50938965,0.00247115
1830.43819702,0.00244795
1832.36700439,0.00264497
1834.29581177,0.00251895
1836.22461914,0.00268601
1838.15342651,0.00263018
1840.08223389,0.00256228
1842.01104126,0.00262788
1843.93984863,0.00228068
1845.86865601,0.00240803
1847.79746338,0.00258756
1849.72627075,0.00251461
1851.65507812,0.00264093
1853.58388550,0.00246992
1855.51269287,0.00251633
1857.44150024,0.00263252
1859.37030762,0.00242995
1861.29911499,0.00257457
1863.22792236,0.00257353
1865.15672974,0.00246636
1867.08553711,0.00250589
1869.01434448,0.00240150
1870.94315186,0.00245576
1872.87195923,0.00251008
1874.80076660,0.00257184
1876.72957397,0.00256981
1878.65838135,0.00247641
1880.58718872,0.00258945
1882.51599609,0.00256074
1884.44480347,0.00254881
1886.37361084,0.00264192
1888.30241821,0.00253280
1890.23122559,0.00251397
1892.16003296,0.00247824
1894.08884033,0.00242405
1896.01764771,0.00261217
1897.94645508,0.00250582
1899.87526245,0.00242327
1901.80406982,0.00268287
1903.73287720,0.00264122
1905.66168457,0.00265705
1907.59049194,0.00268255
1909.51929932,0.00249033
1911.44810669,0.00246258
1913.37691406,0.00246465
1915.30572144,0.00252178
1917.23452881,0.00254238
1919.16333618,0.00250841
1921.09214355,0.00254937
1923.02095093,0.00255936
1924.94975830,0.00249832
1926.87856567,0.00241552
1928.80737305,0.00247265
1930.73618042,0.00255949
1932.66498779,0.00260506
1934.59379517,0.00258379
1936.52260254,0.00256200
1938.45140991,0.00261029
1940.38021729,0.00254577
1942.30902466,0.00251932
1944.23783203,0.00253195
1946.16663940,0.00251179
1948.09544678,0.00258714
1950.02425415,0.00255211
1951.95306152,0.00247221
1953.88186890,0.00258400
1955.81067627,0.00257645
1957.73948364,0.00252228
1959.66829102,0.00253411
1961.59709839,0.00246267
1963.52590576,0.00255297
1965.45471313,0.00252380
1967.38352051,0.00249631
1969.31232788,0.00263087
1971.24113525,0.00253768
1973.16994263,0.00255188
1975.09875000,0.00249587
1977.02755737,0.00239186
1978.95636475,0.00254429
1980.88517212,0.00252959
1982.81397949,0.00253218
1984.74278687,0.00260192
1986.67159424,0.00248328
1988.60040161,0.00246705
1990.52920898,0.00251191
1992.45801636,0.00247825
1994.38682373,0.00255507
1996.31563110,0.00261501
1998.24443848,0.00260673
2000.17324585,0.00255775
2002.10205322,0.00249711
2004.03086060,0.00254809
2005.95966797,0.00257800
2007.88847534,0.00258175
2009.81728271,0.00248002
2011.74609009,0.00246533
2013.67489746,0.00252194
2015.60370483,0.00237445
2017.53251221,0.00239752
2019.46131958,0.00250040
2021.39012695,0.00261433
2023.31893433,0.00262466
2025.24774170,0.00246420
2027.17654907,0.00251011
2029.10535645,0.00252601
2031.03416382,0.00257405
2032.96297119,0.00251828
2034.89177856,0.00234558
2036.82058594,0.00247340
2038.74939331,0.00243070
2040.67820068,0.00239663
2042.60700806,0.00252535
2044.53581543,0.00240373
2046.46462280,0.00243641
2048.39343018,0.00246091
2050.32223755,0.00236483
2052.25104492,0.00252951
2054.17985229,0.00253916
2056.10865967,0.00246337
2058.03746704,0.00247460
2059.96627441,0.00245225
2061.89508179,0.00256491
2063.82388916,0.00259900
2065.75269653,0.00258795
2067.68150391,0.00258507
2069.61031128,0.00250056
2071.53911865,0.00246649
2073.46792603,0.00247720
2075.39673340,0.00249100
2077.32554077,0.00251122
2079.25434814,0.00252931
2081.18315552,0.00244804
2083.11196289,0.00246587
2085.04077026,0.00248967
2086.96957764,0.00244749
2088.89838501,0.00249928
2090.82719238,0.00238529
2092.75599976,0.00239977
2094.68480713,0.00256183
2096.61361450,0.00251158
2098.54242187,0.00235233
2100.47122925,0.00237309
2102.40003662,0.00248661
2104.32884399,0.00235977
2106.25765137,0.00243266
2108.18645874,0.00247705
2110.11526611,0.00228604
2112.04407349,0.00236148
2113.97288086,0.00242691
2115.90168823,0.00242209
2117.83049561,0.00244065
2119.75930298,0.00243443
2121.68811035,0.00246961
2123.61691772,0.00247561
2125.54572510,0.00242456
2127.47453247,0.00244510
2129.40333984,0.00249156
2131.33214722,0.00248732
2133.26095459,0.00253233
2135.18976196,0.00243046
2137.11856934,0.00243512
2139.04737671,0.00253629
2140.97618408,0.00238980
2142.90499146,0.00238180
2144.83379883,0.00246045
2146.76260620,0.00244339
2148.69141357,0.00239825
2150.62022095,0.00239343
2152.54902832,0.00239607
2154.47783569,0.00233906
2156.40664307,0.00237298
2158.33545044,0.00236108
2160.26425781,0.00235263
2162.19306519,0.00238212
2164.12187256,0.00235000
2166.05067993,0.00239536
2167.97948730,0.00243657
2169.90829468,0.00245405
2171.83710205,0.00245767
2173.76590942,0.00237164
2175.69471680,0.00237970
2177.62352417,0.00252116
2179.55233154,0.00252138
2181.48113892,0.00244522
2183.40994629,0.00248532
2185.33875366,0.00255457
2187.26756104,0.00250227
2189.19636841,0.00237176
2191.12517578,0.00241767
2193.05398315,0.00245346
2194.98279053,0.00234008
2196.91159790,0.00236623
2198.84040527,0.00244670
2200.76921265,0.00241042
2202.69802002,0.00234856
2204.62682739,0.00232009
2206.55563477,0.00234866
2208.48444214,0.00243829
2210.41324951,0.00244095
2212.34205688,0.00236776
2214.27086426,0.00237587
2216.19967163,0.00237512
2218.12847900,0.00236565
2220.05728638,0.00243942
2221.98609375,0.00241710
2223.91490112,0.00235461
2225.84370850,0.00242661
2227.77251587,0.00242405
2229.70132324,0.00239760
2231.63013062,0.00238823
2233.55893799,0.00235245
2235.48774536,0.00238993
2237.41655273,0.00239434
2239.34536011,0.00246149
2241.27416748,0.00239495
2243.20297485,0.00228457
2245.13178223,0.00241657
2247.06058960,0.00238854
2248.98939697,0.00240978
2250.91820435,0.00244570
2252.84701172,0.00233710
2254.77581909,0.00243227
2256.70462646,0.00236760
2258.63343384,0.00221910
2260.56224121,0.00229939
2262.49104858,0.00240348
2264.41985596,0.00239315
2266.34866333,0.00224273
2268.27747070,0.00236231
2270.20627808,0.00249361
2272.13508545,0.00236245
2274.06389282,0.00238459
2275.99270020,0.00229999
2277.92150757,0.00234984
2279.85031494,0.00248821
2281.77912231,0.00235154
2283.70792969,0.00241710
2285.63673706,0.00243465
2287.56554443,0.00236519
2289.49435181,0.00228823
2291.42315918,0.00226749
2293.35196655,0.00240726
2295.28077393,0.00232250
2297.20958130,0.00234887
2299.13838867,0.00235441
2301.06719604,0.00232374
2302.99600342,0.00235434
2304.92481079,0.00223911
2306.85361816,0.00241112
2308.78242554,0.00243716
2310.71123291,0.00225061
2312.64004028,0.00221651
2314.56884766,0.00222032
2316.49765503,0.00221686
2318.42646240,0.00211054
2320.35526978,0.00209598
2322.28407715,0.00212088
2324.21288452,0.00219012
2326.14169189,0.00218682
2328.07049927,0.00210598
2329.99930664,0.00208418
2331.92811401,0.00195447
2333.85692139,0.00196321
2335.78572876,0.00199703
2337.71453613,0.00201091
2339.64334351,0.00207304
2341.57215088,0.00209358
2343.50095825,0.00211785
2345.42976562,0.00207050
2347.35857300,0.00216023
2349.28738037,0.00229376
2351.21618774,0.00224575
2353.14499512,0.00205065
2355.07380249,0.00197703
2357.00260986,0.00203491
2358.93141724,0.00194517
2360.86022461,0.00186985
2362.78903198,0.00182725
2364.71783936,0.00189747
2366.64664673,0.00193355
2368.57545410,0.00186815
2370.50426147,0.00195872
2372.43306885,0.00206626
2374.36187622,0.00216213
2376.29068359,0.00213730
2378.21949097,0.00220985
2380.14829834,0.00230959
2382.07710571,0.00220896
2384.00591309,0.00230005
2385.93472046,0.00230014
2387.86352783,0.00227008
2389.79233521,0.00233530
2391.72114258,0.00224794
2393.64994995,0.00231266
2395.57875732,0.00228709
2397.50756470,0.00221375
2399.43637207,0.00231999
2401.36517944,0.00225005
2403.29398682,0.00225527
2405.22279419,0.00234312
2407.15160156,0.00226432
2409.08040894,0.00223856
2411.00921631,0.00224615
2412.93802368,0.00221017
2414.86683105,0.00222349
2416.79563843,0.00227547
2418.72444580,0.00223054
2420.65325317,0.00220046
2422.58206055,0.00227429
2424.51086792,0.00229050
2426.43967529,0.00225267
2428.36848267,0.00227096
2430.29729004,0.00232377
2432.22609741,0.00222634
2434.15490479,0.00223100
2436.08371216,0.00231736
2438.01251953,0.00223749
2439.94132690,0.00227952
2441.87013428,0.00228573
2443.79894165,0.00227265
2445.72774902,0.00227270
2447.65655640,0.00218086
2449.58536377,0.00217854
2451.51417114,0.00216669
2453.44297852,0.00218244
2455.37178589,0.00215949
2457.30059326,0.00217412
2459.22940063,0.00219940
2461.15820801,0.00216288
2463.08701538,0.00219305
2465.01582275,0.00219684
2466.94463013,0.00231002
2468.87343750,0.00225388
2470.80224487,0.00220051
2472.73105225,0.00222434
2474.65985962,0.00207478
2476.58866699,0.00216937
2478.51747437,0.00216881
2480.44628174,0.00219078
2482.37508911,0.00222122
2484.30389648,0.00207973
2486.23270386,0.00223666
2488.16151123,0.00223663
2490.09031860,0.00217876
2492.01912598,0.00219694
2493.94793335,0.00210523
2495.87674072,0.00211252
2497.80554810,0.00213636
2499.73435547,0.00219477
2501.66316284,0.00211915
2503.59197021,0.00212770
2505.52077759,0.00219339
2507.44958496,0.00212905
2509.37839233,0.00222071
2511.30719971,0.00218104
2513.23600708,0.00214427
2515.16481445,0.00209916
2517.09362183,0.00210066
2519.02242920,0.00232528
2520.95123657,0.00215640
2522.88004395,0.00204022
2524.80885132,0.00211863
2526.73765869,0.00210760
2528.66646606,0.00224895
2530.59527344,0.00220443
2532.52408081,0.00213307
2534.45288818,0.00214162
2536.38169556,0.00211498
2538.31050293,0.00207633
2540.23931030,0.00205088
2542.16811768,0.00221822
2544.09692505,0.00220254
2546.02573242,0.00211479
2547.95453979,0.00217701
2549.88334717,0.00211872
2551.81215454,0.00204460
2553.74096191,0.00211317
2555.66976929,0.00218164
2557.59857666,0.00211631
2559.52738403,0.00210969
2561.45619141,0.00206210
2563.38499878,0.00208163
2565.31380615,0.00220955
2567.24261353,0.00211359
2569.17142090,0.00205943
2571.10022827,0.00213536
2573.02903564,0.00216398
2574.95784302,0.00206648
2576.88665039,0.00200420
2578.81545776,0.00201653
2580.74426514,0.00202754
2582.67307251,0.00206903
2584.60187988,0.00202673
2586.53068726,0.00207630
2588.45949463,0.00209276
2590.38830200,0.00209495
2592.31710937,0.00208886
2594.24591675,0.00200964
2596.17472412,0.00207377
2598.10353149,0.00211907
2600.03233887,0.00214554
2601.96114624,0.00197244
2603.88995361,0.00195723
2605.81876099,0.00206319
2607.74756836,0.00191975
2609.67637573,0.00205259
2611.60518311,0.00215275
2613.53399048,0.00214830
2615.46279785,0.00209485
2617.39160522,0.00210351
2619.32041260,0.00216801
2621.24921997,0.00197797
2623.17802734,0.00198576
2625.10683472,0.00200412
2627.03564209,0.00206178
2628.96444946,0.00203874
2630.89325684,0.00193688
2632.82206421,0.00203636
2634.75087158,0.00198829
2636.67967895,0.00208613
2638.60848633,0.00204462
2640.53729370,0.00199393
2642.46610107,0.00207337
2644.39490845,0.00200098
2646.32371582,0.00210075
2648.25252319,0.00204253
2650.18133057,0.00202723
2652.11013794,0.00207003
2654.03894531,0.00203365
2655.96775269,0.00205381
2657.89656006,0.00199673
2659.82536743,0.00203345
2661.75417480,0.00196551
2663.68298218,0.00194836
2665.61178955,0.00195437
2667.54059692,0.00191783
2669.46940430,0.00205065
2671.39821167,0.00205032
2673.32701904,0.00207006
2675.25582642,0.00204870
2677.18463379,0.00193109
2679.11344116,0.00200180
2681.04224854,0.00204832
2682.97105591,0.00201695
2684.89986328,0.00200883
2686.82867065,0.00196769
2688.75747803,0.00199422
2690.68628540,0.00202493
2692.61509277,0.00196776
2694.54390015,0.00202965
2696.47270752,0.00202343
2698.40151489,0.00194237
2700.33032227,0.00203134
2702.25912964,0.00200338
2704.18793701,0.00190618
2706.11674438,0.00192784
2708.04555176,0.00195182
2709.97435913,0.00201194
2711.90316650,0.00197336
2713.83197388,0.00192592
2715.76078125,0.00203900
2717.68958862,0.00196261
2719.61839600,0.00189313
2721.54720337,0.00195404
2723.47601074,0.00199058
2725.40481812,0.00203921
2727.33362549,0.00185974
2729.26243286,0.00185385
2731.19124023,0.00195565
2733.12004761,0.00194110
2735.04885498,0.00200162
2736.97766235,0.00185898
2738.90646973,0.00190589
2740.83527710,0.00201573
2742.76408447,0.00193627
2744.69289185,0.00190586
2746.62169922,0.00188106
2748.55050659,0.00197252
2750.47931396,0.00196029
2752.40812134,0.00201404
2754.33692871,0.00202077
2756.26573608,0.00183612
2758.19454346,0.00186717
2760.12335083,0.00189886
2762.05215820,0.00195691
2763.98096558,0.00197577
2765.90977295,0.00182544
2767.83858032,0.00184059
2769.76738770,0.00193089
2771.69619507,0.00184400
2773.62500244,0.00183262
2775.55380981,0.00185313
2777.48261719,0.00180067
2779.41142456,0.00200834
2781.34023193,0.00196031
2783.26903931,0.00172733
2785.19784668,0.00181280
2787.12665405,0.00187125
2789.05546143,0.00190952
2790.98426880,0.00188227
2792.91307617,0.00186919
2794.84188354,0.00183688
2796.77069092,0.00180864
2798.69949829,0.00193041
2800.62830566,0.00187223
2802.55711304,0.00184294
2804.48592041,0.00184104
2806.41472778,0.00182620
2808.34353516,0.00188750
2810.27234253,0.00186298
2812.20114990,0.00191281
2814.12995728,0.00183411
2816.05876465,0.00177146
2817.98757202,0.00186076
2819.91637939,0.00178898
2821.84518677,0.00183031
2823.77399414,0.00185445
2825.70280151,0.00174838
2827.63160889,0.00176436
2829.56041626,0.00172394
2831.48922363,0.00169991
2833.41803101,0.00173973
2835.34683838,0.00178963
2837.27564575,0.00181867
2839.20445312,0.00171990
2841.13326050,0.00174173
2843.06206787,0.00179464
2844.99087524,0.00178912
2846.91968262,0.00182473
2848.84848999,0.00175529
2850.77729736,0.00178943
2852.70610474,0.00183073
2854.63491211,0.00170087
2856.56371948,0.00172913
2858.49252686,0.00180140
2860.42133423,0.00169936
2862.35014160,0.00168183
2864.27894897,0.00178129
2866.20775635,0.00175029
2868.13656372,0.00168964
2870.06537109,0.00174008
2871.99417847,0.00173812
2873.92298584,0.00170979
2875.85179321,0.00178593
2877.78060059,0.00174445
2879.70940796,0.00166205
2881.63821533,0.00174289
2883.56702270,0.00175177
2885.49583008,0.00175777
2887.42463745,0.00177104
2889.35344482,0.00168707
2891.28225220,0.00173193
2893.21105957,0.00176886
2895.13986694,0.00164134
2897.06867432,0.00165503
2898.99748169,0.00173758
2900.92628906,0.00168018
2902.85509644,0.00172001
2904.78390381,0.00174549
2906.71271118,0.00171637
2908.64151855,0.00165224
2910.57032593,0.00157597
2912.49913330,0.00167726
2914.42794067,0.00156783
2916.35674805,0.00157292
2918.28555542,0.00174460
2920.21436279,0.00163702
2922.14317017,0.00164602
2924.07197754,0.00163705
2926.00078491,0.00162258
2927.92959229,0.00165790
2929.85839966,0.00162623
2931.78720703,0.00164845
2933.71601440,0.00163950
2935.64482178,0.00163674
2937.57362915,0.00156790
2939.50243652,0.00159046
2941.43124390,0.00163502
2943.36005127,0.00164790
2945.28885864,0.00169586
2947.21766602,0.00161435
2949.14647339,0.00164539
2951.07528076,0.00162391
2953.00408813,0.00157439
2954.93289551,0.00161040
2956.86170288,0.00155147
2958.79051025,0.00157737
2960.71931763,0.00163472
2962.64812500,0.00160588
2964.57693237,0.00153802
2966.50573975,0.00163465
2968.43454712,0.00170543
2970.36335449,0.00159569
2972.29216187,0.00157665
2974.22096924,0.00156799
2976.14977661,0.00161755
2978.07858398,0.00168792
2980.00739136,0.00166290
2981.93619873,0.00163903
2983.86500610,0.00160206
2985.79381348,0.00153869
2987.72262085,0.00149231
2989.65142822,0.00158635
2991.58023560,0.00167780
2993.50904297,0.00152957
2995.43785034,0.00147378
2997.36665771,0.00163240
2999.29546509,0.00158417
3001.22427246,0.00155354
3003.15307983,0.00160171
3005.08188721,0.00153188
3007.01069458,0.00157925
3008.93950195,0.00155759
3010.86830933,0.00156049
3012.79711670,0.00158653
3014.72592407,0.00153240
3016.65473145,0.00157576
3018.58353882,0.00152723
3020.51234619,0.00151316
3022.44115356,0.00146738
3024.36996094,0.00146918
3026.29876831,0.00159343
3028.22757568,0.00152926
3030.15638306,0.00152527
3032.08519043,0.00156012
3034.01399780,0.00157541
3035.94280518,0.00154504
3037.87161255,0.00148823
3039.80041992,0.00157235
3041.72922729,0.00156751
3043.65803467,0.00157927
3045.58684204,0.00152673
3047.51564941,0.00144929
3049.44445679,0.00152368
3051.37326416,0.00147459
3053.30207153,0.00153109
3055.23087891,0.00155210
3057.15968628,0.00149718
3059.08849365,0.00152003
3061.01730103,0.00140765
3062.94610840,0.00156413
3064.87491577,0.00159430
3066.80372314,0.00145074
3068.73253052,0.00159182
3070.66133789,0.00151469
3072.59014526,0.00148971
3074.51895264,0.00153220
3076.44776001,0.00150203
3078.37656738,0.00148654
3080.30537476,0.00141648
3082.23418213,0.00151292
3084.16298950,0.00142678
3086.09179687,0.00143867
3088.02060425,0.00153766
3089.94941162,0.00142581
3091.87821899,0.00151715
3093.80702637,0.00152877
3095.73583374,0.00145921
3097.66464111,0.00146547
3099.59344849,0.00147926
3101.52225586,0.00144831
3103.45106323,0.00150165
3105.37987061,0.00158034
3107.30867798,0.00145952
3109.23748535,0.00153844
3111.16629272,0.00151833
3113.09510010,0.00144617
3115.02390747,0.00148412
3116.95271484,0.00138419
3118.88152222,0.00147846
3120.81032959,0.00143667
3122.73913696,0.00134871
3124.66794434,0.00146251
3126.59675171,0.00145596
3128.52555908,0.00141168
3130.45436645,0.00141092
3132.38317383,0.00143309
3134.31198120,0.00146906
3136.24078857,0.00145513
3138.16959595,0.00138570
3140.09840332,0.00145669
3142.02721069,0.00148907
3143.95601807,0.00140217
3145.88482544,0.00137479
3147.81363281,0.00142525
3149.74244019,0.00143666
3151.67124756,0.00132803
3153.60005493,0.00146282
3155.52886230,0.00146608
3157.45766968,0.00142209
3159.38647705,0.00154011
3161.31528442,0.00137277
3163.24409180,0.00135631
3165.17289917,0.00133825
3167.10170654,0.00137725
3169.03051392,0.00147981
3170.95932129,0.00136857
3172.88812866,0.00142803
3174.81693604,0.00143441
3176.74574341,0.00145326
3178.67455078,0.00141558
3180.60335815,0.00135475
3182.53216553,0.00139001
3184.46097290,0.00136684
3186.38978027,0.00151423
3188.31858765,0.00143949
3190.24739502,0.00133254
3192.17620239,0.00143928
3194.10500977,0.00142454
3196.03381714,0.00143316
3197.96262451,0.00149377
3199.89143188,0.00150473
3201.82023926,0.00141423
3203.74904663,0.00146493
3205.67785400,0.00149799
3207.60666138,0.00138822
3209.53546875,0.00145374
3211.46427612,0.00142721
3213.39308350,0.00134692
3215.32189087,0.00135037
3217.25069824,0.00139607
3219.17950562,0.00152110
3221.10831299,0.00146639
3223.03712036,0.00143642
3224.96592773,0.00148594
3226.89473511,0.00147067
3228.82354248,0.00154377
3230.75234985,0.00146806
3232.68115723,0.00140159
3234.60996460,0.00145083
3236.53877197,0.00145151
3238.46757935,0.00145149
3240.39638672,0.00140163
3242.32519409,0.00150227
3244.25400146,0.00148436
3246.18280884,0.00146092
3248.11161621,0.00153484
3250.04042358,0.00142345
3251.96923096,0.00151360
3253.89803833,0.00146438
3255.82684570,0.00142847
3257.75565308,0.00155762
3259.68446045,0.00151494
3261.61326782,0.00154947
3263.54207520,0.00148342
3265.47088257,0.00150143
3267.39968994,0.00150133
3269.32849731,0.00148759
3271.25730469,0.00154737
3273.18611206,0.00145771
3275.11491943,0.00157802
3277.04372681,0.00159562
3278.97253418,0.00153058
3280.90134155,0.00153140
3282.83014893,0.00152536
3284.75895630,0.00159968
3286.68776367,0.00151463
3288.61657104,0.00151578
3290.54537842,0.00153594
3292.47418579,0.00150073
3294.40299316,0.00148372
3296.33180054,0.00147719
3298.26060791,0.00165491
3300.18941528,0.00168046
3302.11822266,0.00152139
3304.04703003,0.00152038
3305.97583740,0.00157543
3307.90464478,0.00152255
3309.83345215,0.00153079
3311.76225952,0.00153449
3313.69106689,0.00152000
3315.61987427,0.00155134
3317.54868164,0.00154637
3319.47748901,0.00164700
3321.40629639,0.00160642
3323.33510376,0.00153648
3325.26391113,0.00157616
3327.19271851,0.00156951
3329.12152588,0.00157096
3331.05033325,0.00147674
3332.97914062,0.00158466
3334.90794800,0.00164791
3336.83675537,0.00158388
3338.76556274,0.00164954
3340.69437012,0.00156190
3342.62317749,0.00166030
3344.55198486,0.00169689
3346.48079224,0.00153798
3348.40959961,0.00168448
3350.33840698,0.00166387
3352.26721436,0.00151939
3354.19602173,0.00164490
3356.12482910,0.00166638
3358.05363647,0.00159882
3359.98244385,0.00165982
3361.91125122,0.00166653
3363.84005859,0.00166222
3365.76886597,0.00172037
3367.69767334,0.00169364
3369.62648071,0.00165570
3371.55528809,0.00166647
3373.48409546,0.00166053
3375.41290283,0.00165097
3377.34171020,0.00163188
3379.27051758,0.00168382
3381.19932495,0.00168662
3383.12813232,0.00161445
3385.05693970,0.00171179
3386.98574707,0.00171971
3388.91455444,0.00171624
3390.84336182,0.00177649
3392.77216919,0.00169502
3394.70097656,0.00171105
3396.62978394,0.00165522
3398.55859131,0.00171082
3400.48739868,0.00182269
3402.41620605,0.00169852
3404.34501343,0.00175090
3406.27382080,0.00167923
3408.20262817,0.00163664
3410.13143555,0.00177544
3412.06024292,0.00170898
3413.98905029,0.00176350
3415.91785767,0.00176800
3417.84666504,0.00171452
3419.77547241,0.00177110
3421.70427979,0.00170411
3423.63308716,0.00173895
3425.56189453,0.00176047
3427.49070190,0.00171134
3429.41950928,0.00175329
3431.34831665,0.00170685
3433.27712402,0.00176910
3435.20593140,0.00182297
3437.13473877,0.00172851
3439.06354614,0.00174076
3440.99235352,0.00174377
3442.92116089,0.00179866
3444.84996826,0.00182201
3446.77877563,0.00179809
3448.70758301,0.00179387
3450.63639038,0.00169795
3452.56519775,0.00174471
3454.49400513,0.00174273
3456.42281250,0.00170134
3458.35161987,0.00173671
3460.28042725,0.00175088
3462.20923462,0.00181466
3464.13804199,0.00173199
3466.06684937,0.00174773
3467.99565674,0.00183831
3469.92446411,0.00177730
3471.85327148,0.00174762
3473.78207886,0.00178096
3475.71088623,0.00185736
3477.63969360,0.00181437
3479.56850098,0.00178321
3481.49730835,0.00175580
3483.42611572,0.00166349
3485.35492310,0.00170761
3487.28373047,0.00180220
3489.21253784,0.00184136
3491.14134521,0.00174377
3493.07015259,0.00171876
3494.99895996,0.00179580
3496.92776733,0.00176485
3498.85657471,0.00174763
3500.78538208,0.00176426
3502.71418945,0.00177756
3504.64299683,0.00173895
3506.57180420,0.00174096
3508.50061157,0.00181125
3510.42941895,0.00173388
3512.35822632,0.00171383
3514.28703369,0.00188030
3516.21584106,0.00181889
3518.14464844,0.00166029
3520.07345581,0.00176600
3522.00226318,0.00179653
3523.93107056,0.00170528
3525.85987793,0.00173129
3527.78868530,0.00175681
3529.71749268,0.00176691
3531.64630005,0.00184471
3533.57510742,0.00179409
3535.50391479,0.00164722
3537.43272217,0.00170098
3539.36152954,0.00171235
3541.29033691,0.00171099
3543.21914429,0.00176592
3545.14795166,0.00161188
3547.07675903,0.00163872
3549.00556641,0.00184908
3550.93437378,0.00180874
3552.86318115,0.00169135
3554.79198853,0.00173800
3556.72079590,0.00174640
3558.64960327,0.00167916
3560.57841064,0.00168917
3562.50721802,0.00168465
3564.43602539,0.00170608
3566.36483276,0.00158543
3568.29364014,0.00151405
3570.22244751,0.00171150
3572.15125488,0.00173789
3574.08006226,0.00175854
3576.00886963,0.00174077
3577.93767700,0.00164684
3579.86648437,0.00173751
3581.79529175,0.00175204
3583.72409912,0.00173848
3585.65290649,0.00162738
3587.58171387,0.00150592
3589.51052124,0.00163561
3591.43932861,0.00170810
3593.36813599,0.00168915
3595.29694336,0.00167313
3597.22575073,0.00168833
3599.15455811,0.00167482
3601.08336548,0.00160046
3603.01217285,0.00164268
3604.94098022,0.00169800
3606.86978760,0.00165454
3608.79859497,0.00155188
3610.72740234,0.00152742
3612.65620972,0.00154600
3614.58501709,0.00157734
3616.51382446,0.00165574
3618.44263184,0.00155494
3620.37143921,0.00156307
3622.30024658,0.00168209
3624.22905395,0.00169557
3626.15786133,0.00169184
3628.08666870,0.00142645
3630.01547607,0.00137077
3631.94428345,0.00156987
3633.87309082,0.00158008
3635.80189819,0.00166288
3637.73070557,0.00168935
3639.65951294,0.00168491
3641.58832031,0.00164997
3643.51712769,0.00157883
3645.44593506,0.00163100
3647.37474243,0.00149325
3649.30354980,0.00127807
3651.23235718,0.00136013
3653.16116455,0.00167517
3655.08997192,0.00160019
3657.01877930,0.00140164
3658.94758667,0.00161995
3660.87639404,0.00164390
3662.80520142,0.00162349
3664.73400879,0.00162415
3666.66281616,0.00157498
3668.59162354,0.00148593
3670.52043091,0.00125552
3672.44923828,0.00149509
3674.37804565,0.00142311
3676.30685303,0.00117090
3678.23566040,0.00149320
3680.16446777,0.00145070
3682.09327515,0.00140511
3684.02208252,0.00159124
3685.95088989,0.00152096
3687.87969727,0.00134658
3689.80850464,0.00135750
3691.73731201,0.00146109
3693.66611938,0.00140993
3695.59492676,0.00147189
3697.52373413,0.00148311
3699.45254150,0.00150837
3701.38134888,0.00144041
3703.31015625,0.00137151
3705.23896362,0.00150727
3707.16777100,0.00137001
3709.09657837,0.00143480
3711.02538574,0.00131308
3712.95419312,0.00116570
3714.88300049,0.00139579
3716.81180786,0.00129036
3718.74061523,0.00137041
3720.66942261,0.00135508
3722.59822998,0.00132637
3724.52703735,0.00146041
3726.45584473,0.00131091
3728.38465210,0.00131511
3730.31345947,0.00127607
3732.24226685,0.00126315
3734.17107422,0.00121228
3736.09988159,0.00116825
3738.02868896,0.00130380
3739.95749634,0.00136193
3741.88630371,0.00138867
3743.81511108,0.00107423
3745.74391846,0.00101725
3747.67272583,0.00129457
3749.60153320,0.00113911
3751.53034058,0.00105962
3753.45914795,0.00125124
3755.38795532,0.00132823
3757.31676270,0.00135159
3759.24557007,0.00133660
3761.17437744,0.00127329
3763.10318481,0.00129732
3765.03199219,0.00123254
3766.96079956,0.00123784
3768.88960693,0.00124505
3770.81841431,0.00118224
3772.74722168,0.00136367
3774.67602905,0.00138050
3776.60483643,0.00128191
3778.53364380,0.00125164
3780.46245117,0.00130393
3782.39125854,0.00132061
3784.32006592,0.00128007
3786.24887329,0.00133886
3788.17768066,0.00119954
3790.10648804,0.00126538
3792.03529541,0.00132188
3793.96410278,0.00123636
3795.89291016,0.00122665
3797.82171753,0.00121608
3799.75052490,0.00131264
3801.67933228,0.00108722
3803.60813965,0.00122073
3805.53694702,0.00128994
3807.46575439,0.00107604
3809.39456177,0.00133082
3811.32336914,0.00123307
3813.25217651,0.00123815
3815.18098389,0.00118835
3817.10979126,0.00111524
3819.03859863,0.00129108
3820.96740601,0.00097497
3822.89621338,0.00106781
3824.82502075,0.00125304
3826.75382812,0.00117741
3828.68263550,0.00131353
3830.61144287,0.00123449
3832.54025024,0.00113090
3834.46905762,0.00113932
3836.39786499,0.00111876
3838.32667236,0.00105931
3840.25547974,0.00115733
3842.18428711,0.00123782
3844.11309448,0.00115327
3846.04190186,0.00123438
3847.97070923,0.00123640
3849.89951660,0.00116337
3851.82832397,0.00111144
3853.75713135,0.00091454
3855.68593872,0.00097491
3857.61474609,0.00119438
3859.54355347,0.00114671
3861.47236084,0.00115049
3863.40116821,0.00109791
3865.32997559,0.00107346
3867.25878296,0.00122959
3869.18759033,0.00101851
3871.11639770,0.00104574
3873.04520508,0.00125207
3874.97401245,0.00103381
3876.90281982,0.00111075
3878.83162720,0.00114945
3880.76043457,0.00096738
3882.68924194,0.00110991
3884.61804932,0.00106870
3886.54685669,0.00102785
3888.47566406,0.00119461
3890.40447144,0.00107562
3892.33327881,0.00113646
3894.26208618,0.00122498
3896.19089355,0.00107105
3898.11970093,0.00109787
3900.04850830,0.00102291
3901.97731567,0.00100984
3903.90612305,0.00108013
3905.83493042,0.00104743
3907.76373779,0.00111903
3909.69254517,0.00114726
3911.62135254,0.00116613
3913.55015991,0.00113123
3915.47896728,0.00111552
3917.40777466,0.00109368
3919.33658203,0.00104692
3921.26538940,0.00112104
3923.19419678,0.00106738
3925.12300415,0.00107258
3927.05181152,0.00113568
3928.98061890,0.00113050
3930.90942627,0.00109844
3932.83823364,0.00099626
3934.76704102,0.00104315
3936.69584839,0.00106650
3938.62465576,0.00105278
3940.55346313,0.00104292
3942.48227051,0.00095847
3944.41107788,0.00104126
3946.33988525,0.00111685
3948.26869263,0.00110805
3950.19750000,0.00110375
3952.12630737,0.00104308
3954.05511475,0.00102085
3955.98392212,0.00102971
3957.91272949,0.00106937
3959.84153687,0.00103264
3961.77034424,0.00098838
3963.69915161,0.00107463
3965.62795898,0.00103719
3967.55676636,0.00103024
3969.48557373,0.00107598
3971.41438110,0.00101541
3973.34318848,0.00102946
3975.27199585,0.00101607
3977.20080322,0.00105316
3979.12961060,0.00113197
3981.05841797,0.00107418
3982.98722534,0.00103533
3984.91603271,0.00104137
3986.84484009,0.00102574
3988.77364746,0.00098555
3990.70245483,0.00098285
3992.63126221,0.00107907
3994.56006958,0.00111116
3996.48887695,0.00094867
3998.41768433,0.00099894
4000.34649170,0.00111315
4002.27529907,0.00098410
4004.20410645,0.00104775
4006.13291382,0.00105025
4008.06172119,0.00102570
4009.99052856,0.00106063
4011.91933594,0.00093235
4013.84814331,0.00096889
4015.77695068,0.00103755
4017.70575806,0.00112293
4019.63456543,0.00106602
4021.56337280,0.00098139
4023.49218018,0.00107150
4025.42098755,0.00095575
4027.34979492,0.00099709
4029.27860229,0.00105005
4031.20740967,0.00097692
4033.13621704,0.00100052
4035.06502441,0.00092092
4036.99383179,0.00096043
4038.92263916,0.00101114
4040.85144653,0.00098939
4042.78025391,0.00099685
4044.70906128,0.00095412
4046.63786865,0.00098635
4048.56667603,0.00100588
4050.49548340,0.00099386
4052.42429077,0.00101293
4054.35309814,0.00094332
4056.28190552,0.00092132
4058.21071289,0.00095303
4060.13952026,0.00090629
4062.06832764,0.00096526
4063.99713501,0.00098531
4065.92594238,0.00096485
4067.85474976,0.00102816
4069.78355713,0.00096374
4071.71236450,0.00097094
4073.64117187,0.00095259
4075.56997925,0.00084090
4077.49878662,0.00092971
4079.42759399,0.00094167
4081.35640137,0.00086205
4083.28520874,0.00098751
4085.21401611,0.00102955
4087.14282349,0.00088823
4089.07163086,0.00091510
4091.00043823,0.00095086
4092.92924561,0.00090630
4094.85805298,0.00089903
4096.78686035,0.00085397
4098.71566772,0.00088884
4100.64447510,0.00091879
4102.57328247,0.00092229
4104.50208984,0.00095891
4106.43089722,0.00089118
4108.35970459,0.00083826
4110.28851196,0.00091225
4112.21731934,0.00089449
4114.14612671,0.00080714
4116.07493408,0.00090434
4118.00374145,0.00096010
4119.93254883,0.00089602
4121.86135620,0.00091358
4123.79016357,0.00098150
4125.71897095,0.00093716
4127.64777832,0.00080297
4129.57658569,0.00089485
4131.50539307,0.00098549
4133.43420044,0.00091767
4135.36300781,0.00092158
4137.29181519,0.00088081
4139.22062256,0.00085842
4141.14942993,0.00085569
4143.07823730,0.00082543
4145.00704468,0.00088388
4146.93585205,0.00086916
4148.86465942,0.00085879
4150.79346680,0.00090831
4152.72227417,0.00082078
4154.65108154,0.00079934
4156.57988892,0.00083824
4158.50869629,0.00088961
4160.43750366,0.00097558
4162.36631103,0.00086469
4164.29511841,0.00080340
4166.22392578,0.00082425
4168.15273315,0.00081674
4170.08154053,0.00086930
4172.01034790,0.00089562
4173.93915527,0.00091029
4175.86796265,0.00083913
4177.79677002,0.00082190
4179.72557739,0.00082901
4181.65438477,0.00084469
4183.58319214,0.00090169
4185.51199951,0.00079657
4187.44080688,0.00084672
4189.36961426,0.00089001
4191.29842163,0.00078734
4193.22722900,0.00084163
4195.15603638,0.00085576
4197.08484375,0.00085074
4199.01365112,0.00083262
4200.94245850,0.00076779
4202.87126587,0.00085413
4204.80007324,0.00084446
4206.72888062,0.00076056
4208.65768799,0.00088463
4210.58649536,0.00083603
4212.51530273,0.00079202
4214.44411011,0.00086312
4216.37291748,0.00076533
4218.30172485,0.00087460
4220.23053223,0.00087917
4222.15933960,0.00074878
4224.08814697,0.00077070
4226.01695435,0.00076066
4227.94576172,0.00083018
4229.87456909,0.00080018
4231.80337646,0.00075961
4233.73218384,0.00079083
4235.66099121,0.00079495
4237.58979858,0.00076748
4239.51860596,0.00074613
4241.44741333,0.00082029
4243.37622070,0.00074390
4245.30502808,0.00075950
4247.23383545,0.00085043
4249.16264282,0.00081886
4251.09145020,0.00081614
4253.02025757,0.00079312
4254.94906494,0.00082543
4256.87787231,0.00079320
4258.80667969,0.00076965
4260.73548706,0.00076188
4262.66429443,0.00069724
4264.59310181,0.00075532
4266.52190918,0.00080763
4268.45071655,0.00076584
4270.37952393,0.00074681
4272.30833130,0.00080161
4274.23713867,0.00073800
4276.16594604,0.00075627
4278.09475342,0.00083283
4280.02356079,0.00071699
4281.95236816,0.00076039
4283.88117554,0.00078220
4285.80998291,0.00073486
4287.73879028,0.00076639
4289.66759766,0.00072183
4291.59640503,0.00072146
4293.52521240,0.00071660
4295.45401978,0.00079456
4297.38282715,0.00086085
4299.31163452,0.00071956
4301.24044189,0.00071691
4303.16924927,0.00076490
4305.09805664,0.00069035
4307.02686401,0.00067460
4308.95567139,0.00066384
4310.88447876,0.00074638
4312.81328613,0.00077617
4314.74209351,0.00067493
4316.67090088,0.00074741
4318.59970825,0.00072379
4320.52851562,0.00066975
4322.45732300,0.00075684
4324.38613037,0.00076344
4326.31493774,0.00080006
4328.24374512,0.00076280
4330.17255249,0.00069533
4332.10135986,0.00075834
4334.03016724,0.00075056
4335.95897461,0.00070087
4337.88778198,0.00072217
4339.81658936,0.00073658
4341.74539673,0.00072150
4343.67420410,0.00069006
4345.60301147,0.00072582
4347.53181885,0.00077073
4349.46062622,0.00072100
4351.38943359,0.00074253
4353.31824097,0.00068522
4355.24704834,0.00070074
4357.17585571,0.00079101
4359.10466309,0.00064365
4361.03347046,0.00068742
4362.96227783,0.00074160
4364.89108520,0.00070313
4366.81989258,0.00069689
4368.74869995,0.00063384
4370.67750732,0.00071947
4372.60631470,0.00066681
4374.53512207,0.00067912
4376.46392944,0.00073895
4378.39273682,0.00060335
4380.32154419,0.00068217
4382.25035156,0.00077015
4384.17915894,0.00067506
4386.10796631,0.00066050
4388.03677368,0.00076745
4389.96558105,0.00067868
4391.89438843,0.00054867
4393.82319580,0.00059217
4395.75200317,0.00064606
4397.68081055,0.00069257
4399.60961792,0.00062656
4401.53842529,0.00067175
4403.46723267,0.00068486
4405.39604004,0.00063078
4407.32484741,0.00070914
4409.25365478,0.00063153
4411.18246216,0.00060621
4413.11126953,0.00064107
4415.04007690,0.00069845
4416.96888428,0.00068367
4418.89769165,0.00054466
4420.82649902,0.00063729
4422.75530640,0.00067262
4424.68411377,0.00060943
4426.61292114,0.00058657
4428.54172852,0.00060060
4430.47053589,0.00065944
4432.39934326,0.00061032
4434.32815063,0.00064761
4436.25695801,0.00070277
4438.18576538,0.00067682
4440.11457275,0.00067046
4442.04338013,0.00065048
4443.97218750,0.00064062
4445.90099487,0.00058574
4447.82980225,0.00058326
4449.75860962,0.00062566
4451.68741699,0.00056760
4453.61622437,0.00054425
4455.54503174,0.00056403
4457.47383911,0.00058818
4459.40264648,0.00065246
4461.33145386,0.00065856
4463.26026123,0.00065506
4465.18906860,0.00064715
4467.11787598,0.00062380
4469.04668335,0.00064128
4470.97549072,0.00059098
4472.90429810,0.00059840
4474.83310547,0.00065339
4476.76191284,0.00061564
4478.69072021,0.00059840
4480.61952759,0.00061184
4482.54833496,0.00062981
4484.47714233,0.00056350
4486.40594971,0.00055645
4488.33475708,0.00063685
4490.26356445,0.00062531
4492.19237183,0.00063514
4494.12117920,0.00057035
4496.04998657,0.00056169
4497.97879395,0.00061364
4499.90760132,0.00056970
4501.83640869,0.00059136
4503.76521606,0.00051432
4505.69402344,0.00055422
4507.62283081,0.00066281
4509.55163818,0.00059736
4511.48044556,0.00061776
4513.40925293,0.00054314
4515.33806030,0.00050056
4517.26686768,0.00055213
4519.19567505,0.00055155
4521.12448242,0.00059304
4523.05328979,0.00060443
4524.98209717,0.00064846
4526.91090454,0.00062673
4528.83971191,0.00060581
4530.76851929,0.00056823
4532.69732666,0.00054773
4534.62613403,0.00063308
4536.55494141,0.00054464
4538.48374878,0.00055293
4540.41255615,0.00058529
4542.34136353,0.00053632
4544.27017090,0.00056061
4546.19897827,0.00054460
4548.12778564,0.00057346
4550.05659302,0.00050700
4551.98540039,0.00050857
4553.91420776,0.00057853
4555.84301514,0.00059282
4557.77182251,0.00063281
4559.70062988,0.00053949
4561.62943726,0.00051446
4563.55824463,0.00052624
4565.48705200,0.00052955
4567.41585937,0.00057453
4569.34466675,0.00056531
4571.27347412,0.00054699
4573.20228149,0.00051053
4575.13108887,0.00054930
4577.05989624,0.00057876
4578.98870361,0.00056691
4580.91751099,0.00054199
4582.84631836,0.00057013
4584.77512573,0.00058994
4586.70393311,0.00045906
4588.63274048,0.00049080
4590.56154785,0.00053328
4592.49035522,0.00046769
4594.41916260,0.00049641
4596.34796997,0.00052301
4598.27677734,0.00054960
4600.20558472,0.00052539
4602.13439209,0.00049053
4604.06319946,0.00048650
4605.99200684,0.00049235
4607.92081421,0.00053587
4609.84962158,0.00051060
4611.77842895,0.00048334
4613.70723633,0.00051131
4615.63604370,0.00050977
4617.56485107,0.00050999
4619.49365845,0.00052217
4621.42246582,0.00055920
4623.35127319,0.00053344
4625.28008057,0.00047349
4627.20888794,0.00053906
4629.13769531,0.00048558
4631.06650269,0.00045849
4632.99531006,0.00052555
4634.92411743,0.00040473
4636.85292480,0.00043624
4638.78173218,0.00051314
4640.71053955,0.00048546
4642.63934692,0.00054226
4644.56815430,0.00052342
4646.49696167,0.00045945
4648.42576904,0.00050644
4650.35457642,0.00052356
4652.28338379,0.00039772
4654.21219116,0.00046768
4656.14099853,0.00055608
4658.06980591,0.00050611
4659.99861328,0.00052455
4661.92742065,0.00046615
4663.85622803,0.00051168
4665.78503540,0.00050927
4667.71384277,0.00045789
4669.64265015,0.00048716
4671.57145752,0.00043045
4673.50026489,0.00051594
4675.42907227,0.00049640
4677.35787964,0.00037591
4679.28668701,0.00040535
4681.21549438,0.00046078
4683.14430176,0.00054048
4685.07310913,0.00050123
4687.00191650,0.00045117
4688.93072388,0.00046094
4690.85953125,0.00041240
4692.78833862,0.00043930
4694.71714600,0.00045722
4696.64595337,0.00046731
4698.57476074,0.00055190
4700.50356812,0.00047060
4702.43237549,0.00045612
4704.36118286,0.00056044
4706.28999023,0.00044023
4708.21879761,0.00039398
4710.14760498,0.00049658
4712.07641235,0.00052556
4714.00521973,0.00042512
4715.93402710,0.00037960
4717.86283447,0.00045658
4719.79164185,0.00041045
4721.72044922,0.00041320
4723.64925659,0.00045394
4725.57806396,0.00047660
4727.50687134,0.00050107
4729.43567871,0.00045890
4731.36448608,0.00045438
4733.29329346,0.00043737
4735.22210083,0.00047840
4737.15090820,0.00044574
4739.07971558,0.00039160
4741.00852295,0.00050460
4742.93733032,0.00049046
4744.86613770,0.00038197
4746.79494507,0.00037984
4748.72375244,0.00038631
4750.65255981,0.00039835
4752.58136719,0.00047177
4754.51017456,0.00040843
4756.43898193,0.00041245
4758.36778931,0.00045120
4760.29659668,0.00033956
4762.22540405,0.00042784
4764.15421143,0.00043641
4766.08301880,0.00039708
4768.01182617,0.00042043
4769.94063354,0.00036004
4771.86944092,0.00040373
4773.79824829,0.00037405
4775.72705566,0.00037411
4777.65586304,0.00037489
4779.58467041,0.00036869
4781.51347778,0.00041818
4783.44228516,0.00035194
4785.37109253,0.00043059
4787.29989990,0.00046745
4789.22870728,0.00040303
4791.15751465,0.00044477
4793.08632202,0.00041475
4795.01512939,0.00038409
4796.94393677,0.00036471
4798.87274414,0.00037319
4800.80155151,0.00046530
4802.73035889,0.00047982
4804.65916626,0.00044226
4806.58797363,0.00038696
4808.51678101,0.00037065
4810.44558838,0.00046379
4812.37439575,0.00043622
4814.30320312,0.00035964
4816.23201050,0.00037170
4818.16081787,0.00040965
4820.08962524,0.00045719
4822.01843262,0.00035414
4823.94723999,0.00031384
4825.87604736,0.00041377
4827.80485474,0.00039159
4829.73366211,0.00035403
4831.66246948,0.00038562
4833.59127686,0.00038409
4835.52008423,0.00034030
4837.44889160,0.00037819
4839.37769897,0.00042103
4841.30650635,0.00041465
4843.23531372,0.00042484
4845.16412109,0.00042936
4847.09292847,0.00044145
4849.02173584,0.00036139
4850.95054321,0.00027911
4852.87935059,0.00033274
4854.80815796,0.00036112
4856.73696533,0.00031141
4858.66577270,0.00036867
4860.59458008,0.00045561
4862.52338745,0.00040740
4864.45219482,0.00038438
4866.38100220,0.00035556
4868.30980957,0.00033510
4870.23861694,0.00039656
4872.16742432,0.00038484
4874.09623169,0.00035633
4876.02503906,0.00039512
4877.95384644,0.00042677
4879.88265381,0.00042519
4881.81146118,0.00038578
4883.74026855,0.00035068
4885.66907593,0.00039610
4887.59788330,0.00038062
4889.52669067,0.00034886
4891.45549805,0.00037351
4893.38430542,0.00037274
4895.31311279,0.00040660
4897.24192017,0.00037316
4899.17072754,0.00035995
4901.09953491,0.00038095
4903.02834228,0.00038764
4904.95714966,0.00039798
4906.88595703,0.00033877
4908.81476440,0.00033830
4910.74357178,0.00034692
4912.67237915,0.00041821
4914.60118652,0.00041331
4916.52999390,0.00033794
4918.45880127,0.00037634
4920.38760864,0.00032698
4922.31641602,0.00032212
4924.24522339,0.00035096
4926.17403076,0.00036091
4928.10283813,0.00033503
4930.03164551,0.00038036
4931.96045288,0.00044124
4933.88926025,0.00030145
4935.81806763,0.00029839
4937.74687500,0.00030103
4939.67568237,0.00034704
4941.60448975,0.00035309
4943.53329712,0.00027424
4945.46210449,0.00039343
4947.39091187,0.00030815
4949.31971924,0.00029722
4951.24852661,0.00037875
4953.17733398,0.00033655
4955.10614136,0.00034364
4957.03494873,0.00034326
4958.96375610,0.00041681
4960.89256348,0.00033419
4962.82137085,0.00028009
4964.75017822,0.00032356
4966.67898560,0.00033388
4968.60779297,0.00037436
4970.53660034,0.00030226
4972.46540771,0.00033854
4974.39421509,0.00032673
4976.32302246,0.00024344
4978.25182983,0.00033342
4980.18063721,0.00031889
4982.10944458,0.00026705
4984.03825195,0.00037835
4985.96705933,0.00031849
4987.89586670,0.00025985
4989.82467407,0.00045074
4991.75348145,0.00038037
4993.68228882,0.00034479
4995.61109619,0.00044121
4997.53990356,0.00034903
4999.46871094,0.00034182
5001.39751831,0.00031668
5003.32632568,0.00032400
5005.25513306,0.00032802
5007.18394043,0.00030218
5009.11274780,0.00034639
5011.04155518,0.00033844
5012.97036255,0.00033809
5014.89916992,0.00031016
5016.82797729,0.00032952
5018.75678467,0.00030939
5020.68559204,0.00029913
5022.61439941,0.00032562
5024.54320679,0.00028737
5026.47201416,0.00033754
5028.40082153,0.00031442
5030.32962891,0.00035753
5032.25843628,0.00035969
5034.18724365,0.00028173
5036.11605103,0.00038818
5038.04485840,0.00030793
5039.97366577,0.00024246
5041.90247314,0.00035182
5043.83128052,0.00030185
5045.76008789,0.00022801
5047.68889526,0.00028154
5049.61770264,0.00029812
5051.54651001,0.00029286
5053.47531738,0.00034235
5055.40412476,0.00027035
5057.33293213,0.00028827
5059.26173950,0.00035570
5061.19054687,0.00028222
5063.11935425,0.00028127
5065.04816162,0.00030529
5066.97696899,0.00032689
5068.90577637,0.00031063
5070.83458374,0.00031797
5072.76339111,0.00030024
5074.69219849,0.00023299
5076.62100586,0.00030531
5078.54981323,0.00032552
5080.47862061,0.00036312
5082.40742798,0.00036406
5084.33623535,0.00028510
5086.26504272,0.00027835
5088.19385010,0.00020532
5090.12265747,0.00030810
5092.05146484,0.00038124
5093.98027222,0.00025576
5095.90907959,0.00028282
5097.83788696,0.00032619
5099.76669434,0.00032816
5101.69550171,0.00024463
5103.62430908,0.00021556
5105.55311645,0.00028879
5107.48192383,0.00022297
5109.41073120,0.00030392
5111.33953857,0.00032034
5113.26834595,0.00017998
5115.19715332,0.00026195
5117.12596069,0.00030658
5119.05476807,0.00031936
5120.98357544,0.00029203
5122.91238281,0.00024540
5124.84119019,0.00030428
5126.76999756,0.00024257
5128.69880493,0.00027720
5130.62761230,0.00032360
5132.55641968,0.00029066
5134.48522705,0.00029366
5136.41403442,0.00016590
5138.34284180,0.00018247
5140.27164917,0.00026490
5142.20045654,0.00030066
5144.12926392,0.00031253
5146.05807129,0.00020635
5147.98687866,0.00029437
5149.91568603,0.00034743
5151.84449341,0.00025025
5153.77330078,0.00027748
5155.70210815,0.00029108
5157.63091553,0.00023451
5159.55972290,0.00026478
5161.48853027,0.00030680
5163.41733765,0.00018058
5165.34614502,0.00020475
5167.27495239,0.00023309
5169.20375977,0.00018303
5171.13256714,0.00032032
5173.06137451,0.00024376
5174.99018188,0.00024981
5176.91898926,0.00031394
5178.84779663,0.00016346
5180.77660400,0.00026464
5182.70541138,0.00026361
5184.63421875,0.00020920
5186.56302612,0.00029150
5188.49183350,0.00024843
5190.42064087,0.00027828
5192.34944824,0.00023118
5194.27825562,0.00021310
5196.20706299,0.00030462
5198.13587036,0.00025329
5200.06467773,0.00024179
5201.99348511,0.00023989
5203.92229248,0.00021322
5205.85109985,0.00021204
5207.77990723,0.00022321
5209.70871460,0.00027822
5211.63752197,0.00023382
5213.56632935,0.00021015
5215.49513672,0.00025756
5217.42394409,0.00020981
5219.35275146,0.00019603
5221.28155884,0.00023290
5223.21036621,0.00020819
5225.13917358,0.00022661
5227.06798096,0.00030298
5228.99678833,0.00023338
5230.92559570,0.00019001
5232.85440308,0.00028395
5234.78321045,0.00023386
5236.71201782,0.00019862
5238.64082520,0.00025624
5240.56963257,0.00027860
5242.49843994,0.00025729
5244.42724731,0.00019906
5246.35605469,0.00023029
5248.28486206,0.00022013
5250.21366943,0.00023258
5252.14247681,0.00030417
5254.07128418,0.00023441
5256.00009155,0.00024436
5257.92889893,0.00032383
5259.85770630,0.00022417
5261.78651367,0.00013061
5263.71532104,0.00024438
5265.64412842,0.00028186
5267.57293579,0.00022031
5269.50174316,0.00019587
5271.43055054,0.00011423
5273.35935791,0.00020300
5275.28816528,0.00022933
5277.21697266,0.00016654
5279.14578003,0.00026475
5281.07458740,0.00018686
5283.00339478,0.00019957
5284.93220215,0.00026175
5286.86100952,0.00018266
5288.78981689,0.00023626
5290.71862427,0.00021059
5292.64743164,0.00024404
5294.57623901,0.00029474
5296.50504639,0.00023188
5298.43385376,0.00027310
5300.36266113,0.00023250
5302.29146851,0.00022130
5304.22027588,0.00027957
5306.14908325,0.00026553
5308.07789062,0.00023696
5310.00669800,0.00020988
5311.93550537,0.00022099
5313.86431274,0.00020096
5315.79312012,0.00020597
5317.72192749,0.00021456
5319.65073486,0.00019487
5321.57954224,0.00020776
5323.50834961,0.00021194
5325.43715698,0.00022816
5327.36596436,0.00020771
5329.29477173,0.00019553
5331.22357910,0.00021673
5333.15238647,0.00025381
5335.08119385,0.00025113
5337.01000122,0.00020837
5338.93880859,0.00022605
5340.86761597,0.00019279
5342.79642334,0.00020109
5344.72523071,0.00021634
5346.65403809,0.00021163
5348.58284546,0.00022963
5350.51165283,0.00018562
5352.44046020,0.00024446
5354.36926758,0.00020910
5356.29807495,0.00016704
5358.22688232,0.00020722
5360.15568970,0.00018166
5362.08449707,0.00021329
5364.01330444,0.00015259
5365.94211182,0.00017655
5367.87091919,0.00022618
5369.79972656,0.00020392
5371.72853394,0.00020655
5373.65734131,0.00015533
5375.58614868,0.00023879
5377.51495605,0.00024009
5379.44376343,0.00021088
5381.37257080,0.00021739
5383.30137817,0.00016338
5385.23018555,0.00020832
5387.15899292,0.00019576
5389.08780029,0.00030473
5391.01660767,0.00034300
5392.94541504,0.00020154
5394.87422241,0.00025947
5396.80302978,0.00023223
5398.73183716,0.00018139
5400.66064453,0.00022102
5402.58945190,0.00018449
5404.51825928,0.00019248
5406.44706665,0.00021802
5408.37587402,0.00021141
5410.30468140,0.00019630
5412.23348877,0.00022732
5414.16229614,0.00018403
5416.09110352,0.00011948
5418.01991089,0.00019483
5419.94871826,0.00017685
5421.87752563,0.00016671
5423.80633301,0.00022976
5425.73514038,0.00022977
5427.66394775,0.00017944
5429.59275513,0.00015017
5431.52156250,0.00026313
5433.45036987,0.00019420
5435.37917725,0.00012585
5437.30798462,0.00022840
5439.23679199,0.00015874
5441.16559936,0.00018828
5443.09440674,0.00017063
5445.02321411,0.00016610
5446.95202148,0.00028122
5448.88082886,0.00018197
5450.80963623,0.00020080
5452.73844360,0.00022543
5454.66725098,0.00017713
5456.59605835,0.00020103
5458.52486572,0.00017352
5460.45367310,0.00018198
5462.38248047,0.00017474
5464.31128784,0.00017504
5466.24009521,0.00016652
5468.16890259,0.00017151
5470.09770996,0.00017043
5472.02651733,0.00012767
5473.95532471,0.00016238
5475.88413208,0.00020546
5477.81293945,0.00019257
5479.74174683,0.00013227
5481.67055420,0.00017883
5483.59936157,0.00018309
5485.52816895,0.00012425
5487.45697632,0.00017707
5489.38578369,0.00015911
5491.31459106,0.00012663
5493.24339844,0.00014657
5495.17220581,0.00020252
5497.10101318,0.00014848
5499.02982056,0.00014476
5500.95862793,0.00023294
5502.88743530,0.00011317
5504.81624268,0.00015925
5506.74505005,0.00023581
5508.67385742,0.00012872
5510.60266479,0.00012499
5512.53147217,0.00016980
5514.46027954,0.00019095
5516.38908691,0.00018160
5518.31789429,0.00014218
5520.24670166,0.00008150
5522.17550903,0.00013115
5524.10431641,0.00015414
5526.03312378,0.00008890
5527.96193115,0.00010917
5529.89073853,0.00014678
5531.81954590,0.00020332
5533.74835327,0.00017509
5535.67716064,0.00012074
5537.60596802,0.00012241
5539.53477539,0.00014956
5541.46358276,0.00018969
5543.39239014,0.00015167
5545.32119751,0.00012834
5547.25000488,0.00010400
5549.17881226,0.00016652
5551.10761963,0.00022507
5553.03642700,0.00015015
5554.96523437,0.00013396
5556.89404175,0.00014112
5558.82284912,0.00018006
5560.75165649,0.00015784
5562.68046387,0.00013833
5564.60927124,0.00021055
5566.53807861,0.00018947
5568.46688599,0.00015984
5570.39569336,0.00013905
5572.32450073,0.00014249
5574.25330811,0.00015868
5576.18211548,0.00013410
5578.11092285,0.00013769
5580.03973022,0.00014968
5581.96853760,0.00017191
5583.89734497,0.00015409
5585.82615234,0.00012727
5587.75495972,0.00013236
5589.68376709,0.00010073
5591.61257446,0.00012488
5593.54138184,0.00017609
5595.47018921,0.00013273
5597.39899658,0.00013886
5599.32780395,0.00016624
5601.25661133,0.00012147
5603.18541870,0.00014415
5605.11422607,0.00015726
5607.04303345,0.00013153
5608.97184082,0.00011585
5610.90064819,0.00011166
5612.82945557,0.00015213
5614.75826294,0.00010860
5616.68707031,0.00010041
5618.61587769,0.00013964
5620.54468506,0.00012070
5622.47349243,0.00016204
5624.40229980,0.00019478
5626.33110718,0.00016433
5628.25991455,0.00006893
5630.18872192,0.00010004
5632.11752930,0.00018704
5634.04633667,0.00011340
5635.97514404,0.00011602
5637.90395142,0.00012715
5639.83275879,0.00012889
5641.76156616,0.00015996
5643.69037353,0.00014146
5645.61918091,0.00014016
5647.54798828,0.00012899
5649.47679565,0.00015648
5651.40560303,0.00015430
5653.33441040,0.00015115
5655.26321777,0.00013722
5657.19202515,0.00009750
5659.12083252,0.00012561
5661.04963989,0.00010833
5662.97844727,0.00015817
5664.90725464,0.00016623
5666.83606201,0.00013367
5668.76486938,0.00016864
5670.69367676,0.00011343
5672.62248413,0.00014820
5674.55129150,0.00016499
5676.48009888,0.00013168
5678.40890625,0.00015671
5680.33771362,0.00011329
5682.26652100,0.00013106
5684.19532837,0.00017642
5686.12413574,0.00017554
5688.05294311,0.00016325
5689.98175049,0.00011825
5691.91055786,0.00008151
5693.83936523,0.00010639
5695.76817261,0.00014799
5697.69697998,0.00011669
5699.62578735,0.00010092
5701.55459473,0.00014316
5703.48340210,0.00009458
5705.41220947,0.00003239
5707.34101685,0.00010661
5709.26982422,0.00013671
5711.19863159,0.00015479
5713.12743896,0.00017646
5715.05624634,0.00013168
5716.98505371,0.00016546
5718.91386108,0.00016223
5720.84266846,0.00016383
5722.77147583,0.00016439
5724.70028320,0.00014080
5726.62909058,0.00016220
5728.55789795,0.00009636
5730.48670532,0.00009632
5732.41551270,0.00015325
5734.34432007,0.00015136
5736.27312744,0.00010041
5738.20193481,0.00016870
5740.13074219,0.00022217
5742.05954956,0.00007275
5743.98835693,0.00015850
5745.91716431,0.00017928
5747.84597168,0.00005882
5749.77477905,0.00011100
5751.70358643,0.00013936
5753.63239380,0.00012699
5755.56120117,0.00003936
5757.49000854,0.00009253
5759.41881592,0.00012897
5761.34762329,0.00007843
5763.27643066,0.00011516
5765.20523804,0.00009187
5767.13404541,0.00015082
5769.06285278,0.00011959
5770.99166016,0.00010387
5772.92046753,0.00016982
5774.84927490,0.00008974
5776.77808228,0.00010484
5778.70688965,0.00010540
5780.63569702,0.00005124
5782.56450439,0.00011892
5784.49331177,0.00007128
5786.42211914,0.00008258
5788.35092651,0.00018443
5790.27973389,0.00007614
5792.20854126,0.00006783
5794.13734863,0.00008081
5796.06615601,0.00007336
5797.99496338,0.00007801
5799.92377075,0.00003286
5801.85257812,0.00019531
5803.78138550,0.00012959
5805.71019287,0.00003993
5807.63900024,0.00013591
5809.56780762,0.00013582
5811.49661499,0.00017312
5813.42542236,0.00010879
5815.35422974,0.00012830
5817.28303711,0.00012501
5819.21184448,0.00010239
5821.14065186,0.00011429
5823.06945923,0.00008853
5824.99826660,0.00015158
5826.92707397,0.00003472
5828.85588135,0.00008923
5830.78468872,0.00013383
5832.71349609,0.00002434
5834.64230347,0.00006655
5836.57111084,0.00003057
5838.49991821,0.00009075
5840.42872559,0.00009293
5842.35753296,0.00010665
5844.28634033,0.00014869
5846.21514770,0.00008796
5848.14395508,0.00017631
5850.07276245,0.00016966
5852.00156982,0.00011551
5853.93037720,0.00013476
5855.85918457,0.00014976
5857.78799194,0.00009488
5859.71679932,0.00004371
5861.64560669,0.00011987
5863.57441406,0.00009963
5865.50322144,0.00005950
5867.43202881,0.00007930
5869.36083618,0.00008511
5871.28964355,0.00011247
5873.21845093,0.00009246
5875.14725830,0.00006842
5877.07606567,0.00009158
5879.00487305,0.00008959
5880.93368042,0.00012529
5882.86248779,0.00010025
5884.79129517,0.00003888
5886.72010254,0.00010153
5888.64890991,0.00005631
5890.57771728,0.00007218
5892.50652466,0.00016737
5894.43533203,0.00012024
5896.36413940,0.00008683
5898.29294678,0.00005753
5900.22175415,0.00006653
5902.15056152,0.00005841
5904.07936890,0.00005625
5906.00817627,0.00011601
5907.93698364,0.00014779
5909.86579102,0.00009925
5911.79459839,0.00005433
5913.72340576,0.00007286
5915.65221313,0.00004780
5917.58102051,0.00011361
5919.50982788,0.00009131
5921.43863525,0.00007098
5923.36744263,0.00012028
5925.29625000,0.00005447
5927.22505737,0.00012222
5929.15386475,0.00011846
5931.08267212,0.00011047
5933.01147949,0.00006675
5934.94028686,0.00006530
5936.86909424,0.00018210
5938.79790161,0.00006621
5940.72670898,0.00012728
5942.65551636,0.00016821
5944.58432373,0.00012623
5946.51313110,0.00011992
5948.44193848,0.00000927
5950.37074585,0.00009716
5952.29955322,0.00016001
5954.22836060,0.00009778
5956.15716797,0.00000527
5958.08597534,0.00007411
5960.01478271,0.00011330
5961.94359009,-0.00000601
5963.87239746,0.00008063
5965.80120483,0.00009734
5967.73001221,0.00007840
5969.65881958,0.00009579
5971.58762695,0.00004109
5973.51643433,0.00006216
5975.44524170,0.00013074
5977.37404907,0.00013069
5979.30285645,0.00010013
5981.23166382,0.00008092
5983.16047119,0.00005691
5985.08927856,0.00007800
5987.01808594,0.00003990
5988.94689331,0.00012261
5990.87570068,0.00011013
5992.80450806,0.00005015
5994.73331543,0.00019955
5996.66212280,0.00008911
5998.59093018,0.00006493
6000.51973755,0.00006838
