399.26312622,0.00023905
401.19193359,0.00034124
403.12074097,0.00012234
405.04954834,0.00032144
406.97835571,0.00026506
408.90716309,0.00058631
410.83597046,0.00078445
412.76477783,0.00012590
414.69358521,0.00032204
416.62239258,0.00048822
418.55119995,0.00017022
420.48000732,0.00038639
422.40881470,0.00041780
424.33762207,0.00023153
426.26642944,0.00004205
428.19523682,0.00037561
430.12404419,0.00075788
432.05285156,0.00053656
433.98165894,0.00062112
435.91046631,0.00045103
437.83927368,0.00012630
439.76808105,0.00016847
441.69688843,0.00045911
443.62569580,0.00056285
445.55450317,0.00023471
447.48331055,0.00038861
449.41211792,0.00023196
451.34092529,0.00023223
453.26973267,0.00030552
455.19854004,0.00013579
457.12734741,0.00056759
459.05615479,0.00019518
460.98496216,0.00020115
462.91376953,0.00052193
464.84257690,0.00003475
466.77138428,0.00031579
468.70019165,0.00037221
470.62899902,-0.00001349
472.55780640,0.00034051
474.48661377,0.00041486
476.41542114,0.00023746
478.34422852,0.00013312
480.27303589,-0.00010708
482.20184326,0.00034389
484.13065063,0.00020853
486.05945801,0.00011326
487.98826538,0.00039265
489.91707275,-0.00011518
491.84588013,0.00022533
493.77468750,0.00032366
495.70349487,0.00020327
497.63230225,0.00042858
499.56110962,-0.00000686
501.48991699,-0.00015448
503.41872437,0.00009614
505.34753174,0.00026979
507.27633911,0.00044525
509.20514648,0.00051775
511.13395386,-0.00029324
513.06276123,-0.00034961
514.99156860,0.00022098
516.92037598,0.00027801
518.84918335,0.00043109
520.77799072,0.00024762
522.70679810,0.00017572
524.63560547,-0.00028753
526.56441284,-0.00012965
528.49322021,0.00045819
530.42202759,-0.00004959
532.35083496,-0.00001131
534.27964233,0.00020419
536.20844971,0.00038483
538.13725708,0.00020272
540.06606445,0.00000872
541.99487183,0.00061574
543.92367920,0.00070639
545.85248657,0.00043394
547.78129395,0.00025822
549.71010132,0.00045628
551.63890869,0.00027242
553.56771606,0.00010047
555.49652344,0.00044702
557.42533081,0.00016437
559.35413818,0.00008644
561.28294556,0.00030516
563.21175293,0.00039662
565.14056030,0.00030958
567.06936768,0.00014567
568.99817505,0.00005090
570.92698242,0.00008225
572.85578979,0.00037282
574.78459717,0.00054688
576.71340454,0.00061568
578.64221191,0.00019120
580.57101929,-0.00000706
582.49982666,0.00008544
584.42863403,-0.00001521
586.35744141,0.00007932
588.28624878,0.00003029
590.21505615,0.00011403
592.14386353,0.00024380
594.07267090,0.00031554
596.00147827,-0.00005340
597.93028564,-0.00007372
599.85909302,0.00046669
601.78790039,0.00025443
603.71670776,0.00016335
605.64551514,0.00006515
607.57432251,0.00004637
609.50312988,0.00018373
611.43193726,0.00029459
613.36074463,0.00036315
615.28955200,-0.00007330
617.21835938,-0.00010692
619.14716675,0.00022648
621.07597412,0.00012935
623.00478149,-0.00011193
624.93358887,0.00026483
626.86239624,0.00006274
628.79120361,-0.00012055
630.72001099,0.00027981
632.64881836,-0.00014796
634.57762573,0.00011107
636.50643311,0.00051762
638.43524048,0.00017530
640.36404785,0.00026018
642.29285522,0.00037579
644.22166260,0.00047147
646.15046997,0.00053647
648.07927734,0.00071983
650.00808472,0.00063884
651.93689209,0.00041890
653.86569946,0.00080952
655.79450684,0.00085109
657.72331421,0.00109957
659.65212158,0.00087432
661.58092896,0.00035182
663.50973633,0.00068710
665.43854370,0.00079673
667.36735107,0.00091105
669.29615845,0.00067660
671.22496582,0.00074067
673.15377319,0.00087469
675.08258057,0.00060697
677.01138794,0.00122554
678.94019531,0.00105851
680.86900269,0.00082145
682.79781006,0.00134492
684.72661743,0.00106387
686.65542480,0.00098318
688.58423218,0.00120521
690.51303955,0.00116017
692.44184692,0.00103544
694.37065430,0.00121128
696.29946167,0.00142056
698.22826904,0.00115690
700.15707642,0.00158866
702.08588379,0.00187127
704.01469116,0.00159087
705.94349854,0.00177678
707.87230591,0.00136134
709.80111328,0.00075607
711.72992065,0.00052155
713.65872803,0.00044236
715.58753540,0.00049176
717.51634277,0.00030797
719.44515015,0.00045221
721.37395752,0.00025123
723.30276489,-0.00011967
725.23157227,0.00028785
727.16037964,0.00016761
729.08918701,-0.00004576
731.01799438,0.00013653
732.94680176,-0.00006752
734.87560913,-0.00002772
736.80441650,0.00028904
738.73322388,0.00036575
740.66203125,0.00020356
742.59083862,0.00028153
744.51964600,0.00032116
746.44845337,0.00016822
748.37726074,0.00034921
750.30606812,0.00015618
752.23487549,0.00024349
754.16368286,0.00052831
756.09249023,0.00020409
758.02129761,0.00004320
759.95010498,-0.00001556
761.87891235,-0.00011619
763.80771973,0.00014729
765.73652710,0.00029611
767.66533447,0.00026963
769.59414185,0.00027643
771.52294922,0.00018982
773.45175659,0.00053192
775.38056396,0.00038936
777.30937134,-0.00001712
779.23817871,0.00022548
781.16698608,0.00011423
783.09579346,0.00006720
785.02460083,0.00025198
786.95340820,0.00033569
788.88221558,0.00017218
790.81102295,-0.00001961
792.73983032,-0.00003781
794.66863770,0.00016455
796.59744507,0.00058980
798.52625244,0.00036516
800.45505981,0.00039246
802.38386719,0.00060181
804.31267456,0.00051174
806.24148193,0.00047017
808.17028931,0.00018129
810.09909668,0.00028981
812.02790405,0.00036416
813.95671143,0.00029888
815.88551880,0.00029534
817.81432617,0.00019558
819.74313354,0.00026463
821.67194092,0.00011740
823.60074829,0.00012227
825.52955566,0.00027241
827.45836304,0.00035933
829.38717041,0.00041675
831.31597778,0.00035668
833.24478516,0.00049279
835.17359253,0.00054566
837.10239990,0.00051648
839.03120728,0.00053286
840.96001465,0.00063782
842.88882202,0.00072204
844.81762939,0.00050521
846.74643677,0.00047702
848.67524414,0.00039488
850.60405151,0.00032541
852.53285889,0.00056106
854.46166626,0.00024010
856.39047363,0.00013582
858.31928101,0.00046303
860.24808838,0.00032066
862.17689575,0.00027000
864.10570313,0.00016098
866.03451050,0.00009956
867.96331787,0.00034332
869.89212524,0.00001407
871.82093262,-0.00009282
873.74973999,0.00040114
875.67854736,0.00035276
877.60735474,0.00028792
879.53616211,0.00026780
881.46496948,0.00010284
883.39377686,0.00031421
885.32258423,0.00042579
887.25139160,0.00034498
889.18019897,0.00029464
891.10900635,0.00033017
893.03781372,0.00045188
894.96662109,0.00048860
896.89542847,0.00027038
898.82423584,0.00029044
900.75304321,0.00038058
902.68185059,0.00026398
904.61065796,0.00034357
906.53946533,0.00023399
908.46827271,0.00047797
910.39708008,0.00059955
912.32588745,0.00052557
914.25469482,0.00064760
916.18350220,0.00041841
918.11230957,0.00061318
920.04111694,0.00035719
921.96992432,0.00027961
923.89873169,0.00077305
925.82753906,0.00058221
927.75634644,0.00076649
929.68515381,0.00075624
931.61396118,0.00057356
933.54276855,0.00068428
935.47157593,0.00079063
937.40038330,0.00086694
939.32919067,0.00057692
941.25799805,0.00078059
943.18680542,0.00102109
945.11561279,0.00113579
947.04442017,0.00107338
948.97322754,0.00075666
950.90203491,0.00107425
952.83084229,0.00107631
954.75964966,0.00092802
956.68845703,0.00075250
958.61726440,0.00061048
960.54607178,0.00093392
962.47487915,0.00093295
964.40368652,0.00095167
966.33249390,0.00085110
968.26130127,0.00079873
970.19010864,0.00092191
972.11891602,0.00091486
974.04772339,0.00107392
975.97653076,0.00099952
977.90533813,0.00097322
979.83414551,0.00123021
981.76295288,0.00154864
983.69176025,0.00144229
985.62056763,0.00156517
987.54937500,0.00218010
989.47818237,0.00208015
991.40698975,0.00221991
993.33579712,0.00243298
995.26460449,0.00245217
997.19341187,0.00287831
999.12221924,0.00303730
1001.05102661,0.00327617
1002.97983398,0.00357551
1004.90864136,0.00373425
1006.83744873,0.00400269
1008.76625610,0.00455566
1010.69506348,0.00462410
1012.62387085,0.00451299
1014.55267822,0.00519128
1016.48148560,0.00527258
1018.41029297,0.00546858
1020.33910034,0.00597596
1022.26790771,0.00588139
1024.19671509,0.00602501
1026.12552246,0.00630910
1028.05432983,0.00666881
1029.98313721,0.00677507
1031.91194458,0.00687577
1033.84075195,0.00697778
1035.76955933,0.00700460
1037.69836670,0.00747256
1039.62717407,0.00755238
1041.55598145,0.00741234
1043.48478882,0.00732856
1045.41359619,0.00727146
1047.34240356,0.00719703
1049.27121094,0.00712679
1051.20001831,0.00719948
1053.12882568,0.00671489
1055.05763306,0.00647061
1056.98644043,0.00656328
1058.91524780,0.00637652
1060.84405518,0.00631796
1062.77286255,0.00601301
1064.70166992,0.00569848
1066.63047729,0.00562123
1068.55928467,0.00541060
1070.48809204,0.00525724
1072.41689941,0.00500931
1074.34570679,0.00471196
1076.27451416,0.00466422
1078.20332153,0.00432073
1080.13212891,0.00404019
1082.06093628,0.00393535
1083.98974365,0.00371700
1085.91855103,0.00374071
1087.84735840,0.00328500
1089.77616577,0.00312678
1091.70497314,0.00341897
1093.63378052,0.00315937
1095.56258789,0.00307073
1097.49139526,0.00299807
1099.42020264,0.00291489
1101.34901001,0.00280033
1103.27781738,0.00279091
1105.20662476,0.00285148
1107.13543213,0.00261271
1109.06423950,0.00266593
1110.99304687,0.00246322
1112.92185425,0.00236942
1114.85066162,0.00252214
1116.77946899,0.00248956
1118.70827637,0.00266476
1120.63708374,0.00257262
1122.56589111,0.00254082
1124.49469849,0.00251045
1126.42350586,0.00255915
1128.35231323,0.00274079
1130.28112061,0.00267951
1132.20992798,0.00285994
1134.13873535,0.00294806
1136.06754272,0.00314613
1137.99635010,0.00333930
1139.92515747,0.00336190
1141.85396484,0.00350313
1143.78277222,0.00372831
1145.71157959,0.00417468
1147.64038696,0.00428425
1149.56919434,0.00461300
1151.49800171,0.00499052
1153.42680908,0.00510378
1155.35561646,0.00529024
1157.28442383,0.00518193
1159.21323120,0.00564247
1161.14203857,0.00606687
1163.07084595,0.00618272
1164.99965332,0.00639854
1166.92846069,0.00629096
1168.85726807,0.00666703
1170.78607544,0.00706778
1172.71488281,0.00720034
1174.64369019,0.00755416
1176.57249756,0.00769736
1178.50130493,0.00777944
1180.43011230,0.00834130
1182.35891968,0.00898925
1184.28772705,0.00913080
1186.21653442,0.00932867
1188.14534180,0.00993212
1190.07414917,0.01054859
1192.00295654,0.01096530
1193.93176392,0.01154461
1195.86057129,0.01211105
1197.78937866,0.01250641
1199.71818604,0.01307757
1201.64699341,0.01345388
1203.57580078,0.01408561
1205.50460815,0.01475193
1207.43341553,0.01516174
1209.36222290,0.01583217
1211.29103027,0.01620714
1213.21983765,0.01670444
1215.14864502,0.01732838
1217.07745239,0.01749991
1219.00625977,0.01774549
1220.93506714,0.01820591
1222.86387451,0.01839873
1224.79268188,0.01831378
1226.72148926,0.01854584
1228.65029663,0.01891456
1230.57910400,0.01904943
1232.50791138,0.01891182
1234.43671875,0.01884501
1236.36552612,0.01898270
1238.29433350,0.01896900
1240.22314087,0.01902160
1242.15194824,0.01898633
1244.08075562,0.01879984
1246.00956299,0.01856463
1247.93837036,0.01851275
1249.86717773,0.01858019
1251.79598511,0.01821804
1253.72479248,0.01815923
1255.65359985,0.01823585
1257.58240723,0.01795296
1259.51121460,0.01758067
1261.44002197,0.01714691
1263.36882935,0.01708963
1265.29763672,0.01687976
1267.22644409,0.01667563
1269.15525146,0.01666354
1271.08405884,0.01619056
1273.01286621,0.01605167
1274.94167358,0.01594356
1276.87048096,0.01552694
1278.79928833,0.01520619
1280.72809570,0.01481420
1282.65690308,0.01462735
1284.58571045,0.01426106
1286.51451782,0.01387676
1288.44332520,0.01381096
1290.37213257,0.01368595
1292.30093994,0.01349447
1294.22974731,0.01333928
1296.15855469,0.01346927
1298.08736206,0.01343218
1300.01616943,0.01340963
1301.94497681,0.01368434
1303.87378418,0.01379796
1305.80259155,0.01381616
1307.73139893,0.01383519
1309.66020630,0.01426411
1311.58901367,0.01453490
1313.51782104,0.01468001
1315.44662842,0.01509180
1317.37543579,0.01522964
1319.30424316,0.01592535
1321.23305054,0.01662829
1323.16185791,0.01683581
1325.09066528,0.01736318
1327.01947266,0.01782981
1328.94828003,0.01825056
1330.87708740,0.01877030
1332.80589478,0.01921052
1334.73470215,0.01958122
1336.66350952,0.01984534
1338.59231689,0.01964637
1340.52112427,0.01984841
1342.44993164,0.02068724
1344.37873901,0.02067381
1346.30754639,0.02076136
1348.23635376,0.02096513
1350.16516113,0.02073497
1352.09396851,0.02074528
1354.02277588,0.02038802
1355.95158325,0.02030493
1357.88039062,0.02028168
1359.80919800,0.01975980
1361.73800537,0.01890748
1363.66681274,0.01869730
1365.59562012,0.01976554
1367.52442749,0.01936402
1369.45323486,0.01899921
1371.38204224,0.01931637
1373.31084961,0.01839991
1375.23965698,0.01863496
1377.16846436,0.01897273
1379.09727173,0.01888032
1381.02607910,0.01924412
1382.95488647,0.01920241
1384.88369385,0.01899268
1386.81250122,0.01812778
1388.74130859,0.01829384
1390.67011597,0.01985034
1392.59892334,0.01939655
1394.52773071,0.01804006
1396.45653809,0.01898466
1398.38534546,0.01888087
1400.31415283,0.01888114
1402.24296021,0.02068150
1404.17176758,0.01934177
1406.10057495,0.01939365
1408.02938232,0.02022002
1409.95818970,0.01943870
1411.88699707,0.02011390
1413.81580444,0.01934000
1415.74461182,0.01949793
1417.67341919,0.01768523
1419.60222656,0.01572244
1421.53103394,0.01821227
1423.45984131,0.01787018
1425.38864868,0.01747340
1427.31745605,0.01771405
1429.24626343,0.01619327
1431.17507080,0.01585210
1433.10387817,0.01615252
1435.03268555,0.01456188
1436.96149292,0.01232738
1438.89030029,0.01406936
1440.81910767,0.01451040
1442.74791504,0.01340859
1444.67672241,0.01420350
1446.60552979,0.01317126
1448.53433716,0.01313399
1450.46314453,0.01360842
1452.39195190,0.01389506
1454.32075928,0.01460528
1456.24956665,0.01216506
1458.17837402,0.01230124
1460.10718140,0.01653740
1462.03598877,0.01764950
1463.96479614,0.01745615
1465.89360352,0.01820960
1467.82241089,0.02069015
1469.75121826,0.02241059
1471.68002563,0.01979867
1473.60883301,0.02084014
1475.53764038,0.02384380
1477.46644775,0.02546962
1479.39525513,0.02798517
1481.32406250,0.02830636
1483.25286987,0.03020219
1485.18167725,0.03127192
1487.11048462,0.03075272
1489.03929199,0.03034324
1490.96809937,0.03032537
1492.89690674,0.03565428
1494.82571411,0.03494108
1496.75452148,0.03129989
1498.68332886,0.03527027
1500.61213623,0.03635017
1502.54094360,0.03926464
1504.46975098,0.03744639
1506.39855835,0.02675650
1508.32736572,0.03248592
1510.25617310,0.03900631
1512.18498047,0.03757179
1514.11378784,0.04078104
1516.04259521,0.03664526
1517.97140259,0.03807542
1519.90020996,0.03726749
1521.82901733,0.03172690
1523.75782471,0.03900701
1525.68663208,0.03849130
1527.61543945,0.03823540
1529.54424683,0.04255900
1531.47305420,0.04090421
1533.40186157,0.03755574
1535.33066895,0.03954212
1537.25947632,0.04288775
1539.18828369,0.03045548
1541.11709106,0.03120173
1543.04589844,0.03820502
1544.97470581,0.03631241
1546.90351318,0.04325727
1548.83232056,0.04039922
1550.76112793,0.04161362
1552.68993530,0.04186384
1554.61874268,0.03757362
1556.54755005,0.04050882
1558.47635742,0.02835042
1560.40516479,0.03007025
1562.33397217,0.04367596
1564.26277954,0.04125647
1566.19158691,0.04254261
1568.12039429,0.04218490
1570.04920166,0.03681884
1571.97800903,0.04275712
1573.90681641,0.04375922
1575.83562378,0.03453663
1577.76443115,0.03871790
1579.69323853,0.04375420
1581.62204590,0.04201240
1583.55085327,0.04314787
1585.47966064,0.04250446
1587.40846802,0.04288821
1589.33727539,0.04231092
1591.26608276,0.04227750
1593.19489014,0.04246186
1595.12369751,0.04178414
1597.05250488,0.04230281
1598.98131226,0.04204500
1600.91011963,0.04220876
1602.83892700,0.04130406
1604.76773437,0.04202743
1606.69654175,0.04128119
1608.62534912,0.04115069
1610.55415649,0.04125672
1612.48296387,0.04131389
1614.41177124,0.04190128
1616.34057861,0.03393500
1618.26938599,0.03665233
1620.19819336,0.04315234
1622.12700073,0.03794523
1624.05580811,0.03788579
1625.98461548,0.03992416
1627.91342285,0.03975866
1629.84223022,0.03940114
1631.77103760,0.04202182
1633.69984497,0.03902410
1635.62865234,0.03191430
1637.55745972,0.03698604
1639.48626709,0.04127917
1641.41507446,0.04035901
1643.34388184,0.04131109
1645.27268921,0.03733420
1647.20149658,0.03268847
1649.13030396,0.04098101
1651.05911133,0.03934855
1652.98791870,0.02479191
1654.91672607,0.03360245
1656.84553345,0.04324814
1658.77434082,0.04139458
1660.70314819,0.04262495
1662.63195557,0.03889431
1664.56076294,0.04090972
1666.48957031,0.04458554
1668.41837769,0.03894565
1670.34718506,0.03751086
1672.27599243,0.04309700
1674.20479980,0.03997277
1676.13360718,0.03823029
1678.06241455,0.04452642
1679.99122192,0.04302806
1681.92002930,0.04259363
1683.84883667,0.03466782
1685.77764404,0.03381782
1687.70645142,0.04734983
1689.63525879,0.04135399
1691.56406616,0.04532017
1693.49287354,0.04693343
1695.42168091,0.03369162
1697.35048828,0.04183014
1699.27929565,0.03705096
1701.20810303,0.03270023
1703.13691040,0.04575954
1705.06571777,0.04198349
1706.99452515,0.04209577
1708.92333252,0.04644486
1710.85213989,0.04446001
1712.78094727,0.04530401
1714.70975464,0.04218355
1716.63856201,0.03755765
1718.56736938,0.03669906
1720.49617676,0.04394792
1722.42498413,0.04625791
1724.35379150,0.04275800
1726.28259888,0.04656342
1728.21140625,0.04324571
1730.14021362,0.04331925
1732.06902100,0.04262624
1733.99782837,0.03223000
1735.92663574,0.03989220
1737.85544312,0.04495187
1739.78425049,0.03959703
1741.71305786,0.04312347
1743.64186523,0.04399503
1745.57067261,0.04379342
1747.49947998,0.04438942
1749.42828735,0.04246616
1751.35709473,0.04051800
1753.28590210,0.04494204
1755.21470947,0.04736045
1757.14351685,0.04294015
1759.07232422,0.04733852
1761.00113159,0.04496086
1762.92993896,0.04270094
1764.85874634,0.04921320
1766.78755371,0.04451562
1768.71636108,0.04468285
1770.64516846,0.04474172
1772.57397583,0.03990985
1774.50278320,0.04458178
1776.43159058,0.04741001
1778.36039795,0.04679682
1780.28920532,0.04616857
1782.21801270,0.04652081
1784.14682007,0.04655010
1786.07562744,0.04555261
1788.00443481,0.04815392
1789.93324219,0.04696880
1791.86204956,0.04214185
1793.79085693,0.04408854
1795.71966431,0.04766993
1797.64847168,0.04694296
1799.57727905,0.04624220
1801.50608643,0.04544828
1803.43489380,0.04676029
1805.36370117,0.04806526
1807.29250854,0.04742447
1809.22131592,0.04766443
1811.15012329,0.04648369
1813.07893066,0.04778539
1815.00773804,0.04808864
1816.93654541,0.04747416
1818.86535278,0.04785620
1820.79416016,0.04769865
1822.72296753,0.04870957
1824.65177490,0.04537240
1826.58058228,0.04677817
1828.50938965,0.04713010
1830.43819702,0.04400528
1832.36700439,0.04822779
1834.29581177,0.04789801
1836.22461914,0.04773080
1838.15342651,0.04793701
1840.08223389,0.04793200
1842.01104126,0.04811117
1843.93984863,0.04262166
1845.86865601,0.04546239
1847.79746338,0.04835732
1849.72627075,0.04696668
1851.65507812,0.04841732
1853.58388550,0.04776184
1855.51269287,0.04819670
1857.44150024,0.04780922
1859.37030762,0.04762590
1861.29911499,0.04804910
1863.22792236,0.04739769
1865.15672974,0.04788044
1867.08553711,0.04628771
1869.01434448,0.04435398
1870.94315186,0.04601020
1872.87195923,0.04798647
1874.80076660,0.04730325
1876.72957397,0.04753550
1878.65838135,0.04758948
1880.58718872,0.04723112
1882.51599609,0.04771748
1884.44480347,0.04699600
1886.37361084,0.04774950
1888.30241821,0.04669778
1890.23122559,0.04562107
1892.16003296,0.04748518
1894.08884033,0.04679903
1896.01764771,0.04659182
1897.94645508,0.04702204
1899.87526245,0.04683850
1901.80406982,0.04720440
1903.73287720,0.04681215
1905.66168457,0.04714559
1907.59049194,0.04671445
1909.51929932,0.04640461
1911.44810669,0.04680107
1913.37691406,0.04681766
1915.30572144,0.04725252
1917.23452881,0.04504825
1919.16333618,0.04507928
1921.09214355,0.04700523
1923.02095093,0.04551824
1924.94975830,0.04648071
1926.87856567,0.04706736
1928.80737305,0.04637639
1930.73618042,0.04698011
1932.66498779,0.04644060
1934.59379517,0.04677957
1936.52260254,0.04639341
1938.45140991,0.04650615
1940.38021729,0.04660748
1942.30902466,0.04520997
1944.23783203,0.04600636
1946.16663940,0.04650167
1948.09544678,0.04648750
1950.02425415,0.04663797
1951.95306152,0.04643227
1953.88186890,0.04665758
1955.81067627,0.04644697
1957.73948364,0.04659965
1959.66829102,0.04658398
1961.59709839,0.04636740
1963.52590576,0.04663114
1965.45471313,0.04629580
1967.38352051,0.04583902
1969.31232788,0.04639436
1971.24113525,0.04667150
1973.16994263,0.04645493
1975.09875000,0.04661483
1977.02755737,0.04633034
1978.95636475,0.04644475
1980.88517212,0.04639366
1982.81397949,0.04608513
1984.74278687,0.04636639
1986.67159424,0.04612390
1988.60040161,0.04615778
1990.52920898,0.04574791
1992.45801636,0.04517996
1994.38682373,0.04594977
1996.31563110,0.04618407
1998.24443848,0.04589640
2000.17324585,0.04598118
2002.10205322,0.04587669
2004.03086060,0.04581734
2005.95966797,0.04570922
2007.88847534,0.04559484
2009.81728271,0.04567404
2011.74609009,0.04558298
2013.67489746,0.04550861
2015.60370483,0.04513095
2017.53251221,0.04496006
2019.46131958,0.04514144
2021.39012695,0.04503601
2023.31893433,0.04519574
2025.24774170,0.04508430
2027.17654907,0.04501229
2029.10535645,0.04499456
2031.03416382,0.04469608
2032.96297119,0.04472800
2034.89177856,0.04471787
2036.82058594,0.04474821
2038.74939331,0.04457334
2040.67820068,0.04437653
2042.60700806,0.04431551
2044.53581543,0.04433423
2046.46462280,0.04437721
2048.39343018,0.04423450
2050.32223755,0.04436526
2052.25104492,0.04419949
2054.17985229,0.04407762
2056.10865967,0.04411268
2058.03746704,0.04400222
2059.96627441,0.04395193
2061.89508179,0.04385604
2063.82388916,0.04380348
2065.75269653,0.04356188
2067.68150391,0.04374300
2069.61031128,0.04372074
2071.53911865,0.04351988
2073.46792603,0.04362278
2075.39673340,0.04341650
2077.32554077,0.04348401
2079.25434814,0.04340835
2081.18315552,0.04327079
2083.11196289,0.04317909
2085.04077026,0.04320770
2086.96957764,0.04333201
2088.89838501,0.04300235
2090.82719238,0.04295029
2092.75599976,0.04298706
2094.68480713,0.04310028
2096.61361450,0.04301612
2098.54242187,0.04271659
2100.47122925,0.04279418
2102.40003662,0.04281660
2104.32884399,0.04279336
2106.25765137,0.04270956
2108.18645874,0.04266041
2110.11526611,0.04254580
2112.04407349,0.04251580
2113.97288086,0.04250687
2115.90168823,0.04239488
2117.83049561,0.04249436
2119.75930298,0.04246598
2121.68811035,0.04243754
2123.61691772,0.04226864
2125.54572510,0.04223480
2127.47453247,0.04235641
2129.40333984,0.04224360
2131.33214722,0.04234149
2133.26095459,0.04232635
2135.18976196,0.04219283
2137.11856934,0.04218529
2139.04737671,0.04214276
2140.97618408,0.04209855
2142.90499146,0.04212794
2144.83379883,0.04209225
2146.76260620,0.04203165
2148.69141357,0.04198886
2150.62022095,0.04191732
2152.54902832,0.04194574
2154.47783569,0.04186116
2156.40664307,0.04193971
2158.33545044,0.04188425
2160.26425781,0.04173036
2162.19306519,0.04186378
2164.12187256,0.04178248
2166.05067993,0.04176068
2167.97948730,0.04169723
2169.90829468,0.04176436
2171.83710205,0.04176620
2173.76590942,0.04153797
2175.69471680,0.04167704
2177.62352417,0.04156410
2179.55233154,0.04149897
2181.48113892,0.04166698
2183.40994629,0.04159554
2185.33875366,0.04152642
2187.26756104,0.04146295
2189.19636841,0.04142861
2191.12517578,0.04153706
2193.05398315,0.04149225
2194.98279053,0.04133038
2196.91159790,0.04146525
2198.84040527,0.04134647
2200.76921265,0.04122205
2202.69802002,0.04136921
2204.62682739,0.04128785
2206.55563477,0.04131557
2208.48444214,0.04135320
2210.41324951,0.04131700
2212.34205688,0.04122003
2214.27086426,0.04118624
2216.19967163,0.04118975
2218.12847900,0.04110793
2220.05728638,0.04118785
2221.98609375,0.04105411
2223.91490112,0.04098797
2225.84370850,0.04109583
2227.77251587,0.04110236
2229.70132324,0.04112436
2231.63013062,0.04093285
2233.55893799,0.04081281
2235.48774536,0.04081129
2237.41655273,0.04073485
2239.34536011,0.04081941
2241.27416748,0.04084951
2243.20297485,0.04070015
2245.13178223,0.04059273
2247.06058960,0.04054556
2248.98939697,0.04056241
2250.91820435,0.04047445
2252.84701172,0.04046986
2254.77581909,0.04055943
2256.70462646,0.04041722
2258.63343384,0.04042337
2260.56224121,0.04043833
2262.49104858,0.04041759
2264.41985596,0.04037456
2266.34866333,0.04025626
2268.27747070,0.04032444
2270.20627808,0.04019691
2272.13508545,0.04014083
2274.06389282,0.04016105
2275.99270020,0.04010332
2277.92150757,0.04014663
2279.85031494,0.04016281
2281.77912231,0.04025786
2283.70792969,0.04010353
2285.63673706,0.03999703
2287.56554443,0.04002675
2289.49435181,0.03985531
2291.42315918,0.03985208
2293.35196655,0.03982771
2295.28077393,0.03968538
2297.20958130,0.03968009
2299.13838867,0.03959699
2301.06719604,0.03936322
2302.99600342,0.03921243
2304.92481079,0.03899199
2306.85361816,0.03876240
2308.78242554,0.03859290
2310.71123291,0.03834946
2312.64004028,0.03797917
2314.56884766,0.03747489
2316.49765503,0.03711693
2318.42646240,0.03660900
2320.35526978,0.03614597
2322.28407715,0.03578452
2324.21288452,0.03521554
2326.14169189,0.03486119
2328.07049927,0.03451917
2329.99930664,0.03415614
2331.92811401,0.03382757
2333.85692139,0.03363008
2335.78572876,0.03356829
2337.71453613,0.03355729
2339.64334351,0.03362411
2341.57215088,0.03365225
2343.50095825,0.03414643
2345.42976562,0.03489456
2347.35857300,0.03628989
2349.28738037,0.03750185
2351.21618774,0.03642156
2353.14499512,0.03449851
2355.07380249,0.03310810
2357.00260986,0.03217827
2358.93141724,0.03164661
2360.86022461,0.03121043
2362.78903198,0.03119523
2364.71783936,0.03143676
2366.64664673,0.03175372
2368.57545410,0.03245703
2370.50426147,0.03336900
2372.43306885,0.03431000
2374.36187622,0.03525210
2376.29068359,0.03615623
2378.21949097,0.03707286
2380.14829834,0.03771365
2382.07710571,0.03823682
2384.00591309,0.03856014
2385.93472046,0.03851225
2387.86352783,0.03860997
2389.79233521,0.03858159
2391.72114258,0.03858834
2393.64994995,0.03858085
2395.57875732,0.03850365
2397.50756470,0.03864502
2399.43637207,0.03851655
2401.36517944,0.03845730
2403.29398682,0.03840680
2405.22279419,0.03835329
2407.15160156,0.03837224
2409.08040894,0.03829167
2411.00921631,0.03835483
2412.93802368,0.03831703
2414.86683105,0.03839958
2416.79563843,0.03836235
2418.72444580,0.03822287
2420.65325317,0.03827348
2422.58206055,0.03822365
2424.51086792,0.03816069
2426.43967529,0.03807539
2428.36848267,0.03806385
2430.29729004,0.03796545
2432.22609741,0.03804718
2434.15490479,0.03811860
2436.08371216,0.03787811
2438.01251953,0.03794438
2439.94132690,0.03798055
2441.87013428,0.03795349
2443.79894165,0.03794338
2445.72774902,0.03780828
2447.65655640,0.03780948
2449.58536377,0.03778224
2451.51417114,0.03769766
2453.44297852,0.03769699
2455.37178589,0.03760073
2457.30059326,0.03754064
2459.22940063,0.03765923
2461.15820801,0.03756561
2463.08701538,0.03755664
2465.01582275,0.03759569
2466.94463013,0.03747047
2468.87343750,0.03749089
2470.80224487,0.03749764
2472.73105225,0.03752995
2474.65985962,0.03740607
2476.58866699,0.03735756
2478.51747437,0.03743163
2480.44628174,0.03732071
2482.37508911,0.03730197
2484.30389648,0.03724094
2486.23270386,0.03717510
2488.16151123,0.03715935
2490.09031860,0.03725885
2492.01912598,0.03721748
2493.94793335,0.03699597
2495.87674072,0.03703239
2497.80554810,0.03708435
2499.73435547,0.03703047
2501.66316284,0.03697004
2503.59197021,0.03705687
2505.52077759,0.03690916
2507.44958496,0.03681964
2509.37839233,0.03697472
2511.30719971,0.03677545
2513.23600708,0.03681252
2515.16481445,0.03679583
2517.09362183,0.03669687
2519.02242920,0.03676081
2520.95123657,0.03660223
2522.88004395,0.03671131
2524.80885132,0.03674150
2526.73765869,0.03656135
2528.66646606,0.03657717
2530.59527344,0.03663627
2532.52408081,0.03663044
2534.45288818,0.03650673
2536.38169556,0.03645961
2538.31050293,0.03654761
2540.23931030,0.03657658
2542.16811768,0.03656444
2544.09692505,0.03646335
2546.02573242,0.03625362
2547.95453979,0.03633352
2549.88334717,0.03631856
2551.81215454,0.03610574
2553.74096191,0.03622270
2555.66976929,0.03621736
2557.59857666,0.03613582
2559.52738403,0.03617361
2561.45619141,0.03615784
2563.38499878,0.03608128
2565.31380615,0.03602026
2567.24261353,0.03612930
2569.17142090,0.03603553
2571.10022827,0.03590969
2573.02903564,0.03604784
2574.95784302,0.03598458
2576.88665039,0.03583239
2578.81545776,0.03585554
2580.74426514,0.03578096
2582.67307251,0.03577054
2584.60187988,0.03582212
2586.53068726,0.03568727
2588.45949463,0.03568617
2590.38830200,0.03569660
2592.31710937,0.03564692
2594.24591675,0.03565610
2596.17472412,0.03562881
2598.10353149,0.03556779
2600.03233887,0.03542724
2601.96114624,0.03541669
2603.88995361,0.03545948
2605.81876099,0.03547351
2607.74756836,0.03542076
2609.67637573,0.03532289
2611.60518311,0.03542700
2613.53399048,0.03538336
2615.46279785,0.03520121
2617.39160522,0.03527275
2619.32041260,0.03530521
2621.24921997,0.03514172
2623.17802734,0.03515603
2625.10683472,0.03510946
2627.03564209,0.03500682
2628.96444946,0.03503793
2630.89325684,0.03492147
2632.82206421,0.03497953
2634.75087158,0.03496672
2636.67967895,0.03493115
2638.60848633,0.03495044
2640.53729370,0.03474568
2642.46610107,0.03488572
2644.39490845,0.03486060
2646.32371582,0.03472725
2648.25252319,0.03480073
2650.18133057,0.03464348
2652.11013794,0.03468726
2654.03894531,0.03472027
2655.96775269,0.03457544
2657.89656006,0.03458184
2659.82536743,0.03457513
2661.75417480,0.03451461
2663.68298218,0.03455897
2665.61178955,0.03451350
2667.54059692,0.03446801
2669.46940430,0.03454225
2671.39821167,0.03432854
2673.32701904,0.03430462
2675.25582642,0.03438229
2677.18463379,0.03426505
2679.11344116,0.03435738
2681.04224854,0.03422875
2682.97105591,0.03410882
2684.89986328,0.03418067
2686.82867065,0.03409345
2688.75747803,0.03403274
2690.68628540,0.03401633
2692.61509277,0.03405018
2694.54390015,0.03402919
2696.47270752,0.03391222
2698.40151489,0.03382886
2700.33032227,0.03383104
2702.25912964,0.03384848
2704.18793701,0.03375878
2706.11674438,0.03371600
2708.04555176,0.03375597
2709.97435913,0.03371902
2711.90316650,0.03365026
2713.83197388,0.03370137
2715.76078125,0.03359469
2717.68958862,0.03341231
2719.61839600,0.03356986
2721.54720337,0.03348619
2723.47601074,0.03329091
2725.40481812,0.03342938
2727.33362549,0.03332032
2729.26243286,0.03325145
2731.19124023,0.03334463
2733.12004761,0.03323759
2735.04885498,0.03316794
2736.97766235,0.03310800
2738.90646973,0.03313088
2740.83527710,0.03316261
2742.76408447,0.03310782
2744.69289185,0.03309624
2746.62169922,0.03301542
2748.55050659,0.03295995
2750.47931396,0.03293295
2752.40812134,0.03292600
2754.33692871,0.03290295
2756.26573608,0.03282269
2758.19454346,0.03278172
2760.12335083,0.03275256
2762.05215820,0.03270314
2763.98096558,0.03256986
2765.90977295,0.03255572
2767.83858032,0.03259613
2769.76738770,0.03253417
2771.69619507,0.03250254
2773.62500244,0.03247132
2775.55380981,0.03239801
2777.48261719,0.03231077
2779.41142456,0.03236769
2781.34023193,0.03224924
2783.26903931,0.03214744
2785.19784668,0.03226139
2787.12665405,0.03206506
2789.05546143,0.03208191
2790.98426880,0.03220801
2792.91307617,0.03203382
2794.84188354,0.03195182
2796.77069092,0.03190937
2798.69949829,0.03187671
2800.62830566,0.03180660
2802.55711304,0.03178877
2804.48592041,0.03175961
2806.41472778,0.03161437
2808.34353516,0.03163114
2810.27234253,0.03166523
2812.20114990,0.03154873
2814.12995728,0.03144484
2816.05876465,0.03142097
2817.98757202,0.03137036
2819.91637939,0.03134611
2821.84518677,0.03137618
2823.77399414,0.03131064
2825.70280151,0.03117688
2827.63160889,0.03109514
2829.56041626,0.03106805
2831.48922363,0.03109359
2833.41803101,0.03104480
2835.34683838,0.03086929
2837.27564575,0.03091579
2839.20445312,0.03086323
2841.13326050,0.03066676
2843.06206787,0.03070718
2844.99087524,0.03059371
2846.91968262,0.03043594
2848.84848999,0.03025314
2850.77729736,0.03016801
2852.70610474,0.03018983
2854.63491211,0.02996300
2856.56371948,0.02999129
2858.49252686,0.03001114
2860.42133423,0.02993165
2862.35014160,0.03003366
2864.27894897,0.02991017
2866.20775635,0.02983014
2868.13656372,0.02993944
2870.06537109,0.02990427
2871.99417847,0.02976314
2873.92298584,0.02970595
2875.85179321,0.02968116
2877.78060059,0.02972998
2879.70940796,0.02969807
2881.63821533,0.02955288
2883.56702270,0.02958706
2885.49583008,0.02953792
2887.42463745,0.02948201
2889.35344482,0.02943330
2891.28225220,0.02940518
2893.21105957,0.02945530
2895.13986694,0.02925614
2897.06867432,0.02922767
2898.99748169,0.02921525
2900.92628906,0.02902326
2902.85509644,0.02903082
2904.78390381,0.02897399
2906.71271118,0.02885330
2908.64151855,0.02882140
2910.57032593,0.02877519
2912.49913330,0.02866366
2914.42794067,0.02853304
2916.35674805,0.02836709
2918.28555542,0.02825319
2920.21436279,0.02821992
2922.14317017,0.02815816
2924.07197754,0.02816330
2926.00078491,0.02813002
2927.92959229,0.02807251
2929.85839966,0.02799316
2931.78720703,0.02801255
2933.71601440,0.02813840
2935.64482178,0.02805357
2937.57362915,0.02803623
2939.50243652,0.02801976
2941.43124390,0.02795755
2943.36005127,0.02791754
2945.28885864,0.02783821
2947.21766602,0.02791739
2949.14647339,0.02779166
2951.07528076,0.02768929
2953.00408813,0.02778425
2954.93289551,0.02773522
2956.86170288,0.02758636
2958.79051025,0.02734911
2960.71931763,0.02740440
2962.64812500,0.02735014
2964.57693237,0.02714775
2966.50573975,0.02729716
2968.43454712,0.02723243
2970.36335449,0.02726124
2972.29216187,0.02731145
2974.22096924,0.02721709
2976.14977661,0.02734569
2978.07858398,0.02721682
2980.00739136,0.02728402
2981.93619873,0.02731918
2983.86500610,0.02712733
2985.79381348,0.02727104
2987.72262085,0.02712849
2989.65142822,0.02716538
2991.58023560,0.02726363
2993.50904297,0.02697961
2995.43785034,0.02698735
2997.36665771,0.02698467
2999.29546509,0.02697650
3001.22427246,0.02687769
3003.15307983,0.02672203
3005.08188721,0.02673892
3007.01069458,0.02662872
3008.93950195,0.02665685
3010.86830933,0.02657131
3012.79711670,0.02636481
3014.72592407,0.02640966
3016.65473145,0.02643404
3018.58353882,0.02635925
3020.51234619,0.02631131
3022.44115356,0.02627259
3024.36996094,0.02609593
3026.29876831,0.02601437
3028.22757568,0.02601831
3030.15638306,0.02591618
3032.08519043,0.02580585
3034.01399780,0.02581545
3035.94280518,0.02588918
3037.87161255,0.02569614
3039.80041992,0.02565220
3041.72922729,0.02568370
3043.65803467,0.02550004
3045.58684204,0.02548019
3047.51564941,0.02534743
3049.44445679,0.02529580
3051.37326416,0.02536284
3053.30207153,0.02520656
3055.23087891,0.02511682
3057.15968628,0.02504291
3059.08849365,0.02500143
3061.01730103,0.02500403
3062.94610840,0.02484979
3064.87491577,0.02479918
3066.80372314,0.02481087
3068.73253052,0.02464607
3070.66133789,0.02465024
3072.59014526,0.02457102
3074.51895264,0.02436985
3076.44776001,0.02449341
3078.37656738,0.02439326
3080.30537476,0.02420625
3082.23418213,0.02421067
3084.16298950,0.02418122
3086.09179687,0.02417287
3088.02060425,0.02401353
3089.94941162,0.02391933
3091.87821899,0.02390002
3093.80702637,0.02386693
3095.73583374,0.02376997
3097.66464111,0.02360273
3099.59344849,0.02360666
3101.52225586,0.02352288
3103.45106323,0.02345738
3105.37987061,0.02340814
3107.30867798,0.02326278
3109.23748535,0.02313615
3111.16629272,0.02304838
3113.09510010,0.02309423
3115.02390747,0.02292638
3116.95271484,0.02277999
3118.88152222,0.02278237
3120.81032959,0.02260466
3122.73913696,0.02257424
3124.66794434,0.02264789
3126.59675171,0.02252618
3128.52555908,0.02236840
3130.45436645,0.02230448
3132.38317383,0.02221426
3134.31198120,0.02220198
3136.24078857,0.02211872
3138.16959595,0.02188873
3140.09840332,0.02181793
3142.02721069,0.02180102
3143.95601807,0.02177530
3145.88482544,0.02170650
3147.81363281,0.02160504
3149.74244019,0.02142296
3151.67124756,0.02131789
3153.60005493,0.02129842
3155.52886230,0.02108081
3157.45766968,0.02100917
3159.38647705,0.02099225
3161.31528442,0.02092252
3163.24409180,0.02081308
3165.17289917,0.02070412
3167.10170654,0.02066734
3169.03051392,0.02053716
3170.95932129,0.02053259
3172.88812866,0.02044623
3174.81693604,0.02040532
3176.74574341,0.02030002
3178.67455078,0.02011991
3180.60335815,0.02014000
3182.53216553,0.01997779
3184.46097290,0.01997442
3186.38978027,0.01985975
3188.31858765,0.01983014
3190.24739502,0.01984061
3192.17620239,0.01952253
3194.10500977,0.01963814
3196.03381714,0.01953698
3197.96262451,0.01939415
3199.89143188,0.01942681
3201.82023926,0.01929941
3203.74904663,0.01934095
3205.67785400,0.01917385
3207.60666138,0.01908134
3209.53546875,0.01904936
3211.46427612,0.01901373
3213.39308350,0.01899925
3215.32189087,0.01883913
3217.25069824,0.01888084
3219.17950562,0.01877655
3221.10831299,0.01856049
3223.03712036,0.01858758
3224.96592773,0.01865787
3226.89473511,0.01862161
3228.82354248,0.01854547
3230.75234985,0.01853992
3232.68115723,0.01851602
3234.60996460,0.01841860
3236.53877197,0.01839582
3238.46757935,0.01832174
3240.39638672,0.01822508
3242.32519409,0.01832004
3244.25400146,0.01826409
3246.18280884,0.01832974
3248.11161621,0.01836858
3250.04042358,0.01820968
3251.96923096,0.01823020
3253.89803833,0.01805973
3255.82684570,0.01806428
3257.75565308,0.01807031
3259.68446045,0.01797469
3261.61326782,0.01802105
3263.54207520,0.01796360
3265.47088257,0.01798340
3267.39968994,0.01789163
3269.32849731,0.01799920
3271.25730469,0.01796042
3273.18611206,0.01776693
3275.11491943,0.01791131
3277.04372681,0.01792131
3278.97253418,0.01785982
3280.90134155,0.01773034
3282.83014893,0.01783389
3284.75895630,0.01786895
3286.68776367,0.01772812
3288.61657104,0.01774287
3290.54537842,0.01767369
3292.47418579,0.01776800
3294.40299316,0.01775645
3296.33180054,0.01766259
3298.26060791,0.01758463
3300.18941528,0.01762812
3302.11822266,0.01771700
3304.04703003,0.01762983
3305.97583740,0.01761051
3307.90464478,0.01743253
3309.83345215,0.01751430
3311.76225952,0.01762205
3313.69106689,0.01749475
3315.61987427,0.01750860
3317.54868164,0.01750293
3319.47748901,0.01750756
3321.40629639,0.01742488
3323.33510376,0.01741546
3325.26391113,0.01743401
3327.19271851,0.01743009
3329.12152588,0.01732623
3331.05033325,0.01725712
3332.97914062,0.01734947
3334.90794800,0.01725914
3336.83675537,0.01726346
3338.76556274,0.01725884
3340.69437012,0.01732632
3342.62317749,0.01735080
3344.55198486,0.01716378
3346.48079224,0.01714387
3348.40959961,0.01714867
3350.33840698,0.01709988
3352.26721436,0.01704608
3354.19602173,0.01710695
3356.12482910,0.01705966
3358.05363647,0.01711641
3359.98244385,0.01716101
3361.91125122,0.01700379
3363.84005859,0.01702781
3365.76886597,0.01692633
3367.69767334,0.01691430
3369.62648071,0.01690758
3371.55528809,0.01697952
3373.48409546,0.01703206
3375.41290283,0.01688456
3377.34171020,0.01699523
3379.27051758,0.01697176
3381.19932495,0.01694834
3383.12813232,0.01692279
3385.05693970,0.01684927
3386.98574707,0.01684919
3388.91455444,0.01689534
3390.84336182,0.01685661
3392.77216919,0.01669290
3394.70097656,0.01680419
3396.62978394,0.01668605
3398.55859131,0.01666467
3400.48739868,0.01677936
3402.41620605,0.01677332
3404.34501343,0.01682757
3406.27382080,0.01669752
3408.20262817,0.01679772
3410.13143555,0.01684470
3412.06024292,0.01686085
3413.98905029,0.01686148
3415.91785767,0.01684566
3417.84666504,0.01692258
3419.77547241,0.01684538
3421.70427979,0.01688524
3423.63308716,0.01680602
3425.56189453,0.01681898
3427.49070190,0.01684652
3429.41950928,0.01685850
3431.34831665,0.01680740
3433.27712402,0.01676957
3435.20593140,0.01699213
3437.13473877,0.01684894
3439.06354614,0.01687350
3440.99235352,0.01679191
3442.92116089,0.01673702
3444.84996826,0.01695938
3446.77877563,0.01671473
3448.70758301,0.01671739
3450.63639038,0.01691598
3452.56519775,0.01697575
3454.49400513,0.01696949
3456.42281250,0.01698935
3458.35161987,0.01699118
3460.28042725,0.01697464
3462.20923462,0.01701066
3464.13804199,0.01709307
3466.06684937,0.01714458
3467.99565674,0.01691185
3469.92446411,0.01707460
3471.85327148,0.01717185
3473.78207886,0.01710436
3475.71088623,0.01709317
3477.63969360,0.01706075
3479.56850098,0.01730533
3481.49730835,0.01705378
3483.42611572,0.01713892
3485.35492310,0.01741276
3487.28373047,0.01722013
3489.21253784,0.01715370
3491.14134521,0.01730093
3493.07015259,0.01741581
3494.99895996,0.01719616
3496.92776733,0.01736137
3498.85657471,0.01737698
3500.78538208,0.01729863
3502.71418945,0.01711768
3504.64299683,0.01704950
3506.57180420,0.01759046
3508.50061157,0.01735211
3510.42941895,0.01737008
3512.35822632,0.01755375
3514.28703369,0.01756646
3516.21584106,0.01769686
3518.14464844,0.01752634
3520.07345581,0.01782868
3522.00226318,0.01765034
3523.93107056,0.01737585
3525.85987793,0.01747727
3527.78868530,0.01740416
3529.71749268,0.01752280
3531.64630005,0.01771922
3533.57510742,0.01791396
3535.50391479,0.01783855
3537.43272217,0.01771603
3539.36152954,0.01782525
3541.29033691,0.01804408
3543.21914429,0.01790563
3545.14795166,0.01742437
3547.07675903,0.01722410
3549.00556641,0.01773392
3550.93437378,0.01798117
3552.86318115,0.01762214
3554.79198853,0.01799920
3556.72079590,0.01808741
3558.64960327,0.01806468
3560.57841064,0.01809237
3562.50721802,0.01787511
3564.43602539,0.01799416
3566.36483276,0.01690371
3568.29364014,0.01649319
3570.22244751,0.01788088
3572.15125488,0.01840461
3574.08006226,0.01818882
3576.00886963,0.01826263
3577.93767700,0.01820768
3579.86648437,0.01820765
3581.79529175,0.01823663
3583.72409912,0.01834181
3585.65290649,0.01805530
3587.58171387,0.01646110
3589.51052124,0.01702962
3591.43932861,0.01859216
3593.36813599,0.01801144
3595.29694336,0.01781293
3597.22575073,0.01807196
3599.15455811,0.01832122
3601.08336548,0.01817708
3603.01217285,0.01836372
3604.94098022,0.01871623
3606.86978760,0.01793629
3608.79859497,0.01706049
3610.72740234,0.01737675
3612.65620972,0.01785180
3614.58501709,0.01741052
3616.51382446,0.01853241
3618.44263184,0.01729141
3620.37143921,0.01660405
3622.30024658,0.01879504
3624.22905395,0.01831522
3626.15786133,0.01922957
3628.08666870,0.01641633
3630.01547607,0.01466208
3631.94428345,0.01865967
3633.87309082,0.01829292
3635.80189819,0.01850510
3637.73070557,0.01900189
3639.65951294,0.01874675
3641.58832031,0.01901527
3643.51712769,0.01880566
3645.44593506,0.01899791
3647.37474243,0.01701772
3649.30354980,0.01560735
3651.23235718,0.01582236
3653.16116455,0.01890135
3655.08997192,0.01881041
3657.01877930,0.01670120
3658.94758667,0.01928669
3660.87639404,0.01895792
3662.80520142,0.01916821
3664.73400879,0.01912878
3666.66281616,0.01891477
3668.59162354,0.01851695
3670.52043091,0.01506150
3672.44923828,0.01822858
3674.37804565,0.01749088
3676.30685303,0.01432571
3678.23566040,0.01809221
3680.16446777,0.01870118
3682.09327515,0.01877761
3684.02208252,0.01927504
3685.95088989,0.01895775
3687.87969727,0.01710926
3689.80850464,0.01566910
3691.73731201,0.01797901
3693.66611938,0.01852586
3695.59492676,0.01899898
3697.52373413,0.01906766
3699.45254150,0.01891009
3701.38134888,0.01837040
3703.31015625,0.01746098
3705.23896362,0.01939505
3707.16777100,0.01849521
3709.09657837,0.01788390
3711.02538574,0.01689368
3712.95419312,0.01573678
3714.88300049,0.01859338
3716.81180786,0.01838504
3718.74061523,0.01848065
3720.66942261,0.01813278
3722.59822998,0.01747297
3724.52703735,0.01822912
3726.45584473,0.01681985
3728.38465210,0.01828507
3730.31345947,0.01818388
3732.24226685,0.01657660
3734.17107422,0.01619126
3736.09988159,0.01534665
3738.02868896,0.01634172
3739.95749634,0.01769440
3741.88630371,0.01858069
3743.81511108,0.01454921
3745.74391846,0.01346984
3747.67272583,0.01762540
3749.60153320,0.01518895
3751.53034058,0.01386301
3753.45914795,0.01609679
3755.38795532,0.01728430
3757.31676270,0.01798494
3759.24557007,0.01659240
3761.17437744,0.01724222
3763.10318481,0.01843454
3765.03199219,0.01705186
3766.96079956,0.01749195
3768.88960693,0.01735124
3770.81841431,0.01651094
3772.74722168,0.01788019
3774.67602905,0.01790187
3776.60483643,0.01802574
3778.53364380,0.01741279
3780.46245117,0.01664376
3782.39125854,0.01798049
3784.32006592,0.01755849
3786.24887329,0.01734979
3788.17768066,0.01771070
3790.10648804,0.01760690
3792.03529541,0.01751664
3793.96410278,0.01784635
3795.89291016,0.01672594
3797.82171753,0.01649296
3799.75052490,0.01760781
3801.67933228,0.01379715
3803.60813965,0.01598430
3805.53694702,0.01762028
3807.46575439,0.01436656
3809.39456177,0.01755856
3811.32336914,0.01713202
3813.25217651,0.01753577
3815.18098389,0.01606715
3817.10979126,0.01396515
3819.03859863,0.01767688
3820.96740601,0.01440261
3822.89621338,0.01497816
3824.82502075,0.01758485
3826.75382812,0.01588466
3828.68263550,0.01709133
3830.61144287,0.01647330
3832.54025024,0.01587058
3834.46905762,0.01616584
3836.39786499,0.01538640
3838.32667236,0.01397240
3840.25547974,0.01506027
3842.18428711,0.01629052
3844.11309448,0.01565198
3846.04190186,0.01688997
3847.97070923,0.01661584
3849.89951660,0.01663740
3851.82832397,0.01500956
3853.75713135,0.01119529
3855.68593872,0.01312647
3857.61474609,0.01663869
3859.54355347,0.01631284
3861.47236084,0.01609628
3863.40116821,0.01585782
3865.32997559,0.01461187
3867.25878296,0.01623469
3869.18759033,0.01492279
3871.11639770,0.01372933
3873.04520508,0.01644480
3874.97401245,0.01511529
3876.90281982,0.01617094
3878.83162720,0.01660666
3880.76043457,0.01419189
3882.68924194,0.01631735
3884.61804932,0.01534734
3886.54685669,0.01398916
3888.47566406,0.01638800
3890.40447144,0.01555903
3892.33327881,0.01454796
3894.26208618,0.01604441
3896.19089355,0.01631477
3898.11970093,0.01544676
3900.04850830,0.01467161
3901.97731567,0.01448704
3903.90612305,0.01437524
3905.83493042,0.01464373
3907.76373779,0.01595366
3909.69254517,0.01591581
3911.62135254,0.01578834
3913.55015991,0.01614708
3915.47896728,0.01554542
3917.40777466,0.01509239
3919.33658203,0.01499094
3921.26538940,0.01551647
3923.19419678,0.01557250
3925.12300415,0.01530014
3927.05181152,0.01550798
3928.98061890,0.01565312
3930.90942627,0.01528808
3932.83823364,0.01477566
3934.76704102,0.01548295
3936.69584839,0.01557188
3938.62465576,0.01538460
3940.55346313,0.01565679
3942.48227051,0.01497189
3944.41107788,0.01503433
3946.33988525,0.01542046
3948.26869263,0.01510515
3950.19750000,0.01509975
3952.12630737,0.01522974
3954.05511475,0.01531190
3955.98392212,0.01536137
3957.91272949,0.01521360
3959.84153687,0.01523978
3961.77034424,0.01512694
3963.69915161,0.01503057
3965.62795898,0.01530534
3967.55676636,0.01514743
3969.48557373,0.01506927
3971.41438110,0.01510044
3973.34318848,0.01499160
3975.27199585,0.01497259
3977.20080322,0.01500139
3979.12961060,0.01508945
3981.05841797,0.01492481
3982.98722534,0.01492884
3984.91603271,0.01487217
3986.84484009,0.01489701
3988.77364746,0.01488942
3990.70245483,0.01475824
3992.63126221,0.01492259
3994.56006958,0.01476820
3996.48887695,0.01480210
3998.41768433,0.01476878
4000.34649170,0.01468548
4002.27529907,0.01472528
4004.20410645,0.01462766
4006.13291382,0.01469685
4008.06172119,0.01457127
4009.99052856,0.01459443
4011.91933594,0.01450718
4013.84814331,0.01451259
4015.77695068,0.01455638
4017.70575806,0.01440095
4019.63456543,0.01452380
4021.56337280,0.01444544
4023.49218018,0.01444392
4025.42098755,0.01436889
4027.34979492,0.01434360
4029.27860229,0.01442664
4031.20740967,0.01435153
4033.13621704,0.01430120
4035.06502441,0.01417209
4036.99383179,0.01426629
4038.92263916,0.01422043
4040.85144653,0.01419496
4042.78025391,0.01420777
4044.70906128,0.01407909
4046.63786865,0.01406399
4048.56667603,0.01407382
4050.49548340,0.01413581
4052.42429077,0.01409373
4054.35309814,0.01412138
4056.28190552,0.01402686
4058.21071289,0.01397281
4060.13952026,0.01394856
4062.06832764,0.01389196
4063.99713501,0.01392221
4065.92594238,0.01378086
4067.85474976,0.01388924
4069.78355713,0.01384459
4071.71236450,0.01379112
4073.64117187,0.01381010
4075.56997925,0.01370368
4077.49878662,0.01370471
4079.42759399,0.01360084
4081.35640137,0.01364711
4083.28520874,0.01360239
4085.21401611,0.01361862
4087.14282349,0.01359193
4089.07163086,0.01362562
4091.00043823,0.01371030
4092.92924561,0.01344854
4094.85805298,0.01349653
4096.78686035,0.01348918
4098.71566772,0.01349395
4100.64447510,0.01344293
4102.57328247,0.01335007
4104.50208984,0.01340983
4106.43089722,0.01324966
4108.35970459,0.01331136
4110.28851196,0.01326005
4112.21731934,0.01327970
4114.14612671,0.01326690
4116.07493408,0.01312182
4118.00374145,0.01320841
4119.93254883,0.01312045
4121.86135620,0.01320363
4123.79016357,0.01321477
4125.71897095,0.01311779
4127.64777832,0.01313385
4129.57658569,0.01305771
4131.50539307,0.01304270
4133.43420044,0.01302109
4135.36300781,0.01297589
4137.29181519,0.01299170
4139.22062256,0.01300511
4141.14942993,0.01290254
4143.07823730,0.01287244
4145.00704468,0.01285128
4146.93585205,0.01291727
4148.86465942,0.01286865
4150.79346680,0.01270705
4152.72227417,0.01286550
4154.65108154,0.01278145
4156.57988892,0.01277030
4158.50869629,0.01282337
4160.43750366,0.01265931
4162.36631103,0.01271822
4164.29511841,0.01267918
4166.22392578,0.01256292
4168.15273315,0.01253461
4170.08154053,0.01258087
4172.01034790,0.01251107
4173.93915527,0.01247715
4175.86796265,0.01255513
4177.79677002,0.01235314
4179.72557739,0.01231335
4181.65438477,0.01242626
4183.58319214,0.01241399
4185.51199951,0.01250324
4187.44080688,0.01246964
4189.36961426,0.01232988
4191.29842163,0.01234016
4193.22722900,0.01223784
4195.15603638,0.01219227
4197.08484375,0.01226561
4199.01365112,0.01219233
4200.94245850,0.01217872
4202.87126587,0.01216048
4204.80007324,0.01220675
4206.72888062,0.01219068
4208.65768799,0.01204433
4210.58649536,0.01204447
4212.51530273,0.01204661
4214.44411011,0.01203596
4216.37291748,0.01204163
4218.30172485,0.01202256
4220.23053223,0.01191709
4222.15933960,0.01193725
4224.08814697,0.01195862
4226.01695435,0.01186286
4227.94576172,0.01184552
4229.87456909,0.01178676
4231.80337646,0.01180662
4233.73218384,0.01178757
4235.66099121,0.01182691
4237.58979858,0.01179583
4239.51860596,0.01171289
4241.44741333,0.01180875
4243.37622070,0.01171281
4245.30502808,0.01165761
4247.23383545,0.01164896
4249.16264282,0.01170124
4251.09145020,0.01166520
4253.02025757,0.01155089
4254.94906494,0.01161824
4256.87787231,0.01157920
4258.80667969,0.01157543
4260.73548706,0.01146702
4262.66429443,0.01144077
4264.59310181,0.01150209
4266.52190918,0.01144195
4268.45071655,0.01142278
4270.37952393,0.01140094
4272.30833130,0.01147933
4274.23713867,0.01141062
4276.16594604,0.01135555
4278.09475342,0.01134645
4280.02356079,0.01129323
4281.95236816,0.01125556
4283.88117554,0.01126252
4285.80998291,0.01130144
4287.73879028,0.01116000
4289.66759766,0.01120620
4291.59640503,0.01118247
4293.52521240,0.01117772
4295.45401978,0.01120779
4297.38282715,0.01107239
4299.31163452,0.01113080
4301.24044189,0.01107219
4303.16924927,0.01106913
4305.09805664,0.01101577
4307.02686401,0.01100557
4308.95567139,0.01106863
4310.88447876,0.01098399
4312.81328613,0.01100347
4314.74209351,0.01091128
4316.67090088,0.01092598
4318.59970825,0.01088549
4320.52851562,0.01086488
4322.45732300,0.01081938
4324.38613037,0.01071296
4326.31493774,0.01085037
4328.24374512,0.01076473
4330.17255249,0.01081269
4332.10135986,0.01077383
4334.03016724,0.01065182
4335.95897461,0.01073781
4337.88778198,0.01060640
4339.81658936,0.01064522
4341.74539673,0.01066345
4343.67420410,0.01054811
4345.60301147,0.01057105
4347.53181885,0.01055443
4349.46062622,0.01053157
4351.38943359,0.01058806
4353.31824097,0.01054121
4355.24704834,0.01044121
4357.17585571,0.01043831
4359.10466309,0.01040476
4361.03347046,0.01039924
4362.96227783,0.01035400
4364.89108520,0.01034599
4366.81989258,0.01037053
4368.74869995,0.01039858
4370.67750732,0.01039757
4372.60631470,0.01029628
4374.53512207,0.01033243
4376.46392944,0.01026487
4378.39273682,0.01022824
4380.32154419,0.01023690
4382.25035156,0.01013696
4384.17915894,0.01014898
4386.10796631,0.01014664
4388.03677368,0.01016635
4389.96558105,0.01017663
4391.89438843,0.01013220
4393.82319580,0.01007965
4395.75200317,0.01010588
4397.68081055,0.01005354
4399.60961792,0.01000212
4401.53842529,0.01002734
4403.46723267,0.00992903
4405.39604004,0.00999845
4407.32484741,0.00995924
4409.25365478,0.00990149
4411.18246216,0.00989347
4413.11126953,0.00978176
4415.04007690,0.00982904
4416.96888428,0.00977661
4418.89769165,0.00977835
4420.82649902,0.00983110
4422.75530640,0.00984135
4424.68411377,0.00980415
4426.61292114,0.00973816
4428.54172852,0.00974688
4430.47053589,0.00972278
4432.39934326,0.00974467
4434.32815063,0.00966602
4436.25695801,0.00969301
4438.18576538,0.00972718
4440.11457275,0.00968751
4442.04338013,0.00968124
4443.97218750,0.00960667
4445.90099487,0.00962041
4447.82980225,0.00950509
4449.75860962,0.00949755
4451.68741699,0.00951291
4453.61622437,0.00949102
4455.54503174,0.00947453
4457.47383911,0.00932431
4459.40264648,0.00943149
4461.33145386,0.00940237
4463.26026123,0.00931421
4465.18906860,0.00935945
4467.11787598,0.00935557
4469.04668335,0.00935280
4470.97549072,0.00928717
4472.90429810,0.00927078
4474.83310547,0.00923836
4476.76191284,0.00931128
4478.69072021,0.00927979
4480.61952759,0.00920557
4482.54833496,0.00921796
4484.47714233,0.00915486
4486.40594971,0.00922133
4488.33475708,0.00916157
4490.26356445,0.00914744
4492.19237183,0.00918250
4494.12117920,0.00907469
4496.04998657,0.00904072
4497.97879395,0.00899085
4499.90760132,0.00898921
4501.83640869,0.00898584
4503.76521606,0.00898362
4505.69402344,0.00899920
4507.62283081,0.00896444
4509.55163818,0.00899677
4511.48044556,0.00895821
4513.40925293,0.00885196
4515.33806030,0.00893161
4517.26686768,0.00897213
4519.19567505,0.00889315
4521.12448242,0.00886340
4523.05328979,0.00880004
4524.98209717,0.00883293
4526.91090454,0.00880849
4528.83971191,0.00874266
4530.76851929,0.00877155
4532.69732666,0.00876448
4534.62613403,0.00879319
4536.55494141,0.00873031
4538.48374878,0.00870576
4540.41255615,0.00873284
4542.34136353,0.00868326
4544.27017090,0.00859883
4546.19897827,0.00858708
4548.12778564,0.00863829
4550.05659302,0.00853028
4551.98540039,0.00849755
4553.91420776,0.00848552
4555.84301514,0.00849988
4557.77182251,0.00852193
4559.70062988,0.00849871
4561.62943726,0.00858112
4563.55824463,0.00843703
4565.48705200,0.00838666
4567.41585937,0.00844884
4569.34466675,0.00837391
4571.27347412,0.00842725
4573.20228149,0.00840801
4575.13108887,0.00828106
4577.05989624,0.00826806
4578.98870361,0.00834427
4580.91751099,0.00833900
4582.84631836,0.00829549
4584.77512573,0.00825331
4586.70393311,0.00824342
4588.63274048,0.00827399
4590.56154785,0.00822561
4592.49035522,0.00818401
4594.41916260,0.00818699
4596.34796997,0.00815301
4598.27677734,0.00811354
4600.20558472,0.00816973
4602.13439209,0.00807433
4604.06319946,0.00805342
4605.99200684,0.00813031
4607.92081421,0.00798766
4609.84962158,0.00808148
4611.77842895,0.00804344
4613.70723633,0.00790356
4615.63604370,0.00799007
4617.56485107,0.00793674
4619.49365845,0.00795088
4621.42246582,0.00793325
4623.35127319,0.00791606
4625.28008057,0.00796732
4627.20888794,0.00788586
4629.13769531,0.00783763
4631.06650269,0.00788759
4632.99531006,0.00788329
4634.92411743,0.00777281
4636.85292480,0.00777464
4638.78173218,0.00783441
4640.71053955,0.00779744
4642.63934692,0.00773728
4644.56815430,0.00773945
4646.49696167,0.00771918
4648.42576904,0.00767775
4650.35457642,0.00770630
4652.28338379,0.00769595
4654.21219116,0.00768832
4656.14099853,0.00761355
4658.06980591,0.00759405
4659.99861328,0.00770709
4661.92742065,0.00763707
4663.85622803,0.00755348
4665.78503540,0.00759616
4667.71384277,0.00758271
4669.64265015,0.00760705
4671.57145752,0.00761041
4673.50026489,0.00745955
4675.42907227,0.00742887
4677.35787964,0.00748494
4679.28668701,0.00748076
4681.21549438,0.00743078
4683.14430176,0.00744494
4685.07310913,0.00749397
4687.00191650,0.00737570
4688.93072388,0.00735524
4690.85953125,0.00735296
4692.78833862,0.00736359
4694.71714600,0.00735743
4696.64595337,0.00729804
4698.57476074,0.00735270
4700.50356812,0.00724597
4702.43237549,0.00723391
4704.36118286,0.00719772
4706.28999023,0.00720823
4708.21879761,0.00728366
4710.14760498,0.00719680
4712.07641235,0.00727597
4714.00521973,0.00719333
4715.93402710,0.00722609
4717.86283447,0.00721773
4719.79164185,0.00713142
4721.72044922,0.00722384
4723.64925659,0.00708550
4725.57806396,0.00710307
4727.50687134,0.00707052
4729.43567871,0.00709642
4731.36448608,0.00710859
4733.29329346,0.00696770
4735.22210083,0.00703265
4737.15090820,0.00697053
4739.07971558,0.00700993
4741.00852295,0.00698032
4742.93733032,0.00693011
4744.86613770,0.00692614
4746.79494507,0.00689319
4748.72375244,0.00698875
4750.65255981,0.00686190
4752.58136719,0.00694016
4754.51017456,0.00701644
4756.43898193,0.00688548
4758.36778931,0.00683535
4760.29659668,0.00676637
4762.22540405,0.00686025
4764.15421143,0.00682582
4766.08301880,0.00675226
4768.01182617,0.00682676
4769.94063354,0.00677577
4771.86944092,0.00671217
4773.79824829,0.00677137
4775.72705566,0.00678531
4777.65586304,0.00666808
4779.58467041,0.00661630
4781.51347778,0.00669043
4783.44228516,0.00675330
4785.37109253,0.00669767
4787.29989990,0.00667629
4789.22870728,0.00665282
4791.15751465,0.00657671
4793.08632202,0.00660663
4795.01512939,0.00657408
4796.94393677,0.00651379
4798.87274414,0.00654680
4800.80155151,0.00655702
4802.73035889,0.00654993
4804.65916626,0.00654871
4806.58797363,0.00654458
4808.51678101,0.00650697
4810.44558838,0.00639214
4812.37439575,0.00638506
4814.30320312,0.00645415
4816.23201050,0.00645452
4818.16081787,0.00644400
4820.08962524,0.00640041
4822.01843262,0.00638548
4823.94723999,0.00630784
4825.87604736,0.00635564
4827.80485474,0.00640988
4829.73366211,0.00631138
4831.66246948,0.00635926
4833.59127686,0.00631824
4835.52008423,0.00635182
4837.44889160,0.00629143
4839.37769897,0.00622300
4841.30650635,0.00630061
4843.23531372,0.00616569
4845.16412109,0.00627361
4847.09292847,0.00625748
4849.02173584,0.00611998
4850.95054321,0.00613507
4852.87935059,0.00609475
4854.80815796,0.00612765
4856.73696533,0.00614918
4858.66577270,0.00619457
4860.59458008,0.00609443
4862.52338745,0.00616432
4864.45219482,0.00618409
4866.38100220,0.00605091
4868.30980957,0.00617065
4870.23861694,0.00608624
4872.16742432,0.00601184
4874.09623169,0.00604279
4876.02503906,0.00611105
4877.95384644,0.00605465
4879.88265381,0.00594852
4881.81146118,0.00602637
4883.74026855,0.00595202
4885.66907593,0.00594546
4887.59788330,0.00596104
4889.52669067,0.00591108
4891.45549805,0.00583698
4893.38430542,0.00591790
4895.31311279,0.00597788
4897.24192017,0.00584210
4899.17072754,0.00586950
4901.09953491,0.00579142
4903.02834228,0.00584468
4904.95714966,0.00586984
4906.88595703,0.00578159
4908.81476440,0.00579705
4910.74357178,0.00577934
4912.67237915,0.00585278
4914.60118652,0.00572000
4916.52999390,0.00573254
4918.45880127,0.00573417
4920.38760864,0.00564698
4922.31641602,0.00574324
4924.24522339,0.00570761
4926.17403076,0.00570551
4928.10283813,0.00562316
4930.03164551,0.00564750
4931.96045288,0.00564585
4933.88926025,0.00562639
4935.81806763,0.00564907
4937.74687500,0.00553088
4939.67568237,0.00571122
4941.60448975,0.00568923
4943.53329712,0.00554110
4945.46210449,0.00553780
4947.39091187,0.00550832
4949.31971924,0.00558516
4951.24852661,0.00553211
4953.17733398,0.00550873
4955.10614136,0.00548925
4957.03494873,0.00544003
4958.96375610,0.00546185
4960.89256348,0.00547515
4962.82137085,0.00548607
4964.75017822,0.00544240
4966.67898560,0.00544159
4968.60779297,0.00541789
4970.53660034,0.00537706
4972.46540771,0.00544118
4974.39421509,0.00545714
4976.32302246,0.00532535
4978.25182983,0.00522767
4980.18063721,0.00533800
4982.10944458,0.00546244
4984.03825195,0.00532104
4985.96705933,0.00524412
4987.89586670,0.00529642
4989.82467407,0.00523580
4991.75348145,0.00528399
4993.68228882,0.00526399
4995.61109619,0.00529502
4997.53990356,0.00529904
4999.46871094,0.00517095
5001.39751831,0.00526326
5003.32632568,0.00519492
5005.25513306,0.00517406
5007.18394043,0.00524661
5009.11274780,0.00517666
5011.04155518,0.00517218
5012.97036255,0.00516221
5014.89916992,0.00513371
5016.82797729,0.00507318
5018.75678467,0.00511107
5020.68559204,0.00507972
5022.61439941,0.00504209
5024.54320679,0.00510975
5026.47201416,0.00506894
5028.40082153,0.00502781
5030.32962891,0.00505190
5032.25843628,0.00506988
5034.18724365,0.00493510
5036.11605103,0.00499524
5038.04485840,0.00507395
5039.97366577,0.00497019
5041.90247314,0.00503058
5043.83128052,0.00503809
5045.76008789,0.00496578
5047.68889526,0.00495048
5049.61770264,0.00508967
5051.54651001,0.00500718
5053.47531738,0.00487878
5055.40412476,0.00490985
5057.33293213,0.00477173
5059.26173950,0.00486368
5061.19054687,0.00488111
5063.11935425,0.00487446
5065.04816162,0.00492377
5066.97696899,0.00476954
5068.90577637,0.00475323
5070.83458374,0.00470010
5072.76339111,0.00473550
5074.69219849,0.00483487
5076.62100586,0.00481375
5078.54981323,0.00485355
5080.47862061,0.00482217
5082.40742798,0.00468505
5084.33623535,0.00471470
5086.26504272,0.00474523
5088.19385010,0.00467858
5090.12265747,0.00475469
5092.05146484,0.00469994
5093.98027222,0.00469411
5095.90907959,0.00467207
5097.83788696,0.00466178
5099.76669434,0.00475574
5101.69550171,0.00461336
5103.62430908,0.00472717
5105.55311645,0.00469388
5107.48192383,0.00454939
5109.41073120,0.00461658
5111.33953857,0.00453030
5113.26834595,0.00456663
5115.19715332,0.00456812
5117.12596069,0.00461397
5119.05476807,0.00457064
5120.98357544,0.00448630
5122.91238281,0.00456605
5124.84119019,0.00451523
5126.76999756,0.00453617
5128.69880493,0.00451090
5130.62761230,0.00449613
5132.55641968,0.00449245
5134.48522705,0.00443285
5136.41403442,0.00439156
5138.34284180,0.00436313
5140.27164917,0.00447236
5142.20045654,0.00439903
5144.12926392,0.00436918
5146.05807129,0.00443441
5147.98687866,0.00435709
5149.91568603,0.00443211
5151.84449341,0.00441784
5153.77330078,0.00434624
5155.70210815,0.00440968
5157.63091553,0.00430102
5159.55972290,0.00431013
5161.48853027,0.00438831
5163.41733765,0.00420463
5165.34614502,0.00429273
5167.27495239,0.00440416
5169.20375977,0.00429610
5171.13256714,0.00426591
5173.06137451,0.00417073
5174.99018188,0.00422443
5176.91898926,0.00429217
5178.84779663,0.00423231
5180.77660400,0.00420625
5182.70541138,0.00421575
5184.63421875,0.00422577
5186.56302612,0.00421467
5188.49183350,0.00428581
5190.42064087,0.00418031
5192.34944824,0.00414175
5194.27825562,0.00426251
5196.20706299,0.00414128
5198.13587036,0.00405751
5200.06467773,0.00413128
5201.99348511,0.00418787
5203.92229248,0.00411298
5205.85109985,0.00402256
5207.77990723,0.00402931
5209.70871460,0.00405830
5211.63752197,0.00406192
5213.56632935,0.00404518
5215.49513672,0.00405455
5217.42394409,0.00398258
5219.35275146,0.00399431
5221.28155884,0.00407975
5223.21036621,0.00401012
5225.13917358,0.00395932
5227.06798096,0.00399771
5228.99678833,0.00405445
5230.92559570,0.00405465
5232.85440308,0.00394160
5234.78321045,0.00391204
5236.71201782,0.00401055
5238.64082520,0.00398926
5240.56963257,0.00397745
5242.49843994,0.00400347
5244.42724731,0.00396808
5246.35605469,0.00391256
5248.28486206,0.00372714
5250.21366943,0.00379852
5252.14247681,0.00398478
5254.07128418,0.00381692
5256.00009155,0.00379529
5257.92889893,0.00392839
5259.85770630,0.00386186
5261.78651367,0.00382831
5263.71532104,0.00387095
5265.64412842,0.00386712
5267.57293579,0.00384244
5269.50174316,0.00379258
5271.43055054,0.00384064
5273.35935791,0.00390566
5275.28816528,0.00385950
5277.21697266,0.00380850
5279.14578003,0.00376015
5281.07458740,0.00376758
5283.00339478,0.00376844
5284.93220215,0.00379317
5286.86100952,0.00379231
5288.78981689,0.00372507
5290.71862427,0.00375104
5292.64743164,0.00368690
5294.57623901,0.00371845
5296.50504639,0.00381519
5298.43385376,0.00370546
5300.36266113,0.00366543
5302.29146851,0.00365974
5304.22027588,0.00366270
5306.14908325,0.00368486
5308.07789062,0.00364408
5310.00669800,0.00364409
5311.93550537,0.00364927
5313.86431274,0.00367046
5315.79312012,0.00368206
5317.72192749,0.00364605
5319.65073486,0.00361437
5321.57954224,0.00355873
5323.50834961,0.00356358
5325.43715698,0.00359707
5327.36596436,0.00352298
5329.29477173,0.00348668
5331.22357910,0.00351681
5333.15238647,0.00352270
5335.08119385,0.00359079
5337.01000122,0.00352249
5338.93880859,0.00333438
5340.86761597,0.00343578
5342.79642334,0.00345505
5344.72523071,0.00331233
5346.65403809,0.00343256
5348.58284546,0.00348885
5350.51165283,0.00346742
5352.44046020,0.00343042
5354.36926758,0.00335856
5356.29807495,0.00342426
5358.22688232,0.00347228
5360.15568970,0.00349426
5362.08449707,0.00341540
5364.01330444,0.00341484
5365.94211182,0.00347551
5367.87091919,0.00340569
5369.79972656,0.00340833
5371.72853394,0.00338162
5373.65734131,0.00341042
5375.58614868,0.00336301
5377.51495605,0.00324713
5379.44376343,0.00332074
5381.37257080,0.00341153
5383.30137817,0.00336452
5385.23018555,0.00319799
5387.15899292,0.00324777
5389.08780029,0.00332617
5391.01660767,0.00336972
5392.94541504,0.00336710
5394.87422241,0.00320371
5396.80302978,0.00326226
5398.73183716,0.00327423
5400.66064453,0.00329537
5402.58945190,0.00333124
5404.51825928,0.00321675
5406.44706665,0.00327121
5408.37587402,0.00326178
5410.30468140,0.00317933
5412.23348877,0.00315939
5414.16229614,0.00311010
5416.09110352,0.00312419
5418.01991089,0.00323577
5419.94871826,0.00320537
5421.87752563,0.00316156
5423.80633301,0.00321249
5425.73514038,0.00313117
5427.66394775,0.00313514
5429.59275513,0.00309024
5431.52156250,0.00309204
5433.45036987,0.00314556
5435.37917725,0.00303303
5437.30798462,0.00313946
5439.23679199,0.00312840
5441.16559936,0.00303644
5443.09440674,0.00311863
5445.02321411,0.00304643
5446.95202148,0.00305603
5448.88082886,0.00309468
5450.80963623,0.00303153
5452.73844360,0.00314264
5454.66725098,0.00309772
5456.59605835,0.00296851
5458.52486572,0.00309093
5460.45367310,0.00300434
5462.38248047,0.00297425
5464.31128784,0.00307597
5466.24009521,0.00302640
5468.16890259,0.00300961
5470.09770996,0.00287785
5472.02651733,0.00296255
5473.95532471,0.00306165
5475.88413208,0.00294411
5477.81293945,0.00295409
5479.74174683,0.00296096
5481.67055420,0.00301513
5483.59936157,0.00300907
5485.52816895,0.00298071
5487.45697632,0.00293674
5489.38578369,0.00291524
5491.31459106,0.00294175
5493.24339844,0.00283962
5495.17220581,0.00287788
5497.10101318,0.00284999
5499.02982056,0.00284739
5500.95862793,0.00297678
5502.88743530,0.00291063
5504.81624268,0.00288045
5506.74505005,0.00287674
5508.67385742,0.00284983
5510.60266479,0.00286029
5512.53147217,0.00288440
5514.46027954,0.00288858
5516.38908691,0.00280672
5518.31789429,0.00276267
5520.24670166,0.00280309
5522.17550903,0.00280121
5524.10431641,0.00277614
5526.03312378,0.00287014
5527.96193115,0.00288965
5529.89073853,0.00284148
5531.81954590,0.00285953
5533.74835327,0.00278686
5535.67716064,0.00275439
5537.60596802,0.00274529
5539.53477539,0.00273371
5541.46358276,0.00279546
5543.39239014,0.00274313
5545.32119751,0.00276982
5547.25000488,0.00283358
5549.17881226,0.00274361
5551.10761963,0.00276883
5553.03642700,0.00273464
5554.96523437,0.00266422
5556.89404175,0.00272604
5558.82284912,0.00274312
5560.75165649,0.00275474
5562.68046387,0.00274937
5564.60927124,0.00280331
5566.53807861,0.00272912
5568.46688599,0.00261663
5570.39569336,0.00273467
5572.32450073,0.00270540
5574.25330811,0.00261515
5576.18211548,0.00264982
5578.11092285,0.00271143
5580.03973022,0.00266778
5581.96853760,0.00265351
5583.89734497,0.00270260
5585.82615234,0.00259339
5587.75495972,0.00262217
5589.68376709,0.00264128
5591.61257446,0.00263642
5593.54138184,0.00268258
5595.47018921,0.00260041
5597.39899658,0.00260062
5599.32780395,0.00252185
5601.25661133,0.00251226
5603.18541870,0.00260594
5605.11422607,0.00256911
5607.04303345,0.00253247
5608.97184082,0.00250723
5610.90064819,0.00259042
5612.82945557,0.00261582
5614.75826294,0.00254667
5616.68707031,0.00257231
5618.61587769,0.00252532
5620.54468506,0.00245475
5622.47349243,0.00253436
5624.40229980,0.00256844
5626.33110718,0.00252931
5628.25991455,0.00250991
5630.18872192,0.00248515
5632.11752930,0.00255607
5634.04633667,0.00251483
5635.97514404,0.00242576
5637.90395142,0.00247207
5639.83275879,0.00251858
5641.76156616,0.00252407
5643.69037353,0.00241193
5645.61918091,0.00245292
5647.54798828,0.00246289
5649.47679565,0.00234678
5651.40560303,0.00245653
5653.33441040,0.00244729
5655.26321777,0.00239263
5657.19202515,0.00244299
5659.12083252,0.00242881
5661.04963989,0.00240578
5662.97844727,0.00239290
5664.90725464,0.00239073
5666.83606201,0.00231337
5668.76486938,0.00237103
5670.69367676,0.00245084
5672.62248413,0.00233709
5674.55129150,0.00233969
5676.48009888,0.00233877
5678.40890625,0.00235671
5680.33771362,0.00242057
5682.26652100,0.00234723
5684.19532837,0.00232120
5686.12413574,0.00225973
5688.05294311,0.00225049
5689.98175049,0.00230068
5691.91055786,0.00229411
5693.83936523,0.00238501
5695.76817261,0.00237734
5697.69697998,0.00230694
5699.62578735,0.00223121
5701.55459473,0.00225414
5703.48340210,0.00235891
5705.41220947,0.00225844
5707.34101685,0.00224202
5709.26982422,0.00227191
5711.19863159,0.00227518
5713.12743896,0.00229236
5715.05624634,0.00223925
5716.98505371,0.00225557
5718.91386108,0.00223057
5720.84266846,0.00224817
5722.77147583,0.00228599
5724.70028320,0.00222910
5726.62909058,0.00218326
5728.55789795,0.00217933
5730.48670532,0.00219509
5732.41551270,0.00218693
5734.34432007,0.00221519
5736.27312744,0.00217501
5738.20193481,0.00215114
5740.13074219,0.00215628
5742.05954956,0.00213704
5743.98835693,0.00217288
5745.91716431,0.00214858
5747.84597168,0.00219387
5749.77477905,0.00215499
5751.70358643,0.00207658
5753.63239380,0.00215923
5755.56120117,0.00212141
5757.49000854,0.00208623
5759.41881592,0.00208867
5761.34762329,0.00204679
5763.27643066,0.00207966
5765.20523804,0.00208423
5767.13404541,0.00207937
5769.06285278,0.00209914
5770.99166016,0.00205746
5772.92046753,0.00206415
5774.84927490,0.00208997
5776.77808228,0.00207567
5778.70688965,0.00206725
5780.63569702,0.00204416
5782.56450439,0.00203882
5784.49331177,0.00196913
5786.42211914,0.00200011
5788.35092651,0.00203763
5790.27973389,0.00194288
5792.20854126,0.00199766
5794.13734863,0.00200248
5796.06615601,0.00202903
5797.99496338,0.00203648
5799.92377075,0.00193537
5801.85257812,0.00201625
5803.78138550,0.00202031
5805.71019287,0.00198386
5807.63900024,0.00200036
5809.56780762,0.00199310
5811.49661499,0.00200808
5813.42542236,0.00194041
5815.35422974,0.00194731
5817.28303711,0.00202986
5819.21184448,0.00198840
5821.14065186,0.00192447
5823.06945923,0.00192774
5824.99826660,0.00188513
5826.92707397,0.00182456
5828.85588135,0.00185125
5830.78468872,0.00190021
5832.71349609,0.00185445
5834.64230347,0.00184192
5836.57111084,0.00190921
5838.49991821,0.00189333
5840.42872559,0.00195394
5842.35753296,0.00194772
5844.28634033,0.00185997
5846.21514770,0.00191335
5848.14395508,0.00186629
5850.07276245,0.00187093
5852.00156982,0.00191404
5853.93037720,0.00182552
5855.85918457,0.00183868
5857.78799194,0.00187348
5859.71679932,0.00183744
5861.64560669,0.00182765
5863.57441406,0.00181801
5865.50322144,0.00178220
5867.43202881,0.00181226
5869.36083618,0.00183294
5871.28964355,0.00172439
5873.21845093,0.00171661
5875.14725830,0.00180338
5877.07606567,0.00175760
5879.00487305,0.00176333
5880.93368042,0.00179509
5882.86248779,0.00179006
5884.79129517,0.00179358
5886.72010254,0.00172038
5888.64890991,0.00180404
5890.57771728,0.00182199
5892.50652466,0.00177421
5894.43533203,0.00182097
5896.36413940,0.00172671
5898.29294678,0.00177496
5900.22175415,0.00176833
5902.15056152,0.00172430
5904.07936890,0.00182283
5906.00817627,0.00177196
5907.93698364,0.00171991
5909.86579102,0.00171006
5911.79459839,0.00176120
5913.72340576,0.00173993
5915.65221313,0.00168270
5917.58102051,0.00172688
5919.50982788,0.00171516
5921.43863525,0.00168855
5923.36744263,0.00166562
5925.29625000,0.00168802
5927.22505737,0.00169901
5929.15386475,0.00169654
5931.08267212,0.00165687
5933.01147949,0.00166727
5934.94028686,0.00170713
5936.86909424,0.00164038
5938.79790161,0.00167948
5940.72670898,0.00163699
5942.65551636,0.00162670
5944.58432373,0.00170143
5946.51313110,0.00160732
5948.44193848,0.00154332
5950.37074585,0.00158416
5952.29955322,0.00164973
5954.22836060,0.00161762
5956.15716797,0.00162720
5958.08597534,0.00163164
5960.01478271,0.00160588
5961.94359009,0.00165955
5963.87239746,0.00164250
5965.80120483,0.00160796
5967.73001221,0.00159124
5969.65881958,0.00160811
5971.58762695,0.00157620
5973.51643433,0.00158106
5975.44524170,0.00156278
5977.37404907,0.00152624
5979.30285645,0.00161843
5981.23166382,0.00158143
5983.16047119,0.00159020
5985.08927856,0.00155897
5987.01808594,0.00149571
5988.94689331,0.00153093
5990.87570068,0.00148244
5992.80450806,0.00152244
5994.73331543,0.00151806
5996.66212280,0.00146999
5998.59093018,0.00150146
6000.51973755,0.00155611
