399.26312622,0.00041487
401.19193359,0.00026597
403.12074097,0.00027841
405.04954834,0.00021139
406.97835571,-0.00001797
408.90716309,0.00004896
410.83597046,0.00036400
412.76477783,0.00029789
414.69358521,0.00030175
416.62239258,0.00001683
418.55119995,0.00011984
420.48000732,0.00032009
422.40881470,0.00007507
424.33762207,0.00022008
426.26642944,0.00002338
428.19523682,0.00018624
430.12404419,0.00031888
432.05285156,0.00019811
433.98165894,0.00026793
435.91046631,0.00011237
437.83927368,0.00031474
439.76808105,0.00002288
441.69688843,-0.00006188
443.62569580,0.00028639
445.55450317,0.00030062
447.48331055,0.00030447
449.41211792,0.00012351
451.34092529,0.00028498
453.26973267,0.00019256
455.19854004,0.00014559
457.12734741,0.00038534
459.05615479,0.00014359
460.98496216,0.00007328
462.91376953,0.00021249
464.84257690,0.00026792
466.77138428,0.00021471
468.70019165,0.00031045
470.62899902,0.00031661
472.55780640,0.00023549
474.48661377,0.00037592
476.41542114,0.00025649
478.34422852,0.00010839
480.27303589,0.00016437
482.20184326,0.00026948
484.13065063,0.00029316
486.05945801,0.00021376
487.98826538,0.00026672
489.91707275,0.00026839
491.84588013,0.00025249
493.77468750,0.00022316
495.70349487,0.00007342
497.63230225,0.00021093
499.56110962,0.00033031
501.48991699,0.00035756
503.41872437,0.00045466
505.34753174,0.00031947
507.27633911,0.00016422
509.20514648,0.00002946
511.13395386,0.00009407
513.06276123,0.00006450
514.99156860,0.00010687
516.92037598,0.00027153
518.84918335,-0.00005476
520.77799072,-0.00001030
522.70679810,0.00003533
524.63560547,0.00005699
526.56441284,0.00039159
528.49322021,0.00018884
530.42202759,0.00010630
532.35083496,0.00029803
534.27964233,0.00031079
536.20844971,0.00030099
538.13725708,0.00021027
540.06606445,0.00022481
541.99487183,0.00022905
543.92367920,0.00014531
545.85248657,0.00025455
547.78129395,0.00044432
549.71010132,0.00039371
551.63890869,0.00014719
553.56771606,0.00001766
555.49652344,0.00021845
557.42533081,0.00039974
559.35413818,0.00001349
561.28294556,0.00006142
563.21175293,0.00038698
565.14056030,0.00027918
567.06936768,0.00020173
568.99817505,0.00005908
570.92698242,0.00021247
572.85578979,0.00010372
574.78459717,-0.00002535
576.71340454,0.00019863
578.64221191,0.00020644
580.57101929,0.00042451
582.49982666,0.00029784
584.42863403,0.00004140
586.35744141,0.00014362
588.28624878,0.00025763
590.21505615,0.00029257
592.14386353,0.00013779
594.07267090,0.00002203
596.00147827,0.00008689
597.93028564,0.00023189
599.85909302,0.00022578
601.78790039,0.00025014
603.71670776,0.00016694
605.64551514,0.00010511
607.57432251,0.00025961
609.50312988,-0.00000412
611.43193726,0.00002273
613.36074463,0.00037216
615.28955200,0.00023832
617.21835938,0.00021363
619.14716675,0.00020084
621.07597412,0.00012921
623.00478149,0.00032303
624.93358887,0.00036497
626.86239624,0.00028426
628.79120361,0.00010882
630.72001099,0.00013309
632.64881836,0.00030885
634.57762573,0.00013026
636.50643311,0.00003925
638.43524048,0.00000388
640.36404785,0.00010266
642.29285522,0.00025853
644.22166260,0.00031908
646.15046997,0.00046533
648.07927734,0.00021202
650.00808472,0.00004967
651.93689209,0.00012230
653.86569946,0.00011773
655.79450684,0.00001329
657.72331421,-0.00014269
659.65212158,0.00017124
661.58092896,0.00038639
663.50973633,0.00021134
665.43854370,0.00023104
667.36735107,0.00023088
669.29615845,0.00021380
671.22496582,0.00032153
673.15377319,0.00028522
675.08258057,0.00019093
677.01138794,0.00011300
678.94019531,0.00018930
680.86900269,0.00034141
682.79781006,0.00034194
684.72661743,0.00010441
686.65542480,0.00011982
688.58423218,0.00007563
690.51303955,0.00011483
692.44184692,0.00020999
694.37065430,0.00014899
696.29946167,0.00035995
698.22826904,0.00022485
700.15707642,0.00026794
702.08588379,0.00023312
704.01469116,0.00031946
705.94349854,0.00025990
707.87230591,-0.00000996
709.80111328,0.00034479
711.72992065,0.00016324
713.65872803,0.00017374
715.58753540,0.00032986
717.51634277,0.00004662
719.44515015,0.00013569
721.37395752,0.00013643
723.30276489,0.00001907
725.23157227,0.00007785
727.16037964,0.00030484
729.08918701,0.00031764
731.01799438,0.00026832
732.94680176,0.00030785
734.87560913,-0.00006654
736.80441650,0.00034311
738.73322388,0.00065501
740.66203125,0.00001875
742.59083862,0.00023445
744.51964600,0.00049550
746.44845337,0.00020058
748.37726074,0.00009326
750.30606812,0.00012184
752.23487549,0.00018858
754.16368286,0.00018177
756.09249023,0.00023220
758.02129761,0.00027523
759.95010498,0.00015896
761.87891235,0.00000652
763.80771973,0.00020069
765.73652710,0.00025464
767.66533447,0.00008083
769.59414185,0.00023410
771.52294922,0.00015497
773.45175659,0.00021905
775.38056396,0.00033502
777.30937134,0.00023464
779.23817871,0.00038780
781.16698608,0.00027197
783.09579346,0.00032168
785.02460083,0.00036183
786.95340820,0.00023021
788.88221558,0.00035569
790.81102295,0.00003544
792.73983032,0.00021831
794.66863770,0.00054869
796.59744507,0.00013288
798.52625244,0.00028859
800.45505981,0.00030614
802.38386719,0.00000714
804.31267456,0.00017717
806.24148193,0.00012073
808.17028931,0.00010940
810.09909668,0.00012593
812.02790405,0.00007749
813.95671143,0.00041500
815.88551880,0.00036755
817.81432617,0.00028078
819.74313354,0.00037871
821.67194092,-0.00000486
823.60074829,0.00015715
825.52955566,0.00034540
827.45836304,0.00006062
829.38717041,0.00019537
831.31597778,0.00015344
833.24478516,0.00016758
835.17359253,0.00026916
837.10239990,0.00020152
839.03120728,0.00031639
840.96001465,0.00024399
842.88882202,0.00015873
844.81762939,0.00013149
846.74643677,0.00020398
848.67524414,0.00036922
850.60405151,0.00037744
852.53285889,0.00040554
854.46166626,0.00029701
856.39047363,0.00008144
858.31928101,0.00018474
860.24808838,0.00040733
862.17689575,0.00033399
864.10570313,0.00022516
866.03451050,0.00022825
867.96331787,0.00026630
869.89212524,0.00022505
871.82093262,0.00026889
873.74973999,0.00038808
875.67854736,0.00021759
877.60735474,0.00019266
879.53616211,0.00015534
881.46496948,0.00011900
883.39377686,0.00021550
885.32258423,0.00006638
887.25139160,0.00017648
889.18019897,0.00036105
891.10900635,0.00025807
893.03781372,0.00018960
894.96662109,0.00023478
896.89542847,0.00020840
898.82423584,0.00023197
900.75304321,0.00036212
902.68185059,0.00022996
904.61065796,0.00012108
906.53946533,0.00018032
908.46827271,0.00025572
910.39708008,0.00021273
912.32588745,0.00026034
914.25469482,0.00045738
916.18350220,0.00032264
918.11230957,0.00035139
920.04111694,0.00023929
921.96992432,0.00009811
923.89873169,0.00034678
925.82753906,0.00021552
927.75634644,0.00028264
929.68515381,0.00034442
931.61396118,0.00020408
933.54276855,0.00037286
935.47157593,0.00047420
937.40038330,0.00041094
939.32919067,0.00027423
941.25799805,0.00033209
943.18680542,0.00039626
945.11561279,0.00039915
947.04442017,0.00032887
948.97322754,0.00031617
950.90203491,0.00041324
952.83084229,0.00022067
954.75964966,0.00022922
956.68845703,0.00030210
958.61726440,0.00025888
960.54607178,0.00034246
962.47487915,0.00028834
964.40368652,0.00019543
966.33249390,0.00025137
968.26130127,0.00036499
970.19010864,0.00038169
972.11891602,0.00039825
974.04772339,0.00043958
975.97653076,0.00041013
977.90533813,0.00031026
979.83414551,0.00041521
981.76295288,0.00040238
983.69176025,0.00031359
985.62056763,0.00060251
987.54937500,0.00052358
989.47818237,0.00044797
991.40698975,0.00032897
993.33579712,0.00034403
995.26460449,0.00066580
997.19341187,0.00027363
999.12221924,0.00053278
1001.05102661,0.00075093
1002.97983398,0.00042706
1004.90864136,0.00058984
1006.83744873,0.00040001
1008.76625610,0.00065479
1010.69506348,0.00070653
1012.62387085,0.00044058
1014.55267822,0.00077872
1016.48148560,0.00055549
1018.41029297,0.00048523
1020.33910034,0.00072941
1022.26790771,0.00053155
1024.19671509,0.00062255
1026.12552246,0.00084885
1028.05432983,0.00068423
1029.98313721,0.00065264
1031.91194458,0.00087013
1033.84075195,0.00080327
1035.76955933,0.00077884
1037.69836670,0.00097403
1039.62717407,0.00083630
1041.55598145,0.00067121
1043.48478882,0.00079657
1045.41359619,0.00088365
1047.34240356,0.00082292
1049.27121094,0.00059637
1051.20001831,0.00061769
1053.12882568,0.00080650
1055.05763306,0.00081648
1056.98644043,0.00079667
1058.91524780,0.00072754
1060.84405518,0.00073503
1062.77286255,0.00057416
1064.70166992,0.00061355
1066.63047729,0.00084201
1068.55928467,0.00065064
1070.48809204,0.00067752
1072.41689941,0.00077013
1074.34570679,0.00070022
1076.27451416,0.00062173
1078.20332153,0.00059069
1080.13212891,0.00059434
1082.06093628,0.00047623
1083.98974365,0.00067169
1085.91855103,0.00071708
1087.84735840,0.00059841
1089.77616577,0.00068303
1091.70497314,0.00049665
1093.63378052,0.00045974
1095.56258789,0.00067122
1097.49139526,0.00067046
1099.42020264,0.00057548
1101.34901001,0.00061102
1103.27781738,0.00067051
1105.20662476,0.00057616
1107.13543213,0.00066820
1109.06423950,0.00072858
1110.99304687,0.00046155
1112.92185425,0.00066483
1114.85066162,0.00079780
1116.77946899,0.00052019
1118.70827637,0.00066398
1120.63708374,0.00058118
1122.56589111,0.00055900
1124.49469849,0.00069921
1126.42350586,0.00060142
1128.35231323,0.00080895
1130.28112061,0.00061807
1132.20992798,0.00052514
1134.13873535,0.00079641
1136.06754272,0.00071675
1137.99635010,0.00072948
1139.92515747,0.00073887
1141.85396484,0.00085104
1143.78277222,0.00083695
1145.71157959,0.00068095
1147.64038696,0.00074372
1149.56919434,0.00066323
1151.49800171,0.00070681
1153.42680908,0.00077850
1155.35561646,0.00085753
1157.28442383,0.00098821
1159.21323120,0.00089278
1161.14203857,0.00099382
1163.07084595,0.00101745
1164.99965332,0.00101743
1166.92846069,0.00114328
1168.85726807,0.00077796
1170.78607544,0.00068073
1172.71488281,0.00106489
1174.64369019,0.00115976
1176.57249756,0.00111964
1178.50130493,0.00111595
1180.43011230,0.00103585
1182.35891968,0.00107044
1184.28772705,0.00127811
1186.21653442,0.00126654
1188.14534180,0.00135580
1190.07414917,0.00141890
1192.00295654,0.00144657
1193.93176392,0.00167306
1195.86057129,0.00146906
1197.78937866,0.00156463
1199.71818604,0.00169435
1201.64699341,0.00157645
1203.57580078,0.00170862
1205.50460815,0.00171985
1207.43341553,0.00188075
1209.36222290,0.00175972
1211.29103027,0.00186137
1213.21983765,0.00203673
1215.14864502,0.00185234
1217.07745239,0.00201275
1219.00625977,0.00198083
1220.93506714,0.00203423
1222.86387451,0.00203246
1224.79268188,0.00208216
1226.72148926,0.00211537
1228.65029663,0.00208243
1230.57910400,0.00239108
1232.50791138,0.00212457
1234.43671875,0.00206875
1236.36552612,0.00216006
1238.29433350,0.00211024
1240.22314087,0.00222751
1242.15194824,0.00215868
1244.08075562,0.00222091
1246.00956299,0.00219365
1247.93837036,0.00235182
1249.86717773,0.00227813
1251.79598511,0.00218081
1253.72479248,0.00225424
1255.65359985,0.00208629
1257.58240723,0.00218227
1259.51121460,0.00205885
1261.44002197,0.00209956
1263.36882935,0.00207137
1265.29763672,0.00192701
1267.22644409,0.00200334
1269.15525146,0.00186065
1271.08405884,0.00198167
1273.01286621,0.00201548
1274.94167358,0.00194352
1276.87048096,0.00182487
1278.79928833,0.00192295
1280.72809570,0.00203905
1282.65690308,0.00176764
1284.58571045,0.00187629
1286.51451782,0.00182186
1288.44332520,0.00171468
1290.37213257,0.00183606
1292.30093994,0.00188419
1294.22974731,0.00188201
1296.15855469,0.00195168
1298.08736206,0.00203306
1300.01616943,0.00173732
1301.94497681,0.00176535
1303.87378418,0.00184596
1305.80259155,0.00183604
1307.73139893,0.00191017
1309.66020630,0.00180408
1311.58901367,0.00190386
1313.51782104,0.00187610
1315.44662842,0.00203120
1317.37543579,0.00209638
1319.30424316,0.00194861
1321.23305054,0.00222945
1323.16185791,0.00223050
1325.09066528,0.00213819
1327.01947266,0.00231057
1328.94828003,0.00229268
1330.87708740,0.00228194
1332.80589478,0.00244367
1334.73470215,0.00243146
1336.66350952,0.00246530
1338.59231689,0.00256041
1340.52112427,0.00250824
1342.44993164,0.00257786
1344.37873901,0.00265486
1346.30754639,0.00264018
1348.23635376,0.00252601
1350.16516113,0.00256759
1352.09396851,0.00268758
1354.02277588,0.00267544
1355.95158325,0.00255259
1357.88039062,0.00251105
1359.80919800,0.00264429
1361.73800537,0.00238176
1363.66681274,0.00251805
1365.59562012,0.00271724
1367.52442749,0.00245877
1369.45323486,0.00264160
1371.38204224,0.00249745
1373.31084961,0.00234639
1375.23965698,0.00247118
1377.16846436,0.00248838
1379.09727173,0.00248205
1381.02607910,0.00233357
1382.95488647,0.00250395
1384.88369385,0.00253999
1386.81250122,0.00242345
1388.74130859,0.00244934
1390.67011597,0.00257304
1392.59892334,0.00262464
1394.52773071,0.00248900
1396.45653809,0.00270884
1398.38534546,0.00259434
1400.31415283,0.00260987
1402.24296021,0.00283609
1404.17176758,0.00248205
1406.10057495,0.00278560
1408.02938232,0.00292005
1409.95818970,0.00258858
1411.88699707,0.00274335
1413.81580444,0.00266800
1415.74461182,0.00266321
1417.67341919,0.00259657
1419.60222656,0.00245801
1421.53103394,0.00257644
1423.45984131,0.00243687
1425.38864868,0.00244146
1427.31745605,0.00250127
1429.24626343,0.00244460
1431.17507080,0.00241918
1433.10387817,0.00232186
1435.03268555,0.00226657
1436.96149292,0.00213614
1438.89030029,0.00219194
1440.81910767,0.00230615
1442.74791504,0.00225839
1444.67672241,0.00228507
1446.60552979,0.00220468
1448.53433716,0.00213909
1450.46314453,0.00226863
1452.39195190,0.00236428
1454.32075928,0.00224005
1456.24956665,0.00205367
1458.17837402,0.00226428
1460.10718140,0.00262569
1462.03598877,0.00258283
1463.96479614,0.00255024
1465.89360352,0.00266443
1467.82241089,0.00285898
1469.75121826,0.00300989
1471.68002563,0.00280043
1473.60883301,0.00297680
1475.53764038,0.00326399
1477.46644775,0.00348208
1479.39525513,0.00378657
1481.32406250,0.00368694
1483.25286987,0.00393629
1485.18167725,0.00403052
1487.11048462,0.00394673
1489.03929199,0.00399005
1490.96809937,0.00395211
1492.89690674,0.00451984
1494.82571411,0.00429858
1496.75452148,0.00404553
1498.68332886,0.00465202
1500.61213623,0.00463095
1502.54094360,0.00493712
1504.46975098,0.00460919
1506.39855835,0.00357974
1508.32736572,0.00431739
1510.25617310,0.00491243
1512.18498047,0.00486550
1514.11378784,0.00518733
1516.04259521,0.00474576
1517.97140259,0.00486242
1519.90020996,0.00475272
1521.82901733,0.00435313
1523.75782471,0.00503939
1525.68663208,0.00482492
1527.61543945,0.00496185
1529.54424683,0.00544257
1531.47305420,0.00511928
1533.40186157,0.00479040
1535.33066895,0.00503322
1537.25947632,0.00536549
1539.18828369,0.00402831
1541.11709106,0.00422564
1543.04589844,0.00496957
1544.97470581,0.00470428
1546.90351318,0.00550301
1548.83232056,0.00513864
1550.76112793,0.00531249
1552.68993530,0.00530808
1554.61874268,0.00491490
1556.54755005,0.00534224
1558.47635742,0.00396902
1560.40516479,0.00414678
1562.33397217,0.00550116
1564.26277954,0.00532109
1566.19158691,0.00549038
1568.12039429,0.00541390
1570.04920166,0.00484773
1571.97800903,0.00547974
1573.90681641,0.00568957
1575.83562378,0.00466003
1577.76443115,0.00514886
1579.69323853,0.00560119
1581.62204590,0.00545409
1583.55085327,0.00562931
1585.47966064,0.00560016
1587.40846802,0.00592521
1589.33727539,0.00563175
1591.26608276,0.00559359
1593.19489014,0.00565330
1595.12369751,0.00547239
1597.05250488,0.00568567
1598.98131226,0.00576734
1600.91011963,0.00580104
1602.83892700,0.00556979
1604.76773437,0.00583107
1606.69654175,0.00572449
1608.62534912,0.00570831
1610.55415649,0.00585914
1612.48296387,0.00580998
1614.41177124,0.00613841
1616.34057861,0.00508258
1618.26938599,0.00539019
1620.19819336,0.00631183
1622.12700073,0.00564963
1624.05580811,0.00580679
1625.98461548,0.00605389
1627.91342285,0.00600477
1629.84223022,0.00606784
1631.77103760,0.00658035
1633.69984497,0.00608667
1635.62865234,0.00535351
1637.55745972,0.00616767
1639.48626709,0.00645899
1641.41507446,0.00658481
1643.34388184,0.00664514
1645.27268921,0.00595361
1647.20149658,0.00553280
1649.13030396,0.00674127
1651.05911133,0.00641896
1652.98791870,0.00437370
1654.91672607,0.00583436
1656.84553345,0.00697769
1658.77434082,0.00672498
1660.70314819,0.00706932
1662.63195557,0.00631547
1664.56076294,0.00664824
1666.48957031,0.00709228
1668.41837769,0.00630039
1670.34718506,0.00629831
1672.27599243,0.00694426
1674.20479980,0.00643868
1676.13360718,0.00629124
1678.06241455,0.00708018
1679.99122192,0.00684490
1681.92002930,0.00684496
1683.84883667,0.00573918
1685.77764404,0.00565219
1687.70645142,0.00733280
1689.63525879,0.00646855
1691.56406616,0.00692203
1693.49287354,0.00697385
1695.42168091,0.00553196
1697.35048828,0.00659082
1699.27929565,0.00578975
1701.20810303,0.00545271
1703.13691040,0.00703242
1705.06571777,0.00643506
1706.99452515,0.00659081
1708.92333252,0.00696677
1710.85213989,0.00668360
1712.78094727,0.00680487
1714.70975464,0.00618730
1716.63856201,0.00580260
1718.56736938,0.00578317
1720.49617676,0.00655132
1722.42498413,0.00682106
1724.35379150,0.00632426
1726.28259888,0.00683318
1728.21140625,0.00640888
1730.14021362,0.00647751
1732.06902100,0.00631266
1733.99782837,0.00497258
1735.92663574,0.00603529
1737.85544312,0.00653857
1739.78425049,0.00589111
1741.71305786,0.00635846
1743.64186523,0.00644871
1745.57067261,0.00647077
1747.49947998,0.00646884
1749.42828735,0.00615475
1751.35709473,0.00606527
1753.28590210,0.00659124
1755.21470947,0.00665864
1757.14351685,0.00625215
1759.07232422,0.00674385
1761.00113159,0.00645672
1762.92993896,0.00625286
1764.85874634,0.00686409
1766.78755371,0.00642914
1768.71636108,0.00647414
1770.64516846,0.00648591
1772.57397583,0.00589786
1774.50278320,0.00638281
1776.43159058,0.00673467
1778.36039795,0.00660864
1780.28920532,0.00665953
1782.21801270,0.00664477
1784.14682007,0.00657490
1786.07562744,0.00652524
1788.00443481,0.00678072
1789.93324219,0.00664912
1791.86204956,0.00608673
1793.79085693,0.00626818
1795.71966431,0.00679358
1797.64847168,0.00684041
1799.57727905,0.00658430
1801.50608643,0.00647719
1803.43489380,0.00670760
1805.36370117,0.00684727
1807.29250854,0.00670553
1809.22131592,0.00660878
1811.15012329,0.00666131
1813.07893066,0.00677528
1815.00773804,0.00675728
1816.93654541,0.00672872
1818.86535278,0.00675763
1820.79416016,0.00681481
1822.72296753,0.00680142
1824.65177490,0.00651581
1826.58058228,0.00656854
1828.50938965,0.00658834
1830.43819702,0.00651722
1832.36700439,0.00684723
1834.29581177,0.00684557
1836.22461914,0.00688122
1838.15342651,0.00679018
1840.08223389,0.00673328
1842.01104126,0.00668296
1843.93984863,0.00609378
1845.86865601,0.00649124
1847.79746338,0.00680517
1849.72627075,0.00667854
1851.65507812,0.00703131
1853.58388550,0.00678526
1855.51269287,0.00676692
1857.44150024,0.00685482
1859.37030762,0.00676412
1861.29911499,0.00693941
1863.22792236,0.00675739
1865.15672974,0.00671653
1867.08553711,0.00666920
1869.01434448,0.00637438
1870.94315186,0.00657350
1872.87195923,0.00687794
1874.80076660,0.00673796
1876.72957397,0.00668931
1878.65838135,0.00667575
1880.58718872,0.00664653
1882.51599609,0.00681271
1884.44480347,0.00662579
1886.37361084,0.00666785
1888.30241821,0.00673784
1890.23122559,0.00650026
1892.16003296,0.00679115
1894.08884033,0.00675859
1896.01764771,0.00652860
1897.94645508,0.00670854
1899.87526245,0.00665761
1901.80406982,0.00661973
1903.73287720,0.00673467
1905.66168457,0.00668692
1907.59049194,0.00659227
1909.51929932,0.00661205
1911.44810669,0.00657678
1913.37691406,0.00665658
1915.30572144,0.00668640
1917.23452881,0.00639397
1919.16333618,0.00645575
1921.09214355,0.00653648
1923.02095093,0.00641052
1924.94975830,0.00652776
1926.87856567,0.00659291
1928.80737305,0.00666389
1930.73618042,0.00664353
1932.66498779,0.00666356
1934.59379517,0.00672372
1936.52260254,0.00652569
1938.45140991,0.00659390
1940.38021729,0.00655125
1942.30902466,0.00636647
1944.23783203,0.00648788
1946.16663940,0.00654433
1948.09544678,0.00667983
1950.02425415,0.00675472
1951.95306152,0.00665857
1953.88186890,0.00667725
1955.81067627,0.00672618
1957.73948364,0.00669586
1959.66829102,0.00664379
1961.59709839,0.00665509
1963.52590576,0.00664155
1965.45471313,0.00656609
1967.38352051,0.00648364
1969.31232788,0.00661649
1971.24113525,0.00672217
1973.16994263,0.00670365
1975.09875000,0.00672199
1977.02755737,0.00666635
1978.95636475,0.00679913
1980.88517212,0.00669197
1982.81397949,0.00655745
1984.74278687,0.00666004
1986.67159424,0.00659240
1988.60040161,0.00667083
1990.52920898,0.00657180
1992.45801636,0.00653395
1994.38682373,0.00660888
1996.31563110,0.00652787
1998.24443848,0.00654993
2000.17324585,0.00650282
2002.10205322,0.00662983
2004.03086060,0.00668910
2005.95966797,0.00660393
2007.88847534,0.00650862
2009.81728271,0.00653697
2011.74609009,0.00666838
2013.67489746,0.00655553
2015.60370483,0.00657399
2017.53251221,0.00651273
2019.46131958,0.00653798
2021.39012695,0.00659989
2023.31893433,0.00662632
2025.24774170,0.00667314
2027.17654907,0.00633625
2029.10535645,0.00647000
2031.03416382,0.00650764
2032.96297119,0.00637867
2034.89177856,0.00654532
2036.82058594,0.00638422
2038.74939331,0.00639171
2040.67820068,0.00631357
2042.60700806,0.00639444
2044.53581543,0.00651042
2046.46462280,0.00628607
2048.39343018,0.00641786
2050.32223755,0.00641382
2052.25104492,0.00639282
2054.17985229,0.00648733
2056.10865967,0.00639974
2058.03746704,0.00632748
2059.96627441,0.00631192
2061.89508179,0.00640460
2063.82388916,0.00638362
2065.75269653,0.00636179
2067.68150391,0.00635813
2069.61031128,0.00627255
2071.53911865,0.00632013
2073.46792603,0.00630780
2075.39673340,0.00628470
2077.32554077,0.00640076
2079.25434814,0.00633216
2081.18315552,0.00628022
2083.11196289,0.00639810
2085.04077026,0.00640586
2086.96957764,0.00640441
2088.89838501,0.00628870
2090.82719238,0.00622725
2092.75599976,0.00635628
2094.68480713,0.00626115
2096.61361450,0.00612404
2098.54242187,0.00627794
2100.47122925,0.00633730
2102.40003662,0.00612828
2104.32884399,0.00617000
2106.25765137,0.00623585
2108.18645874,0.00625649
2110.11526611,0.00630772
2112.04407349,0.00616521
2113.97288086,0.00625259
2115.90168823,0.00627217
2117.83049561,0.00623887
2119.75930298,0.00628478
2121.68811035,0.00624702
2123.61691772,0.00637117
2125.54572510,0.00634412
2127.47453247,0.00627975
2129.40333984,0.00622828
2131.33214722,0.00621030
2133.26095459,0.00622421
2135.18976196,0.00618531
2137.11856934,0.00633408
2139.04737671,0.00623604
2140.97618408,0.00611230
2142.90499146,0.00624032
2144.83379883,0.00625607
2146.76260620,0.00620184
2148.69141357,0.00622375
2150.62022095,0.00622856
2152.54902832,0.00606755
2154.47783569,0.00609562
2156.40664307,0.00623656
2158.33545044,0.00620775
2160.26425781,0.00623381
2162.19306519,0.00626761
2164.12187256,0.00616170
2166.05067993,0.00614341
2167.97948730,0.00622526
2169.90829468,0.00621784
2171.83710205,0.00622904
2173.76590942,0.00615502
2175.69471680,0.00614787
2177.62352417,0.00619028
2179.55233154,0.00613010
2181.48113892,0.00613025
2183.40994629,0.00610450
2185.33875366,0.00616610
2187.26756104,0.00610495
2189.19636841,0.00608601
2191.12517578,0.00616205
2193.05398315,0.00607820
2194.98279053,0.00622542
2196.91159790,0.00622954
2198.84040527,0.00607603
2200.76921265,0.00613178
2202.69802002,0.00621515
2204.62682739,0.00618914
2206.55563477,0.00610271
2208.48444214,0.00613166
2210.41324951,0.00610186
2212.34205688,0.00609435
2214.27086426,0.00612144
2216.19967163,0.00608356
2218.12847900,0.00604135
2220.05728638,0.00598412
2221.98609375,0.00605055
2223.91490112,0.00609528
2225.84370850,0.00609330
2227.77251587,0.00606618
2229.70132324,0.00599591
2231.63013062,0.00606827
2233.55893799,0.00610373
2235.48774536,0.00601054
2237.41655273,0.00606648
2239.34536011,0.00610921
2241.27416748,0.00607242
2243.20297485,0.00613458
2245.13178223,0.00602781
2247.06058960,0.00599093
2248.98939697,0.00608894
2250.91820435,0.00602935
2252.84701172,0.00603133
2254.77581909,0.00607345
2256.70462646,0.00604593
2258.63343384,0.00596621
2260.56224121,0.00597508
2262.49104858,0.00604139
2264.41985596,0.00603324
2266.34866333,0.00597758
2268.27747070,0.00600647
2270.20627808,0.00597245
2272.13508545,0.00578561
2274.06389282,0.00590888
2275.99270020,0.00598709
2277.92150757,0.00594965
2279.85031494,0.00591469
2281.77912231,0.00592806
2283.70792969,0.00614539
2285.63673706,0.00592248
2287.56554443,0.00584547
2289.49435181,0.00590336
2291.42315918,0.00585283
2293.35196655,0.00601617
2295.28077393,0.00585324
2297.20958130,0.00582659
2299.13838867,0.00581303
2301.06719604,0.00579193
2302.99600342,0.00588462
2304.92481079,0.00577731
2306.85361816,0.00583490
2308.78242554,0.00575682
2310.71123291,0.00572262
2312.64004028,0.00565122
2314.56884766,0.00548615
2316.49765503,0.00558154
2318.42646240,0.00552259
2320.35526978,0.00538519
2322.28407715,0.00530482
2324.21288452,0.00534992
2326.14169189,0.00527387
2328.07049927,0.00508431
2329.99930664,0.00512236
2331.92811401,0.00507035
2333.85692139,0.00500917
2335.78572876,0.00509049
2337.71453613,0.00516276
2339.64334351,0.00512577
2341.57215088,0.00509362
2343.50095825,0.00517852
2345.42976562,0.00533904
2347.35857300,0.00551955
2349.28738037,0.00553284
2351.21618774,0.00546732
2353.14499512,0.00531251
2355.07380249,0.00506839
2357.00260986,0.00496437
2358.93141724,0.00493368
2360.86022461,0.00487511
2362.78903198,0.00482110
2364.71783936,0.00484406
2366.64664673,0.00492536
2368.57545410,0.00492859
2370.50426147,0.00494907
2372.43306885,0.00516217
2374.36187622,0.00533197
2376.29068359,0.00539558
2378.21949097,0.00551244
2380.14829834,0.00559451
2382.07710571,0.00566514
2384.00591309,0.00568163
2385.93472046,0.00561897
2387.86352783,0.00566798
2389.79233521,0.00573487
2391.72114258,0.00565851
2393.64994995,0.00565158
2395.57875732,0.00575197
2397.50756470,0.00575792
2399.43637207,0.00571899
2401.36517944,0.00570820
2403.29398682,0.00567881
2405.22279419,0.00565182
2407.15160156,0.00564141
2409.08040894,0.00563539
2411.00921631,0.00570302
2412.93802368,0.00567383
2414.86683105,0.00558284
2416.79563843,0.00559155
2418.72444580,0.00559196
2420.65325317,0.00562688
2422.58206055,0.00566176
2424.51086792,0.00573731
2426.43967529,0.00560368
2428.36848267,0.00549137
2430.29729004,0.00564659
2432.22609741,0.00560337
2434.15490479,0.00570348
2436.08371216,0.00571958
2438.01251953,0.00562370
2439.94132690,0.00564417
2441.87013428,0.00551820
2443.79894165,0.00554297
2445.72774902,0.00553465
2447.65655640,0.00559820
2449.58536377,0.00560143
2451.51417114,0.00552057
2453.44297852,0.00560925
2455.37178589,0.00553456
2457.30059326,0.00555238
2459.22940063,0.00562772
2461.15820801,0.00559291
2463.08701538,0.00546655
2465.01582275,0.00547874
2466.94463013,0.00549102
2468.87343750,0.00542375
2470.80224487,0.00553198
2472.73105225,0.00543464
2474.65985962,0.00547857
2476.58866699,0.00554756
2478.51747437,0.00555940
2480.44628174,0.00555557
2482.37508911,0.00542094
2484.30389648,0.00556370
2486.23270386,0.00549383
2488.16151123,0.00549275
2490.09031860,0.00553618
2492.01912598,0.00539713
2493.94793335,0.00544460
2495.87674072,0.00549785
2497.80554810,0.00554551
2499.73435547,0.00547094
2501.66316284,0.00550919
2503.59197021,0.00547573
2505.52077759,0.00549168
2507.44958496,0.00551453
2509.37839233,0.00539328
2511.30719971,0.00550474
2513.23600708,0.00536210
2515.16481445,0.00541180
2517.09362183,0.00544946
2519.02242920,0.00533797
2520.95123657,0.00541934
2522.88004395,0.00536401
2524.80885132,0.00548077
2526.73765869,0.00537932
2528.66646606,0.00533114
2530.59527344,0.00539421
2532.52408081,0.00534861
2534.45288818,0.00537012
2536.38169556,0.00525875
2538.31050293,0.00538016
2540.23931030,0.00547379
2542.16811768,0.00546197
2544.09692505,0.00536398
2546.02573242,0.00536422
2547.95453979,0.00542736
2549.88334717,0.00534885
2551.81215454,0.00550771
2553.74096191,0.00537711
2555.66976929,0.00526096
2557.59857666,0.00529200
2559.52738403,0.00527720
2561.45619141,0.00532337
2563.38499878,0.00516822
2565.31380615,0.00524263
2567.24261353,0.00533551
2569.17142090,0.00535924
2571.10022827,0.00534402
2573.02903564,0.00530756
2574.95784302,0.00540968
2576.88665039,0.00532135
2578.81545776,0.00524520
2580.74426514,0.00522155
2582.67307251,0.00521857
2584.60187988,0.00524058
2586.53068726,0.00529935
2588.45949463,0.00525987
2590.38830200,0.00518577
2592.31710937,0.00534294
2594.24591675,0.00529805
2596.17472412,0.00523854
2598.10353149,0.00525402
2600.03233887,0.00524612
2601.96114624,0.00519063
2603.88995361,0.00502129
2605.81876099,0.00518981
2607.74756836,0.00521264
2609.67637573,0.00508595
2611.60518311,0.00519855
2613.53399048,0.00504841
2615.46279785,0.00506233
2617.39160522,0.00529292
2619.32041260,0.00522441
2621.24921997,0.00523732
2623.17802734,0.00518460
2625.10683472,0.00514785
2627.03564209,0.00527810
2628.96444946,0.00513628
2630.89325684,0.00512358
2632.82206421,0.00512324
2634.75087158,0.00507506
2636.67967895,0.00519406
2638.60848633,0.00512804
2640.53729370,0.00504072
2642.46610107,0.00506229
2644.39490845,0.00521877
2646.32371582,0.00512348
2648.25252319,0.00498988
2650.18133057,0.00512790
2652.11013794,0.00499170
2654.03894531,0.00499473
2655.96775269,0.00511589
2657.89656006,0.00498515
2659.82536743,0.00496491
2661.75417480,0.00514633
2663.68298218,0.00511187
2665.61178955,0.00498435
2667.54059692,0.00511444
2669.46940430,0.00505727
2671.39821167,0.00501339
2673.32701904,0.00496891
2675.25582642,0.00484092
2677.18463379,0.00502383
2679.11344116,0.00511713
2681.04224854,0.00502990
2682.97105591,0.00493988
2684.89986328,0.00493332
2686.82867065,0.00495726
2688.75747803,0.00497598
2690.68628540,0.00498770
2692.61509277,0.00492061
2694.54390015,0.00497904
2696.47270752,0.00494746
2698.40151489,0.00489744
2700.33032227,0.00503765
2702.25912964,0.00500693
2704.18793701,0.00489202
2706.11674438,0.00492856
2708.04555176,0.00488975
2709.97435913,0.00486831
2711.90316650,0.00491295
2713.83197388,0.00482072
2715.76078125,0.00486119
2717.68958862,0.00486567
2719.61839600,0.00485240
2721.54720337,0.00488825
2723.47601074,0.00476916
2725.40481812,0.00488914
2727.33362549,0.00491078
2729.26243286,0.00479985
2731.19124023,0.00482518
2733.12004761,0.00480033
2735.04885498,0.00494107
2736.97766235,0.00493183
2738.90646973,0.00480045
2740.83527710,0.00485699
2742.76408447,0.00478448
2744.69289185,0.00468925
2746.62169922,0.00470406
2748.55050659,0.00472935
2750.47931396,0.00474642
2752.40812134,0.00471175
2754.33692871,0.00475950
2756.26573608,0.00480301
2758.19454346,0.00476359
2760.12335083,0.00472795
2762.05215820,0.00472034
2763.98096558,0.00478241
2765.90977295,0.00471751
2767.83858032,0.00481636
2769.76738770,0.00483239
2771.69619507,0.00455818
2773.62500244,0.00470166
2775.55380981,0.00474747
2777.48261719,0.00467050
2779.41142456,0.00472724
2781.34023193,0.00467927
2783.26903931,0.00468229
2785.19784668,0.00455373
2787.12665405,0.00461119
2789.05546143,0.00469639
2790.98426880,0.00462257
2792.91307617,0.00461690
2794.84188354,0.00455522
2796.77069092,0.00463429
2798.69949829,0.00462710
2800.62830566,0.00454247
2802.55711304,0.00454397
2804.48592041,0.00452191
2806.41472778,0.00457733
2808.34353516,0.00457422
2810.27234253,0.00451738
2812.20114990,0.00462115
2814.12995728,0.00466154
2816.05876465,0.00453598
2817.98757202,0.00455591
2819.91637939,0.00450980
2821.84518677,0.00444597
2823.77399414,0.00451313
2825.70280151,0.00452793
2827.63160889,0.00452611
2829.56041626,0.00453534
2831.48922363,0.00455216
2833.41803101,0.00441130
2835.34683838,0.00449111
2837.27564575,0.00451460
2839.20445312,0.00437655
2841.13326050,0.00457142
2843.06206787,0.00443424
2844.99087524,0.00431643
2846.91968262,0.00440878
2848.84848999,0.00441606
2850.77729736,0.00442964
2852.70610474,0.00429662
2854.63491211,0.00435920
2856.56371948,0.00437530
2858.49252686,0.00433273
2860.42133423,0.00436797
2862.35014160,0.00434552
2864.27894897,0.00434804
2866.20775635,0.00430029
2868.13656372,0.00431806
2870.06537109,0.00433324
2871.99417847,0.00428441
2873.92298584,0.00422108
2875.85179321,0.00427157
2877.78060059,0.00422468
2879.70940796,0.00421540
2881.63821533,0.00433728
2883.56702270,0.00422809
2885.49583008,0.00434297
2887.42463745,0.00434741
2889.35344482,0.00419562
2891.28225220,0.00420528
2893.21105957,0.00416404
2895.13986694,0.00420864
2897.06867432,0.00421202
2898.99748169,0.00430718
2900.92628906,0.00422546
2902.85509644,0.00411393
2904.78390381,0.00414696
2906.71271118,0.00405692
2908.64151855,0.00410381
2910.57032593,0.00413535
2912.49913330,0.00422087
2914.42794067,0.00412681
2916.35674805,0.00407800
2918.28555542,0.00413450
2920.21436279,0.00398443
2922.14317017,0.00409947
2924.07197754,0.00405739
2926.00078491,0.00407347
2927.92959229,0.00415446
2929.85839966,0.00404292
2931.78720703,0.00406216
2933.71601440,0.00395933
2935.64482178,0.00403441
2937.57362915,0.00402743
2939.50243652,0.00396534
2941.43124390,0.00404884
2943.36005127,0.00394824
2945.28885864,0.00402248
2947.21766602,0.00405198
2949.14647339,0.00393341
2951.07528076,0.00388337
2953.00408813,0.00397537
2954.93289551,0.00399172
2956.86170288,0.00385647
2958.79051025,0.00399460
2960.71931763,0.00395594
2962.64812500,0.00391060
2964.57693237,0.00400751
2966.50573975,0.00385704
2968.43454712,0.00395324
2970.36335449,0.00402705
2972.29216187,0.00395363
2974.22096924,0.00395455
2976.14977661,0.00390715
2978.07858398,0.00399280
2980.00739136,0.00400476
2981.93619873,0.00397539
2983.86500610,0.00389541
2985.79381348,0.00381679
2987.72262085,0.00396140
2989.65142822,0.00397815
2991.58023560,0.00394895
2993.50904297,0.00395198
2995.43785034,0.00393529
2997.36665771,0.00394714
2999.29546509,0.00396740
3001.22427246,0.00395502
3003.15307983,0.00392359
3005.08188721,0.00405218
3007.01069458,0.00389831
3008.93950195,0.00376506
3010.86830933,0.00391529
3012.79711670,0.00382318
3014.72592407,0.00384343
3016.65473145,0.00380652
3018.58353882,0.00375266
3020.51234619,0.00388226
3022.44115356,0.00377623
3024.36996094,0.00378162
3026.29876831,0.00386640
3028.22757568,0.00375847
3030.15638306,0.00379507
3032.08519043,0.00390742
3034.01399780,0.00376690
3035.94280518,0.00371570
3037.87161255,0.00379841
3039.80041992,0.00373925
3041.72922729,0.00380803
3043.65803467,0.00382272
3045.58684204,0.00374407
3047.51564941,0.00375920
3049.44445679,0.00372946
3051.37326416,0.00368976
3053.30207153,0.00367881
3055.23087891,0.00376031
3057.15968628,0.00371688
3059.08849365,0.00361707
3061.01730103,0.00374589
3062.94610840,0.00375974
3064.87491577,0.00365872
3066.80372314,0.00368920
3068.73253052,0.00371733
3070.66133789,0.00369079
3072.59014526,0.00360629
3074.51895264,0.00358124
3076.44776001,0.00366045
3078.37656738,0.00360044
3080.30537476,0.00357389
3082.23418213,0.00368232
3084.16298950,0.00369452
3086.09179687,0.00366759
3088.02060425,0.00369063
3089.94941162,0.00369350
3091.87821899,0.00362749
3093.80702637,0.00365639
3095.73583374,0.00364440
3097.66464111,0.00353888
3099.59344849,0.00362379
3101.52225586,0.00369550
3103.45106323,0.00361582
3105.37987061,0.00358247
3107.30867798,0.00365498
3109.23748535,0.00360852
3111.16629272,0.00353760
3113.09510010,0.00361417
3115.02390747,0.00359646
3116.95271484,0.00359153
3118.88152222,0.00362716
3120.81032959,0.00361006
3122.73913696,0.00361015
3124.66794434,0.00358898
3126.59675171,0.00359347
3128.52555908,0.00362605
3130.45436645,0.00355398
3132.38317383,0.00352794
3134.31198120,0.00365681
3136.24078857,0.00357385
3138.16959595,0.00354191
3140.09840332,0.00364689
3142.02721069,0.00358270
3143.95601807,0.00363730
3145.88482544,0.00361351
3147.81363281,0.00350476
3149.74244019,0.00350968
3151.67124756,0.00352438
3153.60005493,0.00352429
3155.52886230,0.00350796
3157.45766968,0.00360555
3159.38647705,0.00356535
3161.31528442,0.00346177
3163.24409180,0.00350930
3165.17289917,0.00354552
3167.10170654,0.00355061
3169.03051392,0.00350968
3170.95932129,0.00349694
3172.88812866,0.00349139
3174.81693604,0.00354253
3176.74574341,0.00352339
3178.67455078,0.00341815
3180.60335815,0.00350008
3182.53216553,0.00357304
3184.46097290,0.00360091
3186.38978027,0.00359988
3188.31858765,0.00355806
3190.24739502,0.00355928
3192.17620239,0.00349820
3194.10500977,0.00349660
3196.03381714,0.00349719
3197.96262451,0.00343653
3199.89143188,0.00357699
3201.82023926,0.00363921
3203.74904663,0.00350424
3205.67785400,0.00354467
3207.60666138,0.00357311
3209.53546875,0.00358377
3211.46427612,0.00365552
3213.39308350,0.00354534
3215.32189087,0.00347776
3217.25069824,0.00358294
3219.17950562,0.00366790
3221.10831299,0.00359281
3223.03712036,0.00354086
3224.96592773,0.00363906
3226.89473511,0.00358131
3228.82354248,0.00350767
3230.75234985,0.00360062
3232.68115723,0.00361263
3234.60996460,0.00360642
3236.53877197,0.00367072
3238.46757935,0.00368924
3240.39638672,0.00366849
3242.32519409,0.00361669
3244.25400146,0.00368230
3246.18280884,0.00376070
3248.11161621,0.00369608
3250.04042358,0.00371821
3251.96923096,0.00372257
3253.89803833,0.00373313
3255.82684570,0.00370716
3257.75565308,0.00363660
3259.68446045,0.00374629
3261.61326782,0.00376353
3263.54207520,0.00376860
3265.47088257,0.00376226
3267.39968994,0.00368873
3269.32849731,0.00374014
3271.25730469,0.00375994
3273.18611206,0.00376603
3275.11491943,0.00377090
3277.04372681,0.00379356
3278.97253418,0.00383379
3280.90134155,0.00382548
3282.83014893,0.00379420
3284.75895630,0.00382812
3286.68776367,0.00387898
3288.61657104,0.00381815
3290.54537842,0.00387375
3292.47418579,0.00389319
3294.40299316,0.00377821
3296.33180054,0.00375319
3298.26060791,0.00380795
3300.18941528,0.00388367
3302.11822266,0.00389604
3304.04703003,0.00391653
3305.97583740,0.00389786
3307.90464478,0.00391602
3309.83345215,0.00392891
3311.76225952,0.00384470
3313.69106689,0.00387598
3315.61987427,0.00394639
3317.54868164,0.00393605
3319.47748901,0.00384405
3321.40629639,0.00386388
3323.33510376,0.00390422
3325.26391113,0.00390630
3327.19271851,0.00392631
3329.12152588,0.00385892
3331.05033325,0.00390013
3332.97914062,0.00388368
3334.90794800,0.00388892
3336.83675537,0.00391913
3338.76556274,0.00391057
3340.69437012,0.00402653
3342.62317749,0.00396607
3344.55198486,0.00398759
3346.48079224,0.00404366
3348.40959961,0.00398407
3350.33840698,0.00404242
3352.26721436,0.00408632
3354.19602173,0.00408327
3356.12482910,0.00402866
3358.05363647,0.00411119
3359.98244385,0.00413496
3361.91125122,0.00404773
3363.84005859,0.00410428
3365.76886597,0.00405636
3367.69767334,0.00397564
3369.62648071,0.00397852
3371.55528809,0.00403123
3373.48409546,0.00410259
3375.41290283,0.00414487
3377.34171020,0.00416703
3379.27051758,0.00418062
3381.19932495,0.00417229
3383.12813232,0.00407256
3385.05693970,0.00408283
3386.98574707,0.00417070
3388.91455444,0.00419715
3390.84336182,0.00422061
3392.77216919,0.00420353
3394.70097656,0.00429614
3396.62978394,0.00433276
3398.55859131,0.00422789
3400.48739868,0.00430512
3402.41620605,0.00425053
3404.34501343,0.00417805
3406.27382080,0.00432221
3408.20262817,0.00422121
3410.13143555,0.00423577
3412.06024292,0.00433099
3413.98905029,0.00431085
3415.91785767,0.00439530
3417.84666504,0.00426911
3419.77547241,0.00427355
3421.70427979,0.00433852
3423.63308716,0.00426349
3425.56189453,0.00431111
3427.49070190,0.00436066
3429.41950928,0.00440538
3431.34831665,0.00432113
3433.27712402,0.00434841
3435.20593140,0.00440012
3437.13473877,0.00437013
3439.06354614,0.00438735
3440.99235352,0.00430147
3442.92116089,0.00439463
3444.84996826,0.00437541
3446.77877563,0.00425437
3448.70758301,0.00434043
3450.63639038,0.00444763
3452.56519775,0.00449535
3454.49400513,0.00442251
3456.42281250,0.00440509
3458.35161987,0.00436733
3460.28042725,0.00439133
3462.20923462,0.00444470
3464.13804199,0.00437254
3466.06684937,0.00436217
3467.99565674,0.00436734
3469.92446411,0.00442563
3471.85327148,0.00448866
3473.78207886,0.00449906
3475.71088623,0.00439991
3477.63969360,0.00439926
3479.56850098,0.00448734
3481.49730835,0.00440686
3483.42611572,0.00443015
3485.35492310,0.00442676
3487.28373047,0.00442257
3489.21253784,0.00444349
3491.14134521,0.00441194
3493.07015259,0.00444045
3494.99895996,0.00439077
3496.92776733,0.00440172
3498.85657471,0.00439416
3500.78538208,0.00439534
3502.71418945,0.00441309
3504.64299683,0.00437667
3506.57180420,0.00440930
3508.50061157,0.00435276
3510.42941895,0.00439425
3512.35822632,0.00443220
3514.28703369,0.00436905
3516.21584106,0.00444796
3518.14464844,0.00446494
3520.07345581,0.00442317
3522.00226318,0.00434903
3523.93107056,0.00431324
3525.85987793,0.00442659
3527.78868530,0.00443687
3529.71749268,0.00441191
3531.64630005,0.00441405
3533.57510742,0.00449298
3535.50391479,0.00455742
3537.43272217,0.00436007
3539.36152954,0.00441614
3541.29033691,0.00451009
3543.21914429,0.00434824
3545.14795166,0.00425453
3547.07675903,0.00418371
3549.00556641,0.00437255
3550.93437378,0.00439734
3552.86318115,0.00430054
3554.79198853,0.00432411
3556.72079590,0.00430623
3558.64960327,0.00445354
3560.57841064,0.00428648
3562.50721802,0.00432417
3564.43602539,0.00439031
3566.36483276,0.00395727
3568.29364014,0.00403597
3570.22244751,0.00432353
3572.15125488,0.00433367
3574.08006226,0.00431906
3576.00886963,0.00434724
3577.93767700,0.00427752
3579.86648437,0.00429183
3581.79529175,0.00437889
3583.72409912,0.00432940
3585.65290649,0.00420934
3587.58171387,0.00384813
3589.51052124,0.00402426
3591.43932861,0.00439619
3593.36813599,0.00417420
3595.29694336,0.00409717
3597.22575073,0.00426468
3599.15455811,0.00428977
3601.08336548,0.00417783
3603.01217285,0.00427577
3604.94098022,0.00427877
3606.86978760,0.00415733
3608.79859497,0.00400024
3610.72740234,0.00399724
3612.65620972,0.00404837
3614.58501709,0.00385502
3616.51382446,0.00424734
3618.44263184,0.00399516
3620.37143921,0.00377491
3622.30024658,0.00424233
3624.22905395,0.00403499
3626.15786133,0.00425938
3628.08666870,0.00373482
3630.01547607,0.00336688
3631.94428345,0.00412701
3633.87309082,0.00409332
3635.80189819,0.00412445
3637.73070557,0.00411985
3639.65951294,0.00414035
3641.58832031,0.00416439
3643.51712769,0.00411654
3645.44593506,0.00422710
3647.37474243,0.00378225
3649.30354980,0.00338717
3651.23235718,0.00345693
3653.16116455,0.00410442
3655.08997192,0.00402784
3657.01877930,0.00373678
3658.94758667,0.00418981
3660.87639404,0.00407550
3662.80520142,0.00418188
3664.73400879,0.00409986
3666.66281616,0.00407996
3668.59162354,0.00391997
3670.52043091,0.00325817
3672.44923828,0.00388130
3674.37804565,0.00366887
3676.30685303,0.00316747
3678.23566040,0.00384231
3680.16446777,0.00390676
3682.09327515,0.00393240
3684.02208252,0.00402636
3685.95088989,0.00396032
3687.87969727,0.00354405
3689.80850464,0.00333630
3691.73731201,0.00375686
3693.66611938,0.00375620
3695.59492676,0.00380068
3697.52373413,0.00383481
3699.45254150,0.00385229
3701.38134888,0.00362103
3703.31015625,0.00349364
3705.23896362,0.00392220
3707.16777100,0.00363494
3709.09657837,0.00357396
3711.02538574,0.00331454
3712.95419312,0.00307517
3714.88300049,0.00366058
3716.81180786,0.00354997
3718.74061523,0.00362234
3720.66942261,0.00350982
3722.59822998,0.00344238
3724.52703735,0.00360830
3726.45584473,0.00327152
3728.38465210,0.00354165
3730.31345947,0.00334050
3732.24226685,0.00311103
3734.17107422,0.00312977
3736.09988159,0.00297199
3738.02868896,0.00320770
3739.95749634,0.00336949
3741.88630371,0.00357341
3743.81511108,0.00279037
3745.74391846,0.00257124
3747.67272583,0.00334582
3749.60153320,0.00289042
3751.53034058,0.00265386
3753.45914795,0.00292430
3755.38795532,0.00323188
3757.31676270,0.00340009
3759.24557007,0.00311140
3761.17437744,0.00320813
3763.10318481,0.00334844
3765.03199219,0.00314980
3766.96079956,0.00313644
3768.88960693,0.00315101
3770.81841431,0.00308612
3772.74722168,0.00335123
3774.67602905,0.00331416
3776.60483643,0.00315114
3778.53364380,0.00316932
3780.46245117,0.00304628
3782.39125854,0.00318166
3784.32006592,0.00317239
3786.24887329,0.00312766
3788.17768066,0.00318597
3790.10648804,0.00313599
3792.03529541,0.00316007
3793.96410278,0.00324958
3795.89291016,0.00306897
3797.82171753,0.00299664
3799.75052490,0.00311450
3801.67933228,0.00252588
3803.60813965,0.00288080
3805.53694702,0.00316476
3807.46575439,0.00266843
3809.39456177,0.00315850
3811.32336914,0.00306661
3813.25217651,0.00313076
3815.18098389,0.00285555
3817.10979126,0.00253550
3819.03859863,0.00317902
3820.96740601,0.00264311
3822.89621338,0.00278704
3824.82502075,0.00306095
3826.75382812,0.00271781
3828.68263550,0.00301569
3830.61144287,0.00289847
3832.54025024,0.00290111
3834.46905762,0.00289363
3836.39786499,0.00273530
3838.32667236,0.00260831
3840.25547974,0.00266798
3842.18428711,0.00286186
3844.11309448,0.00276452
3846.04190186,0.00298614
3847.97070923,0.00304307
3849.89951660,0.00292036
3851.82832397,0.00256940
3853.75713135,0.00204415
3855.68593872,0.00240274
3857.61474609,0.00291638
3859.54355347,0.00282775
3861.47236084,0.00278128
3863.40116821,0.00269683
3865.32997559,0.00253894
3867.25878296,0.00289606
3869.18759033,0.00267768
3871.11639770,0.00243018
3873.04520508,0.00283305
3874.97401245,0.00257198
3876.90281982,0.00279264
3878.83162720,0.00294483
3880.76043457,0.00252872
3882.68924194,0.00284742
3884.61804932,0.00264539
3886.54685669,0.00248463
3888.47566406,0.00290954
3890.40447144,0.00262599
3892.33327881,0.00244987
3894.26208618,0.00274404
3896.19089355,0.00284559
3898.11970093,0.00265532
3900.04850830,0.00247026
3901.97731567,0.00253965
3903.90612305,0.00240714
3905.83493042,0.00248985
3907.76373779,0.00276705
3909.69254517,0.00264225
3911.62135254,0.00275247
3913.55015991,0.00281828
3915.47896728,0.00267835
3917.40777466,0.00258538
3919.33658203,0.00252396
3921.26538940,0.00268261
3923.19419678,0.00267350
3925.12300415,0.00264107
3927.05181152,0.00262841
3928.98061890,0.00262319
3930.90942627,0.00265595
3932.83823364,0.00260505
3934.76704102,0.00271006
3936.69584839,0.00268178
3938.62465576,0.00263516
3940.55346313,0.00259796
3942.48227051,0.00252241
3944.41107788,0.00256608
3946.33988525,0.00255183
3948.26869263,0.00258187
3950.19750000,0.00253523
3952.12630737,0.00252589
3954.05511475,0.00260276
3955.98392212,0.00259968
3957.91272949,0.00255114
3959.84153687,0.00251785
3961.77034424,0.00260526
3963.69915161,0.00261506
3965.62795898,0.00257154
3967.55676636,0.00256405
3969.48557373,0.00257735
3971.41438110,0.00252016
3973.34318848,0.00244871
3975.27199585,0.00248289
3977.20080322,0.00246692
3979.12961060,0.00249411
3981.05841797,0.00250442
3982.98722534,0.00252449
3984.91603271,0.00250555
3986.84484009,0.00240841
3988.77364746,0.00247610
3990.70245483,0.00251489
3992.63126221,0.00251019
3994.56006958,0.00247135
3996.48887695,0.00241547
3998.41768433,0.00248799
4000.34649170,0.00246145
4002.27529907,0.00241824
4004.20410645,0.00252427
4006.13291382,0.00245298
4008.06172119,0.00234231
4009.99052856,0.00244311
4011.91933594,0.00244857
4013.84814331,0.00237854
4015.77695068,0.00233771
4017.70575806,0.00236509
4019.63456543,0.00236731
4021.56337280,0.00237239
4023.49218018,0.00247829
4025.42098755,0.00237513
4027.34979492,0.00234259
4029.27860229,0.00238453
4031.20740967,0.00237280
4033.13621704,0.00236133
4035.06502441,0.00225917
4036.99383179,0.00237673
4038.92263916,0.00234411
4040.85144653,0.00227707
4042.78025391,0.00241273
4044.70906128,0.00234467
4046.63786865,0.00230881
4048.56667603,0.00230170
4050.49548340,0.00233465
4052.42429077,0.00236052
4054.35309814,0.00232193
4056.28190552,0.00240529
4058.21071289,0.00236351
4060.13952026,0.00226735
4062.06832764,0.00227353
4063.99713501,0.00227504
4065.92594238,0.00227517
4067.85474976,0.00228413
4069.78355713,0.00228267
4071.71236450,0.00224739
4073.64117187,0.00221597
4075.56997925,0.00220412
4077.49878662,0.00225577
4079.42759399,0.00228582
4081.35640137,0.00223520
4083.28520874,0.00228424
4085.21401611,0.00223391
4087.14282349,0.00212273
4089.07163086,0.00219236
4091.00043823,0.00215927
4092.92924561,0.00218466
4094.85805298,0.00227624
4096.78686035,0.00222816
4098.71566772,0.00219269
4100.64447510,0.00215995
4102.57328247,0.00220294
4104.50208984,0.00218280
4106.43089722,0.00217930
4108.35970459,0.00218865
4110.28851196,0.00215668
4112.21731934,0.00221994
4114.14612671,0.00214342
4116.07493408,0.00219735
4118.00374145,0.00218370
4119.93254883,0.00206492
4121.86135620,0.00213397
4123.79016357,0.00207589
4125.71897095,0.00210715
4127.64777832,0.00208719
4129.57658569,0.00204501
4131.50539307,0.00207382
4133.43420044,0.00203211
4135.36300781,0.00215440
4137.29181519,0.00214703
4139.22062256,0.00207096
4141.14942993,0.00209863
4143.07823730,0.00209718
4145.00704468,0.00210354
4146.93585205,0.00210453
4148.86465942,0.00207020
4150.79346680,0.00202468
4152.72227417,0.00205344
4154.65108154,0.00207685
4156.57988892,0.00208725
4158.50869629,0.00207483
4160.43750366,0.00205837
4162.36631103,0.00200992
4164.29511841,0.00199268
4166.22392578,0.00205854
4168.15273315,0.00201569
4170.08154053,0.00199494
4172.01034790,0.00194773
4173.93915527,0.00197503
4175.86796265,0.00205053
4177.79677002,0.00199581
4179.72557739,0.00200415
4181.65438477,0.00200266
4183.58319214,0.00205548
4185.51199951,0.00199847
4187.44080688,0.00191825
4189.36961426,0.00200254
4191.29842163,0.00200424
4193.22722900,0.00197032
4195.15603638,0.00190568
4197.08484375,0.00192559
4199.01365112,0.00192787
4200.94245850,0.00190882
4202.87126587,0.00197540
4204.80007324,0.00194577
4206.72888062,0.00190333
4208.65768799,0.00195967
4210.58649536,0.00203231
4212.51530273,0.00198930
4214.44411011,0.00200211
4216.37291748,0.00187842
4218.30172485,0.00179812
4220.23053223,0.00194530
4222.15933960,0.00185072
4224.08814697,0.00191770
4226.01695435,0.00190717
4227.94576172,0.00179238
4229.87456909,0.00192987
4231.80337646,0.00185032
4233.73218384,0.00183342
4235.66099121,0.00186857
4237.58979858,0.00184885
4239.51860596,0.00186745
4241.44741333,0.00184243
4243.37622070,0.00185442
4245.30502808,0.00179160
4247.23383545,0.00185628
4249.16264282,0.00190018
4251.09145020,0.00182513
4253.02025757,0.00187881
4254.94906494,0.00186735
4256.87787231,0.00184307
4258.80667969,0.00183634
4260.73548706,0.00177905
4262.66429443,0.00178501
4264.59310181,0.00174351
4266.52190918,0.00172625
4268.45071655,0.00183748
4270.37952393,0.00180932
4272.30833130,0.00179065
4274.23713867,0.00185610
4276.16594604,0.00178681
4278.09475342,0.00176942
4280.02356079,0.00171820
4281.95236816,0.00168163
4283.88117554,0.00177895
4285.80998291,0.00176268
4287.73879028,0.00172376
4289.66759766,0.00170861
4291.59640503,0.00172945
4293.52521240,0.00176282
4295.45401978,0.00171158
4297.38282715,0.00170526
4299.31163452,0.00173610
4301.24044189,0.00176022
4303.16924927,0.00170579
4305.09805664,0.00168424
4307.02686401,0.00179139
4308.95567139,0.00174438
4310.88447876,0.00170223
4312.81328613,0.00172623
4314.74209351,0.00165381
4316.67090088,0.00168569
4318.59970825,0.00165802
4320.52851562,0.00160570
4322.45732300,0.00168609
4324.38613037,0.00165791
4326.31493774,0.00165531
4328.24374512,0.00172207
4330.17255249,0.00169990
4332.10135986,0.00166503
4334.03016724,0.00168208
4335.95897461,0.00168456
4337.88778198,0.00165181
4339.81658936,0.00164524
4341.74539673,0.00162336
4343.67420410,0.00170655
4345.60301147,0.00175099
4347.53181885,0.00159325
4349.46062622,0.00157469
4351.38943359,0.00160207
4353.31824097,0.00154265
4355.24704834,0.00157368
4357.17585571,0.00162312
4359.10466309,0.00160127
4361.03347046,0.00161913
4362.96227783,0.00168330
4364.89108520,0.00165580
4366.81989258,0.00162372
4368.74869995,0.00152114
4370.67750732,0.00147392
4372.60631470,0.00162160
4374.53512207,0.00156294
4376.46392944,0.00149073
4378.39273682,0.00156594
4380.32154419,0.00157865
4382.25035156,0.00157752
4384.17915894,0.00151395
4386.10796631,0.00152750
4388.03677368,0.00156734
4389.96558105,0.00151117
4391.89438843,0.00152628
4393.82319580,0.00155635
4395.75200317,0.00153580
4397.68081055,0.00151357
4399.60961792,0.00150527
4401.53842529,0.00151514
4403.46723267,0.00153759
4405.39604004,0.00151866
4407.32484741,0.00155665
4409.25365478,0.00158593
4411.18246216,0.00150548
4413.11126953,0.00153623
4415.04007690,0.00155479
4416.96888428,0.00152913
4418.89769165,0.00151372
4420.82649902,0.00151473
4422.75530640,0.00153507
4424.68411377,0.00144629
4426.61292114,0.00148270
4428.54172852,0.00149841
4430.47053589,0.00149827
4432.39934326,0.00153164
4434.32815063,0.00139648
4436.25695801,0.00140912
4438.18576538,0.00142424
4440.11457275,0.00143860
4442.04338013,0.00150229
4443.97218750,0.00145927
4445.90099487,0.00145406
4447.82980225,0.00143829
4449.75860962,0.00144431
4451.68741699,0.00141570
4453.61622437,0.00146136
4455.54503174,0.00148686
4457.47383911,0.00138026
4459.40264648,0.00137898
4461.33145386,0.00139092
4463.26026123,0.00139383
4465.18906860,0.00134130
4467.11787598,0.00137521
4469.04668335,0.00142851
4470.97549072,0.00141608
4472.90429810,0.00144224
4474.83310547,0.00139552
4476.76191284,0.00143282
4478.69072021,0.00136936
4480.61952759,0.00138196
4482.54833496,0.00148879
4484.47714233,0.00142925
4486.40594971,0.00144533
4488.33475708,0.00135919
4490.26356445,0.00137546
4492.19237183,0.00145160
4494.12117920,0.00138458
4496.04998657,0.00138592
4497.97879395,0.00140987
4499.90760132,0.00141434
4501.83640869,0.00133145
4503.76521606,0.00134187
4505.69402344,0.00128708
4507.62283081,0.00121286
4509.55163818,0.00133213
4511.48044556,0.00133317
4513.40925293,0.00128682
4515.33806030,0.00130250
4517.26686768,0.00136064
4519.19567505,0.00132659
4521.12448242,0.00131284
4523.05328979,0.00134194
4524.98209717,0.00125194
4526.91090454,0.00122046
4528.83971191,0.00123848
4530.76851929,0.00133401
4532.69732666,0.00128003
4534.62613403,0.00124814
4536.55494141,0.00133685
4538.48374878,0.00124964
4540.41255615,0.00130205
4542.34136353,0.00126074
4544.27017090,0.00121077
4546.19897827,0.00129736
4548.12778564,0.00124805
4550.05659302,0.00127526
4551.98540039,0.00126358
4553.91420776,0.00129565
4555.84301514,0.00135056
4557.77182251,0.00126275
4559.70062988,0.00121161
4561.62943726,0.00124779
4563.55824463,0.00128272
4565.48705200,0.00116674
4567.41585937,0.00122537
4569.34466675,0.00133046
4571.27347412,0.00118538
4573.20228149,0.00117807
4575.13108887,0.00122501
4577.05989624,0.00120608
4578.98870361,0.00121107
4580.91751099,0.00122847
4582.84631836,0.00121373
4584.77512573,0.00118958
4586.70393311,0.00124731
4588.63274048,0.00118826
4590.56154785,0.00117569
4592.49035522,0.00123607
4594.41916260,0.00115695
4596.34796997,0.00118947
4598.27677734,0.00122910
4600.20558472,0.00118754
4602.13439209,0.00117580
4604.06319946,0.00119215
4605.99200684,0.00120102
4607.92081421,0.00118937
4609.84962158,0.00123587
4611.77842895,0.00115297
4613.70723633,0.00116684
4615.63604370,0.00124556
4617.56485107,0.00112560
4619.49365845,0.00114791
4621.42246582,0.00111760
4623.35127319,0.00109058
4625.28008057,0.00114166
4627.20888794,0.00111753
4629.13769531,0.00121373
4631.06650269,0.00114116
4632.99531006,0.00106701
4634.92411743,0.00115850
4636.85292480,0.00112347
4638.78173218,0.00108571
4640.71053955,0.00111217
4642.63934692,0.00115631
4644.56815430,0.00114320
4646.49696167,0.00110881
4648.42576904,0.00110950
4650.35457642,0.00113137
4652.28338379,0.00112787
4654.21219116,0.00107298
4656.14099853,0.00112099
4658.06980591,0.00113831
4659.99861328,0.00107126
4661.92742065,0.00110305
4663.85622803,0.00108204
4665.78503540,0.00104680
4667.71384277,0.00113431
4669.64265015,0.00109089
4671.57145752,0.00104137
4673.50026489,0.00108335
4675.42907227,0.00103997
4677.35787964,0.00109150
4679.28668701,0.00108111
4681.21549438,0.00104803
4683.14430176,0.00112529
4685.07310913,0.00106433
4687.00191650,0.00104113
4688.93072388,0.00104811
4690.85953125,0.00104760
4692.78833862,0.00104807
4694.71714600,0.00100945
4696.64595337,0.00109029
4698.57476074,0.00108769
4700.50356812,0.00104369
4702.43237549,0.00105989
4704.36118286,0.00101432
4706.28999023,0.00104567
4708.21879761,0.00104155
4710.14760498,0.00098330
4712.07641235,0.00105960
4714.00521973,0.00105210
4715.93402710,0.00095662
4717.86283447,0.00102543
4719.79164185,0.00109231
4721.72044922,0.00103429
4723.64925659,0.00099916
4725.57806396,0.00103698
4727.50687134,0.00104887
4729.43567871,0.00101330
4731.36448608,0.00102712
4733.29329346,0.00103735
4735.22210083,0.00102950
4737.15090820,0.00103165
4739.07971558,0.00098579
4741.00852295,0.00100728
4742.93733032,0.00107208
4744.86613770,0.00093774
4746.79494507,0.00090430
4748.72375244,0.00107008
4750.65255981,0.00099749
4752.58136719,0.00093536
4754.51017456,0.00095506
4756.43898193,0.00096822
4758.36778931,0.00104495
4760.29659668,0.00093325
4762.22540405,0.00094612
4764.15421143,0.00101267
4766.08301880,0.00097956
4768.01182617,0.00104650
4769.94063354,0.00094817
4771.86944092,0.00091951
4773.79824829,0.00098215
4775.72705566,0.00094912
4777.65586304,0.00093985
4779.58467041,0.00087566
4781.51347778,0.00091710
4783.44228516,0.00097314
4785.37109253,0.00090148
4787.29989990,0.00088824
4789.22870728,0.00090117
4791.15751465,0.00094300
4793.08632202,0.00098802
4795.01512939,0.00093049
4796.94393677,0.00091061
4798.87274414,0.00093400
4800.80155151,0.00089717
4802.73035889,0.00089282
4804.65916626,0.00091868
4806.58797363,0.00090332
4808.51678101,0.00089570
4810.44558838,0.00090897
4812.37439575,0.00084923
4814.30320312,0.00085973
4816.23201050,0.00091989
4818.16081787,0.00087267
4820.08962524,0.00091170
4822.01843262,0.00092200
4823.94723999,0.00090007
4825.87604736,0.00091658
4827.80485474,0.00088346
4829.73366211,0.00088930
4831.66246948,0.00085941
4833.59127686,0.00087998
4835.52008423,0.00090111
4837.44889160,0.00090305
4839.37769897,0.00087504
4841.30650635,0.00083709
4843.23531372,0.00096975
4845.16412109,0.00091400
4847.09292847,0.00083772
4849.02173584,0.00087421
4850.95054321,0.00084454
4852.87935059,0.00088243
4854.80815796,0.00086584
4856.73696533,0.00086220
4858.66577270,0.00082222
4860.59458008,0.00087836
4862.52338745,0.00094311
4864.45219482,0.00082133
4866.38100220,0.00083570
4868.30980957,0.00081869
4870.23861694,0.00082802
4872.16742432,0.00084719
4874.09623169,0.00080285
4876.02503906,0.00081540
4877.95384644,0.00077377
4879.88265381,0.00083476
4881.81146118,0.00082217
4883.74026855,0.00081249
4885.66907593,0.00085726
4887.59788330,0.00078237
4889.52669067,0.00082975
4891.45549805,0.00084035
4893.38430542,0.00083390
4895.31311279,0.00082200
4897.24192017,0.00076067
4899.17072754,0.00083262
4901.09953491,0.00083714
4903.02834228,0.00080866
4904.95714966,0.00080669
4906.88595703,0.00078183
4908.81476440,0.00077284
4910.74357178,0.00073111
4912.67237915,0.00074174
4914.60118652,0.00076025
4916.52999390,0.00080257
4918.45880127,0.00085750
4920.38760864,0.00080124
4922.31641602,0.00077964
4924.24522339,0.00075951
4926.17403076,0.00071392
4928.10283813,0.00071921
4930.03164551,0.00072546
4931.96045288,0.00076871
4933.88926025,0.00076386
4935.81806763,0.00075465
4937.74687500,0.00079706
4939.67568237,0.00077106
4941.60448975,0.00075349
4943.53329712,0.00076917
4945.46210449,0.00077724
4947.39091187,0.00076504
4949.31971924,0.00072838
4951.24852661,0.00071382
4953.17733398,0.00074941
4955.10614136,0.00075828
4957.03494873,0.00073035
4958.96375610,0.00077437
4960.89256348,0.00073677
4962.82137085,0.00066972
4964.75017822,0.00072667
4966.67898560,0.00075253
4968.60779297,0.00073668
4970.53660034,0.00072307
4972.46540771,0.00074959
4974.39421509,0.00076063
4976.32302246,0.00075860
4978.25182983,0.00077208
4980.18063721,0.00074613
4982.10944458,0.00075989
4984.03825195,0.00070237
4985.96705933,0.00067691
4987.89586670,0.00073745
4989.82467407,0.00069728
4991.75348145,0.00072442
4993.68228882,0.00071691
4995.61109619,0.00063932
4997.53990356,0.00067236
4999.46871094,0.00066444
5001.39751831,0.00068352
5003.32632568,0.00073981
5005.25513306,0.00067239
5007.18394043,0.00070260
5009.11274780,0.00077344
5011.04155518,0.00067440
5012.97036255,0.00069632
5014.89916992,0.00077394
5016.82797729,0.00069727
5018.75678467,0.00067544
5020.68559204,0.00065354
5022.61439941,0.00064054
5024.54320679,0.00071214
5026.47201416,0.00071549
5028.40082153,0.00072875
5030.32962891,0.00070352
5032.25843628,0.00064318
5034.18724365,0.00068963
5036.11605103,0.00068467
5038.04485840,0.00067006
5039.97366577,0.00070623
5041.90247314,0.00070396
5043.83128052,0.00065257
5045.76008789,0.00064842
5047.68889526,0.00075139
5049.61770264,0.00068814
5051.54651001,0.00062851
5053.47531738,0.00072459
5055.40412476,0.00066169
5057.33293213,0.00063120
5059.26173950,0.00065165
5061.19054687,0.00062910
5063.11935425,0.00070137
5065.04816162,0.00065673
5066.97696899,0.00060747
5068.90577637,0.00071437
5070.83458374,0.00068708
5072.76339111,0.00063869
5074.69219849,0.00068596
5076.62100586,0.00065906
5078.54981323,0.00067309
5080.47862061,0.00063788
5082.40742798,0.00054933
5084.33623535,0.00061310
5086.26504272,0.00068885
5088.19385010,0.00071580
5090.12265747,0.00061359
5092.05146484,0.00052688
5093.98027222,0.00062283
5095.90907959,0.00062851
5097.83788696,0.00060453
5099.76669434,0.00056885
5101.69550171,0.00050254
5103.62430908,0.00061572
5105.55311645,0.00062145
5107.48192383,0.00049835
5109.41073120,0.00059240
5111.33953857,0.00064389
5113.26834595,0.00057308
5115.19715332,0.00064804
5117.12596069,0.00072356
5119.05476807,0.00063661
5120.98357544,0.00053520
5122.91238281,0.00053236
5124.84119019,0.00057032
5126.76999756,0.00064831
5128.69880493,0.00065368
5130.62761230,0.00059570
5132.55641968,0.00061008
5134.48522705,0.00055448
5136.41403442,0.00055452
5138.34284180,0.00061683
5140.27164917,0.00058332
5142.20045654,0.00057657
5144.12926392,0.00056332
5146.05807129,0.00056729
5147.98687866,0.00056885
5149.91568603,0.00054337
5151.84449341,0.00060363
5153.77330078,0.00060725
5155.70210815,0.00053101
5157.63091553,0.00056756
5159.55972290,0.00059095
5161.48853027,0.00056458
5163.41733765,0.00056544
5165.34614502,0.00049894
5167.27495239,0.00057377
5169.20375977,0.00058901
5171.13256714,0.00048546
5173.06137451,0.00059256
5174.99018188,0.00058826
5176.91898926,0.00056825
5178.84779663,0.00058165
5180.77660400,0.00054076
5182.70541138,0.00060353
5184.63421875,0.00052035
5186.56302612,0.00046422
5188.49183350,0.00053900
5190.42064087,0.00053887
5192.34944824,0.00052241
5194.27825562,0.00049242
5196.20706299,0.00047550
5198.13587036,0.00050252
5200.06467773,0.00050553
5201.99348511,0.00055412
5203.92229248,0.00059717
5205.85109985,0.00050788
5207.77990723,0.00055491
5209.70871460,0.00053314
5211.63752197,0.00044709
5213.56632935,0.00057096
5215.49513672,0.00052193
5217.42394409,0.00053816
5219.35275146,0.00057922
5221.28155884,0.00049669
5223.21036621,0.00053414
5225.13917358,0.00047988
5227.06798096,0.00055079
5228.99678833,0.00060218
5230.92559570,0.00046347
5232.85440308,0.00046599
5234.78321045,0.00050302
5236.71201782,0.00052114
5238.64082520,0.00053767
5240.56963257,0.00053377
5242.49843994,0.00054878
5244.42724731,0.00058470
5246.35605469,0.00054489
5248.28486206,0.00047363
5250.21366943,0.00051349
5252.14247681,0.00053381
5254.07128418,0.00051250
5256.00009155,0.00050340
5257.92889893,0.00049437
5259.85770630,0.00052628
5261.78651367,0.00051839
5263.71532104,0.00042833
5265.64412842,0.00043678
5267.57293579,0.00051817
5269.50174316,0.00050010
5271.43055054,0.00046527
5273.35935791,0.00053418
5275.28816528,0.00061101
5277.21697266,0.00050906
5279.14578003,0.00045328
5281.07458740,0.00050533
5283.00339478,0.00046168
5284.93220215,0.00047385
5286.86100952,0.00048488
5288.78981689,0.00046318
5290.71862427,0.00047368
5292.64743164,0.00045658
5294.57623901,0.00043969
5296.50504639,0.00044171
5298.43385376,0.00049594
5300.36266113,0.00050485
5302.29146851,0.00045331
5304.22027588,0.00044868
5306.14908325,0.00046444
5308.07789062,0.00041576
5310.00669800,0.00042246
5311.93550537,0.00053746
5313.86431274,0.00052651
5315.79312012,0.00044564
5317.72192749,0.00043694
5319.65073486,0.00046726
5321.57954224,0.00044682
5323.50834961,0.00043432
5325.43715698,0.00050215
5327.36596436,0.00050664
5329.29477173,0.00047993
5331.22357910,0.00043978
5333.15238647,0.00041187
5335.08119385,0.00042477
5337.01000122,0.00045444
5338.93880859,0.00045318
5340.86761597,0.00040794
5342.79642334,0.00047168
5344.72523071,0.00046033
5346.65403809,0.00042381
5348.58284546,0.00048964
5350.51165283,0.00043856
5352.44046020,0.00039445
5354.36926758,0.00044517
5356.29807495,0.00045154
5358.22688232,0.00036718
5360.15568970,0.00038067
5362.08449707,0.00042520
5364.01330444,0.00036905
5365.94211182,0.00042281
5367.87091919,0.00045584
5369.79972656,0.00042253
5371.72853394,0.00042977
5373.65734131,0.00041347
5375.58614868,0.00042213
5377.51495605,0.00039766
5379.44376343,0.00032633
5381.37257080,0.00037052
5383.30137817,0.00045287
5385.23018555,0.00041150
5387.15899292,0.00041659
5389.08780029,0.00049098
5391.01660767,0.00044792
5392.94541504,0.00037227
5394.87422241,0.00038508
5396.80302978,0.00043305
5398.73183716,0.00042491
5400.66064453,0.00039764
5402.58945190,0.00039765
5404.51825928,0.00039763
5406.44706665,0.00036887
5408.37587402,0.00035512
5410.30468140,0.00043257
5412.23348877,0.00045360
5414.16229614,0.00039939
5416.09110352,0.00042088
5418.01991089,0.00043782
5419.94871826,0.00040021
5421.87752563,0.00036339
5423.80633301,0.00037401
5425.73514038,0.00035986
5427.66394775,0.00035407
5429.59275513,0.00043492
5431.52156250,0.00039354
5433.45036987,0.00038672
5435.37917725,0.00043851
5437.30798462,0.00036692
5439.23679199,0.00039165
5441.16559936,0.00040021
5443.09440674,0.00039006
5445.02321411,0.00039132
5446.95202148,0.00035100
5448.88082886,0.00035672
5450.80963623,0.00030626
5452.73844360,0.00038105
5454.66725098,0.00042184
5456.59605835,0.00039426
5458.52486572,0.00043617
5460.45367310,0.00035576
5462.38248047,0.00038561
5464.31128784,0.00038088
5466.24009521,0.00035534
5468.16890259,0.00040064
5470.09770996,0.00032183
5472.02651733,0.00033107
5473.95532471,0.00033630
5475.88413208,0.00031150
5477.81293945,0.00031984
5479.74174683,0.00038806
5481.67055420,0.00040529
5483.59936157,0.00029207
5485.52816895,0.00033801
5487.45697632,0.00034008
5489.38578369,0.00032395
5491.31459106,0.00037190
5493.24339844,0.00031486
5495.17220581,0.00037550
5497.10101318,0.00038301
5499.02982056,0.00027337
5500.95862793,0.00030919
5502.88743530,0.00029797
5504.81624268,0.00031510
5506.74505005,0.00042694
5508.67385742,0.00033355
5510.60266479,0.00033580
5512.53147217,0.00039949
5514.46027954,0.00033746
5516.38908691,0.00038029
5518.31789429,0.00029829
5520.24670166,0.00026303
5522.17550903,0.00032954
5524.10431641,0.00031238
5526.03312378,0.00035265
5527.96193115,0.00034074
5529.89073853,0.00031953
5531.81954590,0.00029850
5533.74835327,0.00032264
5535.67716064,0.00031116
5537.60596802,0.00023805
5539.53477539,0.00029440
5541.46358276,0.00030756
5543.39239014,0.00037276
5545.32119751,0.00041208
5547.25000488,0.00027937
5549.17881226,0.00023568
5551.10761963,0.00028044
5553.03642700,0.00028731
5554.96523437,0.00030106
5556.89404175,0.00034599
5558.82284912,0.00033098
5560.75165649,0.00032704
5562.68046387,0.00027068
5564.60927124,0.00028157
5566.53807861,0.00039949
5568.46688599,0.00030302
5570.39569336,0.00031631
5572.32450073,0.00034297
5574.25330811,0.00021940
5576.18211548,0.00031532
5578.11092285,0.00032207
5580.03973022,0.00026041
5581.96853760,0.00032592
5583.89734497,0.00030607
5585.82615234,0.00029992
5587.75495972,0.00028614
5589.68376709,0.00031218
5591.61257446,0.00037024
5593.54138184,0.00030285
5595.47018921,0.00029846
5597.39899658,0.00026409
5599.32780395,0.00025845
5601.25661133,0.00032846
5603.18541870,0.00027709
5605.11422607,0.00033500
5607.04303345,0.00032973
5608.97184082,0.00028118
5610.90064819,0.00032183
5612.82945557,0.00023294
5614.75826294,0.00028458
5616.68707031,0.00030753
5618.61587769,0.00022310
5620.54468506,0.00032756
5622.47349243,0.00032155
5624.40229980,0.00023734
5626.33110718,0.00032774
5628.25991455,0.00038535
5630.18872192,0.00031954
5632.11752930,0.00024815
5634.04633667,0.00023238
5635.97514404,0.00024886
5637.90395142,0.00023038
5639.83275879,0.00027217
5641.76156616,0.00031033
5643.69037353,0.00030689
5645.61918091,0.00034183
5647.54798828,0.00025466
5649.47679565,0.00022441
5651.40560303,0.00032936
5653.33441040,0.00035378
5655.26321777,0.00033479
5657.19202515,0.00033016
5659.12083252,0.00028958
5661.04963989,0.00023035
5662.97844727,0.00022292
5664.90725464,0.00026327
5666.83606201,0.00036573
5668.76486938,0.00028188
5670.69367676,0.00022640
5672.62248413,0.00035739
5674.55129150,0.00027000
5676.48009888,0.00023634
5678.40890625,0.00025306
5680.33771362,0.00026006
5682.26652100,0.00030854
5684.19532837,0.00028870
5686.12413574,0.00029693
5688.05294311,0.00023267
5689.98175049,0.00028543
5691.91055786,0.00028406
5693.83936523,0.00025613
5695.76817261,0.00031770
5697.69697998,0.00022755
5699.62578735,0.00025124
5701.55459473,0.00027173
5703.48340210,0.00029043
5705.41220947,0.00025350
5707.34101685,0.00021878
5709.26982422,0.00029119
5711.19863159,0.00016845
5713.12743896,0.00019358
5715.05624634,0.00020491
5716.98505371,0.00016318
5718.91386108,0.00026372
5720.84266846,0.00021582
5722.77147583,0.00018097
5724.70028320,0.00022895
5726.62909058,0.00030312
5728.55789795,0.00031003
5730.48670532,0.00030595
5732.41551270,0.00025185
5734.34432007,0.00016497
5736.27312744,0.00025497
5738.20193481,0.00025540
5740.13074219,0.00023613
5742.05954956,0.00027881
5743.98835693,0.00027816
5745.91716431,0.00024385
5747.84597168,0.00022105
5749.77477905,0.00025041
5751.70358643,0.00019988
5753.63239380,0.00024354
5755.56120117,0.00024363
5757.49000854,0.00016942
5759.41881592,0.00026761
5761.34762329,0.00025974
5763.27643066,0.00022483
5765.20523804,0.00025504
5767.13404541,0.00021695
5769.06285278,0.00022104
5770.99166016,0.00021239
5772.92046753,0.00019313
5774.84927490,0.00022429
5776.77808228,0.00025205
5778.70688965,0.00030257
5780.63569702,0.00026270
5782.56450439,0.00020588
5784.49331177,0.00023802
5786.42211914,0.00020775
5788.35092651,0.00025660
5790.27973389,0.00027064
5792.20854126,0.00019707
5794.13734863,0.00023760
5796.06615601,0.00021566
5797.99496338,0.00017687
5799.92377075,0.00020945
5801.85257812,0.00024192
5803.78138550,0.00023166
5805.71019287,0.00024997
5807.63900024,0.00024662
5809.56780762,0.00016157
5811.49661499,0.00021282
5813.42542236,0.00021932
5815.35422974,0.00019108
5817.28303711,0.00023485
5819.21184448,0.00022741
5821.14065186,0.00023493
5823.06945923,0.00020620
5824.99826660,0.00020425
5826.92707397,0.00018985
5828.85588135,0.00015495
5830.78468872,0.00015804
5832.71349609,0.00016282
5834.64230347,0.00017234
5836.57111084,0.00015404
5838.49991821,0.00022276
5840.42872559,0.00020802
5842.35753296,0.00018644
5844.28634033,0.00024992
5846.21514770,0.00020169
5848.14395508,0.00022961
5850.07276245,0.00025935
5852.00156982,0.00022588
5853.93037720,0.00018099
5855.85918457,0.00018353
5857.78799194,0.00016672
5859.71679932,0.00013427
5861.64560669,0.00025670
5863.57441406,0.00022363
5865.50322144,0.00019020
5867.43202881,0.00017969
5869.36083618,0.00015309
5871.28964355,0.00028283
5873.21845093,0.00020480
5875.14725830,0.00016592
5877.07606567,0.00016984
5879.00487305,0.00012745
5880.93368042,0.00019265
5882.86248779,0.00014675
5884.79129517,0.00021121
5886.72010254,0.00024333
5888.64890991,0.00012531
5890.57771728,0.00011606
5892.50652466,0.00016711
5894.43533203,0.00018746
5896.36413940,0.00017111
5898.29294678,0.00020942
5900.22175415,0.00021196
5902.15056152,0.00021124
5904.07936890,0.00021013
5906.00817627,0.00020418
5907.93698364,0.00023048
5909.86579102,0.00020064
5911.79459839,0.00020708
5913.72340576,0.00016640
5915.65221313,0.00019823
5917.58102051,0.00019554
5919.50982788,0.00010947
5921.43863525,0.00024359
5923.36744263,0.00023736
5925.29625000,0.00018972
5927.22505737,0.00020291
5929.15386475,0.00016898
5931.08267212,0.00022290
5933.01147949,0.00013956
5934.94028686,0.00015113
5936.86909424,0.00024985
5938.79790161,0.00018934
5940.72670898,0.00014532
5942.65551636,0.00012368
5944.58432373,0.00013318
5946.51313110,0.00017233
5948.44193848,0.00019856
5950.37074585,0.00017860
5952.29955322,0.00016184
5954.22836060,0.00013636
5956.15716797,0.00011980
5958.08597534,0.00014689
5960.01478271,0.00014609
5961.94359009,0.00018733
5963.87239746,0.00014649
5965.80120483,0.00012184
5967.73001221,0.00014663
5969.65881958,0.00011176
5971.58762695,0.00018029
5973.51643433,0.00015718
5975.44524170,0.00014872
5977.37404907,0.00020022
5979.30285645,0.00016702
5981.23166382,0.00017360
5983.16047119,0.00010916
5985.08927856,0.00013075
5987.01808594,0.00019014
5988.94689331,0.00015532
5990.87570068,0.00016969
5992.80450806,0.00015008
5994.73331543,0.00016266
5996.66212280,0.00019917
5998.59093018,0.00016590
6000.51973755,0.00013132
