399.26312622,-0.00010552
401.19193359,0.00006432
403.12074097,0.00045690
405.04954834,0.00032636
406.97835571,0.00068131
408.90716309,-0.00021135
410.83597046,-0.00044290
412.76477783,0.00060487
414.69358521,0.00037671
416.62239258,0.00044106
418.55119995,0.00087797
420.48000732,0.00114931
422.40881470,0.00050242
424.33762207,-0.00018945
426.26642944,-0.00004155
428.19523682,-0.00018470
430.12404419,-0.00004185
432.05285156,-0.00023829
433.98165894,-0.00027463
435.91046631,0.00028618
437.83927368,0.00026810
439.76808105,-0.00002135
441.69688843,-0.00011791
443.62569580,-0.00002867
445.55450317,0.00014109
447.48331055,0.00013020
449.41211792,0.00003726
451.34092529,0.00086045
453.26973267,0.00030815
455.19854004,-0.00005264
457.12734741,0.00072294
459.05615479,0.00001616
460.98496216,0.00011202
462.91376953,0.00036772
464.84257690,-0.00005840
466.77138428,0.00015295
468.70019165,0.00036336
470.62899902,0.00007613
472.55780640,0.00012496
474.48661377,0.00074613
476.41542114,0.00012169
478.34422852,0.00002996
480.27303589,0.00066524
482.20184326,0.00017721
484.13065063,-0.00021334
486.05945801,0.00024131
487.98826538,0.00056802
489.91707275,-0.00019906
491.84588013,-0.00010704
493.77468750,0.00015469
495.70349487,0.00011298
497.63230225,0.00064109
499.56110962,0.00020479
501.48991699,0.00009884
503.41872437,0.00023458
505.34753174,0.00017734
507.27633911,0.00048334
509.20514648,0.00009260
511.13395386,0.00010246
513.06276123,0.00031691
514.99156860,0.00014301
516.92037598,0.00042797
518.84918335,0.00005815
520.77799072,-0.00015130
522.70679810,0.00042882
524.63560547,0.00040944
526.56441284,0.00046941
528.49322021,0.00042258
530.42202759,0.00039170
532.35083496,0.00049636
534.27964233,0.00004082
536.20844971,0.00006463
538.13725708,0.00009558
540.06606445,0.00016612
541.99487183,0.00025321
543.92367920,0.00005402
545.85248657,0.00023150
547.78129395,-0.00016475
549.71010132,0.00005111
551.63890869,0.00078999
553.56771606,0.00035537
555.49652344,-0.00004882
557.42533081,-0.00001867
559.35413818,0.00007714
561.28294556,0.00008610
563.21175293,0.00027364
565.14056030,0.00025384
567.06936768,-0.00005510
568.99817505,0.00030692
570.92698242,0.00046172
572.85578979,0.00042676
574.78459717,0.00027331
576.71340454,-0.00011691
578.64221191,-0.00012251
580.57101929,-0.00002016
582.49982666,0.00017831
584.42863403,0.00014749
586.35744141,0.00038049
588.28624878,0.00053216
590.21505615,0.00016722
592.14386353,0.00017423
594.07267090,0.00016832
596.00147827,0.00023206
597.93028564,0.00028069
599.85909302,0.00041449
601.78790039,0.00057085
603.71670776,0.00062379
605.64551514,0.00070932
607.57432251,0.00024660
609.50312988,0.00016529
611.43193726,0.00048041
613.36074463,0.00040921
615.28955200,0.00016251
617.21835938,0.00012476
619.14716675,0.00007748
621.07597412,-0.00010323
623.00478149,0.00028760
624.93358887,0.00027927
626.86239624,-0.00009081
628.79120361,-0.00000349
630.72001099,0.00021490
632.64881836,0.00021916
634.57762573,0.00009857
636.50643311,0.00011698
638.43524048,0.00014236
640.36404785,0.00043517
642.29285522,0.00033572
644.22166260,0.00024188
646.15046997,0.00050235
648.07927734,0.00017471
650.00808472,-0.00012375
651.93689209,0.00023635
653.86569946,0.00042768
655.79450684,0.00054265
657.72331421,0.00063715
659.65212158,0.00050305
661.58092896,0.00043672
663.50973633,0.00076697
665.43854370,0.00053723
667.36735107,0.00024194
669.29615845,0.00073593
671.22496582,0.00033699
673.15377319,0.00029307
675.08258057,0.00072054
677.01138794,0.00057268
678.94019531,0.00083611
680.86900269,0.00079166
682.79781006,0.00076320
684.72661743,0.00075301
686.65542480,0.00072529
688.58423218,0.00102364
690.51303955,0.00100319
692.44184692,0.00114317
694.37065430,0.00093718
696.29946167,0.00119396
698.22826904,0.00161266
700.15707642,0.00093023
702.08588379,0.00126944
704.01469116,0.00148189
705.94349854,0.00105000
707.87230591,0.00118705
709.80111328,0.00073923
711.72992065,0.00029341
713.65872803,0.00004109
715.58753540,0.00008433
717.51634277,0.00036394
719.44515015,0.00015568
721.37395752,0.00021653
723.30276489,0.00004001
725.23157227,0.00015289
727.16037964,0.00032922
729.08918701,-0.00020899
731.01799438,0.00012527
732.94680176,-0.00010007
734.87560913,0.00011020
736.80441650,0.00050778
738.73322388,-0.00022085
740.66203125,0.00009709
742.59083862,0.00007734
744.51964600,0.00025965
746.44845337,0.00062319
748.37726074,0.00033039
750.30606812,0.00039557
752.23487549,0.00018088
754.16368286,0.00044625
756.09249023,0.00052683
758.02129761,0.00026278
759.95010498,0.00046542
761.87891235,0.00043847
763.80771973,0.00039466
765.73652710,0.00011263
767.66533447,0.00024311
769.59414185,0.00053626
771.52294922,0.00027689
773.45175659,0.00046502
775.38056396,0.00053995
777.30937134,0.00028221
779.23817871,0.00013138
781.16698608,0.00023457
783.09579346,0.00045267
785.02460083,0.00028635
786.95340820,0.00027806
788.88221558,-0.00006245
790.81102295,-0.00033723
792.73983032,0.00032437
794.66863770,0.00041974
796.59744507,0.00024566
798.52625244,0.00035644
800.45505981,0.00005591
802.38386719,0.00019259
804.31267456,0.00052376
806.24148193,0.00032502
808.17028931,0.00023703
810.09909668,0.00009958
812.02790405,0.00006511
813.95671143,0.00029193
815.88551880,0.00024018
817.81432617,0.00011339
819.74313354,0.00018875
821.67194092,0.00043127
823.60074829,0.00022432
825.52955566,-0.00004452
827.45836304,0.00019162
829.38717041,0.00025794
831.31597778,0.00034116
833.24478516,0.00047747
835.17359253,0.00036598
837.10239990,0.00037522
839.03120728,0.00039977
840.96001465,0.00036281
842.88882202,0.00035999
844.81762939,0.00030193
846.74643677,0.00035273
848.67524414,0.00025622
850.60405151,0.00020776
852.53285889,0.00043585
854.46166626,0.00032212
856.39047363,0.00027278
858.31928101,0.00032755
860.24808838,0.00007389
862.17689575,0.00023716
864.10570313,0.00045285
866.03451050,0.00034671
867.96331787,0.00020844
869.89212524,0.00003658
871.82093262,0.00031700
873.74973999,0.00038444
875.67854736,0.00008227
877.60735474,0.00025574
879.53616211,0.00042420
881.46496948,0.00019788
883.39377686,-0.00008965
885.32258423,0.00017381
887.25139160,0.00044294
889.18019897,0.00015243
891.10900635,0.00011987
893.03781372,0.00032512
894.96662109,0.00033434
896.89542847,0.00032259
898.82423584,0.00049597
900.75304321,0.00056260
902.68185059,0.00032634
904.61065796,0.00009403
906.53946533,0.00016178
908.46827271,0.00030623
910.39708008,0.00035569
912.32588745,0.00035131
914.25469482,0.00036014
916.18350220,0.00035578
918.11230957,0.00032912
920.04111694,0.00048789
921.96992432,0.00050237
923.89873169,0.00045729
925.82753906,0.00074785
927.75634644,0.00063786
929.68515381,0.00039128
931.61396118,0.00044496
933.54276855,0.00037241
935.47157593,0.00052533
937.40038330,0.00058371
939.32919067,0.00067384
941.25799805,0.00088881
943.18680542,0.00086051
945.11561279,0.00086025
947.04442017,0.00076387
948.97322754,0.00075258
950.90203491,0.00065641
952.83084229,0.00085259
954.75964966,0.00093850
956.68845703,0.00064734
958.61726440,0.00073700
960.54607178,0.00062563
962.47487915,0.00068023
964.40368652,0.00051830
966.33249390,0.00047388
968.26130127,0.00076679
970.19010864,0.00064306
972.11891602,0.00100579
974.04772339,0.00093267
975.97653076,0.00088007
977.90533813,0.00133014
979.83414551,0.00121886
981.76295288,0.00125852
983.69176025,0.00155269
985.62056763,0.00170500
987.54937500,0.00158703
989.47818237,0.00183736
991.40698975,0.00220726
993.33579712,0.00222958
995.26460449,0.00262921
997.19341187,0.00299957
999.12221924,0.00296379
1001.05102661,0.00300017
1002.97983398,0.00331867
1004.90864136,0.00348776
1006.83744873,0.00367490
1008.76625610,0.00408598
1010.69506348,0.00435014
1012.62387085,0.00438782
1014.55267822,0.00456909
1016.48148560,0.00510003
1018.41029297,0.00521332
1020.33910034,0.00539237
1022.26790771,0.00577747
1024.19671509,0.00577338
1026.12552246,0.00603991
1028.05432983,0.00642852
1029.98313721,0.00653516
1031.91194458,0.00662754
1033.84075195,0.00705203
1035.76955933,0.00718953
1037.69836670,0.00702442
1039.62717407,0.00711569
1041.55598145,0.00709156
1043.48478882,0.00717973
1045.41359619,0.00716502
1047.34240356,0.00698312
1049.27121094,0.00687259
1051.20001831,0.00670686
1053.12882568,0.00649120
1055.05763306,0.00623559
1056.98644043,0.00636847
1058.91524780,0.00637144
1060.84405518,0.00599381
1062.77286255,0.00592964
1064.70166992,0.00580054
1066.63047729,0.00533859
1068.55928467,0.00519132
1070.48809204,0.00497539
1072.41689941,0.00464025
1074.34570679,0.00487936
1076.27451416,0.00472651
1078.20332153,0.00417133
1080.13212891,0.00395945
1082.06093628,0.00378121
1083.98974365,0.00363119
1085.91855103,0.00360244
1087.84735840,0.00339955
1089.77616577,0.00312264
1091.70497314,0.00317949
1093.63378052,0.00295949
1095.56258789,0.00280703
1097.49139526,0.00298474
1099.42020264,0.00293713
1101.34901001,0.00282297
1103.27781738,0.00258752
1105.20662476,0.00257227
1107.13543213,0.00252108
1109.06423950,0.00259532
1110.99304687,0.00259268
1112.92185425,0.00234994
1114.85066162,0.00271921
1116.77946899,0.00264498
1118.70827637,0.00244322
1120.63708374,0.00251809
1122.56589111,0.00238907
1124.49469849,0.00256382
1126.42350586,0.00259554
1128.35231323,0.00257715
1130.28112061,0.00261973
1132.20992798,0.00267624
1134.13873535,0.00283851
1136.06754272,0.00273481
1137.99635010,0.00295058
1139.92515747,0.00342594
1141.85396484,0.00341794
1143.78277222,0.00356030
1145.71157959,0.00383048
1147.64038696,0.00413160
1149.56919434,0.00463843
1151.49800171,0.00459793
1153.42680908,0.00481590
1155.35561646,0.00526729
1157.28442383,0.00528362
1159.21323120,0.00533112
1161.14203857,0.00551946
1163.07084595,0.00598327
1164.99965332,0.00604088
1166.92846069,0.00615616
1168.85726807,0.00649426
1170.78607544,0.00668196
1172.71488281,0.00710749
1174.64369019,0.00721616
1176.57249756,0.00745189
1178.50130493,0.00782994
1180.43011230,0.00822568
1182.35891968,0.00862577
1184.28772705,0.00884294
1186.21653442,0.00929120
1188.14534180,0.00962443
1190.07414917,0.01009987
1192.00295654,0.01058603
1193.93176392,0.01107733
1195.86057129,0.01171750
1197.78937866,0.01225113
1199.71818604,0.01288744
1201.64699341,0.01331769
1203.57580078,0.01378699
1205.50460815,0.01434956
1207.43341553,0.01502131
1209.36222290,0.01552927
1211.29103027,0.01573157
1213.21983765,0.01638002
1215.14864502,0.01691731
1217.07745239,0.01711449
1219.00625977,0.01730718
1220.93506714,0.01760430
1222.86387451,0.01795283
1224.79268188,0.01814085
1226.72148926,0.01828392
1228.65029663,0.01823206
1230.57910400,0.01838349
1232.50791138,0.01856879
1234.43671875,0.01835760
1236.36552612,0.01847394
1238.29433350,0.01856687
1240.22314087,0.01837148
1242.15194824,0.01826982
1244.08075562,0.01818440
1246.00956299,0.01839080
1247.93837036,0.01814367
1249.86717773,0.01793129
1251.79598511,0.01817742
1253.72479248,0.01766735
1255.65359985,0.01759117
1257.58240723,0.01750307
1259.51121460,0.01698449
1261.44002197,0.01692105
1263.36882935,0.01657547
1265.29763672,0.01645033
1267.22644409,0.01622138
1269.15525146,0.01602121
1271.08405884,0.01601892
1273.01286621,0.01560834
1274.94167358,0.01523000
1276.87048096,0.01496565
1278.79928833,0.01497354
1280.72809570,0.01451520
1282.65690308,0.01415286
1284.58571045,0.01403030
1286.51451782,0.01360590
1288.44332520,0.01367775
1290.37213257,0.01347915
1292.30093994,0.01325020
1294.22974731,0.01322209
1296.15855469,0.01319559
1298.08736206,0.01328242
1300.01616943,0.01302334
1301.94497681,0.01305643
1303.87378418,0.01334073
1305.80259155,0.01352081
1307.73139893,0.01380870
1309.66020630,0.01398736
1311.58901367,0.01402108
1313.51782104,0.01441685
1315.44662842,0.01482028
1317.37543579,0.01506295
1319.30424316,0.01557929
1321.23305054,0.01605299
1323.16185791,0.01667762
1325.09066528,0.01722450
1327.01947266,0.01757926
1328.94828003,0.01793357
1330.87708740,0.01840543
1332.80589478,0.01895511
1334.73470215,0.01932770
1336.66350952,0.01964630
1338.59231689,0.01927183
1340.52112427,0.01944468
1342.44993164,0.02021669
1344.37873901,0.02036038
1346.30754639,0.02068432
1348.23635376,0.02050903
1350.16516113,0.02025165
1352.09396851,0.02031205
1354.02277588,0.02006832
1355.95158325,0.01987636
1357.88039062,0.01981303
1359.80919800,0.01975367
1361.73800537,0.01879083
1363.66681274,0.01845157
1365.59562012,0.01935438
1367.52442749,0.01908381
1369.45323486,0.01895314
1371.38204224,0.01915146
1373.31084961,0.01822305
1375.23965698,0.01819084
1377.16846436,0.01879132
1379.09727173,0.01874182
1381.02607910,0.01876003
1382.95488647,0.01889392
1384.88369385,0.01878058
1386.81250122,0.01793813
1388.74130859,0.01796420
1390.67011597,0.01959844
1392.59892334,0.01938930
1394.52773071,0.01799903
1396.45653809,0.01886590
1398.38534546,0.01886907
1400.31415283,0.01877685
1402.24296021,0.02025703
1404.17176758,0.01908547
1406.10057495,0.01917019
1408.02938232,0.02017338
1409.95818970,0.01953551
1411.88699707,0.01963552
1413.81580444,0.01896779
1415.74461182,0.01950160
1417.67341919,0.01753748
1419.60222656,0.01555668
1421.53103394,0.01806549
1423.45984131,0.01752611
1425.38864868,0.01691713
1427.31745605,0.01731429
1429.24626343,0.01600384
1431.17507080,0.01543227
1433.10387817,0.01574230
1435.03268555,0.01440052
1436.96149292,0.01227285
1438.89030029,0.01405071
1440.81910767,0.01429789
1442.74791504,0.01329384
1444.67672241,0.01389189
1446.60552979,0.01272642
1448.53433716,0.01302166
1450.46314453,0.01327505
1452.39195190,0.01380732
1454.32075928,0.01446455
1456.24956665,0.01170109
1458.17837402,0.01218511
1460.10718140,0.01632726
1462.03598877,0.01745434
1463.96479614,0.01724315
1465.89360352,0.01797538
1467.82241089,0.02051668
1469.75121826,0.02206879
1471.68002563,0.01957325
1473.60883301,0.02059203
1475.53764038,0.02358922
1477.46644775,0.02533545
1479.39525513,0.02793408
1481.32406250,0.02817167
1483.25286987,0.02995914
1485.18167725,0.03095382
1487.11048462,0.03034599
1489.03929199,0.03030298
1490.96809937,0.03035374
1492.89690674,0.03549361
1494.82571411,0.03458211
1496.75452148,0.03081632
1498.68332886,0.03499772
1500.61213623,0.03608263
1502.54094360,0.03893929
1504.46975098,0.03698080
1506.39855835,0.02665384
1508.32736572,0.03232518
1510.25617310,0.03804664
1512.18498047,0.03692165
1514.11378784,0.04034435
1516.04259521,0.03621159
1517.97140259,0.03778175
1519.90020996,0.03678194
1521.82901733,0.03134167
1523.75782471,0.03847972
1525.68663208,0.03806354
1527.61543945,0.03799976
1529.54424683,0.04222645
1531.47305420,0.04056495
1533.40186157,0.03693688
1535.33066895,0.03904268
1537.25947632,0.04250605
1539.18828369,0.03006569
1541.11709106,0.03099120
1543.04589844,0.03795686
1544.97470581,0.03609183
1546.90351318,0.04273466
1548.83232056,0.03991709
1550.76112793,0.04128097
1552.68993530,0.04120570
1554.61874268,0.03703400
1556.54755005,0.03997445
1558.47635742,0.02801999
1560.40516479,0.02983599
1562.33397217,0.04312633
1564.26277954,0.04082044
1566.19158691,0.04194430
1568.12039429,0.04167468
1570.04920166,0.03652318
1571.97800903,0.04221636
1573.90681641,0.04316986
1575.83562378,0.03380092
1577.76443115,0.03811238
1579.69323853,0.04338623
1581.62204590,0.04137294
1583.55085327,0.04255164
1585.47966064,0.04187999
1587.40846802,0.04188617
1589.33727539,0.04162990
1591.26608276,0.04168045
1593.19489014,0.04150598
1595.12369751,0.04109653
1597.05250488,0.04154617
1598.98131226,0.04100465
1600.91011963,0.04127587
1602.83892700,0.04032028
1604.76773437,0.04106115
1606.69654175,0.04045023
1608.62534912,0.04018663
1610.55415649,0.04005563
1612.48296387,0.03994891
1614.41177124,0.04059963
1616.34057861,0.03313099
1618.26938599,0.03565509
1620.19819336,0.04162050
1622.12700073,0.03678969
1624.05580811,0.03679260
1625.98461548,0.03853256
1627.91342285,0.03838154
1629.84223022,0.03822093
1631.77103760,0.04088286
1633.69984497,0.03760712
1635.62865234,0.03066963
1637.55745972,0.03581637
1639.48626709,0.03975271
1641.41507446,0.03887147
1643.34388184,0.04017688
1645.27268921,0.03633665
1647.20149658,0.03167373
1649.13030396,0.03988410
1651.05911133,0.03816586
1652.98791870,0.02420093
1654.91672607,0.03311509
1656.84553345,0.04207815
1658.77434082,0.04045713
1660.70314819,0.04189002
1662.63195557,0.03801025
1664.56076294,0.04015733
1666.48957031,0.04360604
1668.41837769,0.03816368
1670.34718506,0.03716879
1672.27599243,0.04250540
1674.20479980,0.03943817
1676.13360718,0.03763391
1678.06241455,0.04363359
1679.99122192,0.04253829
1681.92002930,0.04218793
1683.84883667,0.03423088
1685.77764404,0.03359096
1687.70645142,0.04703439
1689.63525879,0.04104672
1691.56406616,0.04487342
1693.49287354,0.04643606
1695.42168091,0.03339272
1697.35048828,0.04160588
1699.27929565,0.03703800
1701.20810303,0.03263384
1703.13691040,0.04546481
1705.06571777,0.04189625
1706.99452515,0.04196418
1708.92333252,0.04600958
1710.85213989,0.04422037
1712.78094727,0.04518040
1714.70975464,0.04202644
1716.63856201,0.03758342
1718.56736938,0.03694709
1720.49617676,0.04425646
1722.42498413,0.04620512
1724.35379150,0.04275048
1726.28259888,0.04677355
1728.21140625,0.04330505
1730.14021362,0.04341841
1732.06902100,0.04255405
1733.99782837,0.03232706
1735.92663574,0.04020208
1737.85544312,0.04493914
1739.78425049,0.03971522
1741.71305786,0.04324023
1743.64186523,0.04400767
1745.57067261,0.04398628
1747.49947998,0.04460407
1749.42828735,0.04265407
1751.35709473,0.04068307
1753.28590210,0.04511239
1755.21470947,0.04745233
1757.14351685,0.04326512
1759.07232422,0.04753065
1761.00113159,0.04479968
1762.92993896,0.04308853
1764.85874634,0.04956837
1766.78755371,0.04475639
1768.71636108,0.04519826
1770.64516846,0.04497242
1772.57397583,0.04018974
1774.50278320,0.04491157
1776.43159058,0.04764624
1778.36039795,0.04701162
1780.28920532,0.04641698
1782.21801270,0.04683232
1784.14682007,0.04667318
1786.07562744,0.04585528
1788.00443481,0.04840099
1789.93324219,0.04711589
1791.86204956,0.04249430
1793.79085693,0.04417987
1795.71966431,0.04790195
1797.64847168,0.04737518
1799.57727905,0.04642032
1801.50608643,0.04575470
1803.43489380,0.04723352
1805.36370117,0.04848166
1807.29250854,0.04774975
1809.22131592,0.04784630
1811.15012329,0.04681562
1813.07893066,0.04825730
1815.00773804,0.04837447
1816.93654541,0.04786698
1818.86535278,0.04846762
1820.79416016,0.04827146
1822.72296753,0.04909855
1824.65177490,0.04571634
1826.58058228,0.04727695
1828.50938965,0.04758351
1830.43819702,0.04437190
1832.36700439,0.04852881
1834.29581177,0.04837545
1836.22461914,0.04820997
1838.15342651,0.04806000
1840.08223389,0.04831960
1842.01104126,0.04864336
1843.93984863,0.04303254
1845.86865601,0.04584996
1847.79746338,0.04859272
1849.72627075,0.04748231
1851.65507812,0.04897231
1853.58388550,0.04804770
1855.51269287,0.04864241
1857.44150024,0.04829733
1859.37030762,0.04795839
1861.29911499,0.04838801
1863.22792236,0.04785306
1865.15672974,0.04835374
1867.08553711,0.04667150
1869.01434448,0.04473386
1870.94315186,0.04641266
1872.87195923,0.04851637
1874.80076660,0.04789663
1876.72957397,0.04795709
1878.65838135,0.04806039
1880.58718872,0.04763017
1882.51599609,0.04800544
1884.44480347,0.04745450
1886.37361084,0.04808223
1888.30241821,0.04690796
1890.23122559,0.04590110
1892.16003296,0.04794689
1894.08884033,0.04713422
1896.01764771,0.04679998
1897.94645508,0.04775507
1899.87526245,0.04742450
1901.80406982,0.04752157
1903.73287720,0.04735462
1905.66168457,0.04748958
1907.59049194,0.04698229
1909.51929932,0.04674701
1911.44810669,0.04714816
1913.37691406,0.04721167
1915.30572144,0.04767038
1917.23452881,0.04547320
1919.16333618,0.04559226
1921.09214355,0.04743534
1923.02095093,0.04581298
1924.94975830,0.04702607
1926.87856567,0.04747879
1928.80737305,0.04667173
1930.73618042,0.04736077
1932.66498779,0.04680135
1934.59379517,0.04742335
1936.52260254,0.04695860
1938.45140991,0.04708427
1940.38021729,0.04716722
1942.30902466,0.04552975
1944.23783203,0.04664809
1946.16663940,0.04712376
1948.09544678,0.04687202
1950.02425415,0.04706496
1951.95306152,0.04676046
1953.88186890,0.04700397
1955.81067627,0.04686997
1957.73948364,0.04691643
1959.66829102,0.04707684
1961.59709839,0.04695147
1963.52590576,0.04702748
1965.45471313,0.04690672
1967.38352051,0.04625287
1969.31232788,0.04658547
1971.24113525,0.04713895
1973.16994263,0.04672405
1975.09875000,0.04690192
1977.02755737,0.04687485
1978.95636475,0.04686353
1980.88517212,0.04680372
1982.81397949,0.04671613
1984.74278687,0.04690075
1986.67159424,0.04641856
1988.60040161,0.04649944
1990.52920898,0.04614548
1992.45801636,0.04571102
1994.38682373,0.04639252
1996.31563110,0.04647655
1998.24443848,0.04627525
2000.17324585,0.04638854
2002.10205322,0.04629551
2004.03086060,0.04614767
2005.95966797,0.04612851
2007.88847534,0.04590142
2009.81728271,0.04589064
2011.74609009,0.04600082
2013.67489746,0.04591823
2015.60370483,0.04560293
2017.53251221,0.04530746
2019.46131958,0.04565971
2021.39012695,0.04558641
2023.31893433,0.04540728
2025.24774170,0.04549063
2027.17654907,0.04530334
2029.10535645,0.04528248
2031.03416382,0.04519932
2032.96297119,0.04513373
2034.89177856,0.04504982
2036.82058594,0.04502710
2038.74939331,0.04498652
2040.67820068,0.04477274
2042.60700806,0.04468051
2044.53581543,0.04466259
2046.46462280,0.04463011
2048.39343018,0.04453404
2050.32223755,0.04455122
2052.25104492,0.04451685
2054.17985229,0.04453681
2056.10865967,0.04445993
2058.03746704,0.04430882
2059.96627441,0.04427423
2061.89508179,0.04419844
2063.82388916,0.04413052
2065.75269653,0.04386140
2067.68150391,0.04407644
2069.61031128,0.04406270
2071.53911865,0.04380994
2073.46792603,0.04403779
2075.39673340,0.04382129
2077.32554077,0.04390607
2079.25434814,0.04384963
2081.18315552,0.04351725
2083.11196289,0.04365494
2085.04077026,0.04358517
2086.96957764,0.04350058
2088.89838501,0.04347333
2090.82719238,0.04343513
2092.75599976,0.04337332
2094.68480713,0.04336987
2096.61361450,0.04332218
2098.54242187,0.04324621
2100.47122925,0.04324347
2102.40003662,0.04305498
2104.32884399,0.04299283
2106.25765137,0.04291381
2108.18645874,0.04289508
2110.11526611,0.04295301
2112.04407349,0.04284971
2113.97288086,0.04280438
2115.90168823,0.04286337
2117.83049561,0.04285829
2119.75930298,0.04264992
2121.68811035,0.04272429
2123.61691772,0.04272985
2125.54572510,0.04251883
2127.47453247,0.04262388
2129.40333984,0.04262218
2131.33214722,0.04253525
2133.26095459,0.04255508
2135.18976196,0.04256662
2137.11856934,0.04245963
2139.04737671,0.04232881
2140.97618408,0.04242686
2142.90499146,0.04245011
2144.83379883,0.04230919
2146.76260620,0.04231024
2148.69141357,0.04234026
2150.62022095,0.04229768
2152.54902832,0.04224261
2154.47783569,0.04220722
2156.40664307,0.04228489
2158.33545044,0.04226296
2160.26425781,0.04218990
2162.19306519,0.04217765
2164.12187256,0.04215567
2166.05067993,0.04210674
2167.97948730,0.04203426
2169.90829468,0.04203374
2171.83710205,0.04191568
2173.76590942,0.04194431
2175.69471680,0.04192606
2177.62352417,0.04187063
2179.55233154,0.04208400
2181.48113892,0.04189553
2183.40994629,0.04185851
2185.33875366,0.04198785
2187.26756104,0.04187560
2189.19636841,0.04191057
2191.12517578,0.04187006
2193.05398315,0.04186852
2194.98279053,0.04172793
2196.91159790,0.04174109
2198.84040527,0.04194781
2200.76921265,0.04165708
2202.69802002,0.04165081
2204.62682739,0.04187097
2206.55563477,0.04173378
2208.48444214,0.04173117
2210.41324951,0.04171954
2212.34205688,0.04166115
2214.27086426,0.04156964
2216.19967163,0.04145277
2218.12847900,0.04152025
2220.05728638,0.04136135
2221.98609375,0.04138991
2223.91490112,0.04143885
2225.84370850,0.04127238
2227.77251587,0.04143186
2229.70132324,0.04137578
2231.63013062,0.04138112
2233.55893799,0.04127166
2235.48774536,0.04111916
2237.41655273,0.04132725
2239.34536011,0.04113625
2241.27416748,0.04120231
2243.20297485,0.04121020
2245.13178223,0.04093719
2247.06058960,0.04105370
2248.98939697,0.04097626
2250.91820435,0.04093664
2252.84701172,0.04105202
2254.77581909,0.04100007
2256.70462646,0.04087236
2258.63343384,0.04078022
2260.56224121,0.04075000
2262.49104858,0.04066119
2264.41985596,0.04063787
2266.34866333,0.04080901
2268.27747070,0.04088434
2270.20627808,0.04072993
2272.13508545,0.04059798
2274.06389282,0.04047897
2275.99270020,0.04047667
2277.92150757,0.04058669
2279.85031494,0.04062691
2281.77912231,0.04054919
2283.70792969,0.04052045
2285.63673706,0.04049452
2287.56554443,0.04033739
2289.49435181,0.04046790
2291.42315918,0.04042134
2293.35196655,0.04023627
2295.28077393,0.04021426
2297.20958130,0.04007541
2299.13838867,0.04001115
2301.06719604,0.03980299
2302.99600342,0.03964756
2304.92481079,0.03938802
2306.85361816,0.03917656
2308.78242554,0.03907446
2310.71123291,0.03864881
2312.64004028,0.03835088
2314.56884766,0.03789802
2316.49765503,0.03749501
2318.42646240,0.03709148
2320.35526978,0.03652638
2322.28407715,0.03608803
2324.21288452,0.03563026
2326.14169189,0.03527795
2328.07049927,0.03479957
2329.99930664,0.03459496
2331.92811401,0.03438450
2333.85692139,0.03406893
2335.78572876,0.03403457
2337.71453613,0.03391031
2339.64334351,0.03394727
2341.57215088,0.03414323
2343.50095825,0.03462935
2345.42976562,0.03525756
2347.35857300,0.03668503
2349.28738037,0.03794499
2351.21618774,0.03667115
2353.14499512,0.03476782
2355.07380249,0.03363515
2357.00260986,0.03269822
2358.93141724,0.03196637
2360.86022461,0.03160062
2362.78903198,0.03163397
2364.71783936,0.03170811
2366.64664673,0.03215650
2368.57545410,0.03290156
2370.50426147,0.03373723
2372.43306885,0.03475832
2374.36187622,0.03571271
2376.29068359,0.03659993
2378.21949097,0.03757624
2380.14829834,0.03822855
2382.07710571,0.03857552
2384.00591309,0.03904714
2385.93472046,0.03915375
2387.86352783,0.03921852
2389.79233521,0.03919334
2391.72114258,0.03899228
2393.64994995,0.03912131
2395.57875732,0.03900691
2397.50756470,0.03891198
2399.43637207,0.03899113
2401.36517944,0.03898072
2403.29398682,0.03890753
2405.22279419,0.03888617
2407.15160156,0.03891480
2409.08040894,0.03878624
2411.00921631,0.03880423
2412.93802368,0.03880107
2414.86683105,0.03877578
2416.79563843,0.03865818
2418.72444580,0.03868093
2420.65325317,0.03886796
2422.58206055,0.03863569
2424.51086792,0.03859414
2426.43967529,0.03857736
2428.36848267,0.03843161
2430.29729004,0.03847908
2432.22609741,0.03861722
2434.15490479,0.03859030
2436.08371216,0.03834747
2438.01251953,0.03845065
2439.94132690,0.03844090
2441.87013428,0.03839136
2443.79894165,0.03848125
2445.72774902,0.03837080
2447.65655640,0.03829245
2449.58536377,0.03822971
2451.51417114,0.03829880
2453.44297852,0.03819733
2455.37178589,0.03813980
2457.30059326,0.03820392
2459.22940063,0.03808615
2461.15820801,0.03811608
2463.08701538,0.03805865
2465.01582275,0.03804548
2466.94463013,0.03807618
2468.87343750,0.03799123
2470.80224487,0.03794536
2472.73105225,0.03787016
2474.65985962,0.03783309
2476.58866699,0.03780970
2478.51747437,0.03786375
2480.44628174,0.03782889
2482.37508911,0.03779715
2484.30389648,0.03788170
2486.23270386,0.03772146
2488.16151123,0.03766079
2490.09031860,0.03775124
2492.01912598,0.03762235
2493.94793335,0.03763611
2495.87674072,0.03768979
2497.80554810,0.03756866
2499.73435547,0.03754072
2501.66316284,0.03743176
2503.59197021,0.03745082
2505.52077759,0.03743181
2507.44958496,0.03727831
2509.37839233,0.03740345
2511.30719971,0.03724974
2513.23600708,0.03716064
2515.16481445,0.03731307
2517.09362183,0.03727756
2519.02242920,0.03720738
2520.95123657,0.03705900
2522.88004395,0.03723016
2524.80885132,0.03726151
2526.73765869,0.03701816
2528.66646606,0.03708573
2530.59527344,0.03706308
2532.52408081,0.03705961
2534.45288818,0.03706651
2536.38169556,0.03696451
2538.31050293,0.03699429
2540.23931030,0.03694561
2542.16811768,0.03690202
2544.09692505,0.03699535
2546.02573242,0.03688559
2547.95453979,0.03672736
2549.88334717,0.03678919
2551.81215454,0.03678421
2553.74096191,0.03678831
2555.66976929,0.03679423
2557.59857666,0.03670597
2559.52738403,0.03663689
2561.45619141,0.03656226
2563.38499878,0.03659068
2565.31380615,0.03657819
2567.24261353,0.03648926
2569.17142090,0.03647644
2571.10022827,0.03653079
2573.02903564,0.03650620
2574.95784302,0.03647955
2576.88665039,0.03649150
2578.81545776,0.03631968
2580.74426514,0.03630042
2582.67307251,0.03627095
2584.60187988,0.03620506
2586.53068726,0.03624375
2588.45949463,0.03613632
2590.38830200,0.03621682
2592.31710937,0.03614689
2594.24591675,0.03603689
2596.17472412,0.03610987
2598.10353149,0.03603119
2600.03233887,0.03603566
2601.96114624,0.03598405
2603.88995361,0.03589383
2605.81876099,0.03577081
2607.74756836,0.03579016
2609.67637573,0.03587983
2611.60518311,0.03580524
2613.53399048,0.03584199
2615.46279785,0.03573272
2617.39160522,0.03572892
2619.32041260,0.03570295
2621.24921997,0.03560044
2623.17802734,0.03571201
2625.10683472,0.03562954
2627.03564209,0.03559963
2628.96444946,0.03559941
2630.89325684,0.03564777
2632.82206421,0.03562886
2634.75087158,0.03548869
2636.67967895,0.03547554
2638.60848633,0.03526334
2640.53729370,0.03527790
2642.46610107,0.03534445
2644.39490845,0.03528436
2646.32371582,0.03533086
2648.25252319,0.03516564
2650.18133057,0.03508939
2652.11013794,0.03508542
2654.03894531,0.03508319
2655.96775269,0.03507877
2657.89656006,0.03501303
2659.82536743,0.03504097
2661.75417480,0.03501376
2663.68298218,0.03493392
2665.61178955,0.03488674
2667.54059692,0.03491262
2669.46940430,0.03489386
2671.39821167,0.03485230
2673.32701904,0.03478749
2675.25582642,0.03469005
2677.18463379,0.03474531
2679.11344116,0.03470565
2681.04224854,0.03456424
2682.97105591,0.03456956
2684.89986328,0.03465293
2686.82867065,0.03458340
2688.75747803,0.03449965
2690.68628540,0.03452417
2692.61509277,0.03443296
2694.54390015,0.03440015
2696.47270752,0.03439669
2698.40151489,0.03434620
2700.33032227,0.03438637
2702.25912964,0.03436306
2704.18793701,0.03424074
2706.11674438,0.03424282
2708.04555176,0.03424930
2709.97435913,0.03411388
2711.90316650,0.03407982
2713.83197388,0.03397878
2715.76078125,0.03398284
2717.68958862,0.03406611
2719.61839600,0.03391300
2721.54720337,0.03393314
2723.47601074,0.03392601
2725.40481812,0.03388599
2727.33362549,0.03383151
2729.26243286,0.03365781
2731.19124023,0.03366484
2733.12004761,0.03364424
2735.04885498,0.03371804
2736.97766235,0.03369975
2738.90646973,0.03351538
2740.83527710,0.03352045
2742.76408447,0.03347003
2744.69289185,0.03345150
2746.62169922,0.03345660
2748.55050659,0.03335509
2750.47931396,0.03323788
2752.40812134,0.03321978
2754.33692871,0.03332377
2756.26573608,0.03329160
2758.19454346,0.03316209
2760.12335083,0.03307251
2762.05215820,0.03310565
2763.98096558,0.03312363
2765.90977295,0.03298054
2767.83858032,0.03296445
2769.76738770,0.03304855
2771.69619507,0.03297212
2773.62500244,0.03283031
2775.55380981,0.03283794
2777.48261719,0.03276885
2779.41142456,0.03266284
2781.34023193,0.03276902
2783.26903931,0.03262368
2785.19784668,0.03247811
2787.12665405,0.03257053
2789.05546143,0.03245564
2790.98426880,0.03247362
2792.91307617,0.03241402
2794.84188354,0.03222323
2796.77069092,0.03236789
2798.69949829,0.03228171
2800.62830566,0.03216041
2802.55711304,0.03224224
2804.48592041,0.03213926
2806.41472778,0.03214364
2808.34353516,0.03202242
2810.27234253,0.03183884
2812.20114990,0.03194837
2814.12995728,0.03189837
2816.05876465,0.03184192
2817.98757202,0.03185944
2819.91637939,0.03166530
2821.84518677,0.03156367
2823.77399414,0.03161532
2825.70280151,0.03160714
2827.63160889,0.03158513
2829.56041626,0.03151568
2831.48922363,0.03132855
2833.41803101,0.03135244
2835.34683838,0.03139602
2837.27564575,0.03116871
2839.20445312,0.03113938
2841.13326050,0.03109019
2843.06206787,0.03099998
2844.99087524,0.03096331
2846.91968262,0.03064860
2848.84848999,0.03055346
2850.77729736,0.03057678
2852.70610474,0.03046211
2854.63491211,0.03042383
2856.56371948,0.03042688
2858.49252686,0.03043473
2860.42133423,0.03027578
2862.35014160,0.03023587
2864.27894897,0.03027663
2866.20775635,0.03013938
2868.13656372,0.03008262
2870.06537109,0.03016748
2871.99417847,0.03013656
2873.92298584,0.02991039
2875.85179321,0.02992091
2877.78060059,0.02998787
2879.70940796,0.02993179
2881.63821533,0.02990519
2883.56702270,0.02982004
2885.49583008,0.02981333
2887.42463745,0.02976326
2889.35344482,0.02967498
2891.28225220,0.02956258
2893.21105957,0.02956572
2895.13986694,0.02963777
2897.06867432,0.02952574
2898.99748169,0.02949909
2900.92628906,0.02938443
2902.85509644,0.02926738
2904.78390381,0.02920171
2906.71271118,0.02916566
2908.64151855,0.02916779
2910.57032593,0.02888228
2912.49913330,0.02875721
2914.42794067,0.02871729
2916.35674805,0.02859870
2918.28555542,0.02853045
2920.21436279,0.02841195
2922.14317017,0.02841261
2924.07197754,0.02835879
2926.00078491,0.02833072
2927.92959229,0.02824636
2929.85839966,0.02815270
2931.78720703,0.02825510
2933.71601440,0.02818004
2935.64482178,0.02812807
2937.57362915,0.02815597
2939.50243652,0.02817405
2941.43124390,0.02824709
2943.36005127,0.02812821
2945.28885864,0.02809167
2947.21766602,0.02810118
2949.14647339,0.02790535
2951.07528076,0.02795357
2953.00408813,0.02789982
2954.93289551,0.02765311
2956.86170288,0.02775370
2958.79051025,0.02765236
2960.71931763,0.02748385
2962.64812500,0.02750511
2964.57693237,0.02739774
2966.50573975,0.02745243
2968.43454712,0.02747836
2970.36335449,0.02737194
2972.29216187,0.02727737
2974.22096924,0.02724884
2976.14977661,0.02742224
2978.07858398,0.02744102
2980.00739136,0.02728559
2981.93619873,0.02732395
2983.86500610,0.02740235
2985.79381348,0.02736826
2987.72262085,0.02730970
2989.65142822,0.02718229
2991.58023560,0.02712774
2993.50904297,0.02705607
2995.43785034,0.02697229
2997.36665771,0.02697954
2999.29546509,0.02685541
3001.22427246,0.02682044
3003.15307983,0.02674219
3005.08188721,0.02668215
3007.01069458,0.02675447
3008.93950195,0.02661165
3010.86830933,0.02648293
3012.79711670,0.02639105
3014.72592407,0.02633825
3016.65473145,0.02633754
3018.58353882,0.02628901
3020.51234619,0.02616116
3022.44115356,0.02613758
3024.36996094,0.02613496
3026.29876831,0.02593023
3028.22757568,0.02601254
3030.15638306,0.02585872
3032.08519043,0.02560341
3034.01399780,0.02571855
3035.94280518,0.02564250
3037.87161255,0.02557353
3039.80041992,0.02537528
3041.72922729,0.02533124
3043.65803467,0.02537698
3045.58684204,0.02520943
3047.51564941,0.02521581
3049.44445679,0.02516527
3051.37326416,0.02514471
3053.30207153,0.02501913
3055.23087891,0.02489276
3057.15968628,0.02480057
3059.08849365,0.02467199
3061.01730103,0.02471863
3062.94610840,0.02454047
3064.87491577,0.02443238
3066.80372314,0.02444674
3068.73253052,0.02439291
3070.66133789,0.02435471
3072.59014526,0.02420332
3074.51895264,0.02408407
3076.44776001,0.02409202
3078.37656738,0.02401941
3080.30537476,0.02385810
3082.23418213,0.02388690
3084.16298950,0.02367718
3086.09179687,0.02355551
3088.02060425,0.02362273
3089.94941162,0.02339507
3091.87821899,0.02337901
3093.80702637,0.02329977
3095.73583374,0.02322335
3097.66464111,0.02311637
3099.59344849,0.02298736
3101.52225586,0.02304470
3103.45106323,0.02282988
3105.37987061,0.02282418
3107.30867798,0.02276865
3109.23748535,0.02263861
3111.16629272,0.02259277
3113.09510010,0.02232038
3115.02390747,0.02230646
3116.95271484,0.02228168
3118.88152222,0.02216682
3120.81032959,0.02205575
3122.73913696,0.02190024
3124.66794434,0.02178549
3126.59675171,0.02170902
3128.52555908,0.02178458
3130.45436645,0.02164363
3132.38317383,0.02146363
3134.31198120,0.02144282
3136.24078857,0.02130016
3138.16959595,0.02119875
3140.09840332,0.02112126
3142.02721069,0.02095191
3143.95601807,0.02087285
3145.88482544,0.02083208
3147.81363281,0.02077550
3149.74244019,0.02066680
3151.67124756,0.02040650
3153.60005493,0.02031252
3155.52886230,0.02027052
3157.45766968,0.02022615
3159.38647705,0.02016078
3161.31528442,0.01994071
3163.24409180,0.01997061
3165.17289917,0.01992080
3167.10170654,0.01973254
3169.03051392,0.01963663
3170.95932129,0.01947311
3172.88812866,0.01934290
3174.81693604,0.01924457
3176.74574341,0.01921738
3178.67455078,0.01912489
3180.60335815,0.01905337
3182.53216553,0.01900047
3184.46097290,0.01880373
3186.38978027,0.01872502
3188.31858765,0.01876234
3190.24739502,0.01870576
3192.17620239,0.01855445
3194.10500977,0.01843208
3196.03381714,0.01837136
3197.96262451,0.01837702
3199.89143188,0.01822444
3201.82023926,0.01815792
3203.74904663,0.01825329
3205.67785400,0.01801678
3207.60666138,0.01788089
3209.53546875,0.01795852
3211.46427612,0.01792013
3213.39308350,0.01777531
3215.32189087,0.01765824
3217.25069824,0.01761159
3219.17950562,0.01755467
3221.10831299,0.01756758
3223.03712036,0.01756231
3224.96592773,0.01754797
3226.89473511,0.01741308
3228.82354248,0.01733503
3230.75234985,0.01737612
3232.68115723,0.01731949
3234.60996460,0.01724637
3236.53877197,0.01714300
3238.46757935,0.01715306
3240.39638672,0.01706941
3242.32519409,0.01709615
3244.25400146,0.01711219
3246.18280884,0.01696647
3248.11161621,0.01704078
3250.04042358,0.01695346
3251.96923096,0.01698601
3253.89803833,0.01696689
3255.82684570,0.01687828
3257.75565308,0.01695208
3259.68446045,0.01682389
3261.61326782,0.01685237
3263.54207520,0.01680642
3265.47088257,0.01674946
3267.39968994,0.01685720
3269.32849731,0.01683515
3271.25730469,0.01674742
3273.18611206,0.01673352
3275.11491943,0.01672657
3277.04372681,0.01667722
3278.97253418,0.01676319
3280.90134155,0.01663429
3282.83014893,0.01660507
3284.75895630,0.01670657
3286.68776367,0.01666884
3288.61657104,0.01667397
3290.54537842,0.01655018
3292.47418579,0.01665265
3294.40299316,0.01663955
3296.33180054,0.01653713
3298.26060791,0.01661304
3300.18941528,0.01653434
3302.11822266,0.01652920
3304.04703003,0.01649771
3305.97583740,0.01647119
3307.90464478,0.01644056
3309.83345215,0.01634616
3311.76225952,0.01634492
3313.69106689,0.01640277
3315.61987427,0.01633525
3317.54868164,0.01633763
3319.47748901,0.01636991
3321.40629639,0.01622359
3323.33510376,0.01640830
3325.26391113,0.01637823
3327.19271851,0.01625151
3329.12152588,0.01635546
3331.05033325,0.01618257
3332.97914062,0.01621165
3334.90794800,0.01619542
3336.83675537,0.01607813
3338.76556274,0.01614083
3340.69437012,0.01616769
3342.62317749,0.01615236
3344.55198486,0.01610713
3346.48079224,0.01609665
3348.40959961,0.01611575
3350.33840698,0.01607407
3352.26721436,0.01602733
3354.19602173,0.01611593
3356.12482910,0.01597681
3358.05363647,0.01602115
3359.98244385,0.01613623
3361.91125122,0.01591278
3363.84005859,0.01596067
3365.76886597,0.01592906
3367.69767334,0.01596659
3369.62648071,0.01598744
3371.55528809,0.01595026
3373.48409546,0.01607671
3375.41290283,0.01595713
3377.34171020,0.01597209
3379.27051758,0.01600091
3381.19932495,0.01593709
3383.12813232,0.01584763
3385.05693970,0.01592237
3386.98574707,0.01597869
3388.91455444,0.01582878
3390.84336182,0.01590485
3392.77216919,0.01584369
3394.70097656,0.01581710
3396.62978394,0.01583853
3398.55859131,0.01587462
3400.48739868,0.01584158
3402.41620605,0.01575452
3404.34501343,0.01599387
3406.27382080,0.01594876
3408.20262817,0.01587458
3410.13143555,0.01599871
3412.06024292,0.01604475
3413.98905029,0.01602804
3415.91785767,0.01602749
3417.84666504,0.01599480
3419.77547241,0.01593093
3421.70427979,0.01600462
3423.63308716,0.01598607
3425.56189453,0.01606721
3427.49070190,0.01598658
3429.41950928,0.01604052
3431.34831665,0.01613001
3433.27712402,0.01602196
3435.20593140,0.01625634
3437.13473877,0.01615490
3439.06354614,0.01623070
3440.99235352,0.01620371
3442.92116089,0.01607588
3444.84996826,0.01632712
3446.77877563,0.01606477
3448.70758301,0.01609102
3450.63639038,0.01627769
3452.56519775,0.01633219
3454.49400513,0.01643660
3456.42281250,0.01639415
3458.35161987,0.01637428
3460.28042725,0.01627679
3462.20923462,0.01639827
3464.13804199,0.01646586
3466.06684937,0.01637176
3467.99565674,0.01646126
3469.92446411,0.01661113
3471.85327148,0.01650577
3473.78207886,0.01645595
3475.71088623,0.01654001
3477.63969360,0.01658110
3479.56850098,0.01669095
3481.49730835,0.01645896
3483.42611572,0.01652343
3485.35492310,0.01674034
3487.28373047,0.01672366
3489.21253784,0.01679528
3491.14134521,0.01676571
3493.07015259,0.01686664
3494.99895996,0.01687024
3496.92776733,0.01689098
3498.85657471,0.01693159
3500.78538208,0.01695189
3502.71418945,0.01674117
3504.64299683,0.01672025
3506.57180420,0.01714750
3508.50061157,0.01692718
3510.42941895,0.01698039
3512.35822632,0.01715887
3514.28703369,0.01719260
3516.21584106,0.01733969
3518.14464844,0.01714155
3520.07345581,0.01730693
3522.00226318,0.01721329
3523.93107056,0.01701136
3525.85987793,0.01706169
3527.78868530,0.01706120
3529.71749268,0.01723634
3531.64630005,0.01738364
3533.57510742,0.01755238
3535.50391479,0.01740232
3537.43272217,0.01728480
3539.36152954,0.01754217
3541.29033691,0.01763677
3543.21914429,0.01759512
3545.14795166,0.01733814
3547.07675903,0.01701462
3549.00556641,0.01753945
3550.93437378,0.01776714
3552.86318115,0.01733388
3554.79198853,0.01779942
3556.72079590,0.01798588
3558.64960327,0.01785231
3560.57841064,0.01773012
3562.50721802,0.01767137
3564.43602539,0.01781045
3566.36483276,0.01661173
3568.29364014,0.01623105
3570.22244751,0.01762625
3572.15125488,0.01819994
3574.08006226,0.01803602
3576.00886963,0.01816241
3577.93767700,0.01809705
3579.86648437,0.01801674
3581.79529175,0.01813013
3583.72409912,0.01823898
3585.65290649,0.01790918
3587.58171387,0.01639274
3589.51052124,0.01686791
3591.43932861,0.01841607
3593.36813599,0.01784756
3595.29694336,0.01763017
3597.22575073,0.01797319
3599.15455811,0.01820678
3601.08336548,0.01807868
3603.01217285,0.01812003
3604.94098022,0.01855859
3606.86978760,0.01794818
3608.79859497,0.01693215
3610.72740234,0.01733872
3612.65620972,0.01765422
3614.58501709,0.01724105
3616.51382446,0.01857936
3618.44263184,0.01719519
3620.37143921,0.01656022
3622.30024658,0.01876504
3624.22905395,0.01838513
3626.15786133,0.01920436
3628.08666870,0.01624513
3630.01547607,0.01471980
3631.94428345,0.01863896
3633.87309082,0.01825897
3635.80189819,0.01857805
3637.73070557,0.01904506
3639.65951294,0.01877400
3641.58832031,0.01897313
3643.51712769,0.01872246
3645.44593506,0.01901936
3647.37474243,0.01714533
3649.30354980,0.01560221
3651.23235718,0.01580964
3653.16116455,0.01884728
3655.08997192,0.01872451
3657.01877930,0.01680520
3658.94758667,0.01939271
3660.87639404,0.01910764
3662.80520142,0.01925073
3664.73400879,0.01922103
3666.66281616,0.01920864
3668.59162354,0.01860693
3670.52043091,0.01501469
3672.44923828,0.01835851
3674.37804565,0.01763883
3676.30685303,0.01445180
3678.23566040,0.01839733
3680.16446777,0.01889532
3682.09327515,0.01884080
3684.02208252,0.01952891
3685.95088989,0.01912287
3687.87969727,0.01728080
3689.80850464,0.01587593
3691.73731201,0.01797691
3693.66611938,0.01863072
3695.59492676,0.01919258
3697.52373413,0.01911168
3699.45254150,0.01894538
3701.38134888,0.01849769
3703.31015625,0.01763579
3705.23896362,0.01953596
3707.16777100,0.01860329
3709.09657837,0.01810440
3711.02538574,0.01712394
3712.95419312,0.01591481
3714.88300049,0.01884521
3716.81180786,0.01859760
3718.74061523,0.01869959
3720.66942261,0.01839702
3722.59822998,0.01765315
3724.52703735,0.01835591
3726.45584473,0.01704684
3728.38465210,0.01852200
3730.31345947,0.01826219
3732.24226685,0.01674351
3734.17107422,0.01642962
3736.09988159,0.01556876
3738.02868896,0.01653437
3739.95749634,0.01777389
3741.88630371,0.01871295
3743.81511108,0.01466553
3745.74391846,0.01359882
3747.67272583,0.01778525
3749.60153320,0.01529894
3751.53034058,0.01399222
3753.45914795,0.01623746
3755.38795532,0.01743981
3757.31676270,0.01810506
3759.24557007,0.01675677
3761.17437744,0.01736500
3763.10318481,0.01857663
3765.03199219,0.01730742
3766.96079956,0.01764242
3768.88960693,0.01747452
3770.81841431,0.01664133
3772.74722168,0.01810759
3774.67602905,0.01806339
3776.60483643,0.01802268
3778.53364380,0.01755480
3780.46245117,0.01687737
3782.39125854,0.01818561
3784.32006592,0.01759230
3786.24887329,0.01742017
3788.17768066,0.01796802
3790.10648804,0.01780336
3792.03529541,0.01760440
3793.96410278,0.01794065
3795.89291016,0.01697638
3797.82171753,0.01663720
3799.75052490,0.01768558
3801.67933228,0.01403837
3803.60813965,0.01621302
3805.53694702,0.01778766
3807.46575439,0.01447459
3809.39456177,0.01763792
3811.32336914,0.01728869
3813.25217651,0.01781406
3815.18098389,0.01608932
3817.10979126,0.01386174
3819.03859863,0.01778746
3820.96740601,0.01441570
3822.89621338,0.01514208
3824.82502075,0.01781148
3826.75382812,0.01590379
3828.68263550,0.01721312
3830.61144287,0.01662377
3832.54025024,0.01607166
3834.46905762,0.01646863
3836.39786499,0.01556980
3838.32667236,0.01403430
3840.25547974,0.01522271
3842.18428711,0.01646928
3844.11309448,0.01567243
3846.04190186,0.01691518
3847.97070923,0.01670850
3849.89951660,0.01680993
3851.82832397,0.01515110
3853.75713135,0.01126255
3855.68593872,0.01329952
3857.61474609,0.01676825
3859.54355347,0.01639452
3861.47236084,0.01624149
3863.40116821,0.01591137
3865.32997559,0.01472629
3867.25878296,0.01646466
3869.18759033,0.01507571
3871.11639770,0.01377729
3873.04520508,0.01635262
3874.97401245,0.01510764
3876.90281982,0.01631079
3878.83162720,0.01665036
3880.76043457,0.01420051
3882.68924194,0.01642694
3884.61804932,0.01544924
3886.54685669,0.01401003
3888.47566406,0.01651821
3890.40447144,0.01572377
3892.33327881,0.01462558
3894.26208618,0.01604891
3896.19089355,0.01635248
3898.11970093,0.01559919
3900.04850830,0.01469769
3901.97731567,0.01447272
3903.90612305,0.01427352
3905.83493042,0.01456464
3907.76373779,0.01611901
3909.69254517,0.01606114
3911.62135254,0.01585965
3913.55015991,0.01612675
3915.47896728,0.01570462
3917.40777466,0.01521691
3919.33658203,0.01499309
3921.26538940,0.01572071
3923.19419678,0.01558586
3925.12300415,0.01529758
3927.05181152,0.01553009
3928.98061890,0.01575814
3930.90942627,0.01553912
3932.83823364,0.01476483
3934.76704102,0.01546323
3936.69584839,0.01564996
3938.62465576,0.01550217
3940.55346313,0.01565798
3942.48227051,0.01502392
3944.41107788,0.01521022
3946.33988525,0.01540508
3948.26869263,0.01508816
3950.19750000,0.01502010
3952.12630737,0.01528412
3954.05511475,0.01538103
3955.98392212,0.01529252
3957.91272949,0.01532727
3959.84153687,0.01530518
3961.77034424,0.01520238
3963.69915161,0.01501142
3965.62795898,0.01521750
3967.55676636,0.01520524
3969.48557373,0.01509797
3971.41438110,0.01511845
3973.34318848,0.01500889
3975.27199585,0.01503179
3977.20080322,0.01495817
3979.12961060,0.01508320
3981.05841797,0.01505660
3982.98722534,0.01498416
3984.91603271,0.01490800
3986.84484009,0.01486995
3988.77364746,0.01503338
3990.70245483,0.01487848
3992.63126221,0.01479638
3994.56006958,0.01479712
3996.48887695,0.01480250
3998.41768433,0.01470403
4000.34649170,0.01470090
4002.27529907,0.01470638
4004.20410645,0.01464583
4006.13291382,0.01473126
4008.06172119,0.01456741
4009.99052856,0.01461609
4011.91933594,0.01463520
4013.84814331,0.01452391
4015.77695068,0.01446086
4017.70575806,0.01449684
4019.63456543,0.01454896
4021.56337280,0.01444575
4023.49218018,0.01453017
4025.42098755,0.01434182
4027.34979492,0.01435933
4029.27860229,0.01436357
4031.20740967,0.01421575
4033.13621704,0.01430062
4035.06502441,0.01424985
4036.99383179,0.01434964
4038.92263916,0.01422164
4040.85144653,0.01419437
4042.78025391,0.01417779
4044.70906128,0.01410288
4046.63786865,0.01417813
4048.56667603,0.01408194
4050.49548340,0.01411570
4052.42429077,0.01405651
4054.35309814,0.01404559
4056.28190552,0.01391145
4058.21071289,0.01390623
4060.13952026,0.01393829
4062.06832764,0.01385599
4063.99713501,0.01397743
4065.92594238,0.01378326
4067.85474976,0.01383786
4069.78355713,0.01388214
4071.71236450,0.01387065
4073.64117187,0.01382624
4075.56997925,0.01359195
4077.49878662,0.01367350
4079.42759399,0.01367454
4081.35640137,0.01371160
4083.28520874,0.01361199
4085.21401611,0.01360819
4087.14282349,0.01360644
4089.07163086,0.01352075
4091.00043823,0.01362572
4092.92924561,0.01347715
4094.85805298,0.01348416
4096.78686035,0.01345180
4098.71566772,0.01345044
4100.64447510,0.01346262
4102.57328247,0.01339405
4104.50208984,0.01343443
4106.43089722,0.01332587
4108.35970459,0.01331517
4110.28851196,0.01324306
4112.21731934,0.01328671
4114.14612671,0.01333410
4116.07493408,0.01327893
4118.00374145,0.01319598
4119.93254883,0.01309393
4121.86135620,0.01315839
4123.79016357,0.01310823
4125.71897095,0.01316297
4127.64777832,0.01310402
4129.57658569,0.01307158
4131.50539307,0.01309776
4133.43420044,0.01299670
4135.36300781,0.01302134
4137.29181519,0.01291800
4139.22062256,0.01289168
4141.14942993,0.01287903
4143.07823730,0.01286481
4145.00704468,0.01284308
4146.93585205,0.01285982
4148.86465942,0.01284077
4150.79346680,0.01275374
4152.72227417,0.01282451
4154.65108154,0.01274573
4156.57988892,0.01281150
4158.50869629,0.01270833
4160.43750366,0.01258814
4162.36631103,0.01265709
4164.29511841,0.01260245
4166.22392578,0.01267154
4168.15273315,0.01255110
4170.08154053,0.01259930
4172.01034790,0.01261562
4173.93915527,0.01256975
4175.86796265,0.01255564
4177.79677002,0.01236011
4179.72557739,0.01248921
4181.65438477,0.01244791
4183.58319214,0.01233341
4185.51199951,0.01238506
4187.44080688,0.01235737
4189.36961426,0.01226258
4191.29842163,0.01220527
4193.22722900,0.01222465
4195.15603638,0.01218301
4197.08484375,0.01224651
4199.01365112,0.01219323
4200.94245850,0.01215479
4202.87126587,0.01212464
4204.80007324,0.01205248
4206.72888062,0.01207288
4208.65768799,0.01208338
4210.58649536,0.01209288
4212.51530273,0.01198660
4214.44411011,0.01208366
4216.37291748,0.01203444
4218.30172485,0.01191109
4220.23053223,0.01198252
4222.15933960,0.01194161
4224.08814697,0.01191385
4226.01695435,0.01177564
4227.94576172,0.01181513
4229.87456909,0.01184849
4231.80337646,0.01182597
4233.73218384,0.01184247
4235.66099121,0.01172534
4237.58979858,0.01177543
4239.51860596,0.01175078
4241.44741333,0.01167258
4243.37622070,0.01165995
4245.30502808,0.01170362
4247.23383545,0.01164868
4249.16264282,0.01158840
4251.09145020,0.01162824
4253.02025757,0.01153252
4254.94906494,0.01154228
4256.87787231,0.01149881
4258.80667969,0.01154404
4260.73548706,0.01153619
4262.66429443,0.01135531
4264.59310181,0.01142061
4266.52190918,0.01141468
4268.45071655,0.01134690
4270.37952393,0.01134968
4272.30833130,0.01141928
4274.23713867,0.01136583
4276.16594604,0.01129466
4278.09475342,0.01141156
4280.02356079,0.01131599
4281.95236816,0.01121510
4283.88117554,0.01124956
4285.80998291,0.01117879
4287.73879028,0.01115675
4289.66759766,0.01119248
4291.59640503,0.01114338
4293.52521240,0.01113825
4295.45401978,0.01105575
4297.38282715,0.01097073
4299.31163452,0.01102039
4301.24044189,0.01102732
4303.16924927,0.01104750
4305.09805664,0.01094240
4307.02686401,0.01092389
4308.95567139,0.01087539
4310.88447876,0.01078165
4312.81328613,0.01086428
4314.74209351,0.01073325
4316.67090088,0.01079882
4318.59970825,0.01085104
4320.52851562,0.01071309
4322.45732300,0.01080721
4324.38613037,0.01075676
4326.31493774,0.01067788
4328.24374512,0.01071089
4330.17255249,0.01067495
4332.10135986,0.01064812
4334.03016724,0.01064271
4335.95897461,0.01059884
4337.88778198,0.01061406
4339.81658936,0.01065086
4341.74539673,0.01061174
4343.67420410,0.01054549
4345.60301147,0.01052827
4347.53181885,0.01051725
4349.46062622,0.01041850
4351.38943359,0.01046302
4353.31824097,0.01048518
4355.24704834,0.01039838
4357.17585571,0.01030012
4359.10466309,0.01032816
4361.03347046,0.01042624
4362.96227783,0.01027970
4364.89108520,0.01034297
4366.81989258,0.01026389
4368.74869995,0.01014135
4370.67750732,0.01027971
4372.60631470,0.01016659
4374.53512207,0.01019262
4376.46392944,0.01021604
4378.39273682,0.01020998
4380.32154419,0.01019891
4382.25035156,0.01010587
4384.17915894,0.01011008
4386.10796631,0.01007054
4388.03677368,0.01008428
4389.96558105,0.01000169
4391.89438843,0.00996231
4393.82319580,0.00996942
4395.75200317,0.00994730
4397.68081055,0.00990838
4399.60961792,0.00993111
4401.53842529,0.01001956
4403.46723267,0.00986417
4405.39604004,0.00990096
4407.32484741,0.00989351
4409.25365478,0.00976051
4411.18246216,0.00980976
4413.11126953,0.00979233
4415.04007690,0.00974484
4416.96888428,0.00972889
4418.89769165,0.00978536
4420.82649902,0.00969483
4422.75530640,0.00971151
4424.68411377,0.00971426
4426.61292114,0.00963330
4428.54172852,0.00971484
4430.47053589,0.00958604
4432.39934326,0.00957442
4434.32815063,0.00961475
4436.25695801,0.00956100
4438.18576538,0.00954064
4440.11457275,0.00951645
4442.04338013,0.00949635
4443.97218750,0.00941570
4445.90099487,0.00941398
4447.82980225,0.00942895
4449.75860962,0.00948671
4451.68741699,0.00938002
4453.61622437,0.00940038
4455.54503174,0.00947294
4457.47383911,0.00924641
4459.40264648,0.00933039
4461.33145386,0.00935902
4463.26026123,0.00925394
4465.18906860,0.00928317
4467.11787598,0.00927654
4469.04668335,0.00926987
4470.97549072,0.00922343
4472.90429810,0.00921953
4474.83310547,0.00920337
4476.76191284,0.00913521
4478.69072021,0.00906549
4480.61952759,0.00916110
4482.54833496,0.00920996
4484.47714233,0.00911793
4486.40594971,0.00906210
4488.33475708,0.00905290
4490.26356445,0.00907399
4492.19237183,0.00892482
4494.12117920,0.00896124
4496.04998657,0.00902173
4497.97879395,0.00893496
4499.90760132,0.00893998
4501.83640869,0.00890835
4503.76521606,0.00890915
4505.69402344,0.00884544
4507.62283081,0.00886582
4509.55163818,0.00883738
4511.48044556,0.00879979
4513.40925293,0.00884959
4515.33806030,0.00875118
4517.26686768,0.00877960
4519.19567505,0.00874331
4521.12448242,0.00864935
4523.05328979,0.00868916
4524.98209717,0.00869030
4526.91090454,0.00864278
4528.83971191,0.00868181
4530.76851929,0.00868725
4532.69732666,0.00860308
4534.62613403,0.00864537
4536.55494141,0.00863010
4538.48374878,0.00862521
4540.41255615,0.00859458
4542.34136353,0.00855538
4544.27017090,0.00854298
4546.19897827,0.00847158
4548.12778564,0.00852069
4550.05659302,0.00849712
4551.98540039,0.00849836
4553.91420776,0.00841622
4555.84301514,0.00835293
4557.77182251,0.00841648
4559.70062988,0.00838259
4561.62943726,0.00839678
4563.55824463,0.00828123
4565.48705200,0.00828391
4567.41585937,0.00828565
4569.34466675,0.00819376
4571.27347412,0.00826164
4573.20228149,0.00825444
4575.13108887,0.00825206
4577.05989624,0.00821200
4578.98870361,0.00814383
4580.91751099,0.00813151
4582.84631836,0.00821561
4584.77512573,0.00817378
4586.70393311,0.00810549
4588.63274048,0.00817315
4590.56154785,0.00800438
4592.49035522,0.00800544
4594.41916260,0.00811832
4596.34796997,0.00804624
4598.27677734,0.00797123
4600.20558472,0.00792621
4602.13439209,0.00795883
4604.06319946,0.00794860
4605.99200684,0.00794776
4607.92081421,0.00791535
4609.84962158,0.00792259
4611.77842895,0.00792591
4613.70723633,0.00777917
4615.63604370,0.00780716
4617.56485107,0.00795937
4619.49365845,0.00787943
4621.42246582,0.00776996
4623.35127319,0.00779289
4625.28008057,0.00773013
4627.20888794,0.00778468
4629.13769531,0.00775449
4631.06650269,0.00763286
4632.99531006,0.00769462
4634.92411743,0.00764849
4636.85292480,0.00772437
4638.78173218,0.00771678
4640.71053955,0.00757266
4642.63934692,0.00768168
4644.56815430,0.00766373
4646.49696167,0.00757228
4648.42576904,0.00761046
4650.35457642,0.00757841
4652.28338379,0.00757380
4654.21219116,0.00753540
4656.14099853,0.00742448
4658.06980591,0.00749935
4659.99861328,0.00747382
4661.92742065,0.00738668
4663.85622803,0.00736966
4665.78503540,0.00737090
4667.71384277,0.00750731
4669.64265015,0.00743516
4671.57145752,0.00739570
4673.50026489,0.00736052
4675.42907227,0.00725725
4677.35787964,0.00736347
4679.28668701,0.00735696
4681.21549438,0.00727905
4683.14430176,0.00718036
4685.07310913,0.00724330
4687.00191650,0.00729978
4688.93072388,0.00718601
4690.85953125,0.00723225
4692.78833862,0.00726857
4694.71714600,0.00725217
4696.64595337,0.00719309
4698.57476074,0.00717822
4700.50356812,0.00716048
4702.43237549,0.00711985
4704.36118286,0.00715776
4706.28999023,0.00715784
4708.21879761,0.00710743
4710.14760498,0.00703802
4712.07641235,0.00706036
4714.00521973,0.00701380
4715.93402710,0.00703655
4717.86283447,0.00710576
4719.79164185,0.00703268
4721.72044922,0.00702629
4723.64925659,0.00703313
4725.57806396,0.00700478
4727.50687134,0.00687314
4729.43567871,0.00691509
4731.36448608,0.00695820
4733.29329346,0.00687341
4735.22210083,0.00693582
4737.15090820,0.00686551
4739.07971558,0.00686857
4741.00852295,0.00686093
4742.93733032,0.00680873
4744.86613770,0.00686986
4746.79494507,0.00679205
4748.72375244,0.00677496
4750.65255981,0.00684978
4752.58136719,0.00679816
4754.51017456,0.00669465
4756.43898193,0.00672813
4758.36778931,0.00674893
4760.29659668,0.00673882
4762.22540405,0.00668916
4764.15421143,0.00660536
4766.08301880,0.00665672
4768.01182617,0.00661229
4769.94063354,0.00657437
4771.86944092,0.00663793
4773.79824829,0.00666389
4775.72705566,0.00657353
4777.65586304,0.00653290
4779.58467041,0.00663745
4781.51347778,0.00659540
4783.44228516,0.00652550
4785.37109253,0.00647354
4787.29989990,0.00650371
4789.22870728,0.00653009
4791.15751465,0.00643293
4793.08632202,0.00639244
4795.01512939,0.00635327
4796.94393677,0.00642139
4798.87274414,0.00644645
4800.80155151,0.00637088
4802.73035889,0.00635434
4804.65916626,0.00631848
4806.58797363,0.00630023
4808.51678101,0.00634603
4810.44558838,0.00634009
4812.37439575,0.00623641
4814.30320312,0.00625364
4816.23201050,0.00627417
4818.16081787,0.00621191
4820.08962524,0.00621191
4822.01843262,0.00625469
4823.94723999,0.00626307
4825.87604736,0.00622770
4827.80485474,0.00622934
4829.73366211,0.00618702
4831.66246948,0.00613852
4833.59127686,0.00609548
4835.52008423,0.00611787
4837.44889160,0.00615677
4839.37769897,0.00611669
4841.30650635,0.00611825
4843.23531372,0.00609605
4845.16412109,0.00611831
4847.09292847,0.00607381
4849.02173584,0.00601308
4850.95054321,0.00605372
4852.87935059,0.00601014
4854.80815796,0.00591241
4856.73696533,0.00589885
4858.66577270,0.00598228
4860.59458008,0.00596286
4862.52338745,0.00595027
4864.45219482,0.00592197
4866.38100220,0.00590836
4868.30980957,0.00589054
4870.23861694,0.00578510
4872.16742432,0.00585491
4874.09623169,0.00585765
4876.02503906,0.00584778
4877.95384644,0.00583501
4879.88265381,0.00583497
4881.81146118,0.00583858
4883.74026855,0.00575312
4885.66907593,0.00583729
4887.59788330,0.00574686
4889.52669067,0.00576730
4891.45549805,0.00582421
4893.38430542,0.00567405
4895.31311279,0.00569074
4897.24192017,0.00568092
4899.17072754,0.00572483
4901.09953491,0.00565995
4903.02834228,0.00562944
4904.95714966,0.00568534
4906.88595703,0.00560919
4908.81476440,0.00563327
4910.74357178,0.00564263
4912.67237915,0.00563896
4914.60118652,0.00558180
4916.52999390,0.00559975
4918.45880127,0.00559055
4920.38760864,0.00549563
4922.31641602,0.00555990
4924.24522339,0.00555794
4926.17403076,0.00556687
4928.10283813,0.00550249
4930.03164551,0.00540006
4931.96045288,0.00550085
4933.88926025,0.00549260
4935.81806763,0.00540290
4937.74687500,0.00545860
4939.67568237,0.00545185
4941.60448975,0.00542337
4943.53329712,0.00541158
4945.46210449,0.00530358
4947.39091187,0.00534327
4949.31971924,0.00538760
4951.24852661,0.00535058
4953.17733398,0.00530738
4955.10614136,0.00535786
4957.03494873,0.00544933
4958.96375610,0.00528698
4960.89256348,0.00526098
4962.82137085,0.00528742
4964.75017822,0.00527719
4966.67898560,0.00532712
4968.60779297,0.00525386
4970.53660034,0.00521939
4972.46540771,0.00515399
4974.39421509,0.00521662
4976.32302246,0.00525646
4978.25182983,0.00513420
4980.18063721,0.00512885
4982.10944458,0.00515670
4984.03825195,0.00519029
4985.96705933,0.00516526
4987.89586670,0.00509108
4989.82467407,0.00506963
4991.75348145,0.00512469
4993.68228882,0.00508408
4995.61109619,0.00505946
4997.53990356,0.00510351
4999.46871094,0.00501801
5001.39751831,0.00504052
5003.32632568,0.00507566
5005.25513306,0.00506057
5007.18394043,0.00505757
5009.11274780,0.00502642
5011.04155518,0.00498134
5012.97036255,0.00495346
5014.89916992,0.00500482
5016.82797729,0.00497880
5018.75678467,0.00493710
5020.68559204,0.00486495
5022.61439941,0.00484079
5024.54320679,0.00487706
5026.47201416,0.00485401
5028.40082153,0.00489823
5030.32962891,0.00493635
5032.25843628,0.00490119
5034.18724365,0.00481385
5036.11605103,0.00489777
5038.04485840,0.00487041
5039.97366577,0.00472011
5041.90247314,0.00484399
5043.83128052,0.00484802
5045.76008789,0.00476047
5047.68889526,0.00473158
5049.61770264,0.00474066
5051.54651001,0.00476976
5053.47531738,0.00476078
5055.40412476,0.00474883
5057.33293213,0.00472875
5059.26173950,0.00479283
5061.19054687,0.00472625
5063.11935425,0.00469480
5065.04816162,0.00476974
5066.97696899,0.00465666
5068.90577637,0.00460363
5070.83458374,0.00464351
5072.76339111,0.00458085
5074.69219849,0.00460404
5076.62100586,0.00464644
5078.54981323,0.00453332
5080.47862061,0.00461078
5082.40742798,0.00462943
5084.33623535,0.00455420
5086.26504272,0.00461647
5088.19385010,0.00455366
5090.12265747,0.00459000
5092.05146484,0.00454957
5093.98027222,0.00450367
5095.90907959,0.00460029
5097.83788696,0.00452476
5099.76669434,0.00446024
5101.69550171,0.00450116
5103.62430908,0.00453688
5105.55311645,0.00441339
5107.48192383,0.00445097
5109.41073120,0.00451863
5111.33953857,0.00440010
5113.26834595,0.00445789
5115.19715332,0.00441022
5117.12596069,0.00440335
5119.05476807,0.00445612
5120.98357544,0.00437805
5122.91238281,0.00440350
5124.84119019,0.00436310
5126.76999756,0.00435108
5128.69880493,0.00437756
5130.62761230,0.00434181
5132.55641968,0.00430764
5134.48522705,0.00420941
5136.41403442,0.00426163
5138.34284180,0.00431457
5140.27164917,0.00421589
5142.20045654,0.00424003
5144.12926392,0.00425672
5146.05807129,0.00425964
5147.98687866,0.00426080
5149.91568603,0.00420561
5151.84449341,0.00420447
5153.77330078,0.00421040
5155.70210815,0.00420825
5157.63091553,0.00411576
5159.55972290,0.00413441
5161.48853027,0.00415269
5163.41733765,0.00407530
5165.34614502,0.00414143
5167.27495239,0.00408363
5169.20375977,0.00406933
5171.13256714,0.00412519
5173.06137451,0.00411998
5174.99018188,0.00410075
5176.91898926,0.00403753
5178.84779663,0.00401336
5180.77660400,0.00401076
5182.70541138,0.00407926
5184.63421875,0.00399372
5186.56302612,0.00399954
5188.49183350,0.00405712
5190.42064087,0.00400823
5192.34944824,0.00408942
5194.27825562,0.00402711
5196.20706299,0.00401760
5198.13587036,0.00399872
5200.06467773,0.00399748
5201.99348511,0.00394893
5203.92229248,0.00385948
5205.85109985,0.00392791
5207.77990723,0.00381630
5209.70871460,0.00393186
5211.63752197,0.00394880
5213.56632935,0.00387367
5215.49513672,0.00394479
5217.42394409,0.00388455
5219.35275146,0.00392402
5221.28155884,0.00385526
5223.21036621,0.00392347
5225.13917358,0.00382097
5227.06798096,0.00373251
5228.99678833,0.00388041
5230.92559570,0.00380592
5232.85440308,0.00389953
5234.78321045,0.00382067
5236.71201782,0.00380203
5238.64082520,0.00385905
5240.56963257,0.00378460
5242.49843994,0.00375736
5244.42724731,0.00365507
5246.35605469,0.00376477
5248.28486206,0.00363555
5250.21366943,0.00362988
5252.14247681,0.00379174
5254.07128418,0.00365681
5256.00009155,0.00372612
5257.92889893,0.00373221
5259.85770630,0.00370711
5261.78651367,0.00366926
5263.71532104,0.00349989
5265.64412842,0.00356102
5267.57293579,0.00368786
5269.50174316,0.00361559
5271.43055054,0.00360305
5273.35935791,0.00365249
5275.28816528,0.00358129
5277.21697266,0.00363384
5279.14578003,0.00364205
5281.07458740,0.00365087
5283.00339478,0.00360643
5284.93220215,0.00346273
5286.86100952,0.00363670
5288.78981689,0.00360984
5290.71862427,0.00344919
5292.64743164,0.00354611
5294.57623901,0.00353196
5296.50504639,0.00352622
5298.43385376,0.00354748
5300.36266113,0.00346671
5302.29146851,0.00349948
5304.22027588,0.00353795
5306.14908325,0.00346111
5308.07789062,0.00345180
5310.00669800,0.00349926
5311.93550537,0.00350282
5313.86431274,0.00344571
5315.79312012,0.00345317
5317.72192749,0.00346207
5319.65073486,0.00341084
5321.57954224,0.00343419
5323.50834961,0.00341492
5325.43715698,0.00339109
5327.36596436,0.00335850
5329.29477173,0.00337096
5331.22357910,0.00346377
5333.15238647,0.00340434
5335.08119385,0.00336783
5337.01000122,0.00330881
5338.93880859,0.00319430
5340.86761597,0.00336283
5342.79642334,0.00341563
5344.72523071,0.00323020
5346.65403809,0.00324189
5348.58284546,0.00324328
5350.51165283,0.00331287
5352.44046020,0.00328913
5354.36926758,0.00311953
5356.29807495,0.00324356
5358.22688232,0.00324258
5360.15568970,0.00328985
5362.08449707,0.00332775
5364.01330444,0.00320662
5365.94211182,0.00324148
5367.87091919,0.00321131
5369.79972656,0.00327437
5371.72853394,0.00320388
5373.65734131,0.00322802
5375.58614868,0.00326853
5377.51495605,0.00310044
5379.44376343,0.00318251
5381.37257080,0.00311299
5383.30137817,0.00315629
5385.23018555,0.00313718
5387.15899292,0.00302589
5389.08780029,0.00316022
5391.01660767,0.00310141
5392.94541504,0.00309228
5394.87422241,0.00302692
5396.80302978,0.00304825
5398.73183716,0.00312255
5400.66064453,0.00310290
5402.58945190,0.00314823
5404.51825928,0.00308263
5406.44706665,0.00313970
5408.37587402,0.00303850
5410.30468140,0.00299736
5412.23348877,0.00302887
5414.16229614,0.00283459
5416.09110352,0.00295623
5418.01991089,0.00302585
5419.94871826,0.00297018
5421.87752563,0.00306363
5423.80633301,0.00303295
5425.73514038,0.00300028
5427.66394775,0.00300658
5429.59275513,0.00291181
5431.52156250,0.00296257
5433.45036987,0.00304736
5435.37917725,0.00287451
5437.30798462,0.00285952
5439.23679199,0.00295856
5441.16559936,0.00291850
5443.09440674,0.00290881
5445.02321411,0.00289134
5446.95202148,0.00286531
5448.88082886,0.00280828
5450.80963623,0.00283335
5452.73844360,0.00297570
5454.66725098,0.00291975
5456.59605835,0.00286687
5458.52486572,0.00291080
5460.45367310,0.00280073
5462.38248047,0.00282884
5464.31128784,0.00290543
5466.24009521,0.00288219
5468.16890259,0.00285982
5470.09770996,0.00279208
5472.02651733,0.00284029
5473.95532471,0.00280626
5475.88413208,0.00276991
5477.81293945,0.00280297
5479.74174683,0.00281681
5481.67055420,0.00287066
5483.59936157,0.00280187
5485.52816895,0.00280286
5487.45697632,0.00278264
5489.38578369,0.00277558
5491.31459106,0.00272916
5493.24339844,0.00262691
5495.17220581,0.00276054
5497.10101318,0.00275460
5499.02982056,0.00270361
5500.95862793,0.00269612
5502.88743530,0.00271749
5504.81624268,0.00275881
5506.74505005,0.00270253
5508.67385742,0.00269455
5510.60266479,0.00266418
5512.53147217,0.00273300
5514.46027954,0.00271654
5516.38908691,0.00270203
5518.31789429,0.00269248
5520.24670166,0.00257381
5522.17550903,0.00267989
5524.10431641,0.00270593
5526.03312378,0.00266978
5527.96193115,0.00265828
5529.89073853,0.00265495
5531.81954590,0.00263626
5533.74835327,0.00263835
5535.67716064,0.00270183
5537.60596802,0.00255571
5539.53477539,0.00260439
5541.46358276,0.00262428
5543.39239014,0.00254965
5545.32119751,0.00267895
5547.25000488,0.00261007
5549.17881226,0.00257921
5551.10761963,0.00262700
5553.03642700,0.00254878
5554.96523437,0.00249677
5556.89404175,0.00255511
5558.82284912,0.00251868
5560.75165649,0.00249892
5562.68046387,0.00259779
5564.60927124,0.00248265
5566.53807861,0.00250467
5568.46688599,0.00255852
5570.39569336,0.00247376
5572.32450073,0.00251723
5574.25330811,0.00249413
5576.18211548,0.00250720
5578.11092285,0.00250505
5580.03973022,0.00243795
5581.96853760,0.00245189
5583.89734497,0.00245324
5585.82615234,0.00242182
5587.75495972,0.00241183
5589.68376709,0.00248068
5591.61257446,0.00252441
5593.54138184,0.00247875
5595.47018921,0.00245402
5597.39899658,0.00247325
5599.32780395,0.00244644
5601.25661133,0.00240962
5603.18541870,0.00239867
5605.11422607,0.00240018
5607.04303345,0.00244562
5608.97184082,0.00239774
5610.90064819,0.00233201
5612.82945557,0.00239118
5614.75826294,0.00240199
5616.68707031,0.00238037
5618.61587769,0.00240960
5620.54468506,0.00238408
5622.47349243,0.00234645
5624.40229980,0.00235314
5626.33110718,0.00237986
5628.25991455,0.00237392
5630.18872192,0.00232756
5632.11752930,0.00236789
5634.04633667,0.00235354
5635.97514404,0.00228239
5637.90395142,0.00231697
5639.83275879,0.00233474
5641.76156616,0.00233074
5643.69037353,0.00231289
5645.61918091,0.00227709
5647.54798828,0.00226078
5649.47679565,0.00227481
5651.40560303,0.00227353
5653.33441040,0.00223236
5655.26321777,0.00224406
5657.19202515,0.00226977
5659.12083252,0.00224844
5661.04963989,0.00221580
5662.97844727,0.00225018
5664.90725464,0.00220462
5666.83606201,0.00214344
5668.76486938,0.00223116
5670.69367676,0.00219814
5672.62248413,0.00215357
5674.55129150,0.00216532
5676.48009888,0.00218586
5678.40890625,0.00220782
5680.33771362,0.00208107
5682.26652100,0.00210687
5684.19532837,0.00218181
5686.12413574,0.00217765
5688.05294311,0.00228500
5689.98175049,0.00220172
5691.91055786,0.00208208
5693.83936523,0.00216542
5695.76817261,0.00219332
5697.69697998,0.00216434
5699.62578735,0.00212512
5701.55459473,0.00207730
5703.48340210,0.00206801
5705.41220947,0.00210705
5707.34101685,0.00211645
5709.26982422,0.00205875
5711.19863159,0.00212248
5713.12743896,0.00215336
5715.05624634,0.00209119
5716.98505371,0.00210094
5718.91386108,0.00202419
5720.84266846,0.00204953
5722.77147583,0.00211201
5724.70028320,0.00200484
5726.62909058,0.00203301
5728.55789795,0.00207728
5730.48670532,0.00207204
5732.41551270,0.00213000
5734.34432007,0.00209537
5736.27312744,0.00202405
5738.20193481,0.00199392
5740.13074219,0.00202185
5742.05954956,0.00205801
5743.98835693,0.00199762
5745.91716431,0.00195875
5747.84597168,0.00196749
5749.77477905,0.00197730
5751.70358643,0.00197759
5753.63239380,0.00192656
5755.56120117,0.00193033
5757.49000854,0.00196970
5759.41881592,0.00198339
5761.34762329,0.00198571
5763.27643066,0.00193261
5765.20523804,0.00188969
5767.13404541,0.00192470
5769.06285278,0.00194115
5770.99166016,0.00189748
5772.92046753,0.00191424
5774.84927490,0.00190469
5776.77808228,0.00190460
5778.70688965,0.00191299
5780.63569702,0.00180352
5782.56450439,0.00184679
5784.49331177,0.00192566
5786.42211914,0.00188049
5788.35092651,0.00185881
5790.27973389,0.00191127
5792.20854126,0.00192507
5794.13734863,0.00183233
5796.06615601,0.00188313
5797.99496338,0.00186400
5799.92377075,0.00183938
5801.85257812,0.00189221
5803.78138550,0.00177891
5805.71019287,0.00183098
5807.63900024,0.00185032
5809.56780762,0.00174905
5811.49661499,0.00180705
5813.42542236,0.00187358
5815.35422974,0.00184958
5817.28303711,0.00179838
5819.21184448,0.00178851
5821.14065186,0.00175505
5823.06945923,0.00181386
5824.99826660,0.00179135
5826.92707397,0.00170090
5828.85588135,0.00185254
5830.78468872,0.00184221
5832.71349609,0.00171458
5834.64230347,0.00178401
5836.57111084,0.00177757
5838.49991821,0.00169324
5840.42872559,0.00174623
5842.35753296,0.00177257
5844.28634033,0.00171735
5846.21514770,0.00172111
5848.14395508,0.00171679
5850.07276245,0.00176018
5852.00156982,0.00178504
5853.93037720,0.00170551
5855.85918457,0.00171819
5857.78799194,0.00175037
5859.71679932,0.00168143
5861.64560669,0.00164733
5863.57441406,0.00163519
5865.50322144,0.00161637
5867.43202881,0.00165452
5869.36083618,0.00167846
5871.28964355,0.00169878
5873.21845093,0.00169689
5875.14725830,0.00168429
5877.07606567,0.00167581
5879.00487305,0.00161255
5880.93368042,0.00163044
5882.86248779,0.00169081
5884.79129517,0.00167190
5886.72010254,0.00163987
5888.64890991,0.00160854
5890.57771728,0.00156685
5892.50652466,0.00164021
5894.43533203,0.00163729
5896.36413940,0.00154460
5898.29294678,0.00162706
5900.22175415,0.00161638
5902.15056152,0.00163403
5904.07936890,0.00162786
5906.00817627,0.00154534
5907.93698364,0.00162904
5909.86579102,0.00156028
5911.79459839,0.00155753
5913.72340576,0.00162030
5915.65221313,0.00158053
5917.58102051,0.00155426
5919.50982788,0.00155264
5921.43863525,0.00159709
5923.36744263,0.00149017
5925.29625000,0.00149430
5927.22505737,0.00153935
5929.15386475,0.00154331
5931.08267212,0.00156154
5933.01147949,0.00148655
5934.94028686,0.00155890
5936.86909424,0.00149271
5938.79790161,0.00146383
5940.72670898,0.00158940
5942.65551636,0.00152194
5944.58432373,0.00146697
5946.51313110,0.00145244
5948.44193848,0.00148188
5950.37074585,0.00150641
5952.29955322,0.00147951
5954.22836060,0.00151887
5956.15716797,0.00154627
5958.08597534,0.00147141
5960.01478271,0.00145778
5961.94359009,0.00145262
5963.87239746,0.00141319
5965.80120483,0.00149548
5967.73001221,0.00145578
5969.65881958,0.00140316
5971.58762695,0.00143670
5973.51643433,0.00147079
5975.44524170,0.00145606
5977.37404907,0.00139949
5979.30285645,0.00149058
5981.23166382,0.00142453
5983.16047119,0.00142023
5985.08927856,0.00146335
5987.01808594,0.00132542
5988.94689331,0.00138073
5990.87570068,0.00137696
5992.80450806,0.00138179
5994.73331543,0.00147407
5996.66212280,0.00142980
5998.59093018,0.00141186
6000.51973755,0.00143460
