399.26312622,0.00061490
401.19193359,0.00053475
403.12074097,0.00096350
405.04954834,0.00067457
406.97835571,0.00020136
408.90716309,0.00035427
410.83597046,0.00107265
412.76477783,0.00089561
414.69358521,0.00022427
416.62239258,0.00053856
418.55119995,0.00046112
420.48000732,0.00083601
422.40881470,0.00091163
424.33762207,0.00053225
426.26642944,0.00056920
428.19523682,0.00088330
430.12404419,0.00114812
432.05285156,0.00064285
433.98165894,0.00092952
435.91046631,0.00105928
437.83927368,0.00114972
439.76808105,0.00112903
441.69688843,0.00043343
443.62569580,0.00066285
445.55450317,0.00067032
447.48331055,0.00092539
449.41211792,0.00085251
451.34092529,0.00069074
453.26973267,0.00102030
455.19854004,0.00062910
457.12734741,0.00069054
459.05615479,0.00043707
460.98496216,0.00035088
462.91376953,0.00079323
464.84257690,0.00087323
466.77138428,0.00082074
468.70019165,0.00049593
470.62899902,0.00012823
472.55780640,0.00009722
474.48661377,0.00050707
476.41542114,0.00014073
478.34422852,0.00012648
480.27303589,0.00062983
482.20184326,0.00025189
484.13065063,0.00031945
486.05945801,0.00046265
487.98826538,0.00044231
489.91707275,0.00054453
491.84588013,0.00011411
493.77468750,0.00016379
495.70349487,0.00072389
497.63230225,0.00027835
499.56110962,0.00027137
501.48991699,0.00038814
503.41872437,-0.00017536
505.34753174,0.00042198
507.27633911,0.00008441
509.20514648,-0.00031545
511.13395386,0.00032259
513.06276123,0.00017986
514.99156860,0.00050705
516.92037598,0.00023273
518.84918335,0.00018731
520.77799072,0.00067769
522.70679810,-0.00001190
524.63560547,-0.00001760
526.56441284,-0.00016733
528.49322021,-0.00011581
530.42202759,0.00063784
532.35083496,-0.00002696
534.27964233,0.00005804
536.20844971,0.00034304
538.13725708,-0.00002602
540.06606445,0.00027569
541.99487183,0.00025094
543.92367920,0.00015278
545.85248657,0.00009552
547.78129395,0.00028894
549.71010132,0.00059014
551.63890869,0.00066979
553.56771606,0.00023424
555.49652344,-0.00012677
557.42533081,0.00036793
559.35413818,0.00034247
561.28294556,0.00026836
563.21175293,0.00023188
565.14056030,0.00051841
567.06936768,0.00042224
568.99817505,-0.00014638
570.92698242,0.00063031
572.85578979,0.00012932
574.78459717,0.00002768
576.71340454,0.00069350
578.64221191,-0.00001506
580.57101929,0.00006169
582.49982666,0.00006662
584.42863403,0.00038959
586.35744141,0.00039135
588.28624878,-0.00010279
590.21505615,0.00020846
592.14386353,-0.00009473
594.07267090,0.00011795
596.00147827,0.00060043
597.93028564,0.00047056
599.85909302,0.00024068
601.78790039,0.00014747
603.71670776,0.00032666
605.64551514,0.00009669
607.57432251,0.00007607
609.50312988,0.00029993
611.43193726,0.00010806
613.36074463,0.00011621
615.28955200,0.00018704
617.21835938,0.00017056
619.14716675,0.00005481
621.07597412,0.00014580
623.00478149,-0.00001568
624.93358887,0.00001229
626.86239624,0.00055183
628.79120361,0.00004821
630.72001099,0.00006998
632.64881836,0.00056775
634.57762573,0.00067211
636.50643311,0.00107399
638.43524048,0.00077024
640.36404785,0.00082893
642.29285522,0.00128465
644.22166260,0.00107885
646.15046997,0.00114716
648.07927734,0.00140143
650.00808472,0.00125771
651.93689209,0.00147590
653.86569946,0.00194197
655.79450684,0.00177772
657.72331421,0.00164281
659.65212158,0.00165995
661.58092896,0.00178438
663.50973633,0.00216025
665.43854370,0.00192832
667.36735107,0.00168463
669.29615845,0.00222757
671.22496582,0.00238202
673.15377319,0.00231250
675.08258057,0.00246480
677.01138794,0.00243744
678.94019531,0.00272392
680.86900269,0.00260245
682.79781006,0.00262289
684.72661743,0.00281534
686.65542480,0.00251380
688.58423218,0.00287719
690.51303955,0.00281221
692.44184692,0.00277412
694.37065430,0.00310179
696.29946167,0.00310290
698.22826904,0.00385822
700.15707642,0.00443033
702.08588379,0.00449013
704.01469116,0.00440606
705.94349854,0.00377702
707.87230591,0.00284483
709.80111328,0.00227153
711.72992065,0.00170869
713.65872803,0.00080919
715.58753540,0.00054178
717.51634277,0.00062147
719.44515015,0.00053707
721.37395752,0.00020680
723.30276489,0.00012767
725.23157227,0.00043332
727.16037964,0.00017091
729.08918701,-0.00025628
731.01799438,-0.00004041
732.94680176,0.00034512
734.87560913,0.00016983
736.80441650,0.00021156
738.73322388,0.00027480
740.66203125,0.00013521
742.59083862,0.00031653
744.51964600,0.00030777
746.44845337,0.00029290
748.37726074,0.00046289
750.30606812,0.00056707
752.23487549,0.00039676
754.16368286,0.00023142
756.09249023,0.00011734
758.02129761,0.00005334
759.95010498,0.00039960
761.87891235,0.00027065
763.80771973,0.00014492
765.73652710,0.00021668
767.66533447,0.00003758
769.59414185,0.00050331
771.52294922,0.00056187
773.45175659,0.00005589
775.38056396,0.00001879
777.30937134,0.00036046
779.23817871,0.00052459
781.16698608,0.00019644
783.09579346,0.00023541
785.02460083,0.00052280
786.95340820,0.00057293
788.88221558,0.00052851
790.81102295,0.00051748
792.73983032,0.00054428
794.66863770,0.00045362
796.59744507,0.00053689
798.52625244,0.00077783
800.45505981,0.00079927
802.38386719,0.00076530
804.31267456,0.00077194
806.24148193,0.00049553
808.17028931,0.00037346
810.09909668,0.00034745
812.02790405,0.00023555
813.95671143,0.00032756
815.88551880,0.00023761
817.81432617,0.00035135
819.74313354,0.00036303
821.67194092,0.00029101
823.60074829,0.00068153
825.52955566,0.00072144
827.45836304,0.00079072
829.38717041,0.00097645
831.31597778,0.00095224
833.24478516,0.00122790
835.17359253,0.00146886
837.10239990,0.00135533
839.03120728,0.00131490
840.96001465,0.00145128
842.88882202,0.00135545
844.81762939,0.00124160
846.74643677,0.00123501
848.67524414,0.00115948
850.60405151,0.00119044
852.53285889,0.00096724
854.46166626,0.00081302
856.39047363,0.00080143
858.31928101,0.00046944
860.24808838,0.00052643
862.17689575,0.00058160
864.10570313,0.00043616
866.03451050,0.00036976
867.96331787,0.00019031
869.89212524,0.00040256
871.82093262,0.00055768
873.74973999,0.00029264
875.67854736,0.00032098
877.60735474,0.00076166
879.53616211,0.00057590
881.46496948,0.00019330
883.39377686,0.00048812
885.32258423,0.00036154
887.25139160,0.00029747
889.18019897,0.00054133
891.10900635,0.00032833
893.03781372,0.00034552
894.96662109,0.00056630
896.89542847,0.00047773
898.82423584,0.00023342
900.75304321,0.00035887
902.68185059,0.00064284
904.61065796,0.00071346
906.53946533,0.00074868
908.46827271,0.00056902
910.39708008,0.00068290
912.32588745,0.00066738
914.25469482,0.00064909
916.18350220,0.00101459
918.11230957,0.00094314
920.04111694,0.00116759
921.96992432,0.00132009
923.89873169,0.00127439
925.82753906,0.00143695
927.75634644,0.00161073
929.68515381,0.00189721
931.61396118,0.00167035
933.54276855,0.00168232
935.47157593,0.00194767
937.40038330,0.00208834
939.32919067,0.00242217
941.25799805,0.00245679
943.18680542,0.00226839
945.11561279,0.00223628
947.04442017,0.00249057
948.97322754,0.00232728
950.90203491,0.00204144
952.83084229,0.00215123
954.75964966,0.00213755
956.68845703,0.00212775
958.61726440,0.00226978
960.54607178,0.00235415
962.47487915,0.00203482
964.40368652,0.00214352
966.33249390,0.00243087
968.26130127,0.00223570
970.19010864,0.00265269
972.11891602,0.00291734
974.04772339,0.00289132
975.97653076,0.00320709
977.90533813,0.00331363
979.83414551,0.00357794
981.76295288,0.00384956
983.69176025,0.00417084
985.62056763,0.00469229
987.54937500,0.00514928
989.47818237,0.00592722
991.40698975,0.00645643
993.33579712,0.00709566
995.26460449,0.00812689
997.19341187,0.00846103
999.12221924,0.00897945
1001.05102661,0.00980757
1002.97983398,0.01039042
1004.90864136,0.01099605
1006.83744873,0.01146923
1008.76625610,0.01239711
1010.69506348,0.01320491
1012.62387085,0.01359447
1014.55267822,0.01450677
1016.48148560,0.01532806
1018.41029297,0.01583459
1020.33910034,0.01658164
1022.26790771,0.01726731
1024.19671509,0.01783073
1026.12552246,0.01854398
1028.05432983,0.01909355
1029.98313721,0.01964778
1031.91194458,0.02014259
1033.84075195,0.02014694
1035.76955933,0.02031503
1037.69836670,0.02086229
1039.62717407,0.02110125
1041.55598145,0.02088305
1043.48478882,0.02067344
1045.41359619,0.02027112
1047.34240356,0.01989427
1049.27121094,0.01988283
1051.20001831,0.01942751
1053.12882568,0.01884961
1055.05763306,0.01856715
1056.98644043,0.01796992
1058.91524780,0.01729497
1060.84405518,0.01712643
1062.77286255,0.01663800
1064.70166992,0.01592963
1066.63047729,0.01556575
1068.55928467,0.01471397
1070.48809204,0.01435426
1072.41689941,0.01387642
1074.34570679,0.01263409
1076.27451416,0.01214850
1078.20332153,0.01154215
1080.13212891,0.01097167
1082.06093628,0.01045275
1083.98974365,0.00985048
1085.91855103,0.00978837
1087.84735840,0.00914321
1089.77616577,0.00858718
1091.70497314,0.00839093
1093.63378052,0.00791070
1095.56258789,0.00765533
1097.49139526,0.00743767
1099.42020264,0.00716034
1101.34901001,0.00697581
1103.27781738,0.00694874
1105.20662476,0.00681746
1107.13543213,0.00664894
1109.06423950,0.00652658
1110.99304687,0.00622019
1112.92185425,0.00624275
1114.85066162,0.00626323
1116.77946899,0.00613655
1118.70827637,0.00628321
1120.63708374,0.00611578
1122.56589111,0.00609016
1124.49469849,0.00633301
1126.42350586,0.00620573
1128.35231323,0.00644120
1130.28112061,0.00665852
1132.20992798,0.00661209
1134.13873535,0.00698879
1136.06754272,0.00718526
1137.99635010,0.00747786
1139.92515747,0.00811908
1141.85396484,0.00865067
1143.78277222,0.00922113
1145.71157959,0.00965946
1147.64038696,0.01013869
1149.56919434,0.01071944
1151.49800171,0.01123739
1153.42680908,0.01184535
1155.35561646,0.01237512
1157.28442383,0.01281861
1159.21323120,0.01325897
1161.14203857,0.01385149
1163.07084595,0.01447366
1164.99965332,0.01473562
1166.92846069,0.01524748
1168.85726807,0.01613010
1170.78607544,0.01669779
1172.71488281,0.01721178
1174.64369019,0.01771465
1176.57249756,0.01821233
1178.50130493,0.01897153
1180.43011230,0.01963567
1182.35891968,0.02032910
1184.28772705,0.02134554
1186.21653442,0.02242306
1188.14534180,0.02327029
1190.07414917,0.02432119
1192.00295654,0.02558852
1193.93176392,0.02664872
1195.86057129,0.02789712
1197.78937866,0.02888481
1199.71818604,0.03004997
1201.64699341,0.03166606
1203.57580078,0.03281347
1205.50460815,0.03406778
1207.43341553,0.03500997
1209.36222290,0.03609893
1211.29103027,0.03755161
1213.21983765,0.03820421
1215.14864502,0.03915229
1217.07745239,0.04001530
1219.00625977,0.04059685
1220.93506714,0.04142440
1222.86387451,0.04174993
1224.79268188,0.04198111
1226.72148926,0.04226467
1228.65029663,0.04257749
1230.57910400,0.04256044
1232.50791138,0.04248882
1234.43671875,0.04274076
1236.36552612,0.04273817
1238.29433350,0.04279555
1240.22314087,0.04234083
1242.15194824,0.04199617
1244.08075562,0.04210925
1246.00956299,0.04164278
1247.93837036,0.04155441
1249.86717773,0.04134197
1251.79598511,0.04076783
1253.72479248,0.04051205
1255.65359985,0.03991226
1257.58240723,0.03929482
1259.51121460,0.03860158
1261.44002197,0.03793637
1263.36882935,0.03765791
1265.29763672,0.03708132
1267.22644409,0.03653789
1269.15525146,0.03610548
1271.08405884,0.03547724
1273.01286621,0.03492370
1274.94167358,0.03422342
1276.87048096,0.03365292
1278.79928833,0.03311648
1280.72809570,0.03227219
1282.65690308,0.03162495
1284.58571045,0.03105989
1286.51451782,0.03042918
1288.44332520,0.02986651
1290.37213257,0.02950888
1292.30093994,0.02924365
1294.22974731,0.02878299
1296.15855469,0.02849257
1298.08736206,0.02862061
1300.01616943,0.02876228
1301.94497681,0.02869334
1303.87378418,0.02896135
1305.80259155,0.02916042
1307.73139893,0.02938341
1309.66020630,0.03032127
1311.58901367,0.03072529
1313.51782104,0.03107046
1315.44662842,0.03189757
1317.37543579,0.03231672
1319.30424316,0.03323653
1321.23305054,0.03458935
1323.16185791,0.03558800
1325.09066528,0.03646675
1327.01947266,0.03737654
1328.94828003,0.03839441
1330.87708740,0.03920677
1332.80589478,0.03984055
1334.73470215,0.04078006
1336.66350952,0.04124743
1338.59231689,0.04079213
1340.52112427,0.04142497
1342.44993164,0.04288656
1344.37873901,0.04304606
1346.30754639,0.04302617
1348.23635376,0.04294823
1350.16516113,0.04260536
1352.09396851,0.04253122
1354.02277588,0.04191750
1355.95158325,0.04166233
1357.88039062,0.04138950
1359.80919800,0.04059538
1361.73800537,0.03882823
1363.66681274,0.03808659
1365.59562012,0.04017987
1367.52442749,0.03932223
1369.45323486,0.03859381
1371.38204224,0.03937114
1373.31084961,0.03715884
1375.23965698,0.03742245
1377.16846436,0.03841361
1379.09727173,0.03804035
1381.02607910,0.03821600
1382.95488647,0.03802152
1384.88369385,0.03785595
1386.81250122,0.03623990
1388.74130859,0.03680862
1390.67011597,0.03971419
1392.59892334,0.03853782
1394.52773071,0.03633353
1396.45653809,0.03805768
1398.38534546,0.03790247
1400.31415283,0.03785033
1402.24296021,0.04050688
1404.17176758,0.03841984
1406.10057495,0.03859472
1408.02938232,0.03972077
1409.95818970,0.03845283
1411.88699707,0.03915037
1413.81580444,0.03777751
1415.74461182,0.03822455
1417.67341919,0.03464829
1419.60222656,0.03134983
1421.53103394,0.03541581
1423.45984131,0.03446037
1425.38864868,0.03353716
1427.31745605,0.03380300
1429.24626343,0.03124295
1431.17507080,0.03025646
1433.10387817,0.03087142
1435.03268555,0.02804313
1436.96149292,0.02401723
1438.89030029,0.02698585
1440.81910767,0.02736455
1442.74791504,0.02560582
1444.67672241,0.02657574
1446.60552979,0.02475542
1448.53433716,0.02506675
1450.46314453,0.02562915
1452.39195190,0.02630322
1454.32075928,0.02698576
1456.24956665,0.02252492
1458.17837402,0.02378561
1460.10718140,0.03109920
1462.03598877,0.03279155
1463.96479614,0.03277946
1465.89360352,0.03416206
1467.82241089,0.03853343
1469.75121826,0.04125383
1471.68002563,0.03692672
1473.60883301,0.03919619
1475.53764038,0.04431841
1477.46644775,0.04747201
1479.39525513,0.05201816
1481.32406250,0.05251791
1483.25286987,0.05568317
1485.18167725,0.05728992
1487.11048462,0.05654979
1489.03929199,0.05622803
1490.96809937,0.05664521
1492.89690674,0.06548694
1494.82571411,0.06353055
1496.75452148,0.05753160
1498.68332886,0.06474937
1500.61213623,0.06664145
1502.54094360,0.07115552
1504.46975098,0.06684633
1506.39855835,0.04970649
1508.32736572,0.06036104
1510.25617310,0.06967200
1512.18498047,0.06742901
1514.11378784,0.07278050
1516.04259521,0.06583090
1517.97140259,0.06845707
1519.90020996,0.06572337
1521.82901733,0.05751647
1523.75782471,0.06947315
1525.68663208,0.06798650
1527.61543945,0.06802803
1529.54424683,0.07431827
1531.47305420,0.07119622
1533.40186157,0.06527250
1535.33066895,0.06897417
1537.25947632,0.07326885
1539.18828369,0.05300962
1541.11709106,0.05565895
1543.04589844,0.06560701
1544.97470581,0.06296429
1546.90351318,0.07362682
1548.83232056,0.06852301
1550.76112793,0.07046872
1552.68993530,0.06947033
1554.61874268,0.06356341
1556.54755005,0.06726687
1558.47635742,0.04782899
1560.40516479,0.05187478
1562.33397217,0.07190304
1564.26277954,0.06777835
1566.19158691,0.06934099
1568.12039429,0.06793971
1570.04920166,0.06056105
1571.97800903,0.06932504
1573.90681641,0.06893153
1575.83562378,0.05494626
1577.76443115,0.06213703
1579.69323853,0.06940967
1581.62204590,0.06591064
1583.55085327,0.06683384
1585.47966064,0.06566726
1587.40846802,0.06565669
1589.33727539,0.06471811
1591.26608276,0.06435737
1593.19489014,0.06370199
1595.12369751,0.06263716
1597.05250488,0.06309775
1598.98131226,0.06247218
1600.91011963,0.06225219
1602.83892700,0.06060211
1604.76773437,0.06138667
1606.69654175,0.06005034
1608.62534912,0.05979069
1610.55415649,0.05926461
1612.48296387,0.05942138
1614.41177124,0.05990094
1616.34057861,0.04919059
1618.26938599,0.05361860
1620.19819336,0.06132239
1622.12700073,0.05478780
1624.05580811,0.05541931
1625.98461548,0.05815418
1627.91342285,0.05823690
1629.84223022,0.05793447
1631.77103760,0.06246861
1633.69984497,0.05791018
1635.62865234,0.04872774
1637.55745972,0.05721804
1639.48626709,0.06316669
1641.41507446,0.06237093
1643.34388184,0.06463116
1645.27268921,0.05926634
1647.20149658,0.05306203
1649.13030396,0.06659406
1651.05911133,0.06332012
1652.98791870,0.04209008
1654.91672607,0.05785853
1656.84553345,0.07251567
1658.77434082,0.07049875
1660.70314819,0.07289425
1662.63195557,0.06757203
1664.56076294,0.07215622
1666.48957031,0.07771136
1668.41837769,0.06903499
1670.34718506,0.06824440
1672.27599243,0.07781877
1674.20479980,0.07261719
1676.13360718,0.07097979
1678.06241455,0.08181475
1679.99122192,0.07972333
1681.92002930,0.07968429
1683.84883667,0.06559501
1685.77764404,0.06639768
1687.70645142,0.09009490
1689.63525879,0.07899806
1691.56406616,0.08777615
1693.49287354,0.08923486
1695.42168091,0.06678364
1697.35048828,0.08260397
1699.27929565,0.07292865
1701.20810303,0.06711830
1703.13691040,0.09031445
1705.06571777,0.08324537
1706.99452515,0.08492239
1708.92333252,0.09209956
1710.85213989,0.08903913
1712.78094727,0.09066466
1714.70975464,0.08461475
1716.63856201,0.07659458
1718.56736938,0.07585791
1720.49617676,0.08974569
1722.42498413,0.09257660
1724.35379150,0.08683391
1726.28259888,0.09403095
1728.21140625,0.08706699
1730.14021362,0.08837385
1732.06902100,0.08557563
1733.99782837,0.06663554
1735.92663574,0.08235364
1737.85544312,0.09024061
1739.78425049,0.08089656
1741.71305786,0.08786075
1743.64186523,0.08905236
1745.57067261,0.08896579
1747.49947998,0.09001124
1749.42828735,0.08617596
1751.35709473,0.08246293
1753.28590210,0.09144314
1755.21470947,0.09495239
1757.14351685,0.08701967
1759.07232422,0.09558419
1761.00113159,0.08962330
1762.92993896,0.08707127
1764.85874634,0.09871892
1766.78755371,0.08901069
1768.71636108,0.09011407
1770.64516846,0.08896849
1772.57397583,0.08076049
1774.50278320,0.08982590
1776.43159058,0.09408192
1778.36039795,0.09285711
1780.28920532,0.09172848
1782.21801270,0.09240204
1784.14682007,0.09208015
1786.07562744,0.09046865
1788.00443481,0.09464450
1789.93324219,0.09201523
1791.86204956,0.08397886
1793.79085693,0.08724459
1795.71966431,0.09318510
1797.64847168,0.09184238
1799.57727905,0.09038569
1801.50608643,0.08906298
1803.43489380,0.09173526
1805.36370117,0.09327875
1807.29250854,0.09185489
1809.22131592,0.09243844
1811.15012329,0.08992536
1813.07893066,0.09229124
1815.00773804,0.09263799
1816.93654541,0.09154123
1818.86535278,0.09219920
1820.79416016,0.09162512
1822.72296753,0.09275132
1824.65177490,0.08713314
1826.58058228,0.09006631
1828.50938965,0.08968802
1830.43819702,0.08468914
1832.36700439,0.09176903
1834.29581177,0.09082381
1836.22461914,0.09089356
1838.15342651,0.09025413
1840.08223389,0.09072381
1842.01104126,0.09054311
1843.93984863,0.08074021
1845.86865601,0.08603993
1847.79746338,0.09008284
1849.72627075,0.08828767
1851.65507812,0.09066346
1853.58388550,0.08873355
1855.51269287,0.08957449
1857.44150024,0.08880657
1859.37030762,0.08824271
1861.29911499,0.08866878
1863.22792236,0.08766629
1865.15672974,0.08849385
1867.08553711,0.08545855
1869.01434448,0.08209021
1870.94315186,0.08507112
1872.87195923,0.08778728
1874.80076660,0.08642776
1876.72957397,0.08699222
1878.65838135,0.08640783
1880.58718872,0.08588161
1882.51599609,0.08649431
1884.44480347,0.08496106
1886.37361084,0.08609840
1888.30241821,0.08402194
1890.23122559,0.08249670
1892.16003296,0.08540083
1894.08884033,0.08405176
1896.01764771,0.08368897
1897.94645508,0.08441361
1899.87526245,0.08386144
1901.80406982,0.08391212
1903.73287720,0.08326006
1905.66168457,0.08360151
1907.59049194,0.08265012
1909.51929932,0.08202723
1911.44810669,0.08263224
1913.37691406,0.08254202
1915.30572144,0.08283342
1917.23452881,0.07927394
1919.16333618,0.07945387
1921.09214355,0.08223849
1923.02095093,0.07967842
1924.94975830,0.08117774
1926.87856567,0.08159928
1928.80737305,0.08057153
1930.73618042,0.08147191
1932.66498779,0.08014703
1934.59379517,0.08084200
1936.52260254,0.08012624
1938.45140991,0.08041666
1940.38021729,0.08029866
1942.30902466,0.07766771
1944.23783203,0.07899528
1946.16663940,0.07945828
1948.09544678,0.07934137
1950.02425415,0.07950449
1951.95306152,0.07909828
1953.88186890,0.07908936
1955.81067627,0.07857360
1957.73948364,0.07891402
1959.66829102,0.07858920
1961.59709839,0.07820772
1963.52590576,0.07833289
1965.45471313,0.07773033
1967.38352051,0.07686329
1969.31232788,0.07737146
1971.24113525,0.07783867
1973.16994263,0.07724042
1975.09875000,0.07751292
1977.02755737,0.07696444
1978.95636475,0.07691948
1980.88517212,0.07674746
1982.81397949,0.07611537
1984.74278687,0.07657567
1986.67159424,0.07584304
1988.60040161,0.07572694
1990.52920898,0.07516149
1992.45801636,0.07421238
1994.38682373,0.07510709
1996.31563110,0.07508604
1998.24443848,0.07465540
2000.17324585,0.07458451
2002.10205322,0.07409431
2004.03086060,0.07408584
2005.95966797,0.07394232
2007.88847534,0.07346056
2009.81728271,0.07340581
2011.74609009,0.07307909
2013.67489746,0.07296024
2015.60370483,0.07239197
2017.53251221,0.07169634
2019.46131958,0.07216048
2021.39012695,0.07182249
2023.31893433,0.07147585
2025.24774170,0.07140745
2027.17654907,0.07108757
2029.10535645,0.07103603
2031.03416382,0.07070168
2032.96297119,0.07054079
2034.89177856,0.07022537
2036.82058594,0.07011463
2038.74939331,0.07005567
2040.67820068,0.06954636
2042.60700806,0.06938606
2044.53581543,0.06932728
2046.46462280,0.06900582
2048.39343018,0.06884487
2050.32223755,0.06875356
2052.25104492,0.06842963
2054.17985229,0.06843875
2056.10865967,0.06813781
2058.03746704,0.06782034
2059.96627441,0.06774855
2061.89508179,0.06739855
2063.82388916,0.06716713
2065.75269653,0.06685712
2067.68150391,0.06697271
2069.61031128,0.06684387
2071.53911865,0.06659549
2073.46792603,0.06650256
2075.39673340,0.06619327
2077.32554077,0.06616912
2079.25434814,0.06593738
2081.18315552,0.06589045
2083.11196289,0.06567122
2085.04077026,0.06546244
2086.96957764,0.06530443
2088.89838501,0.06503825
2090.82719238,0.06498043
2092.75599976,0.06470361
2094.68480713,0.06481637
2096.61361450,0.06448177
2098.54242187,0.06437674
2100.47122925,0.06443122
2102.40003662,0.06404805
2104.32884399,0.06414660
2106.25765137,0.06379765
2108.18645874,0.06375448
2110.11526611,0.06376319
2112.04407349,0.06360380
2113.97288086,0.06353424
2115.90168823,0.06318215
2117.83049561,0.06318229
2119.75930298,0.06310557
2121.68811035,0.06307559
2123.61691772,0.06292231
2125.54572510,0.06273843
2127.47453247,0.06268808
2129.40333984,0.06259990
2131.33214722,0.06253392
2133.26095459,0.06237102
2135.18976196,0.06226708
2137.11856934,0.06213751
2139.04737671,0.06222621
2140.97618408,0.06197479
2142.90499146,0.06193592
2144.83379883,0.06199680
2146.76260620,0.06169466
2148.69141357,0.06188021
2150.62022095,0.06168368
2152.54902832,0.06155304
2154.47783569,0.06156215
2156.40664307,0.06141552
2158.33545044,0.06137472
2160.26425781,0.06124993
2162.19306519,0.06134259
2164.12187256,0.06126790
2166.05067993,0.06120244
2167.97948730,0.06109278
2169.90829468,0.06098473
2171.83710205,0.06087928
2173.76590942,0.06082056
2175.69471680,0.06087591
2177.62352417,0.06068267
2179.55233154,0.06072940
2181.48113892,0.06064560
2183.40994629,0.06053067
2185.33875366,0.06052604
2187.26756104,0.06050317
2189.19636841,0.06050990
2191.12517578,0.06039190
2193.05398315,0.06044411
2194.98279053,0.06033790
2196.91159790,0.06018943
2198.84040527,0.06008334
2200.76921265,0.06012189
2202.69802002,0.06005246
2204.62682739,0.05984941
2206.55563477,0.05986866
2208.48444214,0.05974843
2210.41324951,0.05971913
2212.34205688,0.05957574
2214.27086426,0.05961803
2216.19967163,0.05952039
2218.12847900,0.05929917
2220.05728638,0.05944454
2221.98609375,0.05915432
2223.91490112,0.05910180
2225.84370850,0.05918626
2227.77251587,0.05910302
2229.70132324,0.05910315
2231.63013062,0.05899815
2233.55893799,0.05880775
2235.48774536,0.05871193
2237.41655273,0.05885887
2239.34536011,0.05868358
2241.27416748,0.05851238
2243.20297485,0.05836615
2245.13178223,0.05825401
2247.06058960,0.05821049
2248.98939697,0.05807429
2250.91820435,0.05803073
2252.84701172,0.05785483
2254.77581909,0.05792707
2256.70462646,0.05774079
2258.63343384,0.05763604
2260.56224121,0.05774231
2262.49104858,0.05759006
2264.41985596,0.05762301
2266.34866333,0.05736768
2268.27747070,0.05730809
2270.20627808,0.05724977
2272.13508545,0.05709650
2274.06389282,0.05719780
2275.99270020,0.05713937
2277.92150757,0.05704065
2279.85031494,0.05689845
2281.77912231,0.05695336
2283.70792969,0.05683858
2285.63673706,0.05669831
2287.56554443,0.05657822
2289.49435181,0.05639187
2291.42315918,0.05632173
2293.35196655,0.05601238
2295.28077393,0.05599712
2297.20958130,0.05576216
2299.13838867,0.05534968
2301.06719604,0.05537812
2302.99600342,0.05513894
2304.92481079,0.05472061
2306.85361816,0.05435817
2308.78242554,0.05390429
2310.71123291,0.05343384
2312.64004028,0.05287782
2314.56884766,0.05238984
2316.49765503,0.05201546
2318.42646240,0.05111343
2320.35526978,0.05022490
2322.28407715,0.04953250
2324.21288452,0.04886139
2326.14169189,0.04850709
2328.07049927,0.04780683
2329.99930664,0.04708012
2331.92811401,0.04661634
2333.85692139,0.04654825
2335.78572876,0.04637392
2337.71453613,0.04616056
2339.64334351,0.04636266
2341.57215088,0.04637878
2343.50095825,0.04707624
2345.42976562,0.04801118
2347.35857300,0.05009810
2349.28738037,0.05182215
2351.21618774,0.04978187
2353.14499512,0.04727440
2355.07380249,0.04550228
2357.00260986,0.04388769
2358.93141724,0.04304201
2360.86022461,0.04254055
2362.78903198,0.04242282
2364.71783936,0.04255978
2366.64664673,0.04331645
2368.57545410,0.04436804
2370.50426147,0.04546358
2372.43306885,0.04657722
2374.36187622,0.04799633
2376.29068359,0.04938187
2378.21949097,0.05025754
2380.14829834,0.05138055
2382.07710571,0.05195324
2384.00591309,0.05215422
2385.93472046,0.05237795
2387.86352783,0.05239514
2389.79233521,0.05246492
2391.72114258,0.05233195
2393.64994995,0.05223577
2395.57875732,0.05203324
2397.50756470,0.05198167
2399.43637207,0.05201351
2401.36517944,0.05181872
2403.29398682,0.05173365
2405.22279419,0.05162303
2407.15160156,0.05157780
2409.08040894,0.05157002
2411.00921631,0.05146952
2412.93802368,0.05124336
2414.86683105,0.05108911
2416.79563843,0.05111369
2418.72444580,0.05116356
2420.65325317,0.05109437
2422.58206055,0.05088089
2424.51086792,0.05072971
2426.43967529,0.05063775
2428.36848267,0.05057009
2430.29729004,0.05042733
2432.22609741,0.05044047
2434.15490479,0.05039679
2436.08371216,0.05023238
2438.01251953,0.05021747
2439.94132690,0.05006188
2441.87013428,0.05004360
2443.79894165,0.04989108
2445.72774902,0.04970106
2447.65655640,0.04980774
2449.58536377,0.04963312
2451.51417114,0.04939722
2453.44297852,0.04944626
2455.37178589,0.04943147
2457.30059326,0.04931292
2459.22940063,0.04936709
2461.15820801,0.04918736
2463.08701538,0.04907179
2465.01582275,0.04902915
2466.94463013,0.04872350
2468.87343750,0.04880629
2470.80224487,0.04872702
2472.73105225,0.04848073
2474.65985962,0.04845493
2476.58866699,0.04834429
2478.51747437,0.04832666
2480.44628174,0.04825414
2482.37508911,0.04807630
2484.30389648,0.04804268
2486.23270386,0.04803235
2488.16151123,0.04772610
2490.09031860,0.04760613
2492.01912598,0.04772688
2493.94793335,0.04762829
2495.87674072,0.04750008
2497.80554810,0.04737075
2499.73435547,0.04728312
2501.66316284,0.04717962
2503.59197021,0.04711652
2505.52077759,0.04704299
2507.44958496,0.04697046
2509.37839233,0.04695823
2511.30719971,0.04686974
2513.23600708,0.04678154
2515.16481445,0.04653595
2517.09362183,0.04646048
2519.02242920,0.04639740
2520.95123657,0.04624654
2522.88004395,0.04631339
2524.80885132,0.04618622
2526.73765869,0.04607487
2528.66646606,0.04598445
2530.59527344,0.04584841
2532.52408081,0.04575492
2534.45288818,0.04561298
2536.38169556,0.04559724
2538.31050293,0.04547806
2540.23931030,0.04536324
2542.16811768,0.04540666
2544.09692505,0.04531895
2546.02573242,0.04515084
2547.95453979,0.04504780
2549.88334717,0.04504003
2551.81215454,0.04491746
2553.74096191,0.04467259
2555.66976929,0.04473745
2557.59857666,0.04465444
2559.52738403,0.04437337
2561.45619141,0.04445080
2563.38499878,0.04434964
2565.31380615,0.04418217
2567.24261353,0.04416636
2569.17142090,0.04406605
2571.10022827,0.04390794
2573.02903564,0.04379725
2574.95784302,0.04379533
2576.88665039,0.04359084
2578.81545776,0.04349871
2580.74426514,0.04342984
2582.67307251,0.04327651
2584.60187988,0.04325645
2586.53068726,0.04321675
2588.45949463,0.04313614
2590.38830200,0.04287988
2592.31710937,0.04288009
2594.24591675,0.04282255
2596.17472412,0.04266310
2598.10353149,0.04264018
2600.03233887,0.04249899
2601.96114624,0.04251416
2603.88995361,0.04226306
2605.81876099,0.04218283
2607.74756836,0.04216556
2609.67637573,0.04195008
2611.60518311,0.04200716
2613.53399048,0.04180273
2615.46279785,0.04171205
2617.39160522,0.04163714
2619.32041260,0.04147579
2621.24921997,0.04145797
2623.17802734,0.04133832
2625.10683472,0.04131787
2627.03564209,0.04121240
2628.96444946,0.04107813
2630.89325684,0.04095817
2632.82206421,0.04089845
2634.75087158,0.04086874
2636.67967895,0.04069526
2638.60848633,0.04055008
2640.53729370,0.04042256
2642.46610107,0.04028624
2644.39490845,0.04018267
2646.32371582,0.04016222
2648.25252319,0.04005120
2650.18133057,0.03999312
2652.11013794,0.03996865
2654.03894531,0.03987033
2655.96775269,0.03974907
2657.89656006,0.03951384
2659.82536743,0.03951510
2661.75417480,0.03938428
2663.68298218,0.03916557
2665.61178955,0.03920007
2667.54059692,0.03915941
2669.46940430,0.03908912
2671.39821167,0.03886911
2673.32701904,0.03871011
2675.25582642,0.03868775
2677.18463379,0.03857554
2679.11344116,0.03844142
2681.04224854,0.03831520
2682.97105591,0.03814770
2684.89986328,0.03801068
2686.82867065,0.03801779
2688.75747803,0.03789867
2690.68628540,0.03780356
2692.61509277,0.03769404
2694.54390015,0.03750449
2696.47270752,0.03749430
2698.40151489,0.03737141
2700.33032227,0.03727718
2702.25912964,0.03718886
2704.18793701,0.03699400
2706.11674438,0.03697446
2708.04555176,0.03685548
2709.97435913,0.03666819
2711.90316650,0.03661813
2713.83197388,0.03651926
2715.76078125,0.03647419
2717.68958862,0.03635135
2719.61839600,0.03613014
2721.54720337,0.03606484
2723.47601074,0.03592496
2725.40481812,0.03583883
2727.33362549,0.03578214
2729.26243286,0.03563425
2731.19124023,0.03555824
2733.12004761,0.03541707
2735.04885498,0.03530355
2736.97766235,0.03522429
2738.90646973,0.03516985
2740.83527710,0.03501420
2742.76408447,0.03481277
2744.69289185,0.03474718
2746.62169922,0.03463522
2748.55050659,0.03454581
2750.47931396,0.03439691
2752.40812134,0.03429135
2754.33692871,0.03422293
2756.26573608,0.03405467
2758.19454346,0.03390069
2760.12335083,0.03383616
2762.05215820,0.03382389
2763.98096558,0.03365473
2765.90977295,0.03354966
2767.83858032,0.03334606
2769.76738770,0.03318883
2771.69619507,0.03322460
2773.62500244,0.03307993
2775.55380981,0.03299101
2777.48261719,0.03282414
2779.41142456,0.03272751
2781.34023193,0.03265176
2783.26903931,0.03252859
2785.19784668,0.03248522
2787.12665405,0.03220482
2789.05546143,0.03208952
2790.98426880,0.03198212
2792.91307617,0.03183939
2794.84188354,0.03180745
2796.77069092,0.03155740
2798.69949829,0.03143333
2800.62830566,0.03139153
2802.55711304,0.03121128
2804.48592041,0.03106662
2806.41472778,0.03094116
2808.34353516,0.03081105
2810.27234253,0.03076664
2812.20114990,0.03058733
2814.12995728,0.03037681
2816.05876465,0.03031418
2817.98757202,0.03020113
2819.91637939,0.03016267
2821.84518677,0.02998695
2823.77399414,0.02981473
2825.70280151,0.02975499
2827.63160889,0.02955098
2829.56041626,0.02947185
2831.48922363,0.02930844
2833.41803101,0.02907389
2835.34683838,0.02905582
2837.27564575,0.02898847
2839.20445312,0.02874179
2841.13326050,0.02857592
2843.06206787,0.02845440
2844.99087524,0.02817169
2846.91968262,0.02794002
2848.84848999,0.02778772
2850.77729736,0.02768263
2852.70610474,0.02760419
2854.63491211,0.02747080
2856.56371948,0.02738162
2858.49252686,0.02731599
2860.42133423,0.02716423
2862.35014160,0.02708465
2864.27894897,0.02701756
2866.20775635,0.02681514
2868.13656372,0.02677751
2870.06537109,0.02663594
2871.99417847,0.02641441
2873.92298584,0.02627357
2875.85179321,0.02609492
2877.78060059,0.02608088
2879.70940796,0.02590296
2881.63821533,0.02582871
2883.56702270,0.02577615
2885.49583008,0.02562901
2887.42463745,0.02566715
2889.35344482,0.02536118
2891.28225220,0.02520822
2893.21105957,0.02516230
2895.13986694,0.02490630
2897.06867432,0.02483559
2898.99748169,0.02473268
2900.92628906,0.02463982
2902.85509644,0.02438619
2904.78390381,0.02407072
2906.71271118,0.02403408
2908.64151855,0.02399286
2910.57032593,0.02384283
2912.49913330,0.02364282
2914.42794067,0.02335953
2916.35674805,0.02319799
2918.28555542,0.02315183
2920.21436279,0.02296339
2922.14317017,0.02290178
2924.07197754,0.02280170
2926.00078491,0.02263097
2927.92959229,0.02261821
2929.85839966,0.02242589
2931.78720703,0.02236104
2933.71601440,0.02239111
2935.64482178,0.02223499
2937.57362915,0.02213091
2939.50243652,0.02198180
2941.43124390,0.02194004
2943.36005127,0.02199303
2945.28885864,0.02173144
2947.21766602,0.02153735
2949.14647339,0.02157693
2951.07528076,0.02138642
2953.00408813,0.02119665
2954.93289551,0.02117880
2956.86170288,0.02113570
2958.79051025,0.02089561
2960.71931763,0.02065941
2962.64812500,0.02068836
2964.57693237,0.02053338
2966.50573975,0.02036271
2968.43454712,0.02032527
2970.36335449,0.02025599
2972.29216187,0.02026620
2974.22096924,0.02011310
2976.14977661,0.02000602
2978.07858398,0.02005398
2980.00739136,0.01987693
2981.93619873,0.01960099
2983.86500610,0.01969566
2985.79381348,0.01969441
2987.72262085,0.01936765
2989.65142822,0.01942147
2991.58023560,0.01934100
2993.50904297,0.01910108
2995.43785034,0.01909705
2997.36665771,0.01895117
2999.29546509,0.01890206
3001.22427246,0.01876472
3003.15307983,0.01859554
3005.08188721,0.01864329
3007.01069458,0.01846709
3008.93950195,0.01829804
3010.86830933,0.01818442
3012.79711670,0.01799749
3014.72592407,0.01804308
3016.65473145,0.01794607
3018.58353882,0.01768988
3020.51234619,0.01769784
3022.44115356,0.01764984
3024.36996094,0.01756834
3026.29876831,0.01751348
3028.22757568,0.01729568
3030.15638306,0.01717443
3032.08519043,0.01710268
3034.01399780,0.01699322
3035.94280518,0.01694898
3037.87161255,0.01682625
3039.80041992,0.01676189
3041.72922729,0.01676519
3043.65803467,0.01657369
3045.58684204,0.01645911
3047.51564941,0.01639406
3049.44445679,0.01627540
3051.37326416,0.01627446
3053.30207153,0.01614149
3055.23087891,0.01598125
3057.15968628,0.01591947
3059.08849365,0.01591853
3061.01730103,0.01583793
3062.94610840,0.01565678
3064.87491577,0.01559642
3066.80372314,0.01543073
3068.73253052,0.01540518
3070.66133789,0.01538912
3072.59014526,0.01522316
3074.51895264,0.01524343
3076.44776001,0.01514556
3078.37656738,0.01505177
3080.30537476,0.01500821
3082.23418213,0.01496390
3084.16298950,0.01487808
3086.09179687,0.01473817
3088.02060425,0.01477393
3089.94941162,0.01468597
3091.87821899,0.01461049
3093.80702637,0.01458917
3095.73583374,0.01446601
3097.66464111,0.01435237
3099.59344849,0.01426475
3101.52225586,0.01425103
3103.45106323,0.01420052
3105.37987061,0.01420562
3107.30867798,0.01409003
3109.23748535,0.01391371
3111.16629272,0.01391642
3113.09510010,0.01386263
3115.02390747,0.01378615
3116.95271484,0.01365322
3118.88152222,0.01355689
3120.81032959,0.01356565
3122.73913696,0.01348533
3124.66794434,0.01340178
3126.59675171,0.01343775
3128.52555908,0.01343611
3130.45436645,0.01332899
3132.38317383,0.01327500
3134.31198120,0.01317791
3136.24078857,0.01310285
3138.16959595,0.01313267
3140.09840332,0.01306187
3142.02721069,0.01290347
3143.95601807,0.01286927
3145.88482544,0.01291112
3147.81363281,0.01283382
3149.74244019,0.01278724
3151.67124756,0.01271691
3153.60005493,0.01263955
3155.52886230,0.01265148
3157.45766968,0.01253824
3159.38647705,0.01251788
3161.31528442,0.01256044
3163.24409180,0.01243337
3165.17289917,0.01242996
3167.10170654,0.01244107
3169.03051392,0.01235297
3170.95932129,0.01238975
3172.88812866,0.01227220
3174.81693604,0.01217007
3176.74574341,0.01224194
3178.67455078,0.01218197
3180.60335815,0.01216577
3182.53216553,0.01204766
3184.46097290,0.01202671
3186.38978027,0.01214921
3188.31858765,0.01199958
3190.24739502,0.01195064
3192.17620239,0.01200475
3194.10500977,0.01202232
3196.03381714,0.01193679
3197.96262451,0.01182853
3199.89143188,0.01195973
3201.82023926,0.01199037
3203.74904663,0.01190367
3205.67785400,0.01188695
3207.60666138,0.01186343
3209.53546875,0.01179287
3211.46427612,0.01179566
3213.39308350,0.01189619
3215.32189087,0.01187062
3217.25069824,0.01183502
3219.17950562,0.01182343
3221.10831299,0.01177050
3223.03712036,0.01192783
3224.96592773,0.01201960
3226.89473511,0.01182732
3228.82354248,0.01181768
3230.75234985,0.01182110
3232.68115723,0.01175641
3234.60996460,0.01190511
3236.53877197,0.01192671
3238.46757935,0.01188604
3240.39638672,0.01189566
3242.32519409,0.01181377
3244.25400146,0.01185854
3246.18280884,0.01191570
3248.11161621,0.01187409
3250.04042358,0.01197512
3251.96923096,0.01198585
3253.89803833,0.01193341
3255.82684570,0.01203617
3257.75565308,0.01200629
3259.68446045,0.01210755
3261.61326782,0.01221442
3263.54207520,0.01214481
3265.47088257,0.01215165
3267.39968994,0.01212416
3269.32849731,0.01219978
3271.25730469,0.01209950
3273.18611206,0.01208035
3275.11491943,0.01229628
3277.04372681,0.01226815
3278.97253418,0.01224811
3280.90134155,0.01226878
3282.83014893,0.01235985
3284.75895630,0.01236323
3286.68776367,0.01238069
3288.61657104,0.01243939
3290.54537842,0.01231336
3292.47418579,0.01238677
3294.40299316,0.01245004
3296.33180054,0.01241474
3298.26060791,0.01240925
3300.18941528,0.01249065
3302.11822266,0.01251830
3304.04703003,0.01242184
3305.97583740,0.01249420
3307.90464478,0.01246512
3309.83345215,0.01253943
3311.76225952,0.01271446
3313.69106689,0.01263907
3315.61987427,0.01253147
3317.54868164,0.01254953
3319.47748901,0.01263695
3321.40629639,0.01262858
3323.33510376,0.01267312
3325.26391113,0.01271350
3327.19271851,0.01271208
3329.12152588,0.01286351
3331.05033325,0.01289296
3332.97914062,0.01273505
3334.90794800,0.01280403
3336.83675537,0.01282565
3338.76556274,0.01268299
3340.69437012,0.01280595
3342.62317749,0.01290695
3344.55198486,0.01299131
3346.48079224,0.01297211
3348.40959961,0.01296017
3350.33840698,0.01309537
3352.26721436,0.01299961
3354.19602173,0.01307504
3356.12482910,0.01316450
3358.05363647,0.01313690
3359.98244385,0.01320929
3361.91125122,0.01333171
3363.84005859,0.01331252
3365.76886597,0.01320357
3367.69767334,0.01333387
3369.62648071,0.01330960
3371.55528809,0.01333820
3373.48409546,0.01342315
3375.41290283,0.01355741
3377.34171020,0.01372056
3379.27051758,0.01363068
3381.19932495,0.01370700
3383.12813232,0.01371290
3385.05693970,0.01373056
3386.98574707,0.01375731
3388.91455444,0.01391851
3390.84336182,0.01399033
3392.77216919,0.01382045
3394.70097656,0.01400847
3396.62978394,0.01399101
3398.55859131,0.01415395
3400.48739868,0.01428320
3402.41620605,0.01416151
3404.34501343,0.01426372
3406.27382080,0.01431217
3408.20262817,0.01451816
3410.13143555,0.01451478
3412.06024292,0.01456275
3413.98905029,0.01462110
3415.91785767,0.01470408
3417.84666504,0.01489751
3419.77547241,0.01479589
3421.70427979,0.01492551
3423.63308716,0.01494005
3425.56189453,0.01493784
3427.49070190,0.01510885
3429.41950928,0.01519887
3431.34831665,0.01520023
3433.27712402,0.01529460
3435.20593140,0.01547908
3437.13473877,0.01540140
3439.06354614,0.01553530
3440.99235352,0.01560173
3442.92116089,0.01566119
3444.84996826,0.01573809
3446.77877563,0.01565466
3448.70758301,0.01579257
3450.63639038,0.01591786
3452.56519775,0.01604179
3454.49400513,0.01608901
3456.42281250,0.01620875
3458.35161987,0.01616036
3460.28042725,0.01625830
3462.20923462,0.01643343
3464.13804199,0.01636574
3466.06684937,0.01653581
3467.99565674,0.01647969
3469.92446411,0.01675131
3471.85327148,0.01683002
3473.78207886,0.01673339
3475.71088623,0.01691525
3477.63969360,0.01686516
3479.56850098,0.01708783
3481.49730835,0.01694650
3483.42611572,0.01714202
3485.35492310,0.01742095
3487.28373047,0.01718713
3489.21253784,0.01738858
3491.14134521,0.01756677
3493.07015259,0.01759358
3494.99895996,0.01758410
3496.92776733,0.01773503
3498.85657471,0.01778142
3500.78538208,0.01787185
3502.71418945,0.01773134
3504.64299683,0.01775876
3506.57180420,0.01829896
3508.50061157,0.01804947
3510.42941895,0.01814562
3512.35822632,0.01833898
3514.28703369,0.01844757
3516.21584106,0.01874191
3518.14464844,0.01861862
3520.07345581,0.01881569
3522.00226318,0.01863817
3523.93107056,0.01860649
3525.85987793,0.01881730
3527.78868530,0.01880964
3529.71749268,0.01906333
3531.64630005,0.01928818
3533.57510742,0.01949913
3535.50391479,0.01932697
3537.43272217,0.01939397
3539.36152954,0.01978878
3541.29033691,0.01981688
3543.21914429,0.01978890
3545.14795166,0.01946298
3547.07675903,0.01921933
3549.00556641,0.01991313
3550.93437378,0.02006574
3552.86318115,0.01967016
3554.79198853,0.02022967
3556.72079590,0.02039549
3558.64960327,0.02032359
3560.57841064,0.02026289
3562.50721802,0.02035197
3564.43602539,0.02054844
3566.36483276,0.01922688
3568.29364014,0.01899576
3570.22244751,0.02057269
3572.15125488,0.02111528
3574.08006226,0.02090338
3576.00886963,0.02105611
3577.93767700,0.02113724
3579.86648437,0.02112841
3581.79529175,0.02118520
3583.72409912,0.02137424
3585.65290649,0.02110780
3587.58171387,0.01955299
3589.51052124,0.02018679
3591.43932861,0.02187753
3593.36813599,0.02128562
3595.29694336,0.02111604
3597.22575073,0.02165615
3599.15455811,0.02185822
3601.08336548,0.02169603
3603.01217285,0.02199977
3604.94098022,0.02233893
3606.86978760,0.02163589
3608.79859497,0.02059558
3610.72740234,0.02112266
3612.65620972,0.02164636
3614.58501709,0.02108567
3616.51382446,0.02269943
3618.44263184,0.02114989
3620.37143921,0.02051445
3622.30024658,0.02307389
3624.22905395,0.02248168
3626.15786133,0.02361674
3628.08666870,0.02024245
3630.01547607,0.01867704
3631.94428345,0.02329857
3633.87309082,0.02279695
3635.80189819,0.02335128
3637.73070557,0.02378724
3639.65951294,0.02361523
3641.58832031,0.02398382
3643.51712769,0.02371356
3645.44593506,0.02410784
3647.37474243,0.02185359
3649.30354980,0.02024869
3651.23235718,0.02064171
3653.16116455,0.02439346
3655.08997192,0.02417704
3657.01877930,0.02199576
3658.94758667,0.02525279
3660.87639404,0.02475064
3662.80520142,0.02520872
3664.73400879,0.02521928
3666.66281616,0.02519116
3668.59162354,0.02452083
3670.52043091,0.02034759
3672.44923828,0.02463097
3674.37804565,0.02343867
3676.30685303,0.01990432
3678.23566040,0.02472421
3680.16446777,0.02508483
3682.09327515,0.02530897
3684.02208252,0.02603922
3685.95088989,0.02573944
3687.87969727,0.02331031
3689.80850464,0.02146299
3691.73731201,0.02443053
3693.66611938,0.02509921
3695.59492676,0.02567680
3697.52373413,0.02562445
3699.45254150,0.02543465
3701.38134888,0.02490393
3703.31015625,0.02407314
3705.23896362,0.02622926
3707.16777100,0.02495374
3709.09657837,0.02449465
3711.02538574,0.02305021
3712.95419312,0.02177903
3714.88300049,0.02522263
3716.81180786,0.02469369
3718.74061523,0.02485860
3720.66942261,0.02432853
3722.59822998,0.02357997
3724.52703735,0.02431239
3726.45584473,0.02269639
3728.38465210,0.02432733
3730.31345947,0.02395196
3732.24226685,0.02228171
3734.17107422,0.02165888
3736.09988159,0.02063801
3738.02868896,0.02172244
3739.95749634,0.02339777
3741.88630371,0.02437395
3743.81511108,0.01912077
3745.74391846,0.01827249
3747.67272583,0.02311043
3749.60153320,0.01998969
3751.53034058,0.01860071
3753.45914795,0.02107920
3755.38795532,0.02259743
3757.31676270,0.02331655
3759.24557007,0.02168539
3761.17437744,0.02246405
3763.10318481,0.02360465
3765.03199219,0.02220205
3766.96079956,0.02257255
3768.88960693,0.02212738
3770.81841431,0.02123428
3772.74722168,0.02286178
3774.67602905,0.02288112
3776.60483643,0.02276101
3778.53364380,0.02213631
3780.46245117,0.02140155
3782.39125854,0.02264328
3784.32006592,0.02213597
3786.24887329,0.02192993
3788.17768066,0.02236994
3790.10648804,0.02217504
3792.03529541,0.02195720
3793.96410278,0.02232947
3795.89291016,0.02096955
3797.82171753,0.02081085
3799.75052490,0.02175504
3801.67933228,0.01751567
3803.60813965,0.02037973
3805.53694702,0.02173463
3807.46575439,0.01807086
3809.39456177,0.02166746
3811.32336914,0.02113554
3813.25217651,0.02178345
3815.18098389,0.01968913
3817.10979126,0.01744235
3819.03859863,0.02162211
3820.96740601,0.01776692
3822.89621338,0.01868613
3824.82502075,0.02136429
3826.75382812,0.01945733
3828.68263550,0.02094368
3830.61144287,0.02006707
3832.54025024,0.01940544
3834.46905762,0.01974385
3836.39786499,0.01875282
3838.32667236,0.01713406
3840.25547974,0.01847619
3842.18428711,0.01970679
3844.11309448,0.01883313
3846.04190186,0.02023299
3847.97070923,0.01983783
3849.89951660,0.01990884
3851.82832397,0.01801465
3853.75713135,0.01374009
3855.68593872,0.01609598
3857.61474609,0.01985178
3859.54355347,0.01929811
3861.47236084,0.01902607
3863.40116821,0.01868155
3865.32997559,0.01750778
3867.25878296,0.01939107
3869.18759033,0.01773657
3871.11639770,0.01648960
3873.04520508,0.01933078
3874.97401245,0.01779278
3876.90281982,0.01913343
3878.83162720,0.01930925
3880.76043457,0.01680310
3882.68924194,0.01929739
3884.61804932,0.01787144
3886.54685669,0.01653882
3888.47566406,0.01915628
3890.40447144,0.01807585
3892.33327881,0.01705217
3894.26208618,0.01850280
3896.19089355,0.01873363
3898.11970093,0.01783987
3900.04850830,0.01700961
3901.97731567,0.01688686
3903.90612305,0.01670349
3905.83493042,0.01696805
3907.76373779,0.01834496
3909.69254517,0.01824874
3911.62135254,0.01810482
3913.55015991,0.01838890
3915.47896728,0.01777749
3917.40777466,0.01726181
3919.33658203,0.01713467
3921.26538940,0.01780511
3923.19419678,0.01768158
3925.12300415,0.01727270
3927.05181152,0.01755065
3928.98061890,0.01770432
3930.90942627,0.01731024
3932.83823364,0.01680316
3934.76704102,0.01747763
3936.69584839,0.01749638
3938.62465576,0.01736173
3940.55346313,0.01744898
3942.48227051,0.01678956
3944.41107788,0.01701805
3946.33988525,0.01727112
3948.26869263,0.01690775
3950.19750000,0.01679835
3952.12630737,0.01700628
3954.05511475,0.01706072
3955.98392212,0.01701890
3957.91272949,0.01693980
3959.84153687,0.01680506
3961.77034424,0.01677877
3963.69915161,0.01673638
3965.62795898,0.01678015
3967.55676636,0.01656594
3969.48557373,0.01664287
3971.41438110,0.01666371
3973.34318848,0.01649014
3975.27199585,0.01650013
3977.20080322,0.01637962
3979.12961060,0.01654923
3981.05841797,0.01637917
3982.98722534,0.01630780
3984.91603271,0.01630943
3986.84484009,0.01621739
3988.77364746,0.01625144
3990.70245483,0.01604785
3992.63126221,0.01617922
3994.56006958,0.01601461
3996.48887695,0.01593627
3998.41768433,0.01605732
4000.34649170,0.01602246
4002.27529907,0.01596200
4004.20410645,0.01580145
4006.13291382,0.01593408
4008.06172119,0.01576436
4009.99052856,0.01570443
4011.91933594,0.01571849
4013.84814331,0.01567036
4015.77695068,0.01567480
4017.70575806,0.01550443
4019.63456543,0.01556117
4021.56337280,0.01550742
4023.49218018,0.01550439
4025.42098755,0.01534320
4027.34979492,0.01526471
4029.27860229,0.01534452
4031.20740967,0.01530199
4033.13621704,0.01540443
4035.06502441,0.01522780
4036.99383179,0.01514403
4038.92263916,0.01513968
4040.85144653,0.01507330
4042.78025391,0.01492569
4044.70906128,0.01493631
4046.63786865,0.01506809
4048.56667603,0.01493622
4050.49548340,0.01491891
4052.42429077,0.01476039
4054.35309814,0.01477224
4056.28190552,0.01470411
4058.21071289,0.01461698
4060.13952026,0.01476350
4062.06832764,0.01460948
4063.99713501,0.01458948
4065.92594238,0.01455716
4067.85474976,0.01455228
4069.78355713,0.01451487
4071.71236450,0.01449475
4073.64117187,0.01448202
4075.56997925,0.01434911
4077.49878662,0.01439901
4079.42759399,0.01428556
4081.35640137,0.01426577
4083.28520874,0.01424368
4085.21401611,0.01417588
4087.14282349,0.01410924
4089.07163086,0.01401488
4091.00043823,0.01403656
4092.92924561,0.01398833
4094.85805298,0.01402946
4096.78686035,0.01391556
4098.71566772,0.01390878
4100.64447510,0.01390195
4102.57328247,0.01385880
4104.50208984,0.01389487
4106.43089722,0.01372849
4108.35970459,0.01378204
4110.28851196,0.01373045
4112.21731934,0.01368283
4114.14612671,0.01370761
4116.07493408,0.01365345
4118.00374145,0.01356298
4119.93254883,0.01343164
4121.86135620,0.01351745
4123.79016357,0.01345638
4125.71897095,0.01346984
4127.64777832,0.01343079
4129.57658569,0.01332436
4131.50539307,0.01339988
4133.43420044,0.01327340
4135.36300781,0.01318309
4137.29181519,0.01322015
4139.22062256,0.01317127
4141.14942993,0.01305189
4143.07823730,0.01305822
4145.00704468,0.01302387
4146.93585205,0.01306142
4148.86465942,0.01303047
4150.79346680,0.01287350
4152.72227417,0.01297179
4154.65108154,0.01289058
4156.57988892,0.01286444
4158.50869629,0.01282394
4160.43750366,0.01271783
4162.36631103,0.01276295
4164.29511841,0.01276665
4166.22392578,0.01272244
4168.15273315,0.01256028
4170.08154053,0.01267749
4172.01034790,0.01259884
4173.93915527,0.01246296
4175.86796265,0.01252628
4177.79677002,0.01239674
4179.72557739,0.01246654
4181.65438477,0.01240482
4183.58319214,0.01237132
4185.51199951,0.01234686
4187.44080688,0.01221918
4189.36961426,0.01231651
4191.29842163,0.01229915
4193.22722900,0.01227536
4195.15603638,0.01222626
4197.08484375,0.01209883
4199.01365112,0.01211078
4200.94245850,0.01211443
4202.87126587,0.01200856
4204.80007324,0.01204702
4206.72888062,0.01201074
4208.65768799,0.01189981
4210.58649536,0.01195308
4212.51530273,0.01182272
4214.44411011,0.01179486
4216.37291748,0.01183072
4218.30172485,0.01177908
4220.23053223,0.01175796
4222.15933960,0.01163699
4224.08814697,0.01164216
4226.01695435,0.01168964
4227.94576172,0.01164847
4229.87456909,0.01159281
4231.80337646,0.01155210
4233.73218384,0.01151621
4235.66099121,0.01151125
4237.58979858,0.01145260
4239.51860596,0.01143324
4241.44741333,0.01140523
4243.37622070,0.01132386
4245.30502808,0.01145056
4247.23383545,0.01135066
4249.16264282,0.01126594
4251.09145020,0.01130009
4253.02025757,0.01127234
4254.94906494,0.01122494
4256.87787231,0.01104010
4258.80667969,0.01121164
4260.73548706,0.01113821
4262.66429443,0.01099350
4264.59310181,0.01110853
4266.52190918,0.01101706
4268.45071655,0.01105951
4270.37952393,0.01093382
4272.30833130,0.01092618
4274.23713867,0.01097074
4276.16594604,0.01083157
4278.09475342,0.01089593
4280.02356079,0.01085431
4281.95236816,0.01074932
4283.88117554,0.01069698
4285.80998291,0.01070707
4287.73879028,0.01069075
4289.66759766,0.01068352
4291.59640503,0.01069117
4293.52521240,0.01060314
4295.45401978,0.01056477
4297.38282715,0.01053552
4299.31163452,0.01055729
4301.24044189,0.01060369
4303.16924927,0.01059878
4305.09805664,0.01049121
4307.02686401,0.01039511
4308.95567139,0.01040084
4310.88447876,0.01040383
4312.81328613,0.01038834
4314.74209351,0.01037202
4316.67090088,0.01034605
4318.59970825,0.01023221
4320.52851562,0.01020690
4322.45732300,0.01021581
4324.38613037,0.01020072
4326.31493774,0.01017959
4328.24374512,0.01011166
4330.17255249,0.01008618
4332.10135986,0.01006831
4334.03016724,0.01007415
4335.95897461,0.00999187
4337.88778198,0.00999320
4339.81658936,0.00997202
4341.74539673,0.00994459
4343.67420410,0.00998917
4345.60301147,0.00987326
4347.53181885,0.00989774
4349.46062622,0.00988003
4351.38943359,0.00985387
4353.31824097,0.00977018
4355.24704834,0.00971599
4357.17585571,0.00983759
4359.10466309,0.00975100
4361.03347046,0.00974654
4362.96227783,0.00966476
4364.89108520,0.00963945
4366.81989258,0.00965789
4368.74869995,0.00959954
4370.67750732,0.00964155
4372.60631470,0.00951381
4374.53512207,0.00953578
4376.46392944,0.00949504
4378.39273682,0.00941860
4380.32154419,0.00945180
4382.25035156,0.00944491
4384.17915894,0.00944235
4386.10796631,0.00931155
4388.03677368,0.00933942
4389.96558105,0.00931608
4391.89438843,0.00924967
4393.82319580,0.00926218
4395.75200317,0.00920913
4397.68081055,0.00924218
4399.60961792,0.00928496
4401.53842529,0.00920606
4403.46723267,0.00908142
4405.39604004,0.00909174
4407.32484741,0.00909416
4409.25365478,0.00911126
4411.18246216,0.00901255
4413.11126953,0.00892860
4415.04007690,0.00900858
4416.96888428,0.00894627
4418.89769165,0.00889924
4420.82649902,0.00888096
4422.75530640,0.00895010
4424.68411377,0.00889976
4426.61292114,0.00887438
4428.54172852,0.00892403
4430.47053589,0.00878752
4432.39934326,0.00876273
4434.32815063,0.00868462
4436.25695801,0.00868452
4438.18576538,0.00865553
4440.11457275,0.00862906
4442.04338013,0.00866616
4443.97218750,0.00858534
4445.90099487,0.00861368
4447.82980225,0.00858395
4449.75860962,0.00855899
4451.68741699,0.00847592
4453.61622437,0.00854601
4455.54503174,0.00849433
4457.47383911,0.00834559
4459.40264648,0.00849926
4461.33145386,0.00836396
4463.26026123,0.00832705
4465.18906860,0.00835540
4467.11787598,0.00836212
4469.04668335,0.00831548
4470.97549072,0.00822223
4472.90429810,0.00832004
4474.83310547,0.00816268
4476.76191284,0.00819391
4478.69072021,0.00820705
4480.61952759,0.00820970
4482.54833496,0.00825902
4484.47714233,0.00804166
4486.40594971,0.00810223
4488.33475708,0.00817562
4490.26356445,0.00809936
4492.19237183,0.00797828
4494.12117920,0.00801384
4496.04998657,0.00805322
4497.97879395,0.00795857
4499.90760132,0.00794833
4501.83640869,0.00787273
4503.76521606,0.00784734
4505.69402344,0.00781720
4507.62283081,0.00788899
4509.55163818,0.00787935
4511.48044556,0.00780424
4513.40925293,0.00782116
4515.33806030,0.00778364
4517.26686768,0.00774742
4519.19567505,0.00767426
4521.12448242,0.00782034
4523.05328979,0.00777884
4524.98209717,0.00767332
4526.91090454,0.00767968
4528.83971191,0.00759862
4530.76851929,0.00765689
4532.69732666,0.00757000
4534.62613403,0.00762454
4536.55494141,0.00761647
4538.48374878,0.00749089
4540.41255615,0.00754129
4542.34136353,0.00751089
4544.27017090,0.00748037
4546.19897827,0.00745679
4548.12778564,0.00747633
4550.05659302,0.00739246
4551.98540039,0.00738702
4553.91420776,0.00739404
4555.84301514,0.00739496
4557.77182251,0.00743284
4559.70062988,0.00729153
4561.62943726,0.00728711
4563.55824463,0.00721496
4565.48705200,0.00726070
4567.41585937,0.00729722
4569.34466675,0.00719214
4571.27347412,0.00726066
4573.20228149,0.00718772
4575.13108887,0.00718038
4577.05989624,0.00716282
4578.98870361,0.00711757
4580.91751099,0.00712088
4582.84631836,0.00704040
4584.77512573,0.00699661
4586.70393311,0.00704266
4588.63274048,0.00709776
4590.56154785,0.00697612
4592.49035522,0.00694595
4594.41916260,0.00693544
4596.34796997,0.00689768
4598.27677734,0.00690981
4600.20558472,0.00686038
4602.13439209,0.00685996
4604.06319946,0.00683806
4605.99200684,0.00681203
4607.92081421,0.00680904
4609.84962158,0.00686476
4611.77842895,0.00679672
4613.70723633,0.00672533
4615.63604370,0.00674825
4617.56485107,0.00668310
4619.49365845,0.00671139
4621.42246582,0.00671882
4623.35127319,0.00668352
4625.28008057,0.00659236
4627.20888794,0.00661208
4629.13769531,0.00667141
4631.06650269,0.00659858
4632.99531006,0.00661760
4634.92411743,0.00655291
4636.85292480,0.00648387
4638.78173218,0.00645871
4640.71053955,0.00651917
4642.63934692,0.00646152
4644.56815430,0.00636714
4646.49696167,0.00654023
4648.42576904,0.00650227
4650.35457642,0.00647760
4652.28338379,0.00647738
4654.21219116,0.00635580
4656.14099853,0.00639978
4658.06980591,0.00640749
4659.99861328,0.00629998
4661.92742065,0.00625454
4663.85622803,0.00631057
4665.78503540,0.00631060
4667.71384277,0.00628618
4669.64265015,0.00623969
4671.57145752,0.00621802
4673.50026489,0.00620083
4675.42907227,0.00617803
4677.35787964,0.00621643
4679.28668701,0.00615840
4681.21549438,0.00614370
4683.14430176,0.00617421
4685.07310913,0.00615720
4687.00191650,0.00608269
4688.93072388,0.00607566
4690.85953125,0.00609166
4692.78833862,0.00603531
4694.71714600,0.00601724
4696.64595337,0.00594656
4698.57476074,0.00599828
4700.50356812,0.00594947
4702.43237549,0.00589394
4704.36118286,0.00593873
4706.28999023,0.00586433
4708.21879761,0.00593210
4710.14760498,0.00587982
4712.07641235,0.00581784
4714.00521973,0.00581581
4715.93402710,0.00578145
4717.86283447,0.00584528
4719.79164185,0.00590308
4721.72044922,0.00591087
4723.64925659,0.00577542
4725.57806396,0.00572161
4727.50687134,0.00573424
4729.43567871,0.00574696
4731.36448608,0.00568462
4733.29329346,0.00568454
4735.22210083,0.00574942
4737.15090820,0.00563195
4739.07971558,0.00566842
4741.00852295,0.00567218
4742.93733032,0.00568500
4744.86613770,0.00562715
4746.79494507,0.00555515
4748.72375244,0.00566321
4750.65255981,0.00557427
4752.58136719,0.00559726
4754.51017456,0.00551303
4756.43898193,0.00541670
4758.36778931,0.00548009
4760.29659668,0.00544132
4762.22540405,0.00549694
4764.15421143,0.00548874
4766.08301880,0.00545892
4768.01182617,0.00541934
4769.94063354,0.00542330
4771.86944092,0.00545108
4773.79824829,0.00541874
4775.72705566,0.00534591
4777.65586304,0.00533843
4779.58467041,0.00542809
4781.51347778,0.00531399
4783.44228516,0.00526987
4785.37109253,0.00525953
4787.29989990,0.00526778
4789.22870728,0.00526932
4791.15751465,0.00518898
4793.08632202,0.00523631
4795.01512939,0.00517693
4796.94393677,0.00524492
4798.87274414,0.00523172
4800.80155151,0.00510744
4802.73035889,0.00520849
4804.65916626,0.00521940
4806.58797363,0.00511650
4808.51678101,0.00507378
4810.44558838,0.00516092
4812.37439575,0.00513077
4814.30320312,0.00509502
4816.23201050,0.00506882
4818.16081787,0.00502165
4820.08962524,0.00511792
4822.01843262,0.00508176
4823.94723999,0.00499350
4825.87604736,0.00500914
4827.80485474,0.00501883
4829.73366211,0.00495560
4831.66246948,0.00504488
4833.59127686,0.00502857
4835.52008423,0.00487280
4837.44889160,0.00490097
4839.37769897,0.00487335
4841.30650635,0.00491337
4843.23531372,0.00485724
4845.16412109,0.00486648
4847.09292847,0.00491028
4849.02173584,0.00481578
4850.95054321,0.00487129
4852.87935059,0.00478481
4854.80815796,0.00482546
4856.73696533,0.00478764
4858.66577270,0.00465877
4860.59458008,0.00476562
4862.52338745,0.00474261
4864.45219482,0.00473840
4866.38100220,0.00471190
4868.30980957,0.00472022
4870.23861694,0.00475086
4872.16742432,0.00466753
4874.09623169,0.00463566
4876.02503906,0.00465368
4877.95384644,0.00464595
4879.88265381,0.00462495
4881.81146118,0.00463230
4883.74026855,0.00457616
4885.66907593,0.00458759
4887.59788330,0.00456014
4889.52669067,0.00451572
4891.45549805,0.00455999
4893.38430542,0.00455109
4895.31311279,0.00449044
4897.24192017,0.00441273
4899.17072754,0.00448696
4901.09953491,0.00445910
4903.02834228,0.00440304
4904.95714966,0.00441502
4906.88595703,0.00440318
4908.81476440,0.00442705
4910.74357178,0.00431636
4912.67237915,0.00435248
4914.60118652,0.00437845
4916.52999390,0.00435735
4918.45880127,0.00438293
4920.38760864,0.00430952
4922.31641602,0.00436383
4924.24522339,0.00431351
4926.17403076,0.00422059
4928.10283813,0.00428665
4930.03164551,0.00427206
4931.96045288,0.00422996
4933.88926025,0.00429479
4935.81806763,0.00423751
4937.74687500,0.00425039
4939.67568237,0.00430711
4941.60448975,0.00413646
4943.53329712,0.00421270
4945.46210449,0.00420091
4947.39091187,0.00409898
4949.31971924,0.00416487
4951.24852661,0.00412621
4953.17733398,0.00418711
4955.10614136,0.00415500
4957.03494873,0.00413958
4958.96375610,0.00419360
4960.89256348,0.00412194
4962.82137085,0.00404145
4964.75017822,0.00404384
4966.67898560,0.00406227
4968.60779297,0.00400085
4970.53660034,0.00403236
4972.46540771,0.00399926
4974.39421509,0.00401014
4976.32302246,0.00400033
4978.25182983,0.00398647
4980.18063721,0.00407531
4982.10944458,0.00394399
4984.03825195,0.00393582
4985.96705933,0.00394176
4987.89586670,0.00390926
4989.82467407,0.00393840
4991.75348145,0.00392115
4993.68228882,0.00389493
4995.61109619,0.00385154
4997.53990356,0.00397311
4999.46871094,0.00385239
5001.39751831,0.00376160
5003.32632568,0.00385978
5005.25513306,0.00382300
5007.18394043,0.00388408
5009.11274780,0.00385337
5011.04155518,0.00385289
5012.97036255,0.00377950
5014.89916992,0.00369155
5016.82797729,0.00377911
5018.75678467,0.00377119
5020.68559204,0.00378924
5022.61439941,0.00370624
5024.54320679,0.00369052
5026.47201416,0.00378579
5028.40082153,0.00369628
5030.32962891,0.00362220
5032.25843628,0.00365050
5034.18724365,0.00372119
5036.11605103,0.00368698
5038.04485840,0.00362569
5039.97366577,0.00366489
5041.90247314,0.00363321
5043.83128052,0.00360487
5045.76008789,0.00358929
5047.68889526,0.00355637
5049.61770264,0.00360209
5051.54651001,0.00354931
5053.47531738,0.00350012
5055.40412476,0.00354522
5057.33293213,0.00353552
5059.26173950,0.00351162
5061.19054687,0.00345651
5063.11935425,0.00348441
5065.04816162,0.00351613
5066.97696899,0.00350719
5068.90577637,0.00351740
5070.83458374,0.00343003
5072.76339111,0.00339836
5074.69219849,0.00343546
5076.62100586,0.00351224
5078.54981323,0.00352434
5080.47862061,0.00342143
5082.40742798,0.00339708
5084.33623535,0.00340501
5086.26504272,0.00338795
5088.19385010,0.00336521
5090.12265747,0.00338274
5092.05146484,0.00339900
5093.98027222,0.00339791
5095.90907959,0.00335477
5097.83788696,0.00328384
5099.76669434,0.00331455
5101.69550171,0.00332271
5103.62430908,0.00328028
5105.55311645,0.00330939
5107.48192383,0.00333823
5109.41073120,0.00328104
5111.33953857,0.00328326
5113.26834595,0.00331838
5115.19715332,0.00328531
5117.12596069,0.00324464
5119.05476807,0.00322013
5120.98357544,0.00324666
5122.91238281,0.00323158
5124.84119019,0.00320624
5126.76999756,0.00313068
5128.69880493,0.00313131
5130.62761230,0.00319710
5132.55641968,0.00310757
5134.48522705,0.00316348
5136.41403442,0.00319201
5138.34284180,0.00314861
5140.27164917,0.00312418
5142.20045654,0.00302234
5144.12926392,0.00307679
5146.05807129,0.00314219
5147.98687866,0.00310794
5149.91568603,0.00311303
5151.84449341,0.00318243
5153.77330078,0.00307431
5155.70210815,0.00302483
5157.63091553,0.00305849
5159.55972290,0.00292439
5161.48853027,0.00309281
5163.41733765,0.00311243
5165.34614502,0.00295597
5167.27495239,0.00306261
5169.20375977,0.00300463
5171.13256714,0.00293284
5173.06137451,0.00294293
5174.99018188,0.00293399
5176.91898926,0.00297593
5178.84779663,0.00298450
5180.77660400,0.00291870
5182.70541138,0.00290657
5184.63421875,0.00296499
5186.56302612,0.00294237
5188.49183350,0.00290035
5190.42064087,0.00293602
5192.34944824,0.00294416
5194.27825562,0.00285316
5196.20706299,0.00286384
5198.13587036,0.00285285
5200.06467773,0.00280322
5201.99348511,0.00287923
5203.92229248,0.00287463
5205.85109985,0.00277119
5207.77990723,0.00272694
5209.70871460,0.00280990
5211.63752197,0.00276192
5213.56632935,0.00280228
5215.49513672,0.00288967
5217.42394409,0.00276576
5219.35275146,0.00285934
5221.28155884,0.00286558
5223.21036621,0.00279905
5225.13917358,0.00277134
5227.06798096,0.00270518
5228.99678833,0.00276156
5230.92559570,0.00271353
5232.85440308,0.00272707
5234.78321045,0.00271458
5236.71201782,0.00269347
5238.64082520,0.00275696
5240.56963257,0.00272177
5242.49843994,0.00265269
5244.42724731,0.00264634
5246.35605469,0.00272995
5248.28486206,0.00265180
5250.21366943,0.00270137
5252.14247681,0.00280528
5254.07128418,0.00265502
5256.00009155,0.00258839
5257.92889893,0.00258517
5259.85770630,0.00263448
5261.78651367,0.00268150
5263.71532104,0.00262302
5265.64412842,0.00256301
5267.57293579,0.00263842
5269.50174316,0.00262365
5271.43055054,0.00254463
5273.35935791,0.00260257
5275.28816528,0.00252605
5277.21697266,0.00256803
5279.14578003,0.00258240
5281.07458740,0.00254129
5283.00339478,0.00262115
5284.93220215,0.00254980
5286.86100952,0.00257686
5288.78981689,0.00248779
5290.71862427,0.00242841
5292.64743164,0.00255509
5294.57623901,0.00253070
5296.50504639,0.00249974
5298.43385376,0.00241913
5300.36266113,0.00252324
5302.29146851,0.00261696
5304.22027588,0.00249734
5306.14908325,0.00248929
5308.07789062,0.00244749
5310.00669800,0.00248227
5311.93550537,0.00253360
5313.86431274,0.00249363
5315.79312012,0.00245915
5317.72192749,0.00240553
5319.65073486,0.00243209
5321.57954224,0.00238221
5323.50834961,0.00238770
5325.43715698,0.00241829
5327.36596436,0.00232875
5329.29477173,0.00238614
5331.22357910,0.00242513
5333.15238647,0.00243402
5335.08119385,0.00239689
5337.01000122,0.00233303
5338.93880859,0.00237789
5340.86761597,0.00236168
5342.79642334,0.00238199
5344.72523071,0.00234061
5346.65403809,0.00228847
5348.58284546,0.00230615
5350.51165283,0.00230294
5352.44046020,0.00233879
5354.36926758,0.00230916
5356.29807495,0.00231804
5358.22688232,0.00229441
5360.15568970,0.00228749
5362.08449707,0.00232737
5364.01330444,0.00225560
5365.94211182,0.00218218
5367.87091919,0.00222642
5369.79972656,0.00234367
5371.72853394,0.00226099
5373.65734131,0.00228473
5375.58614868,0.00230522
5377.51495605,0.00220754
5379.44376343,0.00227778
5381.37257080,0.00222763
5383.30137817,0.00225321
5385.23018555,0.00220517
5387.15899292,0.00216061
5389.08780029,0.00224242
5391.01660767,0.00218186
5392.94541504,0.00218947
5394.87422241,0.00211581
5396.80302978,0.00214221
5398.73183716,0.00212365
5400.66064453,0.00210984
5402.58945190,0.00223952
5404.51825928,0.00213095
5406.44706665,0.00219191
5408.37587402,0.00222503
5410.30468140,0.00214691
5412.23348877,0.00212412
5414.16229614,0.00199444
5416.09110352,0.00205469
5418.01991089,0.00214470
5419.94871826,0.00212514
5421.87752563,0.00213397
5423.80633301,0.00206504
5425.73514038,0.00202528
5427.66394775,0.00210926
5429.59275513,0.00202095
5431.52156250,0.00200095
5433.45036987,0.00207641
5435.37917725,0.00194838
5437.30798462,0.00201074
5439.23679199,0.00205333
5441.16559936,0.00202668
5443.09440674,0.00206936
5445.02321411,0.00198272
5446.95202148,0.00198780
5448.88082886,0.00198170
5450.80963623,0.00194533
5452.73844360,0.00201630
5454.66725098,0.00205781
5456.59605835,0.00198815
5458.52486572,0.00199778
5460.45367310,0.00202771
5462.38248047,0.00196238
5464.31128784,0.00198927
5466.24009521,0.00188481
5468.16890259,0.00188004
5470.09770996,0.00202553
5472.02651733,0.00192660
5473.95532471,0.00189906
5475.88413208,0.00192356
5477.81293945,0.00188928
5479.74174683,0.00196442
5481.67055420,0.00196209
5483.59936157,0.00190798
5485.52816895,0.00195294
5487.45697632,0.00189341
5489.38578369,0.00188681
5491.31459106,0.00195686
5493.24339844,0.00190534
5495.17220581,0.00193554
5497.10101318,0.00188331
5499.02982056,0.00183744
5500.95862793,0.00190189
5502.88743530,0.00189000
5504.81624268,0.00185726
5506.74505005,0.00178658
5508.67385742,0.00185884
5510.60266479,0.00186757
5512.53147217,0.00179249
5514.46027954,0.00186214
5516.38908691,0.00182911
5518.31789429,0.00181453
5520.24670166,0.00182414
5522.17550903,0.00177523
5524.10431641,0.00177349
5526.03312378,0.00178457
5527.96193115,0.00183186
5529.89073853,0.00186885
5531.81954590,0.00180424
5533.74835327,0.00171695
5535.67716064,0.00177598
5537.60596802,0.00179602
5539.53477539,0.00171859
5541.46358276,0.00176969
5543.39239014,0.00176786
5545.32119751,0.00171538
5547.25000488,0.00175624
5549.17881226,0.00174804
5551.10761963,0.00171855
5553.03642700,0.00172132
5554.96523437,0.00174341
5556.89404175,0.00172626
5558.82284912,0.00168699
5560.75165649,0.00175047
5562.68046387,0.00173443
5564.60927124,0.00165611
5566.53807861,0.00170521
5568.46688599,0.00172545
5570.39569336,0.00167636
5572.32450073,0.00166919
5574.25330811,0.00169921
5576.18211548,0.00169836
5578.11092285,0.00167980
5580.03973022,0.00167076
5581.96853760,0.00165559
5583.89734497,0.00167166
5585.82615234,0.00171159
5587.75495972,0.00168981
5589.68376709,0.00162780
5591.61257446,0.00163702
5593.54138184,0.00164805
5595.47018921,0.00163905
5597.39899658,0.00165463
5599.32780395,0.00162201
5601.25661133,0.00156793
5603.18541870,0.00156795
5605.11422607,0.00160490
5607.04303345,0.00163501
5608.97184082,0.00162656
5610.90064819,0.00155463
5612.82945557,0.00155267
5614.75826294,0.00157428
5616.68707031,0.00155309
5618.61587769,0.00158850
5620.54468506,0.00156376
5622.47349243,0.00153743
5624.40229980,0.00153340
5626.33110718,0.00156851
5628.25991455,0.00158827
5630.18872192,0.00150245
5632.11752930,0.00153330
5634.04633667,0.00155933
5635.97514404,0.00155249
5637.90395142,0.00154647
5639.83275879,0.00150263
5641.76156616,0.00151260
5643.69037353,0.00148665
5645.61918091,0.00147356
5647.54798828,0.00149733
5649.47679565,0.00150781
5651.40560303,0.00150404
5653.33441040,0.00149084
5655.26321777,0.00142358
5657.19202515,0.00146481
5659.12083252,0.00150181
5661.04963989,0.00138191
5662.97844727,0.00148482
5664.90725464,0.00146415
5666.83606201,0.00140753
5668.76486938,0.00154164
5670.69367676,0.00147334
5672.62248413,0.00145365
5674.55129150,0.00146668
5676.48009888,0.00145154
5678.40890625,0.00141463
5680.33771362,0.00139665
5682.26652100,0.00141840
5684.19532837,0.00138527
5686.12413574,0.00143837
5688.05294311,0.00140072
5689.98175049,0.00142994
5691.91055786,0.00146571
5693.83936523,0.00140680
5695.76817261,0.00142248
5697.69697998,0.00139094
5699.62578735,0.00144192
5701.55459473,0.00139428
5703.48340210,0.00135681
5705.41220947,0.00139173
5707.34101685,0.00131065
5709.26982422,0.00134638
5711.19863159,0.00132951
5713.12743896,0.00131705
5715.05624634,0.00140149
5716.98505371,0.00136225
5718.91386108,0.00133165
5720.84266846,0.00137107
5722.77147583,0.00133591
5724.70028320,0.00129003
5726.62909058,0.00130273
5728.55789795,0.00128718
5730.48670532,0.00128009
5732.41551270,0.00126078
5734.34432007,0.00127499
5736.27312744,0.00134637
5738.20193481,0.00131262
5740.13074219,0.00127978
5742.05954956,0.00133318
5743.98835693,0.00134182
5745.91716431,0.00130442
5747.84597168,0.00127882
5749.77477905,0.00125968
5751.70358643,0.00123475
5753.63239380,0.00128483
5755.56120117,0.00133057
5757.49000854,0.00125206
5759.41881592,0.00129189
5761.34762329,0.00124533
5763.27643066,0.00119783
5765.20523804,0.00135073
5767.13404541,0.00122099
5769.06285278,0.00124396
5770.99166016,0.00128101
5772.92046753,0.00115530
5774.84927490,0.00129271
5776.77808228,0.00119099
5778.70688965,0.00116146
5780.63569702,0.00123058
5782.56450439,0.00116693
5784.49331177,0.00121590
5786.42211914,0.00120695
5788.35092651,0.00123581
5790.27973389,0.00120782
5792.20854126,0.00117720
5794.13734863,0.00112721
5796.06615601,0.00110400
5797.99496338,0.00119022
5799.92377075,0.00117043
5801.85257812,0.00120229
5803.78138550,0.00115277
5805.71019287,0.00111040
5807.63900024,0.00116579
5809.56780762,0.00115772
5811.49661499,0.00111944
5813.42542236,0.00109869
5815.35422974,0.00115443
5817.28303711,0.00111867
5819.21184448,0.00111056
5821.14065186,0.00113244
5823.06945923,0.00108731
5824.99826660,0.00109876
5826.92707397,0.00116801
5828.85588135,0.00119974
5830.78468872,0.00115398
5832.71349609,0.00112009
5834.64230347,0.00105764
5836.57111084,0.00114094
5838.49991821,0.00120225
5840.42872559,0.00111383
5842.35753296,0.00109032
5844.28634033,0.00105852
5846.21514770,0.00107473
5848.14395508,0.00106327
5850.07276245,0.00110897
5852.00156982,0.00113375
5853.93037720,0.00107401
5855.85918457,0.00106017
5857.78799194,0.00105048
5859.71679932,0.00111819
5861.64560669,0.00102242
5863.57441406,0.00102996
5865.50322144,0.00117423
5867.43202881,0.00108505
5869.36083618,0.00104490
5871.28964355,0.00110182
5873.21845093,0.00110917
5875.14725830,0.00101405
5877.07606567,0.00099560
5879.00487305,0.00101595
5880.93368042,0.00099765
5882.86248779,0.00102886
5884.79129517,0.00099709
5886.72010254,0.00101786
5888.64890991,0.00106061
5890.57771728,0.00107516
5892.50652466,0.00106997
5894.43533203,0.00101614
5896.36413940,0.00096479
5898.29294678,0.00097894
5900.22175415,0.00104919
5902.15056152,0.00101643
5904.07936890,0.00101489
5906.00817627,0.00101849
5907.93698364,0.00094655
5909.86579102,0.00099215
5911.79459839,0.00103527
5913.72340576,0.00094285
5915.65221313,0.00094310
5917.58102051,0.00100003
5919.50982788,0.00094996
5921.43863525,0.00097549
5923.36744263,0.00097520
5925.29625000,0.00096185
5927.22505737,0.00099608
5929.15386475,0.00100508
5931.08267212,0.00102073
5933.01147949,0.00094271
5934.94028686,0.00092438
5936.86909424,0.00091190
5938.79790161,0.00093012
5940.72670898,0.00099088
5942.65551636,0.00094849
5944.58432373,0.00094365
5946.51313110,0.00093208
5948.44193848,0.00095463
5950.37074585,0.00095282
5952.29955322,0.00098187
5954.22836060,0.00097919
5956.15716797,0.00087792
5958.08597534,0.00092039
5960.01478271,0.00091229
5961.94359009,0.00089106
5963.87239746,0.00090378
5965.80120483,0.00091255
5967.73001221,0.00088457
5969.65881958,0.00086136
5971.58762695,0.00093241
5973.51643433,0.00086126
5975.44524170,0.00086895
5977.37404907,0.00092520
5979.30285645,0.00095387
5981.23166382,0.00093271
5983.16047119,0.00079589
5985.08927856,0.00089745
5987.01808594,0.00091868
5988.94689331,0.00087553
5990.87570068,0.00094278
5992.80450806,0.00088708
5994.73331543,0.00086199
5996.66212280,0.00082977
5998.59093018,0.00081814
6000.51973755,0.00084540
