399.26312622,0.00045686
401.19193359,0.00134928
403.12074097,0.00166247
405.04954834,0.00174417
406.97835571,0.00235374
408.90716309,0.00140416
410.83597046,0.00169764
412.76477783,0.00178674
414.69358521,0.00134681
416.62239258,0.00146003
418.55119995,0.00130802
420.48000732,0.00152456
422.40881470,0.00180715
424.33762207,0.00208923
426.26642944,0.00184955
428.19523682,0.00212172
430.12404419,0.00198750
432.05285156,0.00149890
433.98165894,0.00230454
435.91046631,0.00210140
437.83927368,0.00199705
439.76808105,0.00183541
441.69688843,0.00123865
443.62569580,0.00152993
445.55450317,0.00120804
447.48331055,0.00132104
449.41211792,0.00137037
451.34092529,0.00124219
453.26973267,0.00168348
455.19854004,0.00091541
457.12734741,0.00062599
459.05615479,0.00118899
460.98496216,0.00110582
462.91376953,0.00115579
464.84257690,0.00110675
466.77138428,0.00081849
468.70019165,0.00080872
470.62899902,0.00086001
472.55780640,0.00065161
474.48661377,0.00037786
476.41542114,0.00062550
478.34422852,0.00052088
480.27303589,0.00013836
482.20184326,0.00056187
484.13065063,0.00038666
486.05945801,-0.00000209
487.98826538,0.00051385
489.91707275,0.00074111
491.84588013,0.00070330
493.77468750,0.00030072
495.70349487,0.00011913
497.63230225,0.00065058
499.56110962,0.00045268
501.48991699,0.00048248
503.41872437,0.00069952
505.34753174,0.00027156
507.27633911,0.00027600
509.20514648,-0.00002763
511.13395386,-0.00010650
513.06276123,0.00014757
514.99156860,0.00000260
516.92037598,0.00019794
518.84918335,0.00048045
520.77799072,0.00030996
522.70679810,-0.00030040
524.63560547,0.00012180
526.56441284,0.00081446
528.49322021,0.00020707
530.42202759,-0.00013190
532.35083496,0.00034855
534.27964233,0.00060315
536.20844971,0.00033786
538.13725708,0.00020292
540.06606445,0.00006521
541.99487183,0.00013984
543.92367920,0.00028499
545.85248657,0.00027582
547.78129395,0.00018745
549.71010132,0.00011216
551.63890869,0.00039028
553.56771606,0.00002845
555.49652344,0.00062080
557.42533081,0.00104789
559.35413818,0.00017381
561.28294556,0.00050548
563.21175293,0.00049673
565.14056030,0.00013957
567.06936768,-0.00000921
568.99817505,0.00032225
570.92698242,0.00045110
572.85578979,-0.00005493
574.78459717,0.00041604
576.71340454,-0.00008963
578.64221191,-0.00029922
580.57101929,0.00030849
582.49982666,0.00031585
584.42863403,0.00029086
586.35744141,0.00007826
588.28624878,0.00054323
590.21505615,0.00048255
592.14386353,0.00024428
594.07267090,0.00056797
596.00147827,0.00075361
597.93028564,0.00055788
599.85909302,-0.00000562
601.78790039,0.00031553
603.71670776,0.00019677
605.64551514,0.00019779
607.57432251,0.00033312
609.50312988,-0.00005723
611.43193726,0.00025869
613.36074463,0.00023648
615.28955200,0.00025861
617.21835938,0.00036609
619.14716675,-0.00003189
621.07597412,0.00004583
623.00478149,0.00031331
624.93358887,-0.00036095
626.86239624,-0.00020572
628.79120361,0.00005285
630.72001099,-0.00008397
632.64881836,0.00088005
634.57762573,0.00120198
636.50643311,0.00123694
638.43524048,0.00143998
640.36404785,0.00152323
642.29285522,0.00201189
644.22166260,0.00211465
646.15046997,0.00208058
648.07927734,0.00225721
650.00808472,0.00228871
651.93689209,0.00236537
653.86569946,0.00290308
655.79450684,0.00289070
657.72331421,0.00275543
659.65212158,0.00338433
661.58092896,0.00343181
663.50973633,0.00355020
665.43854370,0.00357229
667.36735107,0.00326927
669.29615845,0.00375744
671.22496582,0.00416650
673.15377319,0.00418381
675.08258057,0.00448858
677.01138794,0.00506186
678.94019531,0.00495998
680.86900269,0.00477721
682.79781006,0.00528597
684.72661743,0.00531239
686.65542480,0.00473830
688.58423218,0.00471466
690.51303955,0.00508036
692.44184692,0.00513561
694.37065430,0.00577061
696.29946167,0.00642457
698.22826904,0.00736113
700.15707642,0.00836712
702.08588379,0.00759863
704.01469116,0.00723666
705.94349854,0.00676067
707.87230591,0.00542468
709.80111328,0.00445384
711.72992065,0.00295407
713.65872803,0.00189312
715.58753540,0.00082650
717.51634277,0.00007850
719.44515015,0.00008523
721.37395752,-0.00016513
723.30276489,0.00011939
725.23157227,0.00003800
727.16037964,-0.00002321
729.08918701,0.00006814
731.01799438,-0.00048329
732.94680176,-0.00042325
734.87560913,-0.00003418
736.80441650,0.00003098
738.73322388,-0.00016585
740.66203125,0.00008138
742.59083862,0.00016842
744.51964600,-0.00015226
746.44845337,0.00016384
748.37726074,0.00062464
750.30606812,0.00058799
752.23487549,0.00000167
754.16368286,0.00031861
756.09249023,0.00039219
758.02129761,0.00021541
759.95010498,0.00029256
761.87891235,-0.00002250
763.80771973,0.00031359
765.73652710,0.00031919
767.66533447,0.00027419
769.59414185,0.00034932
771.52294922,0.00003949
773.45175659,0.00031992
775.38056396,0.00041061
777.30937134,0.00030159
779.23817871,0.00050974
781.16698608,0.00068565
783.09579346,0.00057728
785.02460083,0.00035292
786.95340820,0.00051147
788.88221558,0.00070252
790.81102295,0.00060976
792.73983032,0.00040896
794.66863770,0.00029512
796.59744507,0.00059825
798.52625244,0.00098665
800.45505981,0.00112184
802.38386719,0.00120334
804.31267456,0.00109971
806.24148193,0.00090672
808.17028931,0.00086047
810.09909668,0.00054908
812.02790405,0.00031760
813.95671143,0.00037267
815.88551880,0.00027008
817.81432617,0.00025113
819.74313354,0.00015547
821.67194092,0.00026479
823.60074829,0.00077488
825.52955566,0.00078903
827.45836304,0.00086269
829.38717041,0.00122310
831.31597778,0.00136407
833.24478516,0.00189860
835.17359253,0.00207430
837.10239990,0.00197092
839.03120728,0.00225057
840.96001465,0.00188310
842.88882202,0.00177784
844.81762939,0.00171783
846.74643677,0.00141685
848.67524414,0.00170377
850.60405151,0.00137578
852.53285889,0.00152320
854.46166626,0.00150094
856.39047363,0.00078906
858.31928101,0.00101844
860.24808838,0.00060354
862.17689575,0.00046800
864.10570313,0.00068882
866.03451050,0.00041590
867.96331787,0.00065781
869.89212524,0.00061017
871.82093262,0.00065854
873.74973999,0.00038478
875.67854736,0.00013951
877.60735474,0.00040564
879.53616211,0.00031511
881.46496948,0.00053664
883.39377686,0.00044927
885.32258423,0.00035686
887.25139160,0.00042426
889.18019897,0.00024204
891.10900635,0.00051833
893.03781372,0.00048632
894.96662109,0.00042836
896.89542847,0.00055826
898.82423584,0.00055892
900.75304321,0.00053867
902.68185059,0.00042816
904.61065796,0.00065992
906.53946533,0.00057620
908.46827271,0.00052928
910.39708008,0.00086144
912.32588745,0.00069067
914.25469482,0.00091157
916.18350220,0.00127864
918.11230957,0.00120400
920.04111694,0.00154988
921.96992432,0.00175262
923.89873169,0.00190167
925.82753906,0.00206824
927.75634644,0.00201115
929.68515381,0.00241238
931.61396118,0.00250288
933.54276855,0.00273554
935.47157593,0.00318804
937.40038330,0.00316232
939.32919067,0.00341148
941.25799805,0.00350127
943.18680542,0.00360988
945.11561279,0.00366010
947.04442017,0.00350143
948.97322754,0.00354545
950.90203491,0.00354897
952.83084229,0.00363133
954.75964966,0.00332144
956.68845703,0.00334279
958.61726440,0.00350863
960.54607178,0.00323209
962.47487915,0.00348713
964.40368652,0.00343672
966.33249390,0.00351628
968.26130127,0.00399564
970.19010864,0.00405690
972.11891602,0.00439008
974.04772339,0.00458522
975.97653076,0.00472198
977.90533813,0.00521576
979.83414551,0.00574995
981.76295288,0.00642825
983.69176025,0.00707792
985.62056763,0.00789122
987.54937500,0.00861640
989.47818237,0.00943940
991.40698975,0.01072054
993.33579712,0.01163157
995.26460449,0.01284380
997.19341187,0.01410368
999.12221924,0.01504858
1001.05102661,0.01641765
1002.97983398,0.01720289
1004.90864136,0.01827615
1006.83744873,0.01977683
1008.76625610,0.02086380
1010.69506348,0.02238348
1012.62387085,0.02352676
1014.55267822,0.02448007
1016.48148560,0.02581170
1018.41029297,0.02697957
1020.33910034,0.02809398
1022.26790771,0.02951918
1024.19671509,0.03087660
1026.12552246,0.03177955
1028.05432983,0.03297504
1029.98313721,0.03388696
1031.91194458,0.03465826
1033.84075195,0.03560586
1035.76955933,0.03609689
1037.69836670,0.03645739
1039.62717407,0.03659344
1041.55598145,0.03677925
1043.48478882,0.03645213
1045.41359619,0.03585356
1047.34240356,0.03522665
1049.27121094,0.03438513
1051.20001831,0.03433480
1053.12882568,0.03386249
1055.05763306,0.03310210
1056.98644043,0.03239669
1058.91524780,0.03140042
1060.84405518,0.03061018
1062.77286255,0.02971829
1064.70166992,0.02893068
1066.63047729,0.02762322
1068.55928467,0.02644602
1070.48809204,0.02536841
1072.41689941,0.02407540
1074.34570679,0.02332219
1076.27451416,0.02193188
1078.20332153,0.02072657
1080.13212891,0.01993227
1082.06093628,0.01898830
1083.98974365,0.01820643
1085.91855103,0.01724612
1087.84735840,0.01662062
1089.77616577,0.01596729
1091.70497314,0.01494406
1093.63378052,0.01411514
1095.56258789,0.01385236
1097.49139526,0.01357503
1099.42020264,0.01317165
1101.34901001,0.01289107
1103.27781738,0.01247045
1105.20662476,0.01212647
1107.13543213,0.01158860
1109.06423950,0.01155979
1110.99304687,0.01164420
1112.92185425,0.01141611
1114.85066162,0.01149539
1116.77946899,0.01117832
1118.70827637,0.01107098
1120.63708374,0.01122256
1122.56589111,0.01135143
1124.49469849,0.01147841
1126.42350586,0.01161315
1128.35231323,0.01197079
1130.28112061,0.01216978
1132.20992798,0.01258910
1134.13873535,0.01287281
1136.06754272,0.01333825
1137.99635010,0.01424492
1139.92515747,0.01500967
1141.85396484,0.01595695
1143.78277222,0.01714079
1145.71157959,0.01837006
1147.64038696,0.01933771
1149.56919434,0.02041466
1151.49800171,0.02133259
1153.42680908,0.02246305
1155.35561646,0.02375953
1157.28442383,0.02432160
1159.21323120,0.02543312
1161.14203857,0.02652431
1163.07084595,0.02748133
1164.99965332,0.02861493
1166.92846069,0.02920935
1168.85726807,0.03054357
1170.78607544,0.03198580
1172.71488281,0.03291979
1174.64369019,0.03423414
1176.57249756,0.03551432
1178.50130493,0.03672926
1180.43011230,0.03811858
1182.35891968,0.03980002
1184.28772705,0.04164301
1186.21653442,0.04318775
1188.14534180,0.04519453
1190.07414917,0.04744243
1192.00295654,0.04947172
1193.93176392,0.05210132
1195.86057129,0.05445142
1197.78937866,0.05666637
1199.71818604,0.05932503
1201.64699341,0.06203689
1203.57580078,0.06468598
1205.50460815,0.06701735
1207.43341553,0.06960608
1209.36222290,0.07176851
1211.29103027,0.07381087
1213.21983765,0.07607034
1215.14864502,0.07781731
1217.07745239,0.07959530
1219.00625977,0.08100150
1220.93506714,0.08225217
1222.86387451,0.08331091
1224.79268188,0.08427814
1226.72148926,0.08497720
1228.65029663,0.08521558
1230.57910400,0.08575775
1232.50791138,0.08569447
1234.43671875,0.08589187
1236.36552612,0.08601373
1238.29433350,0.08542087
1240.22314087,0.08534212
1242.15194824,0.08505034
1244.08075562,0.08477951
1246.00956299,0.08437176
1247.93837036,0.08382890
1249.86717773,0.08347018
1251.79598511,0.08268243
1253.72479248,0.08194397
1255.65359985,0.08098934
1257.58240723,0.07976025
1259.51121460,0.07844037
1261.44002197,0.07707284
1263.36882935,0.07621022
1265.29763672,0.07520887
1267.22644409,0.07411112
1269.15525146,0.07322449
1271.08405884,0.07195354
1273.01286621,0.07099152
1274.94167358,0.06992175
1276.87048096,0.06833200
1278.79928833,0.06700200
1280.72809570,0.06548640
1282.65690308,0.06429116
1284.58571045,0.06329845
1286.51451782,0.06195792
1288.44332520,0.06075253
1290.37213257,0.05991706
1292.30093994,0.05953943
1294.22974731,0.05906167
1296.15855469,0.05862573
1298.08736206,0.05848718
1300.01616943,0.05855582
1301.94497681,0.05855075
1303.87378418,0.05912428
1305.80259155,0.06013446
1307.73139893,0.06051169
1309.66020630,0.06163244
1311.58901367,0.06257175
1313.51782104,0.06346214
1315.44662842,0.06551455
1317.37543579,0.06699137
1319.30424316,0.06845098
1321.23305054,0.07063228
1323.16185791,0.07305089
1325.09066528,0.07511242
1327.01947266,0.07725032
1328.94828003,0.07938242
1330.87708740,0.08110571
1332.80589478,0.08312126
1334.73470215,0.08462386
1336.66350952,0.08556753
1338.59231689,0.08501077
1340.52112427,0.08582179
1342.44993164,0.08924904
1344.37873901,0.08972993
1346.30754639,0.08963228
1348.23635376,0.08975057
1350.16516113,0.08887825
1352.09396851,0.08895376
1354.02277588,0.08793010
1355.95158325,0.08717214
1357.88039062,0.08674276
1359.80919800,0.08528163
1361.73800537,0.08156666
1363.66681274,0.08032303
1365.59562012,0.08423413
1367.52442749,0.08223984
1369.45323486,0.08128160
1371.38204224,0.08282898
1373.31084961,0.07854425
1375.23965698,0.07887416
1377.16846436,0.08076248
1379.09727173,0.08064485
1381.02607910,0.08058962
1382.95488647,0.08032288
1384.88369385,0.08058426
1386.81250122,0.07693750
1388.74130859,0.07786816
1390.67011597,0.08407813
1392.59892334,0.08212966
1394.52773071,0.07715818
1396.45653809,0.08074349
1398.38534546,0.08059916
1400.31415283,0.07994981
1402.24296021,0.08652024
1404.17176758,0.08188424
1406.10057495,0.08193584
1408.02938232,0.08552985
1409.95818970,0.08228081
1411.88699707,0.08389941
1413.81580444,0.08112751
1415.74461182,0.08221809
1417.67341919,0.07480775
1419.60222656,0.06683442
1421.53103394,0.07645512
1423.45984131,0.07445422
1425.38864868,0.07197764
1427.31745605,0.07296817
1429.24626343,0.06753106
1431.17507080,0.06529792
1433.10387817,0.06621438
1435.03268555,0.06081745
1436.96149292,0.05153739
1438.89030029,0.05787595
1440.81910767,0.05952768
1442.74791504,0.05525380
1444.67672241,0.05776908
1446.60552979,0.05331118
1448.53433716,0.05393279
1450.46314453,0.05540115
1452.39195190,0.05671157
1454.32075928,0.05911963
1456.24956665,0.04903205
1458.17837402,0.05095015
1460.10718140,0.06727888
1462.03598877,0.07189622
1463.96479614,0.07175450
1465.89360352,0.07448396
1467.82241089,0.08456068
1469.75121826,0.09135073
1471.68002563,0.08186880
1473.60883301,0.08609336
1475.53764038,0.09818752
1477.46644775,0.10527966
1479.39525513,0.11544427
1481.32406250,0.11745344
1483.25286987,0.12466405
1485.18167725,0.12886526
1487.11048462,0.12734202
1489.03929199,0.12696253
1490.96809937,0.12759745
1492.89690674,0.14781712
1494.82571411,0.14499483
1496.75452148,0.13095368
1498.68332886,0.14761849
1500.61213623,0.15222986
1502.54094360,0.16270733
1504.46975098,0.15486878
1506.39855835,0.11433548
1508.32736572,0.13780907
1510.25617310,0.16142523
1512.18498047,0.15607190
1514.11378784,0.16900060
1516.04259521,0.15320703
1517.97140259,0.15902768
1519.90020996,0.15435022
1521.82901733,0.13407809
1523.75782471,0.16263025
1525.68663208,0.16018888
1527.61543945,0.15927070
1529.54424683,0.17543608
1531.47305420,0.16912490
1533.40186157,0.15562063
1535.33066895,0.16381425
1537.25947632,0.17555584
1539.18828369,0.12746194
1541.11709106,0.13173449
1543.04589844,0.15779327
1544.97470581,0.15127781
1546.90351318,0.17746957
1548.83232056,0.16627994
1550.76112793,0.17099893
1552.68993530,0.17027441
1554.61874268,0.15463278
1556.54755005,0.16547015
1558.47635742,0.11855233
1560.40516479,0.12574124
1562.33397217,0.17720327
1564.26277954,0.16810817
1566.19158691,0.17209467
1568.12039429,0.17081735
1570.04920166,0.15149155
1571.97800903,0.17320573
1573.90681641,0.17599869
1575.83562378,0.14016885
1577.76443115,0.15656161
1579.69323853,0.17662124
1581.62204590,0.16886987
1583.55085327,0.17254788
1585.47966064,0.16968189
1587.40846802,0.17037061
1589.33727539,0.16863635
1591.26608276,0.16813481
1593.19489014,0.16799897
1595.12369751,0.16539764
1597.05250488,0.16728255
1598.98131226,0.16554201
1600.91011963,0.16552374
1602.83892700,0.16205153
1604.76773437,0.16422598
1606.69654175,0.16128929
1608.62534912,0.16004008
1610.55415649,0.15924993
1612.48296387,0.15906298
1614.41177124,0.16080073
1616.34057861,0.13161215
1618.26938599,0.14087713
1620.19819336,0.16326344
1622.12700073,0.14461465
1624.05580811,0.14423192
1625.98461548,0.15036997
1627.91342285,0.14945371
1629.84223022,0.14789990
1631.77103760,0.15694429
1633.69984497,0.14563675
1635.62865234,0.12052184
1637.55745972,0.13891235
1639.48626709,0.15275487
1641.41507446,0.14939910
1643.34388184,0.15335277
1645.27268921,0.13938183
1647.20149658,0.12301420
1649.13030396,0.15173563
1651.05911133,0.14542127
1652.98791870,0.09479165
1654.91672607,0.12707849
1656.84553345,0.16013297
1658.77434082,0.15353787
1660.70314819,0.15860288
1662.63195557,0.14542253
1664.56076294,0.15291506
1666.48957031,0.16519594
1668.41837769,0.14602745
1670.34718506,0.14201844
1672.27599243,0.16123471
1674.20479980,0.15025961
1676.13360718,0.14421324
1678.06241455,0.16633871
1679.99122192,0.16125563
1681.92002930,0.16022769
1683.84883667,0.13240072
1685.77764404,0.12998882
1687.70645142,0.17786613
1689.63525879,0.15655166
1691.56406616,0.17101257
1693.49287354,0.17605253
1695.42168091,0.12979883
1697.35048828,0.15920392
1699.27929565,0.14242698
1701.20810303,0.12769200
1703.13691040,0.17315839
1705.06571777,0.16023088
1706.99452515,0.16108397
1708.92333252,0.17562090
1710.85213989,0.16920802
1712.78094727,0.17249897
1714.70975464,0.16117264
1716.63856201,0.14523348
1718.56736938,0.14278460
1720.49617676,0.16857409
1722.42498413,0.17556643
1724.35379150,0.16341333
1726.28259888,0.17732421
1728.21140625,0.16449142
1730.14021362,0.16582781
1732.06902100,0.16261125
1733.99782837,0.12486757
1735.92663574,0.15342696
1737.85544312,0.17042324
1739.78425049,0.15207300
1741.71305786,0.16524062
1743.64186523,0.16784522
1745.57067261,0.16797620
1747.49947998,0.16996211
1749.42828735,0.16303200
1751.35709473,0.15616709
1753.28590210,0.17199966
1755.21470947,0.18026921
1757.14351685,0.16514307
1759.07232422,0.18076645
1761.00113159,0.17083949
1762.92993896,0.16440819
1764.85874634,0.18766265
1766.78755371,0.16995010
1768.71636108,0.17117459
1770.64516846,0.17073160
1772.57397583,0.15375781
1774.50278320,0.17070389
1776.43159058,0.18016183
1778.36039795,0.17768729
1780.28920532,0.17562479
1782.21801270,0.17692736
1784.14682007,0.17698485
1786.07562744,0.17345172
1788.00443481,0.18197232
1789.93324219,0.17810351
1791.86204956,0.16174302
1793.79085693,0.16801549
1795.71966431,0.18025531
1797.64847168,0.17791590
1799.57727905,0.17516620
1801.50608643,0.17246442
1803.43489380,0.17753971
1805.36370117,0.18152866
1807.29250854,0.17913373
1809.22131592,0.17975646
1811.15012329,0.17520270
1813.07893066,0.18024769
1815.00773804,0.18131411
1816.93654541,0.17902279
1818.86535278,0.18062207
1820.79416016,0.17989814
1822.72296753,0.18252352
1824.65177490,0.17126413
1826.58058228,0.17670605
1828.50938965,0.17745054
1830.43819702,0.16654682
1832.36700439,0.18053898
1834.29581177,0.17982213
1836.22461914,0.17920086
1838.15342651,0.17876959
1840.08223389,0.17966679
1842.01104126,0.18021283
1843.93984863,0.16076127
1845.86865601,0.17036900
1847.79746338,0.17965832
1849.72627075,0.17575273
1851.65507812,0.18090805
1853.58388550,0.17741804
1855.51269287,0.17889528
1857.44150024,0.17803556
1859.37030762,0.17692950
1861.29911499,0.17803346
1863.22792236,0.17593896
1865.15672974,0.17789412
1867.08553711,0.17238781
1869.01434448,0.16541675
1870.94315186,0.17132002
1872.87195923,0.17767873
1874.80076660,0.17514807
1876.72957397,0.17583799
1878.65838135,0.17535129
1880.58718872,0.17427337
1882.51599609,0.17580062
1884.44480347,0.17306763
1886.37361084,0.17535289
1888.30241821,0.17190570
1890.23122559,0.16842744
1892.16003296,0.17435065
1894.08884033,0.17206877
1896.01764771,0.17116216
1897.94645508,0.17306975
1899.87526245,0.17221153
1901.80406982,0.17265053
1903.73287720,0.17160308
1905.66168457,0.17223376
1907.59049194,0.17066318
1909.51929932,0.16949883
1911.44810669,0.17058145
1913.37691406,0.17074680
1915.30572144,0.17205754
1917.23452881,0.16500641
1919.16333618,0.16493443
1921.09214355,0.17101866
1923.02095093,0.16587913
1924.94975830,0.16888535
1926.87856567,0.17064682
1928.80737305,0.16842386
1930.73618042,0.17046574
1932.66498779,0.16809464
1934.59379517,0.16959764
1936.52260254,0.16857952
1938.45140991,0.16886026
1940.38021729,0.16908810
1942.30902466,0.16376051
1944.23783203,0.16650662
1946.16663940,0.16811186
1948.09544678,0.16762812
1950.02425415,0.16835278
1951.95306152,0.16766801
1953.88186890,0.16785637
1955.81067627,0.16714755
1957.73948364,0.16746658
1959.66829102,0.16722524
1961.59709839,0.16688323
1963.52590576,0.16732194
1965.45471313,0.16637990
1967.38352051,0.16467968
1969.31232788,0.16575634
1971.24113525,0.16688728
1973.16994263,0.16581824
1975.09875000,0.16638935
1977.02755737,0.16564521
1978.95636475,0.16570225
1980.88517212,0.16557214
1982.81397949,0.16486865
1984.74278687,0.16552070
1986.67159424,0.16391680
1988.60040161,0.16414692
1990.52920898,0.16296232
1992.45801636,0.16110319
1994.38682373,0.16330785
1996.31563110,0.16356087
1998.24443848,0.16256154
2000.17324585,0.16269998
2002.10205322,0.16231273
2004.03086060,0.16193286
2005.95966797,0.16181077
2007.88847534,0.16118538
2009.81728271,0.16096909
2011.74609009,0.16063166
2013.67489746,0.16041186
2015.60370483,0.15952776
2017.53251221,0.15823056
2019.46131958,0.15903920
2021.39012695,0.15884171
2023.31893433,0.15844472
2025.24774170,0.15830463
2027.17654907,0.15770367
2029.10535645,0.15765019
2031.03416382,0.15684748
2032.96297119,0.15672977
2034.89177856,0.15642461
2036.82058594,0.15604712
2038.74939331,0.15572466
2040.67820068,0.15497522
2042.60700806,0.15486459
2044.53581543,0.15453482
2046.46462280,0.15433118
2048.39343018,0.15416481
2050.32223755,0.15391025
2052.25104492,0.15343522
2054.17985229,0.15322067
2056.10865967,0.15295801
2058.03746704,0.15236193
2059.96627441,0.15213931
2061.89508179,0.15175065
2063.82388916,0.15117975
2065.75269653,0.15063712
2067.68150391,0.15098159
2069.61031128,0.15072681
2071.53911865,0.15037394
2073.46792603,0.15022080
2075.39673340,0.14946739
2077.32554077,0.14960168
2079.25434814,0.14906123
2081.18315552,0.14895687
2083.11196289,0.14874262
2085.04077026,0.14810486
2086.96957764,0.14823583
2088.89838501,0.14745814
2090.82719238,0.14724569
2092.75599976,0.14722605
2094.68480713,0.14687224
2096.61361450,0.14661700
2098.54242187,0.14639318
2100.47122925,0.14610763
2102.40003662,0.14581540
2104.32884399,0.14570972
2106.25765137,0.14524364
2108.18645874,0.14528424
2110.11526611,0.14492172
2112.04407349,0.14467412
2113.97288086,0.14446016
2115.90168823,0.14394543
2117.83049561,0.14409588
2119.75930298,0.14364025
2121.68811035,0.14345565
2123.61691772,0.14340822
2125.54572510,0.14325732
2127.47453247,0.14305976
2129.40333984,0.14280955
2131.33214722,0.14268309
2133.26095459,0.14233509
2135.18976196,0.14238457
2137.11856934,0.14198032
2139.04737671,0.14178604
2140.97618408,0.14170349
2142.90499146,0.14151832
2144.83379883,0.14141560
2146.76260620,0.14121979
2148.69141357,0.14124912
2150.62022095,0.14066070
2152.54902832,0.14063865
2154.47783569,0.14047465
2156.40664307,0.14024508
2158.33545044,0.14028671
2160.26425781,0.13988580
2162.19306519,0.13990740
2164.12187256,0.13957924
2166.05067993,0.13955204
2167.97948730,0.13930205
2169.90829468,0.13908903
2171.83710205,0.13925514
2173.76590942,0.13885814
2175.69471680,0.13877076
2177.62352417,0.13862677
2179.55233154,0.13853887
2181.48113892,0.13820532
2183.40994629,0.13798702
2185.33875366,0.13794383
2187.26756104,0.13774538
2189.19636841,0.13774765
2191.12517578,0.13753760
2193.05398315,0.13751873
2194.98279053,0.13725549
2196.91159790,0.13712603
2198.84040527,0.13700542
2200.76921265,0.13670594
2202.69802002,0.13665581
2204.62682739,0.13652112
2206.55563477,0.13646454
2208.48444214,0.13621268
2210.41324951,0.13606322
2212.34205688,0.13580447
2214.27086426,0.13574333
2216.19967163,0.13564557
2218.12847900,0.13536738
2220.05728638,0.13527107
2221.98609375,0.13488927
2223.91490112,0.13499266
2225.84370850,0.13478850
2227.77251587,0.13460159
2229.70132324,0.13452116
2231.63013062,0.13413125
2233.55893799,0.13424250
2235.48774536,0.13391124
2237.41655273,0.13358453
2239.34536011,0.13342389
2241.27416748,0.13321796
2243.20297485,0.13313556
2245.13178223,0.13294366
2247.06058960,0.13274936
2248.98939697,0.13254845
2250.91820435,0.13240188
2252.84701172,0.13213113
2254.77581909,0.13193396
2256.70462646,0.13171349
2258.63343384,0.13167104
2260.56224121,0.13154683
2262.49104858,0.13138235
2264.41985596,0.13129091
2266.34866333,0.13087970
2268.27747070,0.13075590
2270.20627808,0.13057265
2272.13508545,0.13052967
2274.06389282,0.13041770
2275.99270020,0.13019687
2277.92150757,0.13017176
2279.85031494,0.12990771
2281.77912231,0.12982957
2283.70792969,0.12977162
2285.63673706,0.12963840
2287.56554443,0.12916447
2289.49435181,0.12886354
2291.42315918,0.12868249
2293.35196655,0.12833759
2295.28077393,0.12801054
2297.20958130,0.12744595
2299.13838867,0.12729481
2301.06719604,0.12676653
2302.99600342,0.12617657
2304.92481079,0.12556052
2306.85361816,0.12473899
2308.78242554,0.12405596
2310.71123291,0.12286632
2312.64004028,0.12179612
2314.56884766,0.12048350
2316.49765503,0.11917450
2318.42646240,0.11765285
2320.35526978,0.11600669
2322.28407715,0.11443114
2324.21288452,0.11285262
2326.14169189,0.11193587
2328.07049927,0.11036779
2329.99930664,0.10898370
2331.92811401,0.10811617
2333.85692139,0.10764723
2335.78572876,0.10727252
2337.71453613,0.10690002
2339.64334351,0.10707031
2341.57215088,0.10730255
2343.50095825,0.10896833
2345.42976562,0.11093520
2347.35857300,0.11561120
2349.28738037,0.11951861
2351.21618774,0.11532698
2353.14499512,0.10959744
2355.07380249,0.10549495
2357.00260986,0.10222970
2358.93141724,0.10024808
2360.86022461,0.09906571
2362.78903198,0.09896173
2364.71783936,0.09937679
2366.64664673,0.10098427
2368.57545410,0.10287174
2370.50426147,0.10538915
2372.43306885,0.10840579
2374.36187622,0.11131766
2376.29068359,0.11445058
2378.21949097,0.11684871
2380.14829834,0.11885406
2382.07710571,0.12018096
2384.00591309,0.12101693
2385.93472046,0.12135899
2387.86352783,0.12141245
2389.79233521,0.12144589
2391.72114258,0.12123780
2393.64994995,0.12119743
2395.57875732,0.12090908
2397.50756470,0.12072796
2399.43637207,0.12053028
2401.36517944,0.12042643
2403.29398682,0.12032989
2405.22279419,0.12015422
2407.15160156,0.12010105
2409.08040894,0.11986679
2411.00921631,0.11979655
2412.93802368,0.11953913
2414.86683105,0.11949202
2416.79563843,0.11930518
2418.72444580,0.11915815
2420.65325317,0.11909065
2422.58206055,0.11871140
2424.51086792,0.11882474
2426.43967529,0.11840947
2428.36848267,0.11824807
2430.29729004,0.11833573
2432.22609741,0.11800313
2434.15490479,0.11794715
2436.08371216,0.11776789
2438.01251953,0.11767337
2439.94132690,0.11742724
2441.87013428,0.11733137
2443.79894165,0.11722150
2445.72774902,0.11697552
2447.65655640,0.11690918
2449.58536377,0.11670077
2451.51417114,0.11666621
2453.44297852,0.11649220
2455.37178589,0.11622997
2457.30059326,0.11611999
2459.22940063,0.11600021
2461.15820801,0.11576734
2463.08701538,0.11573910
2465.01582275,0.11564624
2466.94463013,0.11524616
2468.87343750,0.11517623
2470.80224487,0.11508031
2472.73105225,0.11491325
2474.65985962,0.11472283
2476.58866699,0.11460835
2478.51747437,0.11444242
2480.44628174,0.11431351
2482.37508911,0.11428894
2484.30389648,0.11399388
2486.23270386,0.11396770
2488.16151123,0.11369585
2490.09031860,0.11348414
2492.01912598,0.11345599
2493.94793335,0.11326807
2495.87674072,0.11318539
2497.80554810,0.11286648
2499.73435547,0.11280346
2501.66316284,0.11265591
2503.59197021,0.11244567
2505.52077759,0.11231436
2507.44958496,0.11220851
2509.37839233,0.11221077
2511.30719971,0.11200009
2513.23600708,0.11189727
2515.16481445,0.11169108
2517.09362183,0.11157425
2519.02242920,0.11138916
2520.95123657,0.11129846
2522.88004395,0.11122950
2524.80885132,0.11094841
2526.73765869,0.11095187
2528.66646606,0.11072779
2530.59527344,0.11069621
2532.52408081,0.11058522
2534.45288818,0.11035144
2536.38169556,0.11023394
2538.31050293,0.10997179
2540.23931030,0.10998375
2542.16811768,0.10987082
2544.09692505,0.10971220
2546.02573242,0.10944414
2547.95453979,0.10925829
2549.88334717,0.10913597
2551.81215454,0.10900390
2553.74096191,0.10890287
2555.66976929,0.10864107
2557.59857666,0.10864735
2559.52738403,0.10841660
2561.45619141,0.10826708
2563.38499878,0.10813743
2565.31380615,0.10800116
2567.24261353,0.10795616
2569.17142090,0.10772564
2571.10022827,0.10768510
2573.02903564,0.10738614
2574.95784302,0.10733943
2576.88665039,0.10710619
2578.81545776,0.10691650
2580.74426514,0.10695846
2582.67307251,0.10659042
2584.60187988,0.10657662
2586.53068726,0.10634242
2588.45949463,0.10627058
2590.38830200,0.10609469
2592.31710937,0.10590212
2594.24591675,0.10598794
2596.17472412,0.10566868
2598.10353149,0.10564335
2600.03233887,0.10542856
2601.96114624,0.10525138
2603.88995361,0.10507336
2605.81876099,0.10499908
2607.74756836,0.10498235
2609.67637573,0.10464913
2611.60518311,0.10467755
2613.53399048,0.10435954
2615.46279785,0.10428378
2617.39160522,0.10421161
2619.32041260,0.10393162
2621.24921997,0.10393617
2623.17802734,0.10365631
2625.10683472,0.10343698
2627.03564209,0.10317872
2628.96444946,0.10325639
2630.89325684,0.10309825
2632.82206421,0.10277979
2634.75087158,0.10285880
2636.67967895,0.10265402
2638.60848633,0.10256244
2640.53729370,0.10240357
2642.46610107,0.10231259
2644.39490845,0.10222796
2646.32371582,0.10197776
2648.25252319,0.10178301
2650.18133057,0.10152343
2652.11013794,0.10144375
2654.03894531,0.10136411
2655.96775269,0.10122269
2657.89656006,0.10098886
2659.82536743,0.10088129
2661.75417480,0.10074016
2663.68298218,0.10054943
2665.61178955,0.10054609
2667.54059692,0.10026889
2669.46940430,0.10009147
2671.39821167,0.10006025
2673.32701904,0.09990449
2675.25582642,0.09972337
2677.18463379,0.09955688
2679.11344116,0.09934820
2681.04224854,0.09923209
2682.97105591,0.09928594
2684.89986328,0.09902088
2686.82867065,0.09877615
2688.75747803,0.09871373
2690.68628540,0.09853623
2692.61509277,0.09839423
2694.54390015,0.09828488
2696.47270752,0.09812055
2698.40151489,0.09793361
2700.33032227,0.09779689
2702.25912964,0.09772585
2704.18793701,0.09757134
2706.11674438,0.09725745
2708.04555176,0.09725622
2709.97435913,0.09713222
2711.90316650,0.09684335
2713.83197388,0.09686118
2715.76078125,0.09662695
2717.68958862,0.09652124
2719.61839600,0.09639542
2721.54720337,0.09606069
2723.47601074,0.09597433
2725.40481812,0.09583969
2727.33362549,0.09562873
2729.26243286,0.09547652
2731.19124023,0.09538787
2733.12004761,0.09515743
2735.04885498,0.09501828
2736.97766235,0.09488539
2738.90646973,0.09471567
2740.83527710,0.09468482
2742.76408447,0.09442201
2744.69289185,0.09426895
2746.62169922,0.09410262
2748.55050659,0.09396443
2750.47931396,0.09386942
2752.40812134,0.09356473
2754.33692871,0.09351109
2756.26573608,0.09333790
2758.19454346,0.09317064
2760.12335083,0.09315620
2762.05215820,0.09292761
2763.98096558,0.09281480
2765.90977295,0.09265217
2767.83858032,0.09239039
2769.76738770,0.09232037
2771.69619507,0.09213577
2773.62500244,0.09186766
2775.55380981,0.09176426
2777.48261719,0.09156404
2779.41142456,0.09137502
2781.34023193,0.09125902
2783.26903931,0.09105791
2785.19784668,0.09091808
2787.12665405,0.09073366
2789.05546143,0.09051777
2790.98426880,0.09037291
2792.91307617,0.09019063
2794.84188354,0.09001070
2796.77069092,0.08981079
2798.69949829,0.08962937
2800.62830566,0.08956604
2802.55711304,0.08933061
2804.48592041,0.08907692
2806.41472778,0.08898149
2808.34353516,0.08876003
2810.27234253,0.08856983
2812.20114990,0.08839041
2814.12995728,0.08820906
2816.05876465,0.08801037
2817.98757202,0.08780006
2819.91637939,0.08765121
2821.84518677,0.08747685
2823.77399414,0.08733585
2825.70280151,0.08704017
2827.63160889,0.08694936
2829.56041626,0.08687969
2831.48922363,0.08657524
2833.41803101,0.08642576
2835.34683838,0.08619605
2837.27564575,0.08595270
2839.20445312,0.08557955
2841.13326050,0.08534884
2843.06206787,0.08507486
2844.99087524,0.08453791
2846.91968262,0.08425140
2848.84848999,0.08373567
2850.77729736,0.08346301
2852.70610474,0.08339251
2854.63491211,0.08317254
2856.56371948,0.08316503
2858.49252686,0.08298339
2860.42133423,0.08289119
2862.35014160,0.08277307
2864.27894897,0.08253071
2866.20775635,0.08245923
2868.13656372,0.08235578
2870.06537109,0.08219482
2871.99417847,0.08196259
2873.92298584,0.08178756
2875.85179321,0.08171624
2877.78060059,0.08158335
2879.70940796,0.08133763
2881.63821533,0.08120804
2883.56702270,0.08114842
2885.49583008,0.08098152
2887.42463745,0.08084241
2889.35344482,0.08071672
2891.28225220,0.08052238
2893.21105957,0.08020590
2895.13986694,0.07995468
2897.06867432,0.07978898
2898.99748169,0.07953920
2900.92628906,0.07927184
2902.85509644,0.07904433
2904.78390381,0.07881820
2906.71271118,0.07856299
2908.64151855,0.07824033
2910.57032593,0.07790031
2912.49913330,0.07761043
2914.42794067,0.07708557
2916.35674805,0.07664381
2918.28555542,0.07644644
2920.21436279,0.07619210
2922.14317017,0.07605314
2924.07197754,0.07591841
2926.00078491,0.07582667
2927.92959229,0.07565112
2929.85839966,0.07553528
2931.78720703,0.07554306
2933.71601440,0.07536180
2935.64482178,0.07528809
2937.57362915,0.07520373
2939.50243652,0.07526287
2941.43124390,0.07524624
2943.36005127,0.07499925
2945.28885864,0.07487833
2947.21766602,0.07464249
2949.14647339,0.07452676
2951.07528076,0.07429759
2953.00408813,0.07408580
2954.93289551,0.07400943
2956.86170288,0.07359388
2958.79051025,0.07338844
2960.71931763,0.07319725
2962.64812500,0.07282882
2964.57693237,0.07271081
2966.50573975,0.07257850
2968.43454712,0.07247448
2970.36335449,0.07259141
2972.29216187,0.07260674
2974.22096924,0.07247510
2976.14977661,0.07242166
2978.07858398,0.07231092
2980.00739136,0.07221207
2981.93619873,0.07228403
2983.86500610,0.07222422
2985.79381348,0.07200204
2987.72262085,0.07177959
2989.65142822,0.07154441
2991.58023560,0.07149277
2993.50904297,0.07131638
2995.43785034,0.07094988
2997.36665771,0.07087982
2999.29546509,0.07077520
3001.22427246,0.07060657
3003.15307983,0.07035027
3005.08188721,0.06996887
3007.01069458,0.06988169
3008.93950195,0.06969415
3010.86830933,0.06925820
3012.79711670,0.06903478
3014.72592407,0.06896412
3016.65473145,0.06870820
3018.58353882,0.06852326
3020.51234619,0.06838365
3022.44115356,0.06807914
3024.36996094,0.06788599
3026.29876831,0.06765840
3028.22757568,0.06742632
3030.15638306,0.06706636
3032.08519043,0.06671085
3034.01399780,0.06658734
3035.94280518,0.06639844
3037.87161255,0.06623375
3039.80041992,0.06588769
3041.72922729,0.06559682
3043.65803467,0.06546046
3045.58684204,0.06523712
3047.51564941,0.06503133
3049.44445679,0.06467669
3051.37326416,0.06447879
3053.30207153,0.06431484
3055.23087891,0.06391428
3057.15968628,0.06366231
3059.08849365,0.06360106
3061.01730103,0.06340532
3062.94610840,0.06305765
3064.87491577,0.06270815
3066.80372314,0.06240768
3068.73253052,0.06233360
3070.66133789,0.06218686
3072.59014526,0.06188675
3074.51895264,0.06164090
3076.44776001,0.06139940
3078.37656738,0.06106856
3080.30537476,0.06071755
3082.23418213,0.06060715
3084.16298950,0.06032711
3086.09179687,0.05998085
3088.02060425,0.05983128
3089.94941162,0.05960704
3091.87821899,0.05939018
3093.80702637,0.05903196
3095.73583374,0.05857683
3097.66464111,0.05838978
3099.59344849,0.05825401
3101.52225586,0.05777437
3103.45106323,0.05756535
3105.37987061,0.05740710
3107.30867798,0.05690052
3109.23748535,0.05675436
3111.16629272,0.05647627
3113.09510010,0.05610734
3115.02390747,0.05579098
3116.95271484,0.05539561
3118.88152222,0.05522935
3120.81032959,0.05486153
3122.73913696,0.05461285
3124.66794434,0.05443953
3126.59675171,0.05404323
3128.52555908,0.05380535
3130.45436645,0.05360162
3132.38317383,0.05324323
3134.31198120,0.05288555
3136.24078857,0.05260270
3138.16959595,0.05225100
3140.09840332,0.05197057
3142.02721069,0.05165587
3143.95601807,0.05135007
3145.88482544,0.05102576
3147.81363281,0.05067477
3149.74244019,0.05048097
3151.67124756,0.04997759
3153.60005493,0.04961935
3155.52886230,0.04951447
3157.45766968,0.04921572
3159.38647705,0.04897703
3161.31528442,0.04860718
3163.24409180,0.04821075
3165.17289917,0.04802082
3167.10170654,0.04769093
3169.03051392,0.04727492
3170.95932129,0.04710604
3172.88812866,0.04688076
3174.81693604,0.04658701
3176.74574341,0.04621345
3178.67455078,0.04584794
3180.60335815,0.04571548
3182.53216553,0.04532763
3184.46097290,0.04509001
3186.38978027,0.04489848
3188.31858765,0.04456988
3190.24739502,0.04443424
3192.17620239,0.04411139
3194.10500977,0.04384404
3196.03381714,0.04356588
3197.96262451,0.04331888
3199.89143188,0.04311215
3201.82023926,0.04287069
3203.74904663,0.04271983
3205.67785400,0.04237110
3207.60666138,0.04219772
3209.53546875,0.04208239
3211.46427612,0.04178272
3213.39308350,0.04154133
3215.32189087,0.04143513
3217.25069824,0.04128975
3219.17950562,0.04101415
3221.10831299,0.04081847
3223.03712036,0.04067919
3224.96592773,0.04063037
3226.89473511,0.04039516
3228.82354248,0.04023281
3230.75234985,0.04013263
3232.68115723,0.03987547
3234.60996460,0.03987166
3236.53877197,0.03971683
3238.46757935,0.03950657
3240.39638672,0.03938238
3242.32519409,0.03931257
3244.25400146,0.03921529
3246.18280884,0.03896126
3248.11161621,0.03893489
3250.04042358,0.03888634
3251.96923096,0.03877576
3253.89803833,0.03862681
3255.82684570,0.03849798
3257.75565308,0.03843525
3259.68446045,0.03828840
3261.61326782,0.03824370
3263.54207520,0.03823788
3265.47088257,0.03817295
3267.39968994,0.03807933
3269.32849731,0.03804062
3271.25730469,0.03785087
3273.18611206,0.03774857
3275.11491943,0.03770743
3277.04372681,0.03757659
3278.97253418,0.03768000
3280.90134155,0.03756829
3282.83014893,0.03751500
3284.75895630,0.03751165
3286.68776367,0.03728106
3288.61657104,0.03718518
3290.54537842,0.03708609
3292.47418579,0.03699318
3294.40299316,0.03698108
3296.33180054,0.03698373
3298.26060791,0.03686891
3300.18941528,0.03687416
3302.11822266,0.03680728
3304.04703003,0.03662876
3305.97583740,0.03660331
3307.90464478,0.03643723
3309.83345215,0.03640153
3311.76225952,0.03644045
3313.69106689,0.03637858
3315.61987427,0.03623619
3317.54868164,0.03615201
3319.47748901,0.03608884
3321.40629639,0.03604832
3323.33510376,0.03610384
3325.26391113,0.03592042
3327.19271851,0.03589924
3329.12152588,0.03581067
3331.05033325,0.03567310
3332.97914062,0.03563580
3334.90794800,0.03556012
3336.83675537,0.03550167
3338.76556274,0.03525433
3340.69437012,0.03533816
3342.62317749,0.03528204
3344.55198486,0.03523696
3346.48079224,0.03528880
3348.40959961,0.03510768
3350.33840698,0.03505289
3352.26721436,0.03490757
3354.19602173,0.03496410
3356.12482910,0.03481010
3358.05363647,0.03481423
3359.98244385,0.03479561
3361.91125122,0.03457740
3363.84005859,0.03467477
3365.76886597,0.03448627
3367.69767334,0.03453966
3369.62648071,0.03446527
3371.55528809,0.03451161
3373.48409546,0.03457152
3375.41290283,0.03442312
3377.34171020,0.03442935
3379.27051758,0.03414351
3381.19932495,0.03436935
3383.12813232,0.03424793
3385.05693970,0.03415259
3386.98574707,0.03436337
3388.91455444,0.03420324
3390.84336182,0.03417093
3392.77216919,0.03396243
3394.70097656,0.03417359
3396.62978394,0.03418072
3398.55859131,0.03404096
3400.48739868,0.03411913
3402.41620605,0.03416414
3404.34501343,0.03422901
3406.27382080,0.03409515
3408.20262817,0.03415531
3410.13143555,0.03406721
3412.06024292,0.03426339
3413.98905029,0.03419369
3415.91785767,0.03423277
3417.84666504,0.03447367
3419.77547241,0.03411351
3421.70427979,0.03425629
3423.63308716,0.03430564
3425.56189453,0.03448991
3427.49070190,0.03439771
3429.41950928,0.03436122
3431.34831665,0.03457841
3433.27712402,0.03429594
3435.20593140,0.03454071
3437.13473877,0.03447922
3439.06354614,0.03468433
3440.99235352,0.03459971
3442.92116089,0.03445464
3444.84996826,0.03483515
3446.77877563,0.03430942
3448.70758301,0.03451994
3450.63639038,0.03489464
3452.56519775,0.03497223
3454.49400513,0.03508868
3456.42281250,0.03493105
3458.35161987,0.03514689
3460.28042725,0.03512751
3462.20923462,0.03496383
3464.13804199,0.03512983
3466.06684937,0.03528832
3467.99565674,0.03514105
3469.92446411,0.03531807
3471.85327148,0.03544657
3473.78207886,0.03548810
3475.71088623,0.03556692
3477.63969360,0.03551150
3479.56850098,0.03570112
3481.49730835,0.03538853
3483.42611572,0.03561874
3485.35492310,0.03590886
3487.28373047,0.03572927
3489.21253784,0.03592783
3491.14134521,0.03607501
3493.07015259,0.03631984
3494.99895996,0.03617267
3496.92776733,0.03622907
3498.85657471,0.03640961
3500.78538208,0.03640018
3502.71418945,0.03604285
3504.64299683,0.03607249
3506.57180420,0.03691095
3508.50061157,0.03655371
3510.42941895,0.03647442
3512.35822632,0.03684387
3514.28703369,0.03705065
3516.21584106,0.03716558
3518.14464844,0.03692140
3520.07345581,0.03735260
3522.00226318,0.03706940
3523.93107056,0.03669648
3525.85987793,0.03698538
3527.78868530,0.03708690
3529.71749268,0.03724632
3531.64630005,0.03756965
3533.57510742,0.03795639
3535.50391479,0.03777162
3537.43272217,0.03769355
3539.36152954,0.03814595
3541.29033691,0.03827320
3543.21914429,0.03795520
3545.14795166,0.03736081
3547.07675903,0.03697437
3549.00556641,0.03816541
3550.93437378,0.03842951
3552.86318115,0.03755865
3554.79198853,0.03855411
3556.72079590,0.03875828
3558.64960327,0.03870444
3560.57841064,0.03856615
3562.50721802,0.03840294
3564.43602539,0.03879804
3566.36483276,0.03643664
3568.29364014,0.03576280
3570.22244751,0.03845038
3572.15125488,0.03950026
3574.08006226,0.03905619
3576.00886963,0.03925496
3577.93767700,0.03941590
3579.86648437,0.03928230
3581.79529175,0.03941400
3583.72409912,0.03961784
3585.65290649,0.03898136
3587.58171387,0.03618541
3589.51052124,0.03711962
3591.43932861,0.04013482
3593.36813599,0.03908334
3595.29694336,0.03856257
3597.22575073,0.03931300
3599.15455811,0.03976174
3601.08336548,0.03949996
3603.01217285,0.03976987
3604.94098022,0.04052518
3606.86978760,0.03937377
3608.79859497,0.03729114
3610.72740234,0.03807567
3612.65620972,0.03900632
3614.58501709,0.03797177
3616.51382446,0.04059970
3618.44263184,0.03786039
3620.37143921,0.03659718
3622.30024658,0.04110691
3624.22905395,0.04008029
3626.15786133,0.04188576
3628.08666870,0.03607995
3630.01547607,0.03297447
3631.94428345,0.04098784
3633.87309082,0.04009420
3635.80189819,0.04073904
3637.73070557,0.04169711
3639.65951294,0.04110760
3641.58832031,0.04161495
3643.51712769,0.04118457
3645.44593506,0.04168492
3647.37474243,0.03778926
3649.30354980,0.03482907
3651.23235718,0.03534158
3653.16116455,0.04150143
3655.08997192,0.04117580
3657.01877930,0.03725699
3658.94758667,0.04252526
3660.87639404,0.04182249
3662.80520142,0.04239929
3664.73400879,0.04232990
3666.66281616,0.04200052
3668.59162354,0.04110928
3670.52043091,0.03396069
3672.44923828,0.04045101
3674.37804565,0.03894743
3676.30685303,0.03265614
3678.23566040,0.04047992
3680.16446777,0.04154795
3682.09327515,0.04157842
3684.02208252,0.04274085
3685.95088989,0.04223223
3687.87969727,0.03832849
3689.80850464,0.03530364
3691.73731201,0.04009176
3693.66611938,0.04117712
3695.59492676,0.04213273
3697.52373413,0.04214034
3699.45254150,0.04172160
3701.38134888,0.04089528
3703.31015625,0.03929867
3705.23896362,0.04302438
3707.16777100,0.04112745
3709.09657837,0.04016729
3711.02538574,0.03798807
3712.95419312,0.03559765
3714.88300049,0.04140947
3716.81180786,0.04088423
3718.74061523,0.04121503
3720.66942261,0.04046205
3722.59822998,0.03909990
3724.52703735,0.04047379
3726.45584473,0.03773472
3728.38465210,0.04070163
3730.31345947,0.04025431
3732.24226685,0.03720739
3734.17107422,0.03632588
3736.09988159,0.03468104
3738.02868896,0.03655659
3739.95749634,0.03932390
3741.88630371,0.04128091
3743.81511108,0.03250112
3745.74391846,0.03069042
3747.67272583,0.03935971
3749.60153320,0.03410646
3751.53034058,0.03148253
3753.45914795,0.03587374
3755.38795532,0.03839100
3757.31676270,0.03989756
3759.24557007,0.03720418
3761.17437744,0.03832944
3763.10318481,0.04062692
3765.03199219,0.03816056
3766.96079956,0.03876495
3768.88960693,0.03837281
3770.81841431,0.03669647
3772.74722168,0.03951094
3774.67602905,0.03961900
3776.60483643,0.03948475
3778.53364380,0.03846678
3780.46245117,0.03716609
3782.39125854,0.03950295
3784.32006592,0.03855623
3786.24887329,0.03831077
3788.17768066,0.03913291
3790.10648804,0.03897047
3792.03529541,0.03873917
3793.96410278,0.03925510
3795.89291016,0.03714373
3797.82171753,0.03668483
3799.75052490,0.03850733
3801.67933228,0.03095262
3803.60813965,0.03566419
3805.53694702,0.03875162
3807.46575439,0.03202761
3809.39456177,0.03821231
3811.32336914,0.03754943
3813.25217651,0.03875841
3815.18098389,0.03530486
3817.10979126,0.03105834
3819.03859863,0.03874978
3820.96740601,0.03183517
3822.89621338,0.03318714
3824.82502075,0.03856470
3826.75382812,0.03506330
3828.68263550,0.03752173
3830.61144287,0.03620636
3832.54025024,0.03508057
3834.46905762,0.03579261
3836.39786499,0.03405888
3838.32667236,0.03092570
3840.25547974,0.03325435
3842.18428711,0.03581829
3844.11309448,0.03427084
3846.04190186,0.03674296
3847.97070923,0.03626455
3849.89951660,0.03637970
3851.82832397,0.03298235
3853.75713135,0.02515810
3855.68593872,0.02934752
3857.61474609,0.03637411
3859.54355347,0.03539506
3861.47236084,0.03508969
3863.40116821,0.03455601
3865.32997559,0.03203104
3867.25878296,0.03555075
3869.18759033,0.03279511
3871.11639770,0.03036023
3873.04520508,0.03572358
3874.97401245,0.03294896
3876.90281982,0.03524308
3878.83162720,0.03595673
3880.76043457,0.03119892
3882.68924194,0.03551769
3884.61804932,0.03330459
3886.54685669,0.03072186
3888.47566406,0.03548971
3890.40447144,0.03380267
3892.33327881,0.03183543
3894.26208618,0.03456520
3896.19089355,0.03513759
3898.11970093,0.03348026
3900.04850830,0.03181444
3901.97731567,0.03149326
3903.90612305,0.03130023
3905.83493042,0.03178996
3907.76373779,0.03447244
3909.69254517,0.03451251
3911.62135254,0.03413975
3913.55015991,0.03465511
3915.47896728,0.03352671
3917.40777466,0.03271266
3919.33658203,0.03254939
3921.26538940,0.03360980
3923.19419678,0.03348058
3925.12300415,0.03286390
3927.05181152,0.03342188
3928.98061890,0.03359760
3930.90942627,0.03289569
3932.83823364,0.03201575
3934.76704102,0.03322420
3936.69584839,0.03345540
3938.62465576,0.03310741
3940.55346313,0.03337242
3942.48227051,0.03229272
3944.41107788,0.03256235
3946.33988525,0.03304159
3948.26869263,0.03225572
3950.19750000,0.03226058
3952.12630737,0.03280605
3954.05511475,0.03282068
3955.98392212,0.03270680
3957.91272949,0.03256066
3959.84153687,0.03250376
3961.77034424,0.03235274
3963.69915161,0.03223112
3965.62795898,0.03255486
3967.55676636,0.03227663
3969.48557373,0.03215312
3971.41438110,0.03209558
3973.34318848,0.03205276
3975.27199585,0.03194840
3977.20080322,0.03169654
3979.12961060,0.03202863
3981.05841797,0.03174620
3982.98722534,0.03178275
3984.91603271,0.03174000
3986.84484009,0.03162353
3988.77364746,0.03167117
3990.70245483,0.03125679
3992.63126221,0.03147314
3994.56006958,0.03134330
3996.48887695,0.03131857
3998.41768433,0.03124777
4000.34649170,0.03116277
4002.27529907,0.03117894
4004.20410645,0.03096178
4006.13291382,0.03115806
4008.06172119,0.03086212
4009.99052856,0.03094787
4011.91933594,0.03091786
4013.84814331,0.03069829
4015.77695068,0.03080267
4017.70575806,0.03069288
4019.63456543,0.03059568
4021.56337280,0.03037582
4023.49218018,0.03049926
4025.42098755,0.03025900
4027.34979492,0.03033724
4029.27860229,0.03039281
4031.20740967,0.03016976
4033.13621704,0.03030763
4035.06502441,0.02994500
4036.99383179,0.02996883
4038.92263916,0.02987721
4040.85144653,0.02989874
4042.78025391,0.02989833
4044.70906128,0.02958574
4046.63786865,0.02969399
4048.56667603,0.02961458
4050.49548340,0.02960146
4052.42429077,0.02948419
4054.35309814,0.02952832
4056.28190552,0.02944296
4058.21071289,0.02934162
4060.13952026,0.02925359
4062.06832764,0.02901522
4063.99713501,0.02917421
4065.92594238,0.02900292
4067.85474976,0.02908021
4069.78355713,0.02903623
4071.71236450,0.02887698
4073.64117187,0.02890454
4075.56997925,0.02878542
4077.49878662,0.02878333
4079.42759399,0.02852459
4081.35640137,0.02858934
4083.28520874,0.02854252
4085.21401611,0.02844745
4087.14282349,0.02841617
4089.07163086,0.02827852
4091.00043823,0.02830340
4092.92924561,0.02816837
4094.85805298,0.02819101
4096.78686035,0.02801041
4098.71566772,0.02797376
4100.64447510,0.02794774
4102.57328247,0.02792304
4104.50208984,0.02792957
4106.43089722,0.02765269
4108.35970459,0.02781644
4110.28851196,0.02776263
4112.21731934,0.02763615
4114.14612671,0.02756752
4116.07493408,0.02746479
4118.00374145,0.02746682
4119.93254883,0.02737936
4121.86135620,0.02734667
4123.79016357,0.02723125
4125.71897095,0.02728391
4127.64777832,0.02708183
4129.57658569,0.02703405
4131.50539307,0.02714946
4133.43420044,0.02693049
4135.36300781,0.02690304
4137.29181519,0.02688885
4139.22062256,0.02677926
4141.14942993,0.02670181
4143.07823730,0.02679881
4145.00704468,0.02664277
4146.93585205,0.02654258
4148.86465942,0.02654285
4150.79346680,0.02639546
4152.72227417,0.02640060
4154.65108154,0.02629247
4156.57988892,0.02628161
4158.50869629,0.02614323
4160.43750366,0.02617252
4162.36631103,0.02613027
4164.29511841,0.02602215
4166.22392578,0.02607426
4168.15273315,0.02581697
4170.08154053,0.02589002
4172.01034790,0.02581007
4173.93915527,0.02574909
4175.86796265,0.02569905
4177.79677002,0.02558894
4179.72557739,0.02564250
4181.65438477,0.02550580
4183.58319214,0.02558313
4185.51199951,0.02536273
4187.44080688,0.02535003
4189.36961426,0.02534743
4191.29842163,0.02519954
4193.22722900,0.02531936
4195.15603638,0.02519256
4197.08484375,0.02516489
4199.01365112,0.02500128
4200.94245850,0.02503598
4202.87126587,0.02502422
4204.80007324,0.02490471
4206.72888062,0.02486422
4208.65768799,0.02468809
4210.58649536,0.02474797
4212.51530273,0.02457584
4214.44411011,0.02454236
4216.37291748,0.02455329
4218.30172485,0.02449825
4220.23053223,0.02438600
4222.15933960,0.02428388
4224.08814697,0.02443303
4226.01695435,0.02423713
4227.94576172,0.02418670
4229.87456909,0.02417571
4231.80337646,0.02412146
4233.73218384,0.02406678
4235.66099121,0.02399904
4237.58979858,0.02401725
4239.51860596,0.02391696
4241.44741333,0.02390513
4243.37622070,0.02371828
4245.30502808,0.02377623
4247.23383545,0.02378738
4249.16264282,0.02363450
4251.09145020,0.02361797
4253.02025757,0.02353662
4254.94906494,0.02356204
4256.87787231,0.02338541
4258.80667969,0.02330333
4260.73548706,0.02327476
4262.66429443,0.02329060
4264.59310181,0.02326494
4266.52190918,0.02322414
4268.45071655,0.02321424
4270.37952393,0.02304332
4272.30833130,0.02312156
4274.23713867,0.02298445
4276.16594604,0.02296152
4278.09475342,0.02290199
4280.02356079,0.02278408
4281.95236816,0.02281589
4283.88117554,0.02264220
4285.80998291,0.02267106
4287.73879028,0.02252869
4289.66759766,0.02261393
4291.59640503,0.02256070
4293.52521240,0.02242889
4295.45401978,0.02251029
4297.38282715,0.02235216
4299.31163452,0.02246485
4301.24044189,0.02228978
4303.16924927,0.02220563
4305.09805664,0.02219479
4307.02686401,0.02207340
4308.95567139,0.02204578
4310.88447876,0.02202817
4312.81328613,0.02209900
4314.74209351,0.02181939
4316.67090088,0.02189522
4318.59970825,0.02189717
4320.52851562,0.02182217
4322.45732300,0.02183661
4324.38613037,0.02163474
4326.31493774,0.02168167
4328.24374512,0.02153881
4330.17255249,0.02150695
4332.10135986,0.02141809
4334.03016724,0.02146545
4335.95897461,0.02154321
4337.88778198,0.02129681
4339.81658936,0.02126879
4341.74539673,0.02122551
4343.67420410,0.02124266
4345.60301147,0.02114267
4347.53181885,0.02113098
4349.46062622,0.02103582
4351.38943359,0.02098932
4353.31824097,0.02102714
4355.24704834,0.02082498
4357.17585571,0.02093210
4359.10466309,0.02079845
4361.03347046,0.02075631
4362.96227783,0.02073002
4364.89108520,0.02062652
4366.81989258,0.02064535
4368.74869995,0.02050463
4370.67750732,0.02067655
4372.60631470,0.02056130
4374.53512207,0.02042208
4376.46392944,0.02043235
4378.39273682,0.02038072
4380.32154419,0.02036825
4382.25035156,0.02028148
4384.17915894,0.02028872
4386.10796631,0.02014237
4388.03677368,0.02015655
4389.96558105,0.02007855
4391.89438843,0.01998787
4393.82319580,0.02005595
4395.75200317,0.01998297
4397.68081055,0.01997500
4399.60961792,0.01988057
4401.53842529,0.01977866
4403.46723267,0.01969448
4405.39604004,0.01974715
4407.32484741,0.01969802
4409.25365478,0.01963977
4411.18246216,0.01961363
4413.11126953,0.01949095
4415.04007690,0.01957014
4416.96888428,0.01944895
4418.89769165,0.01939280
4420.82649902,0.01936006
4422.75530640,0.01932124
4424.68411377,0.01928564
4426.61292114,0.01916095
4428.54172852,0.01922799
4430.47053589,0.01911790
4432.39934326,0.01905694
4434.32815063,0.01899040
4436.25695801,0.01896751
4438.18576538,0.01900979
4440.11457275,0.01898971
4442.04338013,0.01897063
4443.97218750,0.01881936
4445.90099487,0.01882039
4447.82980225,0.01872813
4449.75860962,0.01869237
4451.68741699,0.01862178
4453.61622437,0.01856858
4455.54503174,0.01859949
4457.47383911,0.01844852
4459.40264648,0.01852186
4461.33145386,0.01847828
4463.26026123,0.01844737
4465.18906860,0.01837678
4467.11787598,0.01830971
4469.04668335,0.01838178
4470.97549072,0.01822478
4472.90429810,0.01815984
4474.83310547,0.01816378
4476.76191284,0.01818517
4478.69072021,0.01804679
4480.61952759,0.01801230
4482.54833496,0.01798166
4484.47714233,0.01785491
4486.40594971,0.01787220
4488.33475708,0.01778207
4490.26356445,0.01790000
4492.19237183,0.01778219
4494.12117920,0.01771616
4496.04998657,0.01779125
4497.97879395,0.01760913
4499.90760132,0.01763958
4501.83640869,0.01757045
4503.76521606,0.01750032
4505.69402344,0.01747781
4507.62283081,0.01745447
4509.55163818,0.01737009
4511.48044556,0.01730310
4513.40925293,0.01734848
4515.33806030,0.01726837
4517.26686768,0.01721519
4519.19567505,0.01711500
4521.12448242,0.01716138
4523.05328979,0.01710075
4524.98209717,0.01702629
4526.91090454,0.01705622
4528.83971191,0.01693823
4530.76851929,0.01694475
4532.69732666,0.01684334
4534.62613403,0.01685113
4536.55494141,0.01682854
4538.48374878,0.01672323
4540.41255615,0.01675816
4542.34136353,0.01670392
4544.27017090,0.01663001
4546.19897827,0.01661854
4548.12778564,0.01665856
4550.05659302,0.01647201
4551.98540039,0.01648011
4553.91420776,0.01653159
4555.84301514,0.01638941
4557.77182251,0.01638232
4559.70062988,0.01632879
4561.62943726,0.01631743
4563.55824463,0.01619913
4565.48705200,0.01626799
4567.41585937,0.01625114
4569.34466675,0.01604715
4571.27347412,0.01612361
4573.20228149,0.01604796
4575.13108887,0.01600952
4577.05989624,0.01595809
4578.98870361,0.01589029
4580.91751099,0.01591663
4582.84631836,0.01585786
4584.77512573,0.01579754
4586.70393311,0.01573192
4588.63274048,0.01576908
4590.56154785,0.01572224
4592.49035522,0.01566242
4594.41916260,0.01569546
4596.34796997,0.01565428
4598.27677734,0.01560011
4600.20558472,0.01557801
4602.13439209,0.01553338
4604.06319946,0.01551582
4605.99200684,0.01545899
4607.92081421,0.01531722
4609.84962158,0.01537806
4611.77842895,0.01537876
4613.70723633,0.01527936
4615.63604370,0.01525419
4617.56485107,0.01520453
4619.49365845,0.01518644
4621.42246582,0.01511826
4623.35127319,0.01504915
4625.28008057,0.01497139
4627.20888794,0.01494391
4629.13769531,0.01495229
4631.06650269,0.01500144
4632.99531006,0.01493873
4634.92411743,0.01485004
4636.85292480,0.01489707
4638.78173218,0.01474284
4640.71053955,0.01476990
4642.63934692,0.01471886
4644.56815430,0.01459764
4646.49696167,0.01472248
4648.42576904,0.01461970
4650.35457642,0.01455984
4652.28338379,0.01453061
4654.21219116,0.01451093
4656.14099853,0.01449191
4658.06980591,0.01444833
4659.99861328,0.01442508
4661.92742065,0.01432156
4663.85622803,0.01434534
4665.78503540,0.01433100
4667.71384277,0.01429390
4669.64265015,0.01425356
4671.57145752,0.01418668
4673.50026489,0.01411386
4675.42907227,0.01410632
4677.35787964,0.01410590
4679.28668701,0.01400976
4681.21549438,0.01409672
4683.14430176,0.01411950
4685.07310913,0.01403521
4687.00191650,0.01390356
4688.93072388,0.01392333
4690.85953125,0.01396322
4692.78833862,0.01377056
4694.71714600,0.01377719
4696.64595337,0.01373186
4698.57476074,0.01374111
4700.50356812,0.01369411
4702.43237549,0.01358301
4704.36118286,0.01371940
4706.28999023,0.01365162
4708.21879761,0.01357037
4710.14760498,0.01355232
4712.07641235,0.01348238
4714.00521973,0.01345733
4715.93402710,0.01350323
4717.86283447,0.01343393
4719.79164185,0.01327625
4721.72044922,0.01328801
4723.64925659,0.01328973
4725.57806396,0.01324699
4727.50687134,0.01321779
4729.43567871,0.01328895
4731.36448608,0.01323869
4733.29329346,0.01319296
4735.22210083,0.01319791
4737.15090820,0.01309595
4739.07971558,0.01310496
4741.00852295,0.01303050
4742.93733032,0.01305814
4744.86613770,0.01297455
4746.79494507,0.01290328
4748.72375244,0.01297056
4750.65255981,0.01288251
4752.58136719,0.01294822
4754.51017456,0.01286308
4756.43898193,0.01282298
4758.36778931,0.01281294
4760.29659668,0.01276940
4762.22540405,0.01277563
4764.15421143,0.01267438
4766.08301880,0.01269043
4768.01182617,0.01259494
4769.94063354,0.01266994
4771.86944092,0.01263754
4773.79824829,0.01251590
4775.72705566,0.01259834
4777.65586304,0.01245078
4779.58467041,0.01244508
4781.51347778,0.01242402
4783.44228516,0.01235545
4785.37109253,0.01237122
4787.29989990,0.01232540
4789.22870728,0.01232521
4791.15751465,0.01230021
4793.08632202,0.01224020
4795.01512939,0.01223032
4796.94393677,0.01226729
4798.87274414,0.01216577
4800.80155151,0.01215291
4802.73035889,0.01210242
4804.65916626,0.01202602
4806.58797363,0.01207092
4808.51678101,0.01198274
4810.44558838,0.01197159
4812.37439575,0.01193352
4814.30320312,0.01189169
4816.23201050,0.01188193
4818.16081787,0.01187096
4820.08962524,0.01177084
4822.01843262,0.01171862
4823.94723999,0.01182656
4825.87604736,0.01166869
4827.80485474,0.01169646
4829.73366211,0.01170063
4831.66246948,0.01162135
4833.59127686,0.01171082
4835.52008423,0.01157551
4837.44889160,0.01160526
4839.37769897,0.01162845
4841.30650635,0.01153281
4843.23531372,0.01147212
4845.16412109,0.01143409
4847.09292847,0.01144621
4849.02173584,0.01138431
4850.95054321,0.01139426
4852.87935059,0.01137734
4854.80815796,0.01137136
4856.73696533,0.01125641
4858.66577270,0.01117103
4860.59458008,0.01127721
4862.52338745,0.01119745
4864.45219482,0.01117154
4866.38100220,0.01116324
4868.30980957,0.01109327
4870.23861694,0.01113631
4872.16742432,0.01103788
4874.09623169,0.01097690
4876.02503906,0.01104349
4877.95384644,0.01098142
4879.88265381,0.01099413
4881.81146118,0.01099258
4883.74026855,0.01088708
4885.66907593,0.01082142
4887.59788330,0.01078987
4889.52669067,0.01086114
4891.45549805,0.01076983
4893.38430542,0.01071621
4895.31311279,0.01077119
4897.24192017,0.01070557
4899.17072754,0.01070579
4901.09953491,0.01064376
4903.02834228,0.01065422
4904.95714966,0.01068577
4906.88595703,0.01061783
4908.81476440,0.01056956
4910.74357178,0.01053842
4912.67237915,0.01052102
4914.60118652,0.01049352
4916.52999390,0.01050665
4918.45880127,0.01037557
4920.38760864,0.01039370
4922.31641602,0.01045441
4924.24522339,0.01033350
4926.17403076,0.01034481
4928.10283813,0.01026984
4930.03164551,0.01025472
4931.96045288,0.01025492
4933.88926025,0.01017611
4935.81806763,0.01017612
4937.74687500,0.01012518
4939.67568237,0.01007070
4941.60448975,0.01008645
4943.53329712,0.01015297
4945.46210449,0.01005120
4947.39091187,0.00994702
4949.31971924,0.00999118
4951.24852661,0.00997560
4953.17733398,0.00993802
4955.10614136,0.00996106
4957.03494873,0.00992067
4958.96375610,0.00982805
4960.89256348,0.00982250
4962.82137085,0.00978400
4964.75017822,0.00981400
4966.67898560,0.00980562
4968.60779297,0.00974414
4970.53660034,0.00970699
4972.46540771,0.00967430
4974.39421509,0.00974520
4976.32302246,0.00962683
4978.25182983,0.00959698
4980.18063721,0.00956225
4982.10944458,0.00948560
4984.03825195,0.00955480
4985.96705933,0.00947543
4987.89586670,0.00956928
4989.82467407,0.00949620
4991.75348145,0.00936564
4993.68228882,0.00941846
4995.61109619,0.00933081
4997.53990356,0.00938326
4999.46871094,0.00933547
5001.39751831,0.00928346
5003.32632568,0.00932316
5005.25513306,0.00923267
5007.18394043,0.00923799
5009.11274780,0.00928024
5011.04155518,0.00923190
5012.97036255,0.00918755
5014.89916992,0.00921794
5016.82797729,0.00923355
5018.75678467,0.00919468
5020.68559204,0.00911328
5022.61439941,0.00907484
5024.54320679,0.00911034
5026.47201416,0.00906828
5028.40082153,0.00900126
5030.32962891,0.00902684
5032.25843628,0.00895153
5034.18724365,0.00892127
5036.11605103,0.00902870
5038.04485840,0.00892357
5039.97366577,0.00892880
5041.90247314,0.00889507
5043.83128052,0.00874616
5045.76008789,0.00884365
5047.68889526,0.00883488
5049.61770264,0.00879715
5051.54651001,0.00872142
5053.47531738,0.00863175
5055.40412476,0.00863571
5057.33293213,0.00867945
5059.26173950,0.00867223
5061.19054687,0.00855960
5063.11935425,0.00865525
5065.04816162,0.00859723
5066.97696899,0.00848877
5068.90577637,0.00852595
5070.83458374,0.00854223
5072.76339111,0.00856663
5074.69219849,0.00842395
5076.62100586,0.00849517
5078.54981323,0.00858009
5080.47862061,0.00846310
5082.40742798,0.00839667
5084.33623535,0.00836471
5086.26504272,0.00839698
5088.19385010,0.00838783
5090.12265747,0.00834499
5092.05146484,0.00826921
5093.98027222,0.00828648
5095.90907959,0.00828834
5097.83788696,0.00824951
5099.76669434,0.00824514
5101.69550171,0.00817471
5103.62430908,0.00815265
5105.55311645,0.00814045
5107.48192383,0.00816122
5109.41073120,0.00808226
5111.33953857,0.00804521
5113.26834595,0.00806505
5115.19715332,0.00804135
5117.12596069,0.00806688
5119.05476807,0.00794483
5120.98357544,0.00797650
5122.91238281,0.00804700
5124.84119019,0.00797127
5126.76999756,0.00788737
5128.69880493,0.00784282
5130.62761230,0.00787541
5132.55641968,0.00785859
5134.48522705,0.00789213
5136.41403442,0.00779815
5138.34284180,0.00776303
5140.27164917,0.00776663
5142.20045654,0.00768908
5144.12926392,0.00783773
5146.05807129,0.00781797
5147.98687866,0.00765911
5149.91568603,0.00766183
5151.84449341,0.00769282
5153.77330078,0.00761300
5155.70210815,0.00757985
5157.63091553,0.00760018
5159.55972290,0.00754723
5161.48853027,0.00757305
5163.41733765,0.00753068
5165.34614502,0.00748913
5167.27495239,0.00749676
5169.20375977,0.00746488
5171.13256714,0.00745064
5173.06137451,0.00747905
5174.99018188,0.00751687
5176.91898926,0.00745587
5178.84779663,0.00735634
5180.77660400,0.00730549
5182.70541138,0.00742252
5184.63421875,0.00736006
5186.56302612,0.00725874
5188.49183350,0.00736739
5190.42064087,0.00722355
5192.34944824,0.00721450
5194.27825562,0.00734504
5196.20706299,0.00719620
5198.13587036,0.00712795
5200.06467773,0.00721887
5201.99348511,0.00718821
5203.92229248,0.00714032
5205.85109985,0.00699721
5207.77990723,0.00687433
5209.70871460,0.00706694
5211.63752197,0.00708783
5213.56632935,0.00706953
5215.49513672,0.00708007
5217.42394409,0.00703722
5219.35275146,0.00702171
5221.28155884,0.00696065
5223.21036621,0.00710279
5225.13917358,0.00692175
5227.06798096,0.00683928
5228.99678833,0.00702547
5230.92559570,0.00691885
5232.85440308,0.00688753
5234.78321045,0.00681653
5236.71201782,0.00689111
5238.64082520,0.00690417
5240.56963257,0.00687425
5242.49843994,0.00693267
5244.42724731,0.00676662
5246.35605469,0.00675556
5248.28486206,0.00664771
5250.21366943,0.00666729
5252.14247681,0.00678902
5254.07128418,0.00661014
5256.00009155,0.00662003
5257.92889893,0.00670305
5259.85770630,0.00669881
5261.78651367,0.00661566
5263.71532104,0.00643132
5265.64412842,0.00647274
5267.57293579,0.00664315
5269.50174316,0.00651399
5271.43055054,0.00655460
5273.35935791,0.00668968
5275.28816528,0.00647200
5277.21697266,0.00656290
5279.14578003,0.00656221
5281.07458740,0.00640856
5283.00339478,0.00653097
5284.93220215,0.00643362
5286.86100952,0.00649011
5288.78981689,0.00652793
5290.71862427,0.00627676
5292.64743164,0.00632971
5294.57623901,0.00641112
5296.50504639,0.00637570
5298.43385376,0.00639294
5300.36266113,0.00632486
5302.29146851,0.00630777
5304.22027588,0.00634675
5306.14908325,0.00630233
5308.07789062,0.00622306
5310.00669800,0.00622666
5311.93550537,0.00623902
5313.86431274,0.00617673
5315.79312012,0.00618371
5317.72192749,0.00615393
5319.65073486,0.00616677
5321.57954224,0.00621838
5323.50834961,0.00613716
5325.43715698,0.00611208
5327.36596436,0.00601823
5329.29477173,0.00599841
5331.22357910,0.00607887
5333.15238647,0.00594487
5335.08119385,0.00597474
5337.01000122,0.00596584
5338.93880859,0.00570798
5340.86761597,0.00593358
5342.79642334,0.00603308
5344.72523071,0.00568733
5346.65403809,0.00583718
5348.58284546,0.00591006
5350.51165283,0.00586374
5352.44046020,0.00591296
5354.36926758,0.00571855
5356.29807495,0.00584742
5358.22688232,0.00590084
5360.15568970,0.00584583
5362.08449707,0.00591004
5364.01330444,0.00580006
5365.94211182,0.00581739
5367.87091919,0.00580011
5369.79972656,0.00573358
5371.72853394,0.00569389
5373.65734131,0.00575978
5375.58614868,0.00574672
5377.51495605,0.00551551
5379.44376343,0.00559489
5381.37257080,0.00567574
5383.30137817,0.00564710
5385.23018555,0.00561968
5387.15899292,0.00550845
5389.08780029,0.00566602
5391.01660767,0.00568835
5392.94541504,0.00542834
5394.87422241,0.00546685
5396.80302978,0.00554853
5398.73183716,0.00551104
5400.66064453,0.00557430
5402.58945190,0.00552560
5404.51825928,0.00547426
5406.44706665,0.00552922
5408.37587402,0.00548741
5410.30468140,0.00537618
5412.23348877,0.00537834
5414.16229614,0.00534936
5416.09110352,0.00530847
5418.01991089,0.00549313
5419.94871826,0.00545628
5421.87752563,0.00536965
5423.80633301,0.00535242
5425.73514038,0.00531127
5427.66394775,0.00540756
5429.59275513,0.00517258
5431.52156250,0.00520842
5433.45036987,0.00535001
5435.37917725,0.00510056
5437.30798462,0.00525335
5439.23679199,0.00527300
5441.16559936,0.00509309
5443.09440674,0.00522853
5445.02321411,0.00518864
5446.95202148,0.00506263
5448.88082886,0.00510943
5450.80963623,0.00506716
5452.73844360,0.00505536
5454.66725098,0.00513877
5456.59605835,0.00512312
5458.52486572,0.00512717
5460.45367310,0.00509074
5462.38248047,0.00502769
5464.31128784,0.00504038
5466.24009521,0.00507246
5468.16890259,0.00499981
5470.09770996,0.00496971
5472.02651733,0.00510294
5473.95532471,0.00498131
5475.88413208,0.00483629
5477.81293945,0.00492070
5479.74174683,0.00504009
5481.67055420,0.00503548
5483.59936157,0.00493872
5485.52816895,0.00495222
5487.45697632,0.00486118
5489.38578369,0.00485366
5491.31459106,0.00489927
5493.24339844,0.00477645
5495.17220581,0.00477275
5497.10101318,0.00484255
5499.02982056,0.00485507
5500.95862793,0.00482689
5502.88743530,0.00480431
5504.81624268,0.00476692
5506.74505005,0.00478050
5508.67385742,0.00479974
5510.60266479,0.00482335
5512.53147217,0.00480116
5514.46027954,0.00470000
5516.38908691,0.00468672
5518.31789429,0.00462000
5520.24670166,0.00472709
5522.17550903,0.00475552
5524.10431641,0.00464841
5526.03312378,0.00476451
5527.96193115,0.00468185
5529.89073853,0.00461243
5531.81954590,0.00462093
5533.74835327,0.00460728
5535.67716064,0.00461320
5537.60596802,0.00457539
5539.53477539,0.00462442
5541.46358276,0.00457270
5543.39239014,0.00457138
5545.32119751,0.00455362
5547.25000488,0.00443120
5549.17881226,0.00448596
5551.10761963,0.00455436
5553.03642700,0.00446505
5554.96523437,0.00442150
5556.89404175,0.00450186
5558.82284912,0.00442927
5560.75165649,0.00440351
5562.68046387,0.00451402
5564.60927124,0.00448359
5566.53807861,0.00444532
5568.46688599,0.00447564
5570.39569336,0.00444507
5572.32450073,0.00440553
5574.25330811,0.00441856
5576.18211548,0.00434870
5578.11092285,0.00430480
5580.03973022,0.00430760
5581.96853760,0.00431894
5583.89734497,0.00438654
5585.82615234,0.00434908
5587.75495972,0.00428082
5589.68376709,0.00428103
5591.61257446,0.00428664
5593.54138184,0.00427832
5595.47018921,0.00428554
5597.39899658,0.00425295
5599.32780395,0.00423718
5601.25661133,0.00422593
5603.18541870,0.00418040
5605.11422607,0.00420527
5607.04303345,0.00414185
5608.97184082,0.00413832
5610.90064819,0.00418721
5612.82945557,0.00416588
5614.75826294,0.00416712
5616.68707031,0.00412755
5618.61587769,0.00413593
5620.54468506,0.00413810
5622.47349243,0.00415476
5624.40229980,0.00409648
5626.33110718,0.00404461
5628.25991455,0.00409415
5630.18872192,0.00403009
5632.11752930,0.00399835
5634.04633667,0.00399219
5635.97514404,0.00401120
5637.90395142,0.00402894
5639.83275879,0.00403602
5641.76156616,0.00398498
5643.69037353,0.00392208
5645.61918091,0.00399991
5647.54798828,0.00395511
5649.47679565,0.00392470
5651.40560303,0.00396350
5653.33441040,0.00399363
5655.26321777,0.00398739
5657.19202515,0.00398420
5659.12083252,0.00399864
5661.04963989,0.00388562
5662.97844727,0.00389522
5664.90725464,0.00386816
5666.83606201,0.00390347
5668.76486938,0.00391542
5670.69367676,0.00376228
5672.62248413,0.00380553
5674.55129150,0.00377857
5676.48009888,0.00383120
5678.40890625,0.00385448
5680.33771362,0.00377016
5682.26652100,0.00377992
5684.19532837,0.00373294
5686.12413574,0.00382943
5688.05294311,0.00379537
5689.98175049,0.00365453
5691.91055786,0.00374461
5693.83936523,0.00377966
5695.76817261,0.00366507
5697.69697998,0.00367481
5699.62578735,0.00367773
5701.55459473,0.00362539
5703.48340210,0.00370246
5705.41220947,0.00365941
5707.34101685,0.00364577
5709.26982422,0.00363658
5711.19863159,0.00360179
5713.12743896,0.00364345
5715.05624634,0.00357127
5716.98505371,0.00358790
5718.91386108,0.00359548
5720.84266846,0.00358765
5722.77147583,0.00356038
5724.70028320,0.00352618
5726.62909058,0.00356230
5728.55789795,0.00348209
5730.48670532,0.00349716
5732.41551270,0.00348615
5734.34432007,0.00346204
5736.27312744,0.00353472
5738.20193481,0.00348222
5740.13074219,0.00345147
5742.05954956,0.00348810
5743.98835693,0.00347317
5745.91716431,0.00344361
5747.84597168,0.00346030
5749.77477905,0.00341557
5751.70358643,0.00337989
5753.63239380,0.00338207
5755.56120117,0.00335349
5757.49000854,0.00340025
5759.41881592,0.00341776
5761.34762329,0.00335944
5763.27643066,0.00331591
5765.20523804,0.00335506
5767.13404541,0.00335216
5769.06285278,0.00325743
5770.99166016,0.00324571
5772.92046753,0.00327332
5774.84927490,0.00327893
5776.77808228,0.00327417
5778.70688965,0.00324226
5780.63569702,0.00323489
5782.56450439,0.00332510
5784.49331177,0.00332566
5786.42211914,0.00324957
5788.35092651,0.00328404
5790.27973389,0.00326105
5792.20854126,0.00323593
5794.13734863,0.00325622
5796.06615601,0.00318011
5797.99496338,0.00315267
5799.92377075,0.00318047
5801.85257812,0.00314907
5803.78138550,0.00318658
5805.71019287,0.00317938
5807.63900024,0.00316121
5809.56780762,0.00318231
5811.49661499,0.00304657
5813.42542236,0.00310204
5815.35422974,0.00318260
5817.28303711,0.00308543
5819.21184448,0.00307766
5821.14065186,0.00307831
5823.06945923,0.00312119
5824.99826660,0.00306104
5826.92707397,0.00299554
5828.85588135,0.00302536
5830.78468872,0.00304261
5832.71349609,0.00305439
5834.64230347,0.00300571
5836.57111084,0.00302441
5838.49991821,0.00298947
5840.42872559,0.00299482
5842.35753296,0.00302708
5844.28634033,0.00296643
5846.21514770,0.00296618
5848.14395508,0.00293407
5850.07276245,0.00295634
5852.00156982,0.00295018
5853.93037720,0.00294630
5855.85918457,0.00297931
5857.78799194,0.00289414
5859.71679932,0.00288899
5861.64560669,0.00290102
5863.57441406,0.00284104
5865.50322144,0.00282605
5867.43202881,0.00283946
5869.36083618,0.00285106
5871.28964355,0.00283861
5873.21845093,0.00278863
5875.14725830,0.00280625
5877.07606567,0.00279235
5879.00487305,0.00275845
5880.93368042,0.00281086
5882.86248779,0.00277084
5884.79129517,0.00277200
5886.72010254,0.00276852
5888.64890991,0.00278346
5890.57771728,0.00282425
5892.50652466,0.00274125
5894.43533203,0.00278279
5896.36413940,0.00278759
5898.29294678,0.00276755
5900.22175415,0.00273248
5902.15056152,0.00265210
5904.07936890,0.00270754
5906.00817627,0.00271619
5907.93698364,0.00273109
5909.86579102,0.00268258
5911.79459839,0.00265991
5913.72340576,0.00275281
5915.65221313,0.00269639
5917.58102051,0.00262567
5919.50982788,0.00265554
5921.43863525,0.00273222
5923.36744263,0.00271535
5925.29625000,0.00263192
5927.22505737,0.00266314
5929.15386475,0.00265891
5931.08267212,0.00259481
5933.01147949,0.00260114
5934.94028686,0.00257997
5936.86909424,0.00258560
5938.79790161,0.00260178
5940.72670898,0.00261414
5942.65551636,0.00263238
5944.58432373,0.00251040
5946.51313110,0.00253375
5948.44193848,0.00254399
5950.37074585,0.00249945
5952.29955322,0.00255908
5954.22836060,0.00250275
5956.15716797,0.00255819
5958.08597534,0.00250358
5960.01478271,0.00249789
5961.94359009,0.00253916
5963.87239746,0.00240849
5965.80120483,0.00253500
5967.73001221,0.00250202
5969.65881958,0.00245928
5971.58762695,0.00252064
5973.51643433,0.00244840
5975.44524170,0.00248715
5977.37404907,0.00243343
5979.30285645,0.00242025
5981.23166382,0.00241949
5983.16047119,0.00231523
5985.08927856,0.00236966
5987.01808594,0.00247059
5988.94689331,0.00240042
5990.87570068,0.00239750
5992.80450806,0.00244040
5994.73331543,0.00232678
5996.66212280,0.00237950
5998.59093018,0.00239272
6000.51973755,0.00234900
