399.26312622,0.00016354
401.19193359,0.00042157
403.12074097,0.00016280
405.04954834,-0.00041777
406.97835571,0.00052484
408.90716309,0.00043253
410.83597046,-0.00000938
412.76477783,0.00072186
414.69358521,0.00019065
416.62239258,0.00013063
418.55119995,0.00065445
420.48000732,0.00019153
422.40881470,0.00022648
424.33762207,0.00063424
426.26642944,0.00053462
428.19523682,0.00025519
430.12404419,0.00061210
432.05285156,0.00040230
433.98165894,0.00004121
435.91046631,0.00011476
437.83927368,0.00029560
439.76808105,0.00041092
441.69688843,-0.00000115
443.62569580,0.00061791
445.55450317,0.00031353
447.48331055,0.00010527
449.41211792,0.00093207
451.34092529,0.00036937
453.26973267,0.00049135
455.19854004,0.00026605
457.12734741,0.00009419
459.05615479,0.00028720
460.98496216,0.00004324
462.91376953,0.00049810
464.84257690,0.00033711
466.77138428,0.00043012
468.70019165,0.00020336
470.62899902,0.00018820
472.55780640,0.00058033
474.48661377,0.00010580
476.41542114,0.00030755
478.34422852,-0.00005785
480.27303589,-0.00017276
482.20184326,0.00028806
484.13065063,0.00011450
486.05945801,0.00012505
487.98826538,0.00026324
489.91707275,0.00048340
491.84588013,0.00026641
493.77468750,0.00033903
495.70349487,0.00043339
497.63230225,0.00027262
499.56110962,0.00038086
501.48991699,0.00019710
503.41872437,-0.00012893
505.34753174,-0.00008040
507.27633911,0.00028186
509.20514648,0.00006995
511.13395386,0.00013398
513.06276123,0.00030805
514.99156860,-0.00008806
516.92037598,0.00017005
518.84918335,-0.00006804
520.77799072,0.00006456
522.70679810,0.00011655
524.63560547,-0.00022870
526.56441284,0.00020792
528.49322021,0.00057514
530.42202759,0.00026863
532.35083496,0.00021182
534.27964233,0.00034165
536.20844971,0.00025228
538.13725708,0.00014250
540.06606445,0.00018950
541.99487183,0.00011157
543.92367920,0.00010483
545.85248657,0.00043872
547.78129395,0.00040098
549.71010132,0.00027640
551.63890869,0.00034050
553.56771606,0.00005989
555.49652344,0.00002821
557.42533081,0.00018693
559.35413818,0.00023873
561.28294556,-0.00003947
563.21175293,-0.00012113
565.14056030,0.00005452
567.06936768,-0.00010772
568.99817505,0.00008159
570.92698242,0.00032989
572.85578979,0.00035451
574.78459717,-0.00010955
576.71340454,-0.00001496
578.64221191,0.00034399
580.57101929,0.00012906
582.49982666,0.00042700
584.42863403,0.00009035
586.35744141,0.00015544
588.28624878,0.00026394
590.21505615,-0.00001744
592.14386353,0.00010835
594.07267090,-0.00000842
596.00147827,0.00032177
597.93028564,-0.00003470
599.85909302,-0.00007010
601.78790039,0.00029715
603.71670776,0.00001645
605.64551514,0.00018132
607.57432251,-0.00013127
609.50312988,0.00025178
611.43193726,0.00027327
613.36074463,0.00001665
615.28955200,0.00051401
617.21835938,-0.00005502
619.14716675,-0.00023380
621.07597412,0.00008008
623.00478149,0.00021718
624.93358887,0.00027880
626.86239624,0.00027653
628.79120361,0.00001621
630.72001099,-0.00029294
632.64881836,0.00021486
634.57762573,0.00040613
636.50643311,0.00027753
638.43524048,0.00058209
640.36404785,0.00053133
642.29285522,0.00042195
644.22166260,0.00068628
646.15046997,0.00052145
648.07927734,0.00068984
650.00808472,0.00099354
651.93689209,0.00083484
653.86569946,0.00082238
655.79450684,0.00065536
657.72331421,0.00087266
659.65212158,0.00103425
661.58092896,0.00086766
663.50973633,0.00104299
665.43854370,0.00109982
667.36735107,0.00092100
669.29615845,0.00101782
671.22496582,0.00140043
673.15377319,0.00119298
675.08258057,0.00125730
677.01138794,0.00129717
678.94019531,0.00090071
680.86900269,0.00142212
682.79781006,0.00154875
684.72661743,0.00124890
686.65542480,0.00123262
688.58423218,0.00113452
690.51303955,0.00131147
692.44184692,0.00137750
694.37065430,0.00142280
696.29946167,0.00172180
698.22826904,0.00188577
700.15707642,0.00202138
702.08588379,0.00220809
704.01469116,0.00191549
705.94349854,0.00171791
707.87230591,0.00172284
709.80111328,0.00130482
711.72992065,0.00101745
713.65872803,0.00076369
715.58753540,0.00061935
717.51634277,0.00055970
719.44515015,0.00034239
721.37395752,0.00021985
723.30276489,0.00011333
725.23157227,0.00023732
727.16037964,0.00032239
729.08918701,0.00005048
731.01799438,-0.00016699
732.94680176,-0.00000789
734.87560913,0.00011128
736.80441650,0.00023652
738.73322388,0.00039226
740.66203125,0.00018952
742.59083862,0.00021426
744.51964600,0.00023426
746.44845337,0.00027600
748.37726074,0.00032487
750.30606812,0.00011708
752.23487549,0.00028401
754.16368286,0.00036663
756.09249023,0.00024922
758.02129761,0.00026426
759.95010498,0.00009900
761.87891235,0.00001651
763.80771973,0.00045665
765.73652710,0.00047020
767.66533447,0.00006798
769.59414185,0.00030088
771.52294922,0.00023584
773.45175659,-0.00006916
775.38056396,0.00009356
777.30937134,0.00003042
779.23817871,0.00001498
781.16698608,0.00013622
783.09579346,0.00002888
785.02460083,0.00014702
786.95340820,0.00014138
788.88221558,0.00023802
790.81102295,0.00048071
792.73983032,0.00021408
794.66863770,0.00036596
796.59744507,0.00040811
798.52625244,0.00039624
800.45505981,0.00075242
802.38386719,0.00051011
804.31267456,0.00035905
806.24148193,0.00017845
808.17028931,0.00012330
810.09909668,0.00030980
812.02790405,0.00037565
813.95671143,0.00032580
815.88551880,0.00021845
817.81432617,0.00032940
819.74313354,0.00002439
821.67194092,0.00027665
823.60074829,0.00049555
825.52955566,0.00040822
827.45836304,0.00057626
829.38717041,0.00026148
831.31597778,0.00053800
833.24478516,0.00048403
835.17359253,0.00051084
837.10239990,0.00077832
839.03120728,0.00058332
840.96001465,0.00078782
842.88882202,0.00058664
844.81762939,0.00069560
846.74643677,0.00060597
848.67524414,0.00045219
850.60405151,0.00051640
852.53285889,0.00026359
854.46166626,0.00066390
856.39047363,0.00035885
858.31928101,0.00026268
860.24808838,0.00053377
862.17689575,0.00039466
864.10570313,0.00059902
866.03451050,0.00019401
867.96331787,0.00012091
869.89212524,0.00036779
871.82093262,0.00026180
873.74973999,0.00023248
875.67854736,0.00043311
877.60735474,0.00054824
879.53616211,0.00010765
881.46496948,0.00005924
883.39377686,0.00033830
885.32258423,0.00042185
887.25139160,0.00025926
889.18019897,0.00028042
891.10900635,0.00049153
893.03781372,0.00046315
894.96662109,0.00046280
896.89542847,0.00031060
898.82423584,0.00039344
900.75304321,0.00041127
902.68185059,0.00051152
904.61065796,0.00055186
906.53946533,0.00026117
908.46827271,0.00042097
910.39708008,0.00034388
912.32588745,0.00043055
914.25469482,0.00051824
916.18350220,0.00025436
918.11230957,0.00050363
920.04111694,0.00076061
921.96992432,0.00072007
923.89873169,0.00058548
925.82753906,0.00059337
927.75634644,0.00074758
929.68515381,0.00074804
931.61396118,0.00082699
933.54276855,0.00107942
935.47157593,0.00081483
937.40038330,0.00072857
939.32919067,0.00091165
941.25799805,0.00071856
943.18680542,0.00101351
945.11561279,0.00111624
947.04442017,0.00096038
948.97322754,0.00091818
950.90203491,0.00081345
952.83084229,0.00096264
954.75964966,0.00092344
956.68845703,0.00088927
958.61726440,0.00072721
960.54607178,0.00075262
962.47487915,0.00096028
964.40368652,0.00085893
966.33249390,0.00104374
968.26130127,0.00105239
970.19010864,0.00087678
972.11891602,0.00096597
974.04772339,0.00125587
975.97653076,0.00131474
977.90533813,0.00113153
979.83414551,0.00130243
981.76295288,0.00136330
983.69176025,0.00140448
985.62056763,0.00158225
987.54937500,0.00179626
989.47818237,0.00221803
991.40698975,0.00233522
993.33579712,0.00242311
995.26460449,0.00276504
997.19341187,0.00291131
999.12221924,0.00289561
1001.05102661,0.00301627
1002.97983398,0.00341312
1004.90864136,0.00363125
1006.83744873,0.00376697
1008.76625610,0.00406691
1010.69506348,0.00406700
1012.62387085,0.00433104
1014.55267822,0.00471716
1016.48148560,0.00487073
1018.41029297,0.00527556
1020.33910034,0.00539342
1022.26790771,0.00556936
1024.19671509,0.00592559
1026.12552246,0.00592045
1028.05432983,0.00612361
1029.98313721,0.00638311
1031.91194458,0.00634367
1033.84075195,0.00653297
1035.76955933,0.00684514
1037.69836670,0.00671326
1039.62717407,0.00656420
1041.55598145,0.00651391
1043.48478882,0.00641360
1045.41359619,0.00655304
1047.34240356,0.00659212
1049.27121094,0.00629922
1051.20001831,0.00604417
1053.12882568,0.00601700
1055.05763306,0.00595425
1056.98644043,0.00586831
1058.91524780,0.00562762
1060.84405518,0.00551069
1062.77286255,0.00553460
1064.70166992,0.00513582
1066.63047729,0.00509148
1068.55928467,0.00499328
1070.48809204,0.00470292
1072.41689941,0.00461428
1074.34570679,0.00419862
1076.27451416,0.00417180
1078.20332153,0.00410618
1080.13212891,0.00379575
1082.06093628,0.00372321
1083.98974365,0.00356690
1085.91855103,0.00347555
1087.84735840,0.00318522
1089.77616577,0.00292390
1091.70497314,0.00306198
1093.63378052,0.00311897
1095.56258789,0.00285718
1097.49139526,0.00271391
1099.42020264,0.00262259
1101.34901001,0.00239067
1103.27781738,0.00247788
1105.20662476,0.00242423
1107.13543213,0.00222348
1109.06423950,0.00231909
1110.99304687,0.00233431
1112.92185425,0.00225580
1114.85066162,0.00229187
1116.77946899,0.00232265
1118.70827637,0.00224365
1120.63708374,0.00228514
1122.56589111,0.00230119
1124.49469849,0.00229577
1126.42350586,0.00248043
1128.35231323,0.00258373
1130.28112061,0.00258916
1132.20992798,0.00263710
1134.13873535,0.00280825
1136.06754272,0.00289337
1137.99635010,0.00288993
1139.92515747,0.00291704
1141.85396484,0.00310997
1143.78277222,0.00341621
1145.71157959,0.00339309
1147.64038696,0.00365142
1149.56919434,0.00395150
1151.49800171,0.00393444
1153.42680908,0.00433168
1155.35561646,0.00432810
1157.28442383,0.00430610
1159.21323120,0.00487391
1161.14203857,0.00487885
1163.07084595,0.00492340
1164.99965332,0.00514620
1166.92846069,0.00528509
1168.85726807,0.00571132
1170.78607544,0.00574384
1172.71488281,0.00583437
1174.64369019,0.00612121
1176.57249756,0.00633809
1178.50130493,0.00649099
1180.43011230,0.00651329
1182.35891968,0.00705221
1184.28772705,0.00731149
1186.21653442,0.00741182
1188.14534180,0.00792288
1190.07414917,0.00832128
1192.00295654,0.00867608
1193.93176392,0.00882718
1195.86057129,0.00928058
1197.78937866,0.00980049
1199.71818604,0.01014530
1201.64699341,0.01063236
1203.57580078,0.01092517
1205.50460815,0.01137767
1207.43341553,0.01185570
1209.36222290,0.01213884
1211.29103027,0.01242840
1213.21983765,0.01281516
1215.14864502,0.01313185
1217.07745239,0.01337229
1219.00625977,0.01368032
1220.93506714,0.01382553
1222.86387451,0.01398149
1224.79268188,0.01406071
1226.72148926,0.01416012
1228.65029663,0.01432996
1230.57910400,0.01440331
1232.50791138,0.01426452
1234.43671875,0.01409048
1236.36552612,0.01435822
1238.29433350,0.01429531
1240.22314087,0.01410644
1242.15194824,0.01414804
1244.08075562,0.01402936
1246.00956299,0.01397895
1247.93837036,0.01386036
1249.86717773,0.01383915
1251.79598511,0.01379125
1253.72479248,0.01367028
1255.65359985,0.01341706
1257.58240723,0.01316578
1259.51121460,0.01318530
1261.44002197,0.01289258
1263.36882935,0.01279054
1265.29763672,0.01282720
1267.22644409,0.01249623
1269.15525146,0.01223332
1271.08405884,0.01205692
1273.01286621,0.01194785
1274.94167358,0.01180117
1276.87048096,0.01158111
1278.79928833,0.01129014
1280.72809570,0.01095646
1282.65690308,0.01079277
1284.58571045,0.01065862
1286.51451782,0.01046554
1288.44332520,0.01039596
1290.37213257,0.01018707
1292.30093994,0.00999191
1294.22974731,0.01002410
1296.15855469,0.00975640
1298.08736206,0.00986234
1300.01616943,0.01010295
1301.94497681,0.00994495
1303.87378418,0.01029259
1305.80259155,0.01035502
1307.73139893,0.01012688
1309.66020630,0.01043451
1311.58901367,0.01076396
1313.51782104,0.01083018
1315.44662842,0.01088167
1317.37543579,0.01137970
1319.30424316,0.01167481
1321.23305054,0.01180337
1323.16185791,0.01237368
1325.09066528,0.01265473
1327.01947266,0.01287975
1328.94828003,0.01321432
1330.87708740,0.01348535
1332.80589478,0.01386833
1334.73470215,0.01401281
1336.66350952,0.01424414
1338.59231689,0.01432846
1340.52112427,0.01434829
1342.44993164,0.01495502
1344.37873901,0.01506677
1346.30754639,0.01477761
1348.23635376,0.01473075
1350.16516113,0.01466451
1352.09396851,0.01466563
1354.02277588,0.01450512
1355.95158325,0.01446387
1357.88039062,0.01454451
1359.80919800,0.01420285
1361.73800537,0.01343098
1363.66681274,0.01335865
1365.59562012,0.01390681
1367.52442749,0.01354207
1369.45323486,0.01350018
1371.38204224,0.01354346
1373.31084961,0.01292029
1375.23965698,0.01304884
1377.16846436,0.01330012
1379.09727173,0.01338294
1381.02607910,0.01330241
1382.95488647,0.01328588
1384.88369385,0.01331631
1386.81250122,0.01267324
1388.74130859,0.01280805
1390.67011597,0.01382515
1392.59892334,0.01356709
1394.52773071,0.01279827
1396.45653809,0.01349510
1398.38534546,0.01347341
1400.31415283,0.01347100
1402.24296021,0.01435220
1404.17176758,0.01345498
1406.10057495,0.01352666
1408.02938232,0.01388108
1409.95818970,0.01352343
1411.88699707,0.01378437
1413.81580444,0.01343333
1415.74461182,0.01373686
1417.67341919,0.01220817
1419.60222656,0.01111086
1421.53103394,0.01271843
1423.45984131,0.01231742
1425.38864868,0.01188255
1427.31745605,0.01204716
1429.24626343,0.01139939
1431.17507080,0.01093961
1433.10387817,0.01109054
1435.03268555,0.01019475
1436.96149292,0.00876186
1438.89030029,0.00998270
1440.81910767,0.01020314
1442.74791504,0.00955361
1444.67672241,0.00982350
1446.60552979,0.00906736
1448.53433716,0.00923392
1450.46314453,0.00943315
1452.39195190,0.00973259
1454.32075928,0.01001436
1456.24956665,0.00844642
1458.17837402,0.00891944
1460.10718140,0.01133373
1462.03598877,0.01190723
1463.96479614,0.01188753
1465.89360352,0.01243914
1467.82241089,0.01399817
1469.75121826,0.01477813
1471.68002563,0.01332280
1473.60883301,0.01416633
1475.53764038,0.01595562
1477.46644775,0.01699632
1479.39525513,0.01853606
1481.32406250,0.01866673
1483.25286987,0.01986707
1485.18167725,0.02056331
1487.11048462,0.02014039
1489.03929199,0.02015723
1490.96809937,0.02027500
1492.89690674,0.02331474
1494.82571411,0.02280860
1496.75452148,0.02061291
1498.68332886,0.02324361
1500.61213623,0.02392701
1502.54094360,0.02541576
1504.46975098,0.02381259
1506.39855835,0.01778885
1508.32736572,0.02168429
1510.25617310,0.02495358
1512.18498047,0.02426176
1514.11378784,0.02605422
1516.04259521,0.02357478
1517.97140259,0.02472399
1519.90020996,0.02371794
1521.82901733,0.02092594
1523.75782471,0.02532395
1525.68663208,0.02465596
1527.61543945,0.02462188
1529.54424683,0.02689397
1531.47305420,0.02588512
1533.40186157,0.02404376
1535.33066895,0.02541821
1537.25947632,0.02679644
1539.18828369,0.01943362
1541.11709106,0.02053431
1543.04589844,0.02426588
1544.97470581,0.02344939
1546.90351318,0.02742998
1548.83232056,0.02537993
1550.76112793,0.02631936
1552.68993530,0.02617525
1554.61874268,0.02381945
1556.54755005,0.02516837
1558.47635742,0.01813233
1560.40516479,0.01996660
1562.33397217,0.02741646
1564.26277954,0.02572157
1566.19158691,0.02644298
1568.12039429,0.02607524
1570.04920166,0.02331091
1571.97800903,0.02680620
1573.90681641,0.02684185
1575.83562378,0.02141117
1577.76443115,0.02441079
1579.69323853,0.02716901
1581.62204590,0.02601335
1583.55085327,0.02688296
1585.47966064,0.02614754
1587.40846802,0.02631253
1589.33727539,0.02621273
1591.26608276,0.02611844
1593.19489014,0.02614698
1595.12369751,0.02588184
1597.05250488,0.02625948
1598.98131226,0.02604434
1600.91011963,0.02606951
1602.83892700,0.02554658
1604.76773437,0.02591938
1606.69654175,0.02557268
1608.62534912,0.02567554
1610.55415649,0.02554972
1612.48296387,0.02568158
1614.41177124,0.02598932
1616.34057861,0.02157287
1618.26938599,0.02363978
1620.19819336,0.02694996
1622.12700073,0.02414216
1624.05580811,0.02447060
1625.98461548,0.02559463
1627.91342285,0.02569969
1629.84223022,0.02576054
1631.77103760,0.02765412
1633.69984497,0.02540945
1635.62865234,0.02146969
1637.55745972,0.02506272
1639.48626709,0.02746357
1641.41507446,0.02721280
1643.34388184,0.02791922
1645.27268921,0.02530533
1647.20149658,0.02268970
1649.13030396,0.02825085
1651.05911133,0.02642236
1652.98791870,0.01759782
1654.91672607,0.02417574
1656.84553345,0.02959457
1658.77434082,0.02852377
1660.70314819,0.02937492
1662.63195557,0.02702229
1664.56076294,0.02877059
1666.48957031,0.03058429
1668.41837769,0.02671948
1670.34718506,0.02626361
1672.27599243,0.02974078
1674.20479980,0.02739984
1676.13360718,0.02680894
1678.06241455,0.03048293
1679.99122192,0.02937361
1681.92002930,0.02914360
1683.84883667,0.02362331
1685.77764404,0.02412027
1687.70645142,0.03210343
1689.63525879,0.02791715
1691.56406616,0.03079093
1693.49287354,0.03066544
1695.42168091,0.02324567
1697.35048828,0.02829352
1699.27929565,0.02462853
1701.20810303,0.02294420
1703.13691040,0.03045654
1705.06571777,0.02771928
1706.99452515,0.02808743
1708.92333252,0.03027947
1710.85213989,0.02907460
1712.78094727,0.02955021
1714.70975464,0.02735964
1716.63856201,0.02480167
1718.56736938,0.02444854
1720.49617676,0.02858505
1722.42498413,0.02944901
1724.35379150,0.02731420
1726.28259888,0.02956494
1728.21140625,0.02737285
1730.14021362,0.02776430
1732.06902100,0.02669062
1733.99782837,0.02067209
1735.92663574,0.02581706
1737.85544312,0.02794405
1739.78425049,0.02488951
1741.71305786,0.02691337
1743.64186523,0.02721544
1745.57067261,0.02737365
1747.49947998,0.02752933
1749.42828735,0.02624765
1751.35709473,0.02514974
1753.28590210,0.02784899
1755.21470947,0.02887115
1757.14351685,0.02658239
1759.07232422,0.02894896
1761.00113159,0.02707063
1762.92993896,0.02653229
1764.85874634,0.02990511
1766.78755371,0.02702206
1768.71636108,0.02735207
1770.64516846,0.02680793
1772.57397583,0.02430159
1774.50278320,0.02714614
1776.43159058,0.02827047
1778.36039795,0.02781107
1780.28920532,0.02767976
1782.21801270,0.02780427
1784.14682007,0.02774365
1786.07562744,0.02732374
1788.00443481,0.02866454
1789.93324219,0.02772421
1791.86204956,0.02522510
1793.79085693,0.02638990
1795.71966431,0.02792282
1797.64847168,0.02756568
1799.57727905,0.02716699
1801.50608643,0.02687292
1803.43489380,0.02772956
1805.36370117,0.02806380
1807.29250854,0.02792750
1809.22131592,0.02783554
1811.15012329,0.02695160
1813.07893066,0.02790223
1815.00773804,0.02795667
1816.93654541,0.02757195
1818.86535278,0.02767254
1820.79416016,0.02762673
1822.72296753,0.02808534
1824.65177490,0.02636019
1826.58058228,0.02723876
1828.50938965,0.02709885
1830.43819702,0.02543894
1832.36700439,0.02767225
1834.29581177,0.02744705
1836.22461914,0.02724537
1838.15342651,0.02725286
1840.08223389,0.02742011
1842.01104126,0.02725364
1843.93984863,0.02432922
1845.86865601,0.02599708
1847.79746338,0.02735492
1849.72627075,0.02662211
1851.65507812,0.02730003
1853.58388550,0.02678538
1855.51269287,0.02718173
1857.44150024,0.02714278
1859.37030762,0.02671945
1861.29911499,0.02668226
1863.22792236,0.02648667
1865.15672974,0.02680608
1867.08553711,0.02588834
1869.01434448,0.02486994
1870.94315186,0.02581199
1872.87195923,0.02673155
1874.80076660,0.02642330
1876.72957397,0.02654895
1878.65838135,0.02631639
1880.58718872,0.02626786
1882.51599609,0.02645677
1884.44480347,0.02594225
1886.37361084,0.02642540
1888.30241821,0.02572647
1890.23122559,0.02516228
1892.16003296,0.02607268
1894.08884033,0.02564857
1896.01764771,0.02559867
1897.94645508,0.02588005
1899.87526245,0.02584124
1901.80406982,0.02585528
1903.73287720,0.02559042
1905.66168457,0.02567437
1907.59049194,0.02532419
1909.51929932,0.02524004
1911.44810669,0.02542612
1913.37691406,0.02529617
1915.30572144,0.02546960
1917.23452881,0.02451362
1919.16333618,0.02454356
1921.09214355,0.02539684
1923.02095093,0.02462236
1924.94975830,0.02505800
1926.87856567,0.02530951
1928.80737305,0.02495980
1930.73618042,0.02521199
1932.66498779,0.02488560
1934.59379517,0.02509674
1936.52260254,0.02484868
1938.45140991,0.02491712
1940.38021729,0.02492535
1942.30902466,0.02414011
1944.23783203,0.02468314
1946.16663940,0.02478417
1948.09544678,0.02471395
1950.02425415,0.02494033
1951.95306152,0.02468319
1953.88186890,0.02468374
1955.81067627,0.02462806
1957.73948364,0.02467783
1959.66829102,0.02466892
1961.59709839,0.02461839
1963.52590576,0.02462507
1965.45471313,0.02449165
1967.38352051,0.02427202
1969.31232788,0.02430201
1971.24113525,0.02451580
1973.16994263,0.02438736
1975.09875000,0.02425387
1977.02755737,0.02423736
1978.95636475,0.02436116
1980.88517212,0.02417008
1982.81397949,0.02414588
1984.74278687,0.02429239
1986.67159424,0.02389649
1988.60040161,0.02403374
1990.52920898,0.02398324
1992.45801636,0.02373372
1994.38682373,0.02398436
1996.31563110,0.02387412
1998.24443848,0.02379409
2000.17324585,0.02382798
2002.10205322,0.02368235
2004.03086060,0.02363036
2005.95966797,0.02353451
2007.88847534,0.02336250
2009.81728271,0.02340583
2011.74609009,0.02336533
2013.67489746,0.02329698
2015.60370483,0.02326227
2017.53251221,0.02308888
2019.46131958,0.02310548
2021.39012695,0.02309613
2023.31893433,0.02313932
2025.24774170,0.02307511
2027.17654907,0.02291576
2029.10535645,0.02283146
2031.03416382,0.02273561
2032.96297119,0.02285840
2034.89177856,0.02264236
2036.82058594,0.02247571
2038.74939331,0.02252026
2040.67820068,0.02248107
2042.60700806,0.02252619
2044.53581543,0.02232349
2046.46462280,0.02228186
2048.39343018,0.02239784
2050.32223755,0.02231105
2052.25104492,0.02216235
2054.17985229,0.02221347
2056.10865967,0.02216670
2058.03746704,0.02196584
2059.96627441,0.02207161
2061.89508179,0.02197391
2063.82388916,0.02184674
2065.75269653,0.02184817
2067.68150391,0.02174824
2069.61031128,0.02179672
2071.53911865,0.02179431
2073.46792603,0.02169546
2075.39673340,0.02166626
2077.32554077,0.02168581
2079.25434814,0.02161820
2081.18315552,0.02154538
2083.11196289,0.02143747
2085.04077026,0.02141272
2086.96957764,0.02147525
2088.89838501,0.02133169
2090.82719238,0.02123825
2092.75599976,0.02119847
2094.68480713,0.02120091
2096.61361450,0.02124811
2098.54242187,0.02120092
2100.47122925,0.02115413
2102.40003662,0.02113093
2104.32884399,0.02097395
2106.25765137,0.02078047
2108.18645874,0.02084268
2110.11526611,0.02084383
2112.04407349,0.02080834
2113.97288086,0.02083865
2115.90168823,0.02076849
2117.83049561,0.02076150
2119.75930298,0.02079050
2121.68811035,0.02077692
2123.61691772,0.02068853
2125.54572510,0.02055599
2127.47453247,0.02049104
2129.40333984,0.02059007
2131.33214722,0.02057870
2133.26095459,0.02052059
2135.18976196,0.02052424
2137.11856934,0.02045653
2139.04737671,0.02046786
2140.97618408,0.02034285
2142.90499146,0.02038368
2144.83379883,0.02036962
2146.76260620,0.02018948
2148.69141357,0.02025349
2150.62022095,0.02019190
2152.54902832,0.02019586
2154.47783569,0.02021230
2156.40664307,0.02024486
2158.33545044,0.02014876
2160.26425781,0.02003278
2162.19306519,0.02015159
2164.12187256,0.02004950
2166.05067993,0.02008338
2167.97948730,0.02002842
2169.90829468,0.01994537
2171.83710205,0.01996833
2173.76590942,0.01983261
2175.69471680,0.01981541
2177.62352417,0.01982875
2179.55233154,0.01987119
2181.48113892,0.01977830
2183.40994629,0.01978932
2185.33875366,0.01968782
2187.26756104,0.01961894
2189.19636841,0.01973097
2191.12517578,0.01954643
2193.05398315,0.01974001
2194.98279053,0.01970076
2196.91159790,0.01956074
2198.84040527,0.01967005
2200.76921265,0.01943712
2202.69802002,0.01944641
2204.62682739,0.01944495
2206.55563477,0.01941394
2208.48444214,0.01941997
2210.41324951,0.01936492
2212.34205688,0.01929855
2214.27086426,0.01923358
2216.19967163,0.01937266
2218.12847900,0.01925413
2220.05728638,0.01914395
2221.98609375,0.01919485
2223.91490112,0.01920840
2225.84370850,0.01910680
2227.77251587,0.01899953
2229.70132324,0.01910974
2231.63013062,0.01901458
2233.55893799,0.01900791
2235.48774536,0.01897192
2237.41655273,0.01890605
2239.34536011,0.01898287
2241.27416748,0.01880628
2243.20297485,0.01884770
2245.13178223,0.01882508
2247.06058960,0.01877452
2248.98939697,0.01887059
2250.91820435,0.01867777
2252.84701172,0.01869936
2254.77581909,0.01866755
2256.70462646,0.01852384
2258.63343384,0.01861643
2260.56224121,0.01853357
2262.49104858,0.01847149
2264.41985596,0.01847097
2266.34866333,0.01834794
2268.27747070,0.01835579
2270.20627808,0.01842283
2272.13508545,0.01834327
2274.06389282,0.01826802
2275.99270020,0.01820334
2277.92150757,0.01817508
2279.85031494,0.01828779
2281.77912231,0.01823901
2283.70792969,0.01820054
2285.63673706,0.01817276
2287.56554443,0.01805238
2289.49435181,0.01808185
2291.42315918,0.01793492
2293.35196655,0.01786555
2295.28077393,0.01786853
2297.20958130,0.01775309
2299.13838867,0.01780278
2301.06719604,0.01767818
2302.99600342,0.01750896
2304.92481079,0.01744489
2306.85361816,0.01729426
2308.78242554,0.01715720
2310.71123291,0.01704549
2312.64004028,0.01674251
2314.56884766,0.01656116
2316.49765503,0.01653130
2318.42646240,0.01613753
2320.35526978,0.01599956
2322.28407715,0.01577868
2324.21288452,0.01541893
2326.14169189,0.01537507
2328.07049927,0.01494563
2329.99930664,0.01474127
2331.92811401,0.01471795
2333.85692139,0.01467596
2335.78572876,0.01475342
2337.71453613,0.01452926
2339.64334351,0.01450852
2341.57215088,0.01463038
2343.50095825,0.01471918
2345.42976562,0.01505893
2347.35857300,0.01587381
2349.28738037,0.01627919
2351.21618774,0.01560447
2353.14499512,0.01486626
2355.07380249,0.01425676
2357.00260986,0.01382746
2358.93141724,0.01358197
2360.86022461,0.01327984
2362.78903198,0.01323486
2364.71783936,0.01346703
2366.64664673,0.01377415
2368.57545410,0.01397512
2370.50426147,0.01420779
2372.43306885,0.01466281
2374.36187622,0.01522205
2376.29068359,0.01560898
2378.21949097,0.01590594
2380.14829834,0.01617739
2382.07710571,0.01640601
2384.00591309,0.01666894
2385.93472046,0.01670805
2387.86352783,0.01663185
2389.79233521,0.01661267
2391.72114258,0.01666816
2393.64994995,0.01661139
2395.57875732,0.01654842
2397.50756470,0.01656704
2399.43637207,0.01644567
2401.36517944,0.01649816
2403.29398682,0.01641524
2405.22279419,0.01630436
2407.15160156,0.01634372
2409.08040894,0.01625598
2411.00921631,0.01629818
2412.93802368,0.01626674
2414.86683105,0.01618914
2416.79563843,0.01614907
2418.72444580,0.01611702
2420.65325317,0.01617018
2422.58206055,0.01619791
2424.51086792,0.01606384
2426.43967529,0.01607537
2428.36848267,0.01615963
2430.29729004,0.01586589
2432.22609741,0.01596291
2434.15490479,0.01603019
2436.08371216,0.01581030
2438.01251953,0.01584669
2439.94132690,0.01571844
2441.87013428,0.01575425
2443.79894165,0.01577763
2445.72774902,0.01578129
2447.65655640,0.01584427
2449.58536377,0.01577189
2451.51417114,0.01572625
2453.44297852,0.01560270
2455.37178589,0.01569675
2457.30059326,0.01565909
2459.22940063,0.01552946
2461.15820801,0.01552904
2463.08701538,0.01549401
2465.01582275,0.01558103
2466.94463013,0.01551556
2468.87343750,0.01541817
2470.80224487,0.01548596
2472.73105225,0.01554160
2474.65985962,0.01538269
2476.58866699,0.01536341
2478.51747437,0.01537182
2480.44628174,0.01527789
2482.37508911,0.01543268
2484.30389648,0.01524446
2486.23270386,0.01513155
2488.16151123,0.01525309
2490.09031860,0.01519264
2492.01912598,0.01517051
2493.94793335,0.01508772
2495.87674072,0.01516758
2497.80554810,0.01514512
2499.73435547,0.01498755
2501.66316284,0.01497223
2503.59197021,0.01492264
2505.52077759,0.01493185
2507.44958496,0.01505242
2509.37839233,0.01499673
2511.30719971,0.01479099
2513.23600708,0.01482009
2515.16481445,0.01474454
2517.09362183,0.01468689
2519.02242920,0.01475172
2520.95123657,0.01472377
2522.88004395,0.01476597
2524.80885132,0.01462907
2526.73765869,0.01470239
2528.66646606,0.01480328
2530.59527344,0.01460305
2532.52408081,0.01456999
2534.45288818,0.01453593
2536.38169556,0.01455713
2538.31050293,0.01462233
2540.23931030,0.01450937
2542.16811768,0.01441701
2544.09692505,0.01444642
2546.02573242,0.01445393
2547.95453979,0.01447652
2549.88334717,0.01443134
2551.81215454,0.01427159
2553.74096191,0.01428332
2555.66976929,0.01427897
2557.59857666,0.01422260
2559.52738403,0.01412571
2561.45619141,0.01405635
2563.38499878,0.01424412
2565.31380615,0.01427685
2567.24261353,0.01414192
2569.17142090,0.01412103
2571.10022827,0.01411468
2573.02903564,0.01406058
2574.95784302,0.01411654
2576.88665039,0.01416340
2578.81545776,0.01402777
2580.74426514,0.01403162
2582.67307251,0.01401360
2584.60187988,0.01386595
2586.53068726,0.01385866
2588.45949463,0.01387131
2590.38830200,0.01383318
2592.31710937,0.01372381
2594.24591675,0.01368012
2596.17472412,0.01379023
2598.10353149,0.01376750
2600.03233887,0.01368275
2601.96114624,0.01371240
2603.88995361,0.01364984
2605.81876099,0.01353205
2607.74756836,0.01354500
2609.67637573,0.01358434
2611.60518311,0.01358839
2613.53399048,0.01351615
2615.46279785,0.01337033
2617.39160522,0.01345278
2619.32041260,0.01356773
2621.24921997,0.01346679
2623.17802734,0.01347417
2625.10683472,0.01335305
2627.03564209,0.01320428
2628.96444946,0.01331322
2630.89325684,0.01328472
2632.82206421,0.01322999
2634.75087158,0.01319428
2636.67967895,0.01315689
2638.60848633,0.01323330
2640.53729370,0.01324395
2642.46610107,0.01313541
2644.39490845,0.01308836
2646.32371582,0.01318412
2648.25252319,0.01311715
2650.18133057,0.01307114
2652.11013794,0.01307994
2654.03894531,0.01295387
2655.96775269,0.01295179
2657.89656006,0.01291167
2659.82536743,0.01291737
2661.75417480,0.01295467
2663.68298218,0.01292290
2665.61178955,0.01299276
2667.54059692,0.01295064
2669.46940430,0.01280005
2671.39821167,0.01268152
2673.32701904,0.01277434
2675.25582642,0.01279605
2677.18463379,0.01263619
2679.11344116,0.01270297
2681.04224854,0.01260218
2682.97105591,0.01251389
2684.89986328,0.01267827
2686.82867065,0.01259906
2688.75747803,0.01253064
2690.68628540,0.01255528
2692.61509277,0.01248995
2694.54390015,0.01249928
2696.47270752,0.01253951
2698.40151489,0.01243756
2700.33032227,0.01229058
2702.25912964,0.01233366
2704.18793701,0.01236961
2706.11674438,0.01232013
2708.04555176,0.01231708
2709.97435913,0.01220733
2711.90316650,0.01211543
2713.83197388,0.01222071
2715.76078125,0.01227573
2717.68958862,0.01216399
2719.61839600,0.01209972
2721.54720337,0.01207563
2723.47601074,0.01207648
2725.40481812,0.01203308
2727.33362549,0.01192245
2729.26243286,0.01204553
2731.19124023,0.01206446
2733.12004761,0.01191493
2735.04885498,0.01196124
2736.97766235,0.01198817
2738.90646973,0.01192302
2740.83527710,0.01187038
2742.76408447,0.01187151
2744.69289185,0.01182811
2746.62169922,0.01183137
2748.55050659,0.01179679
2750.47931396,0.01170534
2752.40812134,0.01176325
2754.33692871,0.01163458
2756.26573608,0.01159148
2758.19454346,0.01157813
2760.12335083,0.01144192
2762.05215820,0.01151993
2763.98096558,0.01142865
2765.90977295,0.01142969
2767.83858032,0.01152199
2769.76738770,0.01141207
2771.69619507,0.01139029
2773.62500244,0.01131381
2775.55380981,0.01130109
2777.48261719,0.01137588
2779.41142456,0.01133022
2781.34023193,0.01134291
2783.26903931,0.01132228
2785.19784668,0.01115313
2787.12665405,0.01118138
2789.05546143,0.01124381
2790.98426880,0.01114154
2792.91307617,0.01116163
2794.84188354,0.01108700
2796.77069092,0.01098513
2798.69949829,0.01098754
2800.62830566,0.01092912
2802.55711304,0.01097595
2804.48592041,0.01099370
2806.41472778,0.01087730
2808.34353516,0.01088535
2810.27234253,0.01096252
2812.20114990,0.01082559
2814.12995728,0.01070759
2816.05876465,0.01078042
2817.98757202,0.01076549
2819.91637939,0.01065478
2821.84518677,0.01062196
2823.77399414,0.01069023
2825.70280151,0.01068396
2827.63160889,0.01057825
2829.56041626,0.01047111
2831.48922363,0.01048282
2833.41803101,0.01054126
2835.34683838,0.01048842
2837.27564575,0.01047456
2839.20445312,0.01041448
2841.13326050,0.01035701
2843.06206787,0.01035561
2844.99087524,0.01025740
2846.91968262,0.01021155
2848.84848999,0.01018352
2850.77729736,0.01009267
2852.70610474,0.01009207
2854.63491211,0.01015626
2856.56371948,0.01005969
2858.49252686,0.00997614
2860.42133423,0.01007584
2862.35014160,0.01009016
2864.27894897,0.01002063
2866.20775635,0.00994756
2868.13656372,0.00986453
2870.06537109,0.00992472
2871.99417847,0.00998089
2873.92298584,0.00980352
2875.85179321,0.00966027
2877.78060059,0.00969392
2879.70940796,0.00973470
2881.63821533,0.00971540
2883.56702270,0.00980046
2885.49583008,0.00980946
2887.42463745,0.00957786
2889.35344482,0.00966880
2891.28225220,0.00970424
2893.21105957,0.00958376
2895.13986694,0.00964032
2897.06867432,0.00946031
2898.99748169,0.00943611
2900.92628906,0.00944391
2902.85509644,0.00945095
2904.78390381,0.00947306
2906.71271118,0.00926012
2908.64151855,0.00929753
2910.57032593,0.00922508
2912.49913330,0.00914447
2914.42794067,0.00902966
2916.35674805,0.00890474
2918.28555542,0.00906606
2920.21436279,0.00895216
2922.14317017,0.00904498
2924.07197754,0.00903304
2926.00078491,0.00888251
2927.92959229,0.00905924
2929.85839966,0.00891572
2931.78720703,0.00893988
2933.71601440,0.00893834
2935.64482178,0.00877520
2937.57362915,0.00895927
2939.50243652,0.00895712
2941.43124390,0.00886120
2943.36005127,0.00887854
2945.28885864,0.00894281
2947.21766602,0.00893532
2949.14647339,0.00883454
2951.07528076,0.00886599
2953.00408813,0.00873699
2954.93289551,0.00863800
2956.86170288,0.00876297
2958.79051025,0.00870422
2960.71931763,0.00861449
2962.64812500,0.00864811
2964.57693237,0.00863999
2966.50573975,0.00861866
2968.43454712,0.00858796
2970.36335449,0.00844621
2972.29216187,0.00842645
2974.22096924,0.00856758
2976.14977661,0.00851179
2978.07858398,0.00843626
2980.00739136,0.00849332
2981.93619873,0.00850984
2983.86500610,0.00843952
2985.79381348,0.00840736
2987.72262085,0.00847048
2989.65142822,0.00846566
2991.58023560,0.00839163
2993.50904297,0.00829691
2995.43785034,0.00831130
2997.36665771,0.00831259
2999.29546509,0.00832052
3001.22427246,0.00833688
3003.15307983,0.00813584
3005.08188721,0.00825191
3007.01069458,0.00834085
3008.93950195,0.00808065
3010.86830933,0.00803881
3012.79711670,0.00805504
3014.72592407,0.00803697
3016.65473145,0.00803640
3018.58353882,0.00807655
3020.51234619,0.00805000
3022.44115356,0.00799812
3024.36996094,0.00795249
3026.29876831,0.00789372
3028.22757568,0.00795752
3030.15638306,0.00789187
3032.08519043,0.00788378
3034.01399780,0.00779465
3035.94280518,0.00769659
3037.87161255,0.00783449
3039.80041992,0.00776692
3041.72922729,0.00773446
3043.65803467,0.00774695
3045.58684204,0.00771157
3047.51564941,0.00764352
3049.44445679,0.00760442
3051.37326416,0.00769510
3053.30207153,0.00764297
3055.23087891,0.00757103
3057.15968628,0.00756060
3059.08849365,0.00758954
3061.01730103,0.00752171
3062.94610840,0.00746921
3064.87491577,0.00743377
3066.80372314,0.00740420
3068.73253052,0.00754285
3070.66133789,0.00739016
3072.59014526,0.00738315
3074.51895264,0.00751501
3076.44776001,0.00732470
3078.37656738,0.00729948
3080.30537476,0.00734078
3082.23418213,0.00727023
3084.16298950,0.00722290
3086.09179687,0.00727300
3088.02060425,0.00727093
3089.94941162,0.00722403
3091.87821899,0.00721468
3093.80702637,0.00717150
3095.73583374,0.00713609
3097.66464111,0.00710175
3099.59344849,0.00709751
3101.52225586,0.00698601
3103.45106323,0.00702148
3105.37987061,0.00710157
3107.30867798,0.00697953
3109.23748535,0.00696706
3111.16629272,0.00686254
3113.09510010,0.00681182
3115.02390747,0.00693605
3116.95271484,0.00690440
3118.88152222,0.00683892
3120.81032959,0.00683522
3122.73913696,0.00676044
3124.66794434,0.00680479
3126.59675171,0.00683287
3128.52555908,0.00669158
3130.45436645,0.00674619
3132.38317383,0.00671818
3134.31198120,0.00669462
3136.24078857,0.00674902
3138.16959595,0.00669872
3140.09840332,0.00667220
3142.02721069,0.00654077
3143.95601807,0.00654792
3145.88482544,0.00653476
3147.81363281,0.00652711
3149.74244019,0.00652941
3151.67124756,0.00650427
3153.60005493,0.00660007
3155.52886230,0.00646138
3157.45766968,0.00647089
3159.38647705,0.00649185
3161.31528442,0.00640460
3163.24409180,0.00634463
3165.17289917,0.00628609
3167.10170654,0.00641759
3169.03051392,0.00638909
3170.95932129,0.00637584
3172.88812866,0.00628425
3174.81693604,0.00627457
3176.74574341,0.00636020
3178.67455078,0.00623583
3180.60335815,0.00628535
3182.53216553,0.00625373
3184.46097290,0.00618857
3186.38978027,0.00613635
3188.31858765,0.00622518
3190.24739502,0.00630361
3192.17620239,0.00617723
3194.10500977,0.00619173
3196.03381714,0.00613409
3197.96262451,0.00622849
3199.89143188,0.00617106
3201.82023926,0.00614496
3203.74904663,0.00626251
3205.67785400,0.00602639
3207.60666138,0.00610507
3209.53546875,0.00619138
3211.46427612,0.00615479
3213.39308350,0.00618983
3215.32189087,0.00613717
3217.25069824,0.00615904
3219.17950562,0.00610378
3221.10831299,0.00611963
3223.03712036,0.00614349
3224.96592773,0.00607330
3226.89473511,0.00600661
3228.82354248,0.00606609
3230.75234985,0.00615945
3232.68115723,0.00608480
3234.60996460,0.00608644
3236.53877197,0.00611424
3238.46757935,0.00609371
3240.39638672,0.00609623
3242.32519409,0.00612765
3244.25400146,0.00616956
3246.18280884,0.00617545
3248.11161621,0.00611353
3250.04042358,0.00608039
3251.96923096,0.00613547
3253.89803833,0.00612920
3255.82684570,0.00612878
3257.75565308,0.00611683
3259.68446045,0.00620002
3261.61326782,0.00628765
3263.54207520,0.00624408
3265.47088257,0.00619306
3267.39968994,0.00610336
3269.32849731,0.00620912
3271.25730469,0.00625986
3273.18611206,0.00622047
3275.11491943,0.00620228
3277.04372681,0.00615760
3278.97253418,0.00631311
3280.90134155,0.00620507
3282.83014893,0.00612967
3284.75895630,0.00629197
3286.68776367,0.00619137
3288.61657104,0.00623845
3290.54537842,0.00637546
3292.47418579,0.00628973
3294.40299316,0.00622696
3296.33180054,0.00623086
3298.26060791,0.00623208
3300.18941528,0.00628786
3302.11822266,0.00631509
3304.04703003,0.00623138
3305.97583740,0.00624970
3307.90464478,0.00629344
3309.83345215,0.00628356
3311.76225952,0.00640682
3313.69106689,0.00639341
3315.61987427,0.00630459
3317.54868164,0.00631691
3319.47748901,0.00632031
3321.40629639,0.00639486
3323.33510376,0.00633085
3325.26391113,0.00642311
3327.19271851,0.00644942
3329.12152588,0.00627303
3331.05033325,0.00650338
3332.97914062,0.00648824
3334.90794800,0.00640505
3336.83675537,0.00644557
3338.76556274,0.00643354
3340.69437012,0.00653753
3342.62317749,0.00641640
3344.55198486,0.00653509
3346.48079224,0.00653448
3348.40959961,0.00641056
3350.33840698,0.00651448
3352.26721436,0.00649897
3354.19602173,0.00661086
3356.12482910,0.00654794
3358.05363647,0.00653495
3359.98244385,0.00656204
3361.91125122,0.00645562
3363.84005859,0.00648430
3365.76886597,0.00651499
3367.69767334,0.00662742
3369.62648071,0.00658565
3371.55528809,0.00656855
3373.48409546,0.00662936
3375.41290283,0.00666288
3377.34171020,0.00661732
3379.27051758,0.00652586
3381.19932495,0.00674307
3383.12813232,0.00676256
3385.05693970,0.00664988
3386.98574707,0.00669305
3388.91455444,0.00673469
3390.84336182,0.00672339
3392.77216919,0.00668074
3394.70097656,0.00678612
3396.62978394,0.00682552
3398.55859131,0.00675171
3400.48739868,0.00676206
3402.41620605,0.00687722
3404.34501343,0.00679653
3406.27382080,0.00677452
3408.20262817,0.00687916
3410.13143555,0.00683971
3412.06024292,0.00693119
3413.98905029,0.00687986
3415.91785767,0.00694164
3417.84666504,0.00705592
3419.77547241,0.00696268
3421.70427979,0.00694805
3423.63308716,0.00691547
3425.56189453,0.00706037
3427.49070190,0.00707449
3429.41950928,0.00705082
3431.34831665,0.00714620
3433.27712402,0.00710518
3435.20593140,0.00709119
3437.13473877,0.00707207
3439.06354614,0.00707301
3440.99235352,0.00702586
3442.92116089,0.00710957
3444.84996826,0.00713754
3446.77877563,0.00703722
3448.70758301,0.00718329
3450.63639038,0.00721487
3452.56519775,0.00712076
3454.49400513,0.00722708
3456.42281250,0.00729880
3458.35161987,0.00720445
3460.28042725,0.00720643
3462.20923462,0.00720647
3464.13804199,0.00731190
3466.06684937,0.00729563
3467.99565674,0.00715770
3469.92446411,0.00731868
3471.85327148,0.00724951
3473.78207886,0.00730568
3475.71088623,0.00735941
3477.63969360,0.00728248
3479.56850098,0.00738172
3481.49730835,0.00724110
3483.42611572,0.00732393
3485.35492310,0.00732268
3487.28373047,0.00725341
3489.21253784,0.00739509
3491.14134521,0.00741182
3493.07015259,0.00742583
3494.99895996,0.00739183
3496.92776733,0.00740539
3498.85657471,0.00741698
3500.78538208,0.00750364
3502.71418945,0.00730303
3504.64299683,0.00723707
3506.57180420,0.00751034
3508.50061157,0.00731677
3510.42941895,0.00735942
3512.35822632,0.00748176
3514.28703369,0.00746509
3516.21584106,0.00752225
3518.14464844,0.00749530
3520.07345581,0.00751465
3522.00226318,0.00732438
3523.93107056,0.00727374
3525.85987793,0.00738345
3527.78868530,0.00738001
3529.71749268,0.00740609
3531.64630005,0.00754673
3533.57510742,0.00759031
3535.50391479,0.00748367
3537.43272217,0.00749998
3539.36152954,0.00753549
3541.29033691,0.00758742
3543.21914429,0.00745797
3545.14795166,0.00725362
3547.07675903,0.00721865
3549.00556641,0.00741941
3550.93437378,0.00750762
3552.86318115,0.00733427
3554.79198853,0.00749606
3556.72079590,0.00752334
3558.64960327,0.00746928
3560.57841064,0.00742246
3562.50721802,0.00741350
3564.43602539,0.00747771
3566.36483276,0.00694683
3568.29364014,0.00690563
3570.22244751,0.00733075
3572.15125488,0.00734492
3574.08006226,0.00742208
3576.00886963,0.00745454
3577.93767700,0.00736039
3579.86648437,0.00739137
3581.79529175,0.00739185
3583.72409912,0.00738376
3585.65290649,0.00721909
3587.58171387,0.00670753
3589.51052124,0.00693641
3591.43932861,0.00743004
3593.36813599,0.00727196
3595.29694336,0.00712246
3597.22575073,0.00713973
3599.15455811,0.00726936
3601.08336548,0.00712208
3603.01217285,0.00719502
3604.94098022,0.00735524
3606.86978760,0.00699001
3608.79859497,0.00674588
3610.72740234,0.00691341
3612.65620972,0.00693732
3614.58501709,0.00688376
3616.51382446,0.00729227
3618.44263184,0.00666059
3620.37143921,0.00666134
3622.30024658,0.00736928
3624.22905395,0.00708628
3626.15786133,0.00750171
3628.08666870,0.00626396
3630.01547607,0.00581802
3631.94428345,0.00718933
3633.87309082,0.00680906
3635.80189819,0.00710072
3637.73070557,0.00725630
3639.65951294,0.00704780
3641.58832031,0.00714969
3643.51712769,0.00705576
3645.44593506,0.00706872
3647.37474243,0.00644142
3649.30354980,0.00593527
3651.23235718,0.00598377
3653.16116455,0.00706488
3655.08997192,0.00682089
3657.01877930,0.00625783
3658.94758667,0.00718777
3660.87639404,0.00691909
3662.80520142,0.00707901
3664.73400879,0.00698337
3666.66281616,0.00690916
3668.59162354,0.00669876
3670.52043091,0.00562809
3672.44923828,0.00662977
3674.37804565,0.00614268
3676.30685303,0.00537213
3678.23566040,0.00653172
3680.16446777,0.00657169
3682.09327515,0.00667821
3684.02208252,0.00681581
3685.95088989,0.00665519
3687.87969727,0.00595987
3689.80850464,0.00561709
3691.73731201,0.00628536
3693.66611938,0.00639330
3695.59492676,0.00652684
3697.52373413,0.00646257
3699.45254150,0.00653162
3701.38134888,0.00632165
3703.31015625,0.00601901
3705.23896362,0.00655699
3707.16777100,0.00625969
3709.09657837,0.00604975
3711.02538574,0.00560116
3712.95419312,0.00542014
3714.88300049,0.00626832
3716.81180786,0.00610156
3718.74061523,0.00618146
3720.66942261,0.00606582
3722.59822998,0.00587321
3724.52703735,0.00599282
3726.45584473,0.00560749
3728.38465210,0.00612628
3730.31345947,0.00600683
3732.24226685,0.00545888
3734.17107422,0.00543617
3736.09988159,0.00519379
3738.02868896,0.00532528
3739.95749634,0.00578739
3741.88630371,0.00593770
3743.81511108,0.00471005
3745.74391846,0.00468363
3747.67272583,0.00575079
3749.60153320,0.00491381
3751.53034058,0.00459213
3753.45914795,0.00514839
3755.38795532,0.00557448
3757.31676270,0.00571777
3759.24557007,0.00522780
3761.17437744,0.00560323
3763.10318481,0.00592541
3765.03199219,0.00538303
3766.96079956,0.00544258
3768.88960693,0.00544507
3770.81841431,0.00531105
3772.74722168,0.00566512
3774.67602905,0.00568404
3776.60483643,0.00567744
3778.53364380,0.00539046
3780.46245117,0.00525036
3782.39125854,0.00564614
3784.32006592,0.00544664
3786.24887329,0.00542987
3788.17768066,0.00554835
3790.10648804,0.00546005
3792.03529541,0.00545119
3793.96410278,0.00550937
3795.89291016,0.00526357
3797.82171753,0.00527042
3799.75052490,0.00538448
3801.67933228,0.00437423
3803.60813965,0.00503434
3805.53694702,0.00535766
3807.46575439,0.00451326
3809.39456177,0.00536331
3811.32336914,0.00525502
3813.25217651,0.00526225
3815.18098389,0.00470074
3817.10979126,0.00441761
3819.03859863,0.00546730
3820.96740601,0.00441288
3822.89621338,0.00471592
3824.82502075,0.00535372
3826.75382812,0.00484277
3828.68263550,0.00525277
3830.61144287,0.00501287
3832.54025024,0.00486532
3834.46905762,0.00490856
3836.39786499,0.00464152
3838.32667236,0.00428371
3840.25547974,0.00458876
3842.18428711,0.00493851
3844.11309448,0.00468392
3846.04190186,0.00501718
3847.97070923,0.00495893
3849.89951660,0.00489925
3851.82832397,0.00443915
3853.75713135,0.00345797
3855.68593872,0.00410304
3857.61474609,0.00493325
3859.54355347,0.00481546
3861.47236084,0.00484793
3863.40116821,0.00459881
3865.32997559,0.00436865
3867.25878296,0.00490736
3869.18759033,0.00437981
3871.11639770,0.00408756
3873.04520508,0.00480511
3874.97401245,0.00447857
3876.90281982,0.00487539
3878.83162720,0.00483726
3880.76043457,0.00415265
3882.68924194,0.00487073
3884.61804932,0.00448372
3886.54685669,0.00409422
3888.47566406,0.00486665
3890.40447144,0.00453263
3892.33327881,0.00427018
3894.26208618,0.00470995
3896.19089355,0.00468895
3898.11970093,0.00444972
3900.04850830,0.00422483
3901.97731567,0.00423720
3903.90612305,0.00424657
3905.83493042,0.00424703
3907.76373779,0.00460481
3909.69254517,0.00461601
3911.62135254,0.00455814
3913.55015991,0.00466542
3915.47896728,0.00452688
3917.40777466,0.00436036
3919.33658203,0.00435636
3921.26538940,0.00449408
3923.19419678,0.00441583
3925.12300415,0.00433469
3927.05181152,0.00437247
3928.98061890,0.00439448
3930.90942627,0.00433774
3932.83823364,0.00430980
3934.76704102,0.00444628
3936.69584839,0.00433691
3938.62465576,0.00438482
3940.55346313,0.00444070
3942.48227051,0.00431122
3944.41107788,0.00440479
3946.33988525,0.00436699
3948.26869263,0.00427554
3950.19750000,0.00425325
3952.12630737,0.00433109
3954.05511475,0.00432401
3955.98392212,0.00422439
3957.91272949,0.00426703
3959.84153687,0.00427005
3961.77034424,0.00424318
3963.69915161,0.00419909
3965.62795898,0.00432480
3967.55676636,0.00430306
3969.48557373,0.00414228
3971.41438110,0.00426320
3973.34318848,0.00424825
3975.27199585,0.00415287
3977.20080322,0.00419424
3979.12961060,0.00425980
3981.05841797,0.00422171
3982.98722534,0.00419678
3984.91603271,0.00424271
3986.84484009,0.00417522
3988.77364746,0.00412896
3990.70245483,0.00410355
3992.63126221,0.00415765
3994.56006958,0.00414328
3996.48887695,0.00407237
3998.41768433,0.00415355
4000.34649170,0.00402379
4002.27529907,0.00397635
4004.20410645,0.00409976
4006.13291382,0.00403291
4008.06172119,0.00404284
4009.99052856,0.00403080
4011.91933594,0.00399422
4013.84814331,0.00401598
4015.77695068,0.00399950
4017.70575806,0.00405988
4019.63456543,0.00394136
4021.56337280,0.00385064
4023.49218018,0.00395163
4025.42098755,0.00397253
4027.34979492,0.00403063
4029.27860229,0.00391504
4031.20740967,0.00380441
4033.13621704,0.00390947
4035.06502441,0.00387080
4036.99383179,0.00383582
4038.92263916,0.00389847
4040.85144653,0.00391851
4042.78025391,0.00387956
4044.70906128,0.00381641
4046.63786865,0.00378335
4048.56667603,0.00374686
4050.49548340,0.00376720
4052.42429077,0.00379294
4054.35309814,0.00377231
4056.28190552,0.00383860
4058.21071289,0.00379208
4060.13952026,0.00373551
4062.06832764,0.00375406
4063.99713501,0.00366598
4065.92594238,0.00373439
4067.85474976,0.00363549
4069.78355713,0.00364518
4071.71236450,0.00381572
4073.64117187,0.00355720
4075.56997925,0.00360844
4077.49878662,0.00368149
4079.42759399,0.00361908
4081.35640137,0.00370254
4083.28520874,0.00361747
4085.21401611,0.00364488
4087.14282349,0.00362266
4089.07163086,0.00366029
4091.00043823,0.00362538
4092.92924561,0.00350549
4094.85805298,0.00353677
4096.78686035,0.00351935
4098.71566772,0.00356584
4100.64447510,0.00350596
4102.57328247,0.00357001
4104.50208984,0.00354719
4106.43089722,0.00353310
4108.35970459,0.00367022
4110.28851196,0.00348257
4112.21731934,0.00349050
4114.14612671,0.00349869
4116.07493408,0.00349346
4118.00374145,0.00351221
4119.93254883,0.00337958
4121.86135620,0.00338179
4123.79016357,0.00334006
4125.71897095,0.00342808
4127.64777832,0.00337164
4129.57658569,0.00330223
4131.50539307,0.00343542
4133.43420044,0.00340474
4135.36300781,0.00340019
4137.29181519,0.00334118
4139.22062256,0.00335818
4141.14942993,0.00344184
4143.07823730,0.00337576
4145.00704468,0.00333556
4146.93585205,0.00334876
4148.86465942,0.00329859
4150.79346680,0.00328439
4152.72227417,0.00332229
4154.65108154,0.00325842
4156.57988892,0.00330112
4158.50869629,0.00327674
4160.43750366,0.00323951
4162.36631103,0.00331859
4164.29511841,0.00325744
4166.22392578,0.00327780
4168.15273315,0.00332877
4170.08154053,0.00330458
4172.01034790,0.00319224
4173.93915527,0.00316969
4175.86796265,0.00324228
4177.79677002,0.00314049
4179.72557739,0.00313693
4181.65438477,0.00315577
4183.58319214,0.00313998
4185.51199951,0.00315666
4187.44080688,0.00315096
4189.36961426,0.00314966
4191.29842163,0.00308872
4193.22722900,0.00317456
4195.15603638,0.00313985
4197.08484375,0.00300161
4199.01365112,0.00311248
4200.94245850,0.00304750
4202.87126587,0.00301195
4204.80007324,0.00312954
4206.72888062,0.00305277
4208.65768799,0.00304219
4210.58649536,0.00305612
4212.51530273,0.00305728
4214.44411011,0.00304061
4216.37291748,0.00296898
4218.30172485,0.00302503
4220.23053223,0.00304992
4222.15933960,0.00301782
4224.08814697,0.00297344
4226.01695435,0.00302072
4227.94576172,0.00299347
4229.87456909,0.00288153
4231.80337646,0.00298158
4233.73218384,0.00295251
4235.66099121,0.00292447
4237.58979858,0.00297621
4239.51860596,0.00299511
4241.44741333,0.00297986
4243.37622070,0.00288415
4245.30502808,0.00295513
4247.23383545,0.00291362
4249.16264282,0.00289489
4251.09145020,0.00296347
4253.02025757,0.00290334
4254.94906494,0.00291588
4256.87787231,0.00290936
4258.80667969,0.00285573
4260.73548706,0.00280374
4262.66429443,0.00287798
4264.59310181,0.00286423
4266.52190918,0.00281906
4268.45071655,0.00284972
4270.37952393,0.00278119
4272.30833130,0.00281186
4274.23713867,0.00279393
4276.16594604,0.00283427
4278.09475342,0.00277233
4280.02356079,0.00271150
4281.95236816,0.00284059
4283.88117554,0.00274744
4285.80998291,0.00278137
4287.73879028,0.00279272
4289.66759766,0.00274311
4291.59640503,0.00274914
4293.52521240,0.00269889
4295.45401978,0.00274987
4297.38282715,0.00267600
4299.31163452,0.00269793
4301.24044189,0.00274547
4303.16924927,0.00269793
4305.09805664,0.00267896
4307.02686401,0.00264088
4308.95567139,0.00273620
4310.88447876,0.00271769
4312.81328613,0.00264851
4314.74209351,0.00267277
4316.67090088,0.00266513
4318.59970825,0.00268027
4320.52851562,0.00265743
4322.45732300,0.00259749
4324.38613037,0.00254598
4326.31493774,0.00254818
4328.24374512,0.00258014
4330.17255249,0.00255308
4332.10135986,0.00256350
4334.03016724,0.00261430
4335.95897461,0.00256610
4337.88778198,0.00252427
4339.81658936,0.00256109
4341.74539673,0.00259450
4343.67420410,0.00250353
4345.60301147,0.00244820
4347.53181885,0.00258821
4349.46062622,0.00254361
4351.38943359,0.00245363
4353.31824097,0.00249455
4355.24704834,0.00247665
4357.17585571,0.00248390
4359.10466309,0.00249239
4361.03347046,0.00250742
4362.96227783,0.00256269
4364.89108520,0.00257897
4366.81989258,0.00242473
4368.74869995,0.00240755
4370.67750732,0.00251158
4372.60631470,0.00243066
4374.53512207,0.00245305
4376.46392944,0.00245591
4378.39273682,0.00240938
4380.32154419,0.00237888
4382.25035156,0.00243313
4384.17915894,0.00253647
4386.10796631,0.00241722
4388.03677368,0.00242220
4389.96558105,0.00241171
4391.89438843,0.00233582
4393.82319580,0.00242472
4395.75200317,0.00244980
4397.68081055,0.00239550
4399.60961792,0.00232008
4401.53842529,0.00234364
4403.46723267,0.00238074
4405.39604004,0.00237255
4407.32484741,0.00235986
4409.25365478,0.00235099
4411.18246216,0.00237301
4413.11126953,0.00233271
4415.04007690,0.00232144
4416.96888428,0.00230815
4418.89769165,0.00224800
4420.82649902,0.00223700
4422.75530640,0.00229361
4424.68411377,0.00232727
4426.61292114,0.00228269
4428.54172852,0.00221772
4430.47053589,0.00221345
4432.39934326,0.00227396
4434.32815063,0.00223295
4436.25695801,0.00225198
4438.18576538,0.00230109
4440.11457275,0.00219953
4442.04338013,0.00221835
4443.97218750,0.00227075
4445.90099487,0.00220651
4447.82980225,0.00215933
4449.75860962,0.00215224
4451.68741699,0.00223420
4453.61622437,0.00223215
4455.54503174,0.00213727
4457.47383911,0.00224661
4459.40264648,0.00217028
4461.33145386,0.00202225
4463.26026123,0.00210579
4465.18906860,0.00208036
4467.11787598,0.00217605
4469.04668335,0.00214167
4470.97549072,0.00207340
4472.90429810,0.00221202
4474.83310547,0.00217067
4476.76191284,0.00219438
4478.69072021,0.00212277
4480.61952759,0.00210999
4482.54833496,0.00221748
4484.47714233,0.00211236
4486.40594971,0.00208305
4488.33475708,0.00212662
4490.26356445,0.00214214
4492.19237183,0.00208330
4494.12117920,0.00207970
4496.04998657,0.00207449
4497.97879395,0.00203847
4499.90760132,0.00206191
4501.83640869,0.00206499
4503.76521606,0.00208425
4505.69402344,0.00200172
4507.62283081,0.00202031
4509.55163818,0.00199276
4511.48044556,0.00191846
4513.40925293,0.00204987
4515.33806030,0.00206535
4517.26686768,0.00201078
4519.19567505,0.00201175
4521.12448242,0.00201245
4523.05328979,0.00194295
4524.98209717,0.00199182
4526.91090454,0.00197196
4528.83971191,0.00184538
4530.76851929,0.00193029
4532.69732666,0.00191861
4534.62613403,0.00196853
4536.55494141,0.00198538
4538.48374878,0.00188426
4540.41255615,0.00188873
4542.34136353,0.00188311
4544.27017090,0.00191973
4546.19897827,0.00196798
4548.12778564,0.00196749
4550.05659302,0.00179249
4551.98540039,0.00184130
4553.91420776,0.00192939
4555.84301514,0.00179062
4557.77182251,0.00191803
4559.70062988,0.00193595
4561.62943726,0.00186142
4563.55824463,0.00187414
4565.48705200,0.00185874
4567.41585937,0.00184230
4569.34466675,0.00180638
4571.27347412,0.00180576
4573.20228149,0.00179159
4575.13108887,0.00183201
4577.05989624,0.00180403
4578.98870361,0.00184263
4580.91751099,0.00189069
4582.84631836,0.00186353
4584.77512573,0.00185420
4586.70393311,0.00178405
4588.63274048,0.00184528
4590.56154785,0.00179515
4592.49035522,0.00177799
4594.41916260,0.00179811
4596.34796997,0.00179831
4598.27677734,0.00189880
4600.20558472,0.00177786
4602.13439209,0.00179877
4604.06319946,0.00177242
4605.99200684,0.00172441
4607.92081421,0.00184534
4609.84962158,0.00175056
4611.77842895,0.00172549
4613.70723633,0.00170584
4615.63604370,0.00168848
4617.56485107,0.00170376
4619.49365845,0.00164434
4621.42246582,0.00165833
4623.35127319,0.00170321
4625.28008057,0.00172509
4627.20888794,0.00167260
4629.13769531,0.00168049
4631.06650269,0.00171976
4632.99531006,0.00173748
4634.92411743,0.00170508
4636.85292480,0.00165511
4638.78173218,0.00171907
4640.71053955,0.00169522
4642.63934692,0.00169255
4644.56815430,0.00171276
4646.49696167,0.00164988
4648.42576904,0.00164511
4650.35457642,0.00162948
4652.28338379,0.00164109
4654.21219116,0.00165508
4656.14099853,0.00163762
4658.06980591,0.00160709
4659.99861328,0.00155899
4661.92742065,0.00164048
4663.85622803,0.00165544
4665.78503540,0.00158080
4667.71384277,0.00163734
4669.64265015,0.00157935
4671.57145752,0.00151469
4673.50026489,0.00160178
4675.42907227,0.00165444
4677.35787964,0.00169240
4679.28668701,0.00163931
4681.21549438,0.00155226
4683.14430176,0.00157596
4685.07310913,0.00161604
4687.00191650,0.00151170
4688.93072388,0.00146646
4690.85953125,0.00160322
4692.78833862,0.00158514
4694.71714600,0.00154996
4696.64595337,0.00156804
4698.57476074,0.00151791
4700.50356812,0.00148667
4702.43237549,0.00146392
4704.36118286,0.00145583
4706.28999023,0.00147279
4708.21879761,0.00156477
4710.14760498,0.00149786
4712.07641235,0.00141153
4714.00521973,0.00151399
4715.93402710,0.00145060
4717.86283447,0.00140601
4719.79164185,0.00152973
4721.72044922,0.00152731
4723.64925659,0.00143783
4725.57806396,0.00149563
4727.50687134,0.00152285
4729.43567871,0.00142823
4731.36448608,0.00142224
4733.29329346,0.00141380
4735.22210083,0.00142171
4737.15090820,0.00150180
4739.07971558,0.00153085
4741.00852295,0.00146908
4742.93733032,0.00144338
4744.86613770,0.00139514
4746.79494507,0.00134273
4748.72375244,0.00145533
4750.65255981,0.00145238
4752.58136719,0.00139907
4754.51017456,0.00140344
4756.43898193,0.00140491
4758.36778931,0.00139996
4760.29659668,0.00135643
4762.22540405,0.00140696
4764.15421143,0.00131801
4766.08301880,0.00131744
4768.01182617,0.00143987
4769.94063354,0.00137609
4771.86944092,0.00140026
4773.79824829,0.00139326
4775.72705566,0.00138529
4777.65586304,0.00141790
4779.58467041,0.00141526
4781.51347778,0.00144552
4783.44228516,0.00138923
4785.37109253,0.00135919
4787.29989990,0.00132234
4789.22870728,0.00129933
4791.15751465,0.00134153
4793.08632202,0.00131108
4795.01512939,0.00135788
4796.94393677,0.00145923
4798.87274414,0.00136294
4800.80155151,0.00127001
4802.73035889,0.00135655
4804.65916626,0.00134057
4806.58797363,0.00127777
4808.51678101,0.00130296
4810.44558838,0.00131295
4812.37439575,0.00128748
4814.30320312,0.00125219
4816.23201050,0.00130328
4818.16081787,0.00136150
4820.08962524,0.00133578
4822.01843262,0.00130816
4823.94723999,0.00135634
4825.87604736,0.00129777
4827.80485474,0.00117240
4829.73366211,0.00128098
4831.66246948,0.00128148
4833.59127686,0.00118693
4835.52008423,0.00124939
4837.44889160,0.00121461
4839.37769897,0.00116552
4841.30650635,0.00114757
4843.23531372,0.00117520
4845.16412109,0.00124480
4847.09292847,0.00120229
4849.02173584,0.00122819
4850.95054321,0.00127129
4852.87935059,0.00122185
4854.80815796,0.00124514
4856.73696533,0.00125266
4858.66577270,0.00116294
4860.59458008,0.00115966
4862.52338745,0.00120497
4864.45219482,0.00118820
4866.38100220,0.00124643
4868.30980957,0.00122867
4870.23861694,0.00114377
4872.16742432,0.00118698
4874.09623169,0.00117691
4876.02503906,0.00115296
4877.95384644,0.00119661
4879.88265381,0.00124021
4881.81146118,0.00115864
4883.74026855,0.00107888
4885.66907593,0.00116044
4887.59788330,0.00115505
4889.52669067,0.00118751
4891.45549805,0.00114936
4893.38430542,0.00103330
4895.31311279,0.00113067
4897.24192017,0.00116190
4899.17072754,0.00113953
4901.09953491,0.00111290
4903.02834228,0.00117907
4904.95714966,0.00125283
4906.88595703,0.00109955
4908.81476440,0.00107560
4910.74357178,0.00110083
4912.67237915,0.00107466
4914.60118652,0.00108115
4916.52999390,0.00109080
4918.45880127,0.00114149
4920.38760864,0.00109613
4922.31641602,0.00110626
4924.24522339,0.00116589
4926.17403076,0.00112698
4928.10283813,0.00110058
4930.03164551,0.00109505
4931.96045288,0.00109594
4933.88926025,0.00110213
4935.81806763,0.00116605
4937.74687500,0.00115663
4939.67568237,0.00104614
4941.60448975,0.00105422
4943.53329712,0.00105133
4945.46210449,0.00104610
4947.39091187,0.00109145
4949.31971924,0.00105586
4951.24852661,0.00102017
4953.17733398,0.00097921
4955.10614136,0.00101948
4957.03494873,0.00104214
4958.96375610,0.00099895
4960.89256348,0.00106257
4962.82137085,0.00102578
4964.75017822,0.00105345
4966.67898560,0.00108438
4968.60779297,0.00101653
4970.53660034,0.00106758
4972.46540771,0.00102904
4974.39421509,0.00103816
4976.32302246,0.00103991
4978.25182983,0.00098463
4980.18063721,0.00101677
4982.10944458,0.00102288
4984.03825195,0.00105227
4985.96705933,0.00100614
4987.89586670,0.00097149
4989.82467407,0.00099616
4991.75348145,0.00098146
4993.68228882,0.00093303
4995.61109619,0.00096564
4997.53990356,0.00100030
4999.46871094,0.00092638
5001.39751831,0.00101239
5003.32632568,0.00098572
5005.25513306,0.00094950
5007.18394043,0.00099998
5009.11274780,0.00090809
5011.04155518,0.00094726
5012.97036255,0.00098743
5014.89916992,0.00103357
5016.82797729,0.00097560
5018.75678467,0.00094859
5020.68559204,0.00105671
5022.61439941,0.00095442
5024.54320679,0.00094593
5026.47201416,0.00092479
5028.40082153,0.00087595
5030.32962891,0.00090769
5032.25843628,0.00086884
5034.18724365,0.00088911
5036.11605103,0.00088239
5038.04485840,0.00088361
5039.97366577,0.00092512
5041.90247314,0.00094117
5043.83128052,0.00094920
5045.76008789,0.00093255
5047.68889526,0.00087650
5049.61770264,0.00091662
5051.54651001,0.00095745
5053.47531738,0.00089513
5055.40412476,0.00091343
5057.33293213,0.00083279
5059.26173950,0.00084045
5061.19054687,0.00098039
5063.11935425,0.00094310
5065.04816162,0.00088936
5066.97696899,0.00090203
5068.90577637,0.00089935
5070.83458374,0.00088722
5072.76339111,0.00093378
5074.69219849,0.00084711
5076.62100586,0.00088193
5078.54981323,0.00095720
5080.47862061,0.00080361
5082.40742798,0.00088878
5084.33623535,0.00091136
5086.26504272,0.00087973
5088.19385010,0.00092005
5090.12265747,0.00081580
5092.05146484,0.00080085
5093.98027222,0.00086374
5095.90907959,0.00087659
5097.83788696,0.00078750
5099.76669434,0.00085776
5101.69550171,0.00087065
5103.62430908,0.00075340
5105.55311645,0.00077772
5107.48192383,0.00078040
5109.41073120,0.00084040
5111.33953857,0.00082178
5113.26834595,0.00081921
5115.19715332,0.00083279
5117.12596069,0.00084682
5119.05476807,0.00092122
5120.98357544,0.00084544
5122.91238281,0.00087451
5124.84119019,0.00083267
5126.76999756,0.00075342
5128.69880493,0.00079382
5130.62761230,0.00079627
5132.55641968,0.00077005
5134.48522705,0.00071531
5136.41403442,0.00083632
5138.34284180,0.00085002
5140.27164917,0.00076780
5142.20045654,0.00080016
5144.12926392,0.00078405
5146.05807129,0.00076237
5147.98687866,0.00078609
5149.91568603,0.00084399
5151.84449341,0.00076617
5153.77330078,0.00075668
5155.70210815,0.00079602
5157.63091553,0.00076648
5159.55972290,0.00081370
5161.48853027,0.00079416
5163.41733765,0.00079069
5165.34614502,0.00073021
5167.27495239,0.00071628
5169.20375977,0.00076704
5171.13256714,0.00072091
5173.06137451,0.00079275
5174.99018188,0.00078378
5176.91898926,0.00071447
5178.84779663,0.00072149
5180.77660400,0.00071108
5182.70541138,0.00073081
5184.63421875,0.00072053
5186.56302612,0.00075339
5188.49183350,0.00075548
5190.42064087,0.00070657
5192.34944824,0.00074778
5194.27825562,0.00067437
5196.20706299,0.00062430
5198.13587036,0.00074142
5200.06467773,0.00071080
5201.99348511,0.00063556
5203.92229248,0.00070350
5205.85109985,0.00073696
5207.77990723,0.00068962
5209.70871460,0.00070549
5211.63752197,0.00072350
5213.56632935,0.00069899
5215.49513672,0.00071471
5217.42394409,0.00072471
5219.35275146,0.00075508
5221.28155884,0.00072373
5223.21036621,0.00070967
5225.13917358,0.00073237
5227.06798096,0.00065882
5228.99678833,0.00067617
5230.92559570,0.00070052
5232.85440308,0.00069742
5234.78321045,0.00066691
5236.71201782,0.00063219
5238.64082520,0.00067255
5240.56963257,0.00066027
5242.49843994,0.00065219
5244.42724731,0.00063522
5246.35605469,0.00071387
5248.28486206,0.00072643
5250.21366943,0.00065196
5252.14247681,0.00070667
5254.07128418,0.00067755
5256.00009155,0.00069276
5257.92889893,0.00065056
5259.85770630,0.00060895
5261.78651367,0.00069713
5263.71532104,0.00065637
5265.64412842,0.00068263
5267.57293579,0.00070068
5269.50174316,0.00061439
5271.43055054,0.00067881
5273.35935791,0.00075746
5275.28816528,0.00063971
5277.21697266,0.00061604
5279.14578003,0.00064577
5281.07458740,0.00058891
5283.00339478,0.00063445
5284.93220215,0.00061004
5286.86100952,0.00060356
5288.78981689,0.00060539
5290.71862427,0.00059033
5292.64743164,0.00064900
5294.57623901,0.00063046
5296.50504639,0.00061103
5298.43385376,0.00059391
5300.36266113,0.00065238
5302.29146851,0.00067676
5304.22027588,0.00066605
5306.14908325,0.00064380
5308.07789062,0.00056639
5310.00669800,0.00065047
5311.93550537,0.00065228
5313.86431274,0.00061997
5315.79312012,0.00060802
5317.72192749,0.00052781
5319.65073486,0.00058108
5321.57954224,0.00065742
5323.50834961,0.00060124
5325.43715698,0.00056100
5327.36596436,0.00062582
5329.29477173,0.00055377
5331.22357910,0.00058875
5333.15238647,0.00066931
5335.08119385,0.00055846
5337.01000122,0.00051255
5338.93880859,0.00049633
5340.86761597,0.00059858
5342.79642334,0.00060230
5344.72523071,0.00055160
5346.65403809,0.00057975
5348.58284546,0.00054609
5350.51165283,0.00059196
5352.44046020,0.00055867
5354.36926758,0.00054220
5356.29807495,0.00053097
5358.22688232,0.00053188
5360.15568970,0.00058764
5362.08449707,0.00058826
5364.01330444,0.00060630
5365.94211182,0.00050767
5367.87091919,0.00050936
5369.79972656,0.00056395
5371.72853394,0.00051494
5373.65734131,0.00047852
5375.58614868,0.00046570
5377.51495605,0.00051354
5379.44376343,0.00052236
5381.37257080,0.00055814
5383.30137817,0.00053433
5385.23018555,0.00051089
5387.15899292,0.00054669
5389.08780029,0.00053849
5391.01660767,0.00059789
5392.94541504,0.00058352
5394.87422241,0.00051944
5396.80302978,0.00056183
5398.73183716,0.00057843
5400.66064453,0.00048318
5402.58945190,0.00054982
5404.51825928,0.00059685
5406.44706665,0.00048867
5408.37587402,0.00055628
5410.30468140,0.00052241
5412.23348877,0.00047601
5414.16229614,0.00053693
5416.09110352,0.00051494
5418.01991089,0.00051090
5419.94871826,0.00050595
5421.87752563,0.00051933
5423.80633301,0.00053708
5425.73514038,0.00051347
5427.66394775,0.00048572
5429.59275513,0.00052936
5431.52156250,0.00050098
5433.45036987,0.00051420
5435.37917725,0.00055877
5437.30798462,0.00047463
5439.23679199,0.00051828
5441.16559936,0.00047809
5443.09440674,0.00046423
5445.02321411,0.00046111
5446.95202148,0.00038376
5448.88082886,0.00044338
5450.80963623,0.00044329
5452.73844360,0.00051338
5454.66725098,0.00048756
5456.59605835,0.00048836
5458.52486572,0.00052665
5460.45367310,0.00045047
5462.38248047,0.00049767
5464.31128784,0.00044308
5466.24009521,0.00050901
5468.16890259,0.00048251
5470.09770996,0.00041299
5472.02651733,0.00054511
5473.95532471,0.00044219
5475.88413208,0.00046590
5477.81293945,0.00051621
5479.74174683,0.00041615
5481.67055420,0.00044558
5483.59936157,0.00049249
5485.52816895,0.00047571
5487.45697632,0.00041252
5489.38578369,0.00043992
5491.31459106,0.00051776
5493.24339844,0.00047549
5495.17220581,0.00039029
5497.10101318,0.00042590
5499.02982056,0.00045024
5500.95862793,0.00044306
5502.88743530,0.00044853
5504.81624268,0.00047692
5506.74505005,0.00048909
5508.67385742,0.00039407
5510.60266479,0.00047047
5512.53147217,0.00045340
5514.46027954,0.00037743
5516.38908691,0.00044214
5518.31789429,0.00037959
5520.24670166,0.00041515
5522.17550903,0.00043168
5524.10431641,0.00043003
5526.03312378,0.00041631
5527.96193115,0.00038705
5529.89073853,0.00042984
5531.81954590,0.00038378
5533.74835327,0.00048148
5535.67716064,0.00050271
5537.60596802,0.00042984
5539.53477539,0.00043672
5541.46358276,0.00043660
5543.39239014,0.00043612
5545.32119751,0.00041761
5547.25000488,0.00050010
5549.17881226,0.00039652
5551.10761963,0.00034446
5553.03642700,0.00043821
5554.96523437,0.00038081
5556.89404175,0.00043029
5558.82284912,0.00044366
5560.75165649,0.00040863
5562.68046387,0.00042583
5564.60927124,0.00045793
5566.53807861,0.00042781
5568.46688599,0.00039706
5570.39569336,0.00044818
5572.32450073,0.00034631
5574.25330811,0.00030561
5576.18211548,0.00037855
5578.11092285,0.00039836
5580.03973022,0.00038434
5581.96853760,0.00041578
5583.89734497,0.00043805
5585.82615234,0.00037133
5587.75495972,0.00040226
5589.68376709,0.00037440
5591.61257446,0.00039858
5593.54138184,0.00048333
5595.47018921,0.00042346
5597.39899658,0.00035262
5599.32780395,0.00030095
5601.25661133,0.00039515
5603.18541870,0.00036703
5605.11422607,0.00033217
5607.04303345,0.00041524
5608.97184082,0.00034813
5610.90064819,0.00039971
5612.82945557,0.00037786
5614.75826294,0.00036618
5616.68707031,0.00043399
5618.61587769,0.00030161
5620.54468506,0.00034376
5622.47349243,0.00041457
5624.40229980,0.00032229
5626.33110718,0.00036460
5628.25991455,0.00042106
5630.18872192,0.00036877
5632.11752930,0.00038650
5634.04633667,0.00040126
5635.97514404,0.00037848
5637.90395142,0.00036455
5639.83275879,0.00027284
5641.76156616,0.00033698
5643.69037353,0.00038137
5645.61918091,0.00030418
5647.54798828,0.00036799
5649.47679565,0.00036798
5651.40560303,0.00036615
5653.33441040,0.00034893
5655.26321777,0.00030498
5657.19202515,0.00036158
5659.12083252,0.00036789
5661.04963989,0.00035480
5662.97844727,0.00029099
5664.90725464,0.00031870
5666.83606201,0.00039334
5668.76486938,0.00037979
5670.69367676,0.00042293
5672.62248413,0.00036787
5674.55129150,0.00038313
5676.48009888,0.00047001
5678.40890625,0.00038535
5680.33771362,0.00033498
5682.26652100,0.00037561
5684.19532837,0.00040573
5686.12413574,0.00034741
5688.05294311,0.00029268
5689.98175049,0.00033987
5691.91055786,0.00034163
5693.83936523,0.00029584
5695.76817261,0.00034545
5697.69697998,0.00036405
5699.62578735,0.00031140
5701.55459473,0.00034775
5703.48340210,0.00031743
5705.41220947,0.00027813
5707.34101685,0.00031783
5709.26982422,0.00032290
5711.19863159,0.00035514
5713.12743896,0.00033325
5715.05624634,0.00026905
5716.98505371,0.00025702
5718.91386108,0.00031493
5720.84266846,0.00031086
5722.77147583,0.00027099
5724.70028320,0.00031626
5726.62909058,0.00027972
5728.55789795,0.00034859
5730.48670532,0.00039304
5732.41551270,0.00027659
5734.34432007,0.00029719
5736.27312744,0.00032839
5738.20193481,0.00034953
5740.13074219,0.00033257
5742.05954956,0.00033406
5743.98835693,0.00037502
5745.91716431,0.00032265
5747.84597168,0.00032127
5749.77477905,0.00032008
5751.70358643,0.00031775
5753.63239380,0.00028650
5755.56120117,0.00031419
5757.49000854,0.00035985
5759.41881592,0.00022964
5761.34762329,0.00028269
5763.27643066,0.00036219
5765.20523804,0.00032427
5767.13404541,0.00035053
5769.06285278,0.00031877
5770.99166016,0.00031963
5772.92046753,0.00028385
5774.84927490,0.00025369
5776.77808228,0.00031280
5778.70688965,0.00031641
5780.63569702,0.00030006
5782.56450439,0.00026199
5784.49331177,0.00027029
5786.42211914,0.00030925
5788.35092651,0.00028510
5790.27973389,0.00028866
5792.20854126,0.00031495
5794.13734863,0.00029602
5796.06615601,0.00028716
5797.99496338,0.00029806
5799.92377075,0.00029664
5801.85257812,0.00030824
5803.78138550,0.00029471
5805.71019287,0.00029526
5807.63900024,0.00028877
5809.56780762,0.00028075
5811.49661499,0.00034525
5813.42542236,0.00029709
5815.35422974,0.00024146
5817.28303711,0.00030247
5819.21184448,0.00028174
5821.14065186,0.00024085
5823.06945923,0.00026142
5824.99826660,0.00023532
5826.92707397,0.00021318
5828.85588135,0.00029442
5830.78468872,0.00027433
5832.71349609,0.00020895
5834.64230347,0.00028592
5836.57111084,0.00026898
5838.49991821,0.00023437
5840.42872559,0.00027402
5842.35753296,0.00024706
5844.28634033,0.00025104
5846.21514770,0.00028325
5848.14395508,0.00031154
5850.07276245,0.00030414
5852.00156982,0.00025389
5853.93037720,0.00023863
5855.85918457,0.00025718
5857.78799194,0.00029178
5859.71679932,0.00023496
5861.64560669,0.00022030
5863.57441406,0.00029439
5865.50322144,0.00027275
5867.43202881,0.00028585
5869.36083618,0.00027891
5871.28964355,0.00021675
5873.21845093,0.00021623
5875.14725830,0.00023729
5877.07606567,0.00026750
5879.00487305,0.00023889
5880.93368042,0.00022333
5882.86248779,0.00024823
5884.79129517,0.00029983
5886.72010254,0.00031018
5888.64890991,0.00021267
5890.57771728,0.00022824
5892.50652466,0.00024774
5894.43533203,0.00023031
5896.36413940,0.00026150
5898.29294678,0.00023821
5900.22175415,0.00026075
5902.15056152,0.00028604
5904.07936890,0.00026018
5906.00817627,0.00019889
5907.93698364,0.00017504
5909.86579102,0.00027183
5911.79459839,0.00030001
5913.72340576,0.00025321
5915.65221313,0.00028093
5917.58102051,0.00029709
5919.50982788,0.00024153
5921.43863525,0.00023499
5923.36744263,0.00021513
5925.29625000,0.00018586
5927.22505737,0.00026239
5929.15386475,0.00025588
5931.08267212,0.00018445
5933.01147949,0.00021150
5934.94028686,0.00021709
5936.86909424,0.00017239
5938.79790161,0.00024105
5940.72670898,0.00027617
5942.65551636,0.00021829
5944.58432373,0.00024852
5946.51313110,0.00021734
5948.44193848,0.00024385
5950.37074585,0.00024298
5952.29955322,0.00010111
5954.22836060,0.00014878
5956.15716797,0.00020747
5958.08597534,0.00025073
5960.01478271,0.00027533
5961.94359009,0.00026252
5963.87239746,0.00028837
5965.80120483,0.00019725
5967.73001221,0.00019985
5969.65881958,0.00018703
5971.58762695,0.00015960
5973.51643433,0.00025406
5975.44524170,0.00020073
5977.37404907,0.00017482
5979.30285645,0.00022727
5981.23166382,0.00021742
5983.16047119,0.00017214
5985.08927856,0.00016686
5987.01808594,0.00026681
5988.94689331,0.00029056
5990.87570068,0.00021287
5992.80450806,0.00018748
5994.73331543,0.00022141
5996.66212280,0.00022185
5998.59093018,0.00020930
6000.51973755,0.00022347
