399.26312622,0.00029666
401.19193359,0.00066107
403.12074097,0.00084403
405.04954834,0.00058319
406.97835571,0.00049646
408.90716309,0.00036882
410.83597046,0.00047330
412.76477783,0.00056347
414.69358521,0.00042352
416.62239258,0.00045371
418.55119995,0.00042487
420.48000732,0.00043223
422.40881470,0.00055167
424.33762207,0.00046285
426.26642944,0.00038328
428.19523682,0.00047003
430.12404419,0.00042652
432.05285156,0.00031421
433.98165894,0.00059151
435.91046631,0.00075761
437.83927368,0.00044378
439.76808105,0.00057528
441.69688843,0.00068791
443.62569580,0.00029235
445.55450317,0.00030019
447.48331055,0.00031399
449.41211792,0.00011520
451.34092529,0.00035023
453.26973267,0.00052417
455.19854004,0.00026982
457.12734741,0.00025545
459.05615479,0.00032930
460.98496216,0.00042396
462.91376953,0.00035373
464.84257690,-0.00000657
466.77138428,0.00037036
468.70019165,0.00048222
470.62899902,-0.00017075
472.55780640,-0.00028306
474.48661377,0.00009216
476.41542114,0.00023831
478.34422852,0.00032475
480.27303589,0.00021160
482.20184326,-0.00003465
484.13065063,0.00051301
486.05945801,0.00039054
487.98826538,0.00025503
489.91707275,0.00031578
491.84588013,0.00004709
493.77468750,0.00056189
495.70349487,-0.00003842
497.63230225,-0.00006138
499.56110962,0.00066474
501.48991699,0.00023531
503.41872437,0.00022652
505.34753174,0.00001981
507.27633911,-0.00005554
509.20514648,0.00006424
511.13395386,-0.00004026
513.06276123,0.00028437
514.99156860,0.00019814
516.92037598,0.00014300
518.84918335,0.00024123
520.77799072,-0.00015425
522.70679810,0.00015023
524.63560547,0.00068151
526.56441284,0.00024857
528.49322021,0.00020999
530.42202759,0.00055930
532.35083496,0.00018962
534.27964233,-0.00007607
536.20844971,0.00042674
538.13725708,0.00061214
540.06606445,0.00027813
541.99487183,0.00028554
543.92367920,0.00043153
545.85248657,0.00033212
547.78129395,0.00023035
549.71010132,0.00038366
551.63890869,0.00006790
553.56771606,-0.00004982
555.49652344,0.00034696
557.42533081,-0.00004655
559.35413818,0.00002278
561.28294556,0.00032877
563.21175293,0.00010244
565.14056030,0.00042455
567.06936768,0.00035443
568.99817505,0.00001489
570.92698242,-0.00004719
572.85578979,0.00013105
574.78459717,0.00052880
576.71340454,0.00023187
578.64221191,0.00019260
580.57101929,0.00023374
582.49982666,0.00025189
584.42863403,0.00055062
586.35744141,0.00018367
588.28624878,0.00016586
590.21505615,0.00007383
592.14386353,0.00020119
594.07267090,0.00038142
596.00147827,-0.00017617
597.93028564,-0.00000726
599.85909302,0.00009402
601.78790039,0.00013716
603.71670776,0.00018786
605.64551514,0.00009934
607.57432251,0.00019600
609.50312988,0.00013030
611.43193726,0.00035780
613.36074463,0.00036399
615.28955200,0.00015490
617.21835938,0.00003920
619.14716675,0.00016670
621.07597412,0.00034679
623.00478149,0.00018727
624.93358887,-0.00008870
626.86239624,0.00006988
628.79120361,0.00040298
630.72001099,0.00016982
632.64881836,0.00031650
634.57762573,0.00054004
636.50643311,0.00057475
638.43524048,0.00063186
640.36404785,0.00044388
642.29285522,0.00061932
644.22166260,0.00061566
646.15046997,0.00088475
648.07927734,0.00100905
650.00808472,0.00071943
651.93689209,0.00111819
653.86569946,0.00112356
655.79450684,0.00098862
657.72331421,0.00097689
659.65212158,0.00085684
661.58092896,0.00109803
663.50973633,0.00128148
665.43854370,0.00118209
667.36735107,0.00114848
669.29615845,0.00134050
671.22496582,0.00135044
673.15377319,0.00140966
675.08258057,0.00137683
677.01138794,0.00142566
678.94019531,0.00159991
680.86900269,0.00133743
682.79781006,0.00147033
684.72661743,0.00166118
686.65542480,0.00144830
688.58423218,0.00141828
690.51303955,0.00167555
692.44184692,0.00162042
694.37065430,0.00151916
696.29946167,0.00211563
698.22826904,0.00235807
700.15707642,0.00231863
702.08588379,0.00229565
704.01469116,0.00222272
705.94349854,0.00219764
707.87230591,0.00190529
709.80111328,0.00183946
711.72992065,0.00119035
713.65872803,0.00051383
715.58753540,0.00058985
717.51634277,0.00039449
719.44515015,0.00059753
721.37395752,0.00058200
723.30276489,0.00010468
725.23157227,0.00031472
727.16037964,0.00028845
729.08918701,0.00005835
731.01799438,0.00019333
732.94680176,0.00030753
734.87560913,0.00031732
736.80441650,0.00019665
738.73322388,0.00005064
740.66203125,0.00007910
742.59083862,0.00018920
744.51964600,0.00018937
746.44845337,0.00012706
748.37726074,0.00004030
750.30606812,0.00024847
752.23487549,0.00043982
754.16368286,0.00030463
756.09249023,0.00044385
758.02129761,0.00037128
759.95010498,0.00019970
761.87891235,0.00019593
763.80771973,0.00009148
765.73652710,0.00022211
767.66533447,0.00017519
769.59414185,0.00025213
771.52294922,0.00045598
773.45175659,0.00027454
775.38056396,0.00020705
777.30937134,0.00004784
779.23817871,0.00009262
781.16698608,0.00033000
783.09579346,0.00048461
785.02460083,0.00048948
786.95340820,0.00036719
788.88221558,0.00043737
790.81102295,0.00020354
792.73983032,0.00033392
794.66863770,0.00054021
796.59744507,0.00022786
798.52625244,0.00033531
800.45505981,0.00045789
802.38386719,0.00041781
804.31267456,0.00039485
806.24148193,0.00036200
808.17028931,0.00031948
810.09909668,0.00021798
812.02790405,0.00023123
813.95671143,0.00051243
815.88551880,0.00055119
817.81432617,0.00023346
819.74313354,0.00041716
821.67194092,0.00053941
823.60074829,0.00050782
825.52955566,0.00044360
827.45836304,0.00042523
829.38717041,0.00061170
831.31597778,0.00038726
833.24478516,0.00056562
835.17359253,0.00066469
837.10239990,0.00044937
839.03120728,0.00059591
840.96001465,0.00085053
842.88882202,0.00083918
844.81762939,0.00055544
846.74643677,0.00082345
848.67524414,0.00061286
850.60405151,0.00050201
852.53285889,0.00057908
854.46166626,0.00018980
856.39047363,0.00056144
858.31928101,0.00036990
860.24808838,0.00025785
862.17689575,0.00049031
864.10570313,0.00026890
866.03451050,0.00037197
867.96331787,0.00037598
869.89212524,0.00032604
871.82093262,0.00025220
873.74973999,0.00041471
875.67854736,0.00041376
877.60735474,0.00040735
879.53616211,0.00057073
881.46496948,0.00031337
883.39377686,0.00044001
885.32258423,0.00038151
887.25139160,0.00028739
889.18019897,0.00038152
891.10900635,0.00026524
893.03781372,0.00059057
894.96662109,0.00042863
896.89542847,0.00030597
898.82423584,0.00048322
900.75304321,0.00020517
902.68185059,0.00034324
904.61065796,0.00033572
906.53946533,0.00021644
908.46827271,0.00054450
910.39708008,0.00045836
912.32588745,0.00019582
914.25469482,0.00049278
916.18350220,0.00066086
918.11230957,0.00050755
920.04111694,0.00064748
921.96992432,0.00078598
923.89873169,0.00079540
925.82753906,0.00072387
927.75634644,0.00075432
929.68515381,0.00082660
931.61396118,0.00063366
933.54276855,0.00092054
935.47157593,0.00117408
937.40038330,0.00073428
939.32919067,0.00083901
941.25799805,0.00106908
943.18680542,0.00091897
945.11561279,0.00107317
947.04442017,0.00121984
948.97322754,0.00111590
950.90203491,0.00095917
952.83084229,0.00121006
954.75964966,0.00112599
956.68845703,0.00087262
958.61726440,0.00122678
960.54607178,0.00103784
962.47487915,0.00097222
964.40368652,0.00122275
966.33249390,0.00105209
968.26130127,0.00093472
970.19010864,0.00094291
972.11891602,0.00098356
974.04772339,0.00105048
975.97653076,0.00143299
977.90533813,0.00140104
979.83414551,0.00124834
981.76295288,0.00151608
983.69176025,0.00164590
985.62056763,0.00195456
987.54937500,0.00212894
989.47818237,0.00237079
991.40698975,0.00251612
993.33579712,0.00256467
995.26460449,0.00291657
997.19341187,0.00319823
999.12221924,0.00356681
1001.05102661,0.00355182
1002.97983398,0.00376730
1004.90864136,0.00411510
1006.83744873,0.00412240
1008.76625610,0.00455873
1010.69506348,0.00493026
1012.62387085,0.00517268
1014.55267822,0.00526283
1016.48148560,0.00533333
1018.41029297,0.00568243
1020.33910034,0.00605557
1022.26790771,0.00626674
1024.19671509,0.00654872
1026.12552246,0.00690838
1028.05432983,0.00684348
1029.98313721,0.00702077
1031.91194458,0.00736778
1033.84075195,0.00760699
1035.76955933,0.00758121
1037.69836670,0.00744337
1039.62717407,0.00768617
1041.55598145,0.00744079
1043.48478882,0.00737712
1045.41359619,0.00739207
1047.34240356,0.00712101
1049.27121094,0.00710889
1051.20001831,0.00697237
1053.12882568,0.00711830
1055.05763306,0.00688752
1056.98644043,0.00652307
1058.91524780,0.00651089
1060.84405518,0.00623118
1062.77286255,0.00610321
1064.70166992,0.00584941
1066.63047729,0.00572109
1068.55928467,0.00567030
1070.48809204,0.00529330
1072.41689941,0.00511555
1074.34570679,0.00490161
1076.27451416,0.00466917
1078.20332153,0.00436535
1080.13212891,0.00408002
1082.06093628,0.00416019
1083.98974365,0.00393336
1085.91855103,0.00365468
1087.84735840,0.00368557
1089.77616577,0.00352723
1091.70497314,0.00329582
1093.63378052,0.00312768
1095.56258789,0.00312818
1097.49139526,0.00314035
1099.42020264,0.00298442
1101.34901001,0.00280224
1103.27781738,0.00271460
1105.20662476,0.00280904
1107.13543213,0.00287517
1109.06423950,0.00272270
1110.99304687,0.00250274
1112.92185425,0.00265069
1114.85066162,0.00255097
1116.77946899,0.00238758
1118.70827637,0.00274517
1120.63708374,0.00262779
1122.56589111,0.00248766
1124.49469849,0.00271772
1126.42350586,0.00286282
1128.35231323,0.00279826
1130.28112061,0.00278563
1132.20992798,0.00287710
1134.13873535,0.00291506
1136.06754272,0.00318644
1137.99635010,0.00314520
1139.92515747,0.00336351
1141.85396484,0.00361296
1143.78277222,0.00370621
1145.71157959,0.00404201
1147.64038696,0.00392346
1149.56919434,0.00425289
1151.49800171,0.00448503
1153.42680908,0.00472248
1155.35561646,0.00501158
1157.28442383,0.00498624
1159.21323120,0.00551370
1161.14203857,0.00549944
1163.07084595,0.00561102
1164.99965332,0.00585965
1166.92846069,0.00603910
1168.85726807,0.00644334
1170.78607544,0.00637876
1172.71488281,0.00662492
1174.64369019,0.00674088
1176.57249756,0.00696759
1178.50130493,0.00735369
1180.43011230,0.00754010
1182.35891968,0.00788278
1184.28772705,0.00822652
1186.21653442,0.00865208
1188.14534180,0.00882966
1190.07414917,0.00934171
1192.00295654,0.00982166
1193.93176392,0.01010413
1195.86057129,0.01067143
1197.78937866,0.01111268
1199.71818604,0.01156654
1201.64699341,0.01188153
1203.57580078,0.01226796
1205.50460815,0.01272774
1207.43341553,0.01320893
1209.36222290,0.01358009
1211.29103027,0.01411249
1213.21983765,0.01466287
1215.14864502,0.01473533
1217.07745239,0.01512401
1219.00625977,0.01548830
1220.93506714,0.01594108
1222.86387451,0.01596525
1224.79268188,0.01575765
1226.72148926,0.01623820
1228.65029663,0.01616538
1230.57910400,0.01611764
1232.50791138,0.01617309
1234.43671875,0.01600534
1236.36552612,0.01607390
1238.29433350,0.01612316
1240.22314087,0.01612502
1242.15194824,0.01605042
1244.08075562,0.01598689
1246.00956299,0.01584930
1247.93837036,0.01589546
1249.86717773,0.01579428
1251.79598511,0.01559410
1253.72479248,0.01539345
1255.65359985,0.01513757
1257.58240723,0.01514070
1259.51121460,0.01471951
1261.44002197,0.01456839
1263.36882935,0.01458668
1265.29763672,0.01420658
1267.22644409,0.01396395
1269.15525146,0.01374440
1271.08405884,0.01360178
1273.01286621,0.01343793
1274.94167358,0.01339891
1276.87048096,0.01313586
1278.79928833,0.01267299
1280.72809570,0.01253379
1282.65690308,0.01241370
1284.58571045,0.01209951
1286.51451782,0.01190694
1288.44332520,0.01184746
1290.37213257,0.01163001
1292.30093994,0.01160806
1294.22974731,0.01118383
1296.15855469,0.01106065
1298.08736206,0.01156940
1300.01616943,0.01138100
1301.94497681,0.01119139
1303.87378418,0.01131463
1305.80259155,0.01163016
1307.73139893,0.01161412
1309.66020630,0.01165959
1311.58901367,0.01213234
1313.51782104,0.01227666
1315.44662842,0.01250362
1317.37543579,0.01258583
1319.30424316,0.01299907
1321.23305054,0.01353635
1323.16185791,0.01392510
1325.09066528,0.01435954
1327.01947266,0.01453647
1328.94828003,0.01502032
1330.87708740,0.01523140
1332.80589478,0.01572181
1334.73470215,0.01621069
1336.66350952,0.01608499
1338.59231689,0.01609697
1340.52112427,0.01618517
1342.44993164,0.01689498
1344.37873901,0.01724795
1346.30754639,0.01704132
1348.23635376,0.01684988
1350.16516113,0.01672880
1352.09396851,0.01677053
1354.02277588,0.01633504
1355.95158325,0.01625346
1357.88039062,0.01634108
1359.80919800,0.01607215
1361.73800537,0.01534959
1363.66681274,0.01514095
1365.59562012,0.01591092
1367.52442749,0.01539514
1369.45323486,0.01522636
1371.38204224,0.01563594
1373.31084961,0.01475998
1375.23965698,0.01473137
1377.16846436,0.01536935
1379.09727173,0.01519815
1381.02607910,0.01502068
1382.95488647,0.01532070
1384.88369385,0.01501778
1386.81250122,0.01434225
1388.74130859,0.01482373
1390.67011597,0.01582105
1392.59892334,0.01538102
1394.52773071,0.01443816
1396.45653809,0.01522630
1398.38534546,0.01504277
1400.31415283,0.01501650
1402.24296021,0.01636119
1404.17176758,0.01542192
1406.10057495,0.01552076
1408.02938232,0.01597398
1409.95818970,0.01554513
1411.88699707,0.01589721
1413.81580444,0.01531878
1415.74461182,0.01561360
1417.67341919,0.01397914
1419.60222656,0.01260986
1421.53103394,0.01438474
1423.45984131,0.01409109
1425.38864868,0.01371686
1427.31745605,0.01362262
1429.24626343,0.01284983
1431.17507080,0.01247111
1433.10387817,0.01254428
1435.03268555,0.01155715
1436.96149292,0.00974361
1438.89030029,0.01111019
1440.81910767,0.01151304
1442.74791504,0.01082262
1444.67672241,0.01123078
1446.60552979,0.01031745
1448.53433716,0.01062104
1450.46314453,0.01070426
1452.39195190,0.01082974
1454.32075928,0.01134213
1456.24956665,0.00943947
1458.17837402,0.00992980
1460.10718140,0.01292577
1462.03598877,0.01366046
1463.96479614,0.01367814
1465.89360352,0.01413886
1467.82241089,0.01578748
1469.75121826,0.01694716
1471.68002563,0.01531154
1473.60883301,0.01597535
1475.53764038,0.01806763
1477.46644775,0.01957151
1479.39525513,0.02121367
1481.32406250,0.02136988
1483.25286987,0.02276170
1485.18167725,0.02310340
1487.11048462,0.02291610
1489.03929199,0.02297800
1490.96809937,0.02288092
1492.89690674,0.02654922
1494.82571411,0.02566167
1496.75452148,0.02335804
1498.68332886,0.02643146
1500.61213623,0.02707161
1502.54094360,0.02906696
1504.46975098,0.02713250
1506.39855835,0.02023787
1508.32736572,0.02464804
1510.25617310,0.02847374
1512.18498047,0.02777778
1514.11378784,0.02977827
1516.04259521,0.02692847
1517.97140259,0.02808483
1519.90020996,0.02703017
1521.82901733,0.02365916
1523.75782471,0.02867756
1525.68663208,0.02809768
1527.61543945,0.02798326
1529.54424683,0.03082451
1531.47305420,0.02963682
1533.40186157,0.02725591
1535.33066895,0.02886435
1537.25947632,0.03063889
1539.18828369,0.02229984
1541.11709106,0.02343307
1543.04589844,0.02754554
1544.97470581,0.02653261
1546.90351318,0.03112848
1548.83232056,0.02907697
1550.76112793,0.03013813
1552.68993530,0.02944213
1554.61874268,0.02704449
1556.54755005,0.02886375
1558.47635742,0.02043829
1560.40516479,0.02262818
1562.33397217,0.03114748
1564.26277954,0.02925489
1566.19158691,0.03011665
1568.12039429,0.02961118
1570.04920166,0.02662321
1571.97800903,0.03062386
1573.90681641,0.03071329
1575.83562378,0.02441010
1577.76443115,0.02769477
1579.69323853,0.03091031
1581.62204590,0.02945780
1583.55085327,0.03042391
1585.47966064,0.02991606
1587.40846802,0.03008107
1589.33727539,0.02960409
1591.26608276,0.02964636
1593.19489014,0.02973542
1595.12369751,0.02938137
1597.05250488,0.02984238
1598.98131226,0.02951286
1600.91011963,0.02973462
1602.83892700,0.02901582
1604.76773437,0.02958210
1606.69654175,0.02928281
1608.62534912,0.02898804
1610.55415649,0.02913366
1612.48296387,0.02938616
1614.41177124,0.02955173
1616.34057861,0.02445856
1618.26938599,0.02680462
1620.19819336,0.03072194
1622.12700073,0.02738613
1624.05580811,0.02777898
1625.98461548,0.02915456
1627.91342285,0.02930974
1629.84223022,0.02915200
1631.77103760,0.03119329
1633.69984497,0.02892268
1635.62865234,0.02437897
1637.55745972,0.02850117
1639.48626709,0.03106205
1641.41507446,0.03073304
1643.34388184,0.03167002
1645.27268921,0.02865093
1647.20149658,0.02593271
1649.13030396,0.03210770
1651.05911133,0.03005970
1652.98791870,0.02013724
1654.91672607,0.02758871
1656.84553345,0.03377058
1658.77434082,0.03235909
1660.70314819,0.03351924
1662.63195557,0.03072668
1664.56076294,0.03248743
1666.48957031,0.03472806
1668.41837769,0.03068069
1670.34718506,0.03004084
1672.27599243,0.03377901
1674.20479980,0.03133687
1676.13360718,0.03031032
1678.06241455,0.03465196
1679.99122192,0.03345054
1681.92002930,0.03308406
1683.84883667,0.02711302
1685.77764404,0.02738785
1687.70645142,0.03657225
1689.63525879,0.03156110
1691.56406616,0.03493436
1693.49287354,0.03522819
1695.42168091,0.02628644
1697.35048828,0.03203578
1699.27929565,0.02794067
1701.20810303,0.02573132
1703.13691040,0.03416168
1705.06571777,0.03148939
1706.99452515,0.03205380
1708.92333252,0.03433969
1710.85213989,0.03304740
1712.78094727,0.03344448
1714.70975464,0.03094510
1716.63856201,0.02790305
1718.56736938,0.02766800
1720.49617676,0.03254881
1722.42498413,0.03353737
1724.35379150,0.03119641
1726.28259888,0.03351086
1728.21140625,0.03115233
1730.14021362,0.03144793
1732.06902100,0.03028232
1733.99782837,0.02357566
1735.92663574,0.02912602
1737.85544312,0.03165363
1739.78425049,0.02836028
1741.71305786,0.03095041
1743.64186523,0.03105703
1745.57067261,0.03106565
1747.49947998,0.03127122
1749.42828735,0.02960797
1751.35709473,0.02864505
1753.28590210,0.03176518
1755.21470947,0.03281765
1757.14351685,0.03019423
1759.07232422,0.03287306
1761.00113159,0.03076208
1762.92993896,0.03014483
1764.85874634,0.03388822
1766.78755371,0.03050767
1768.71636108,0.03105034
1770.64516846,0.03058882
1772.57397583,0.02767067
1774.50278320,0.03067845
1776.43159058,0.03233223
1778.36039795,0.03193780
1780.28920532,0.03145386
1782.21801270,0.03169575
1784.14682007,0.03143336
1786.07562744,0.03079055
1788.00443481,0.03231248
1789.93324219,0.03148516
1791.86204956,0.02866408
1793.79085693,0.02980815
1795.71966431,0.03176275
1797.64847168,0.03133260
1799.57727905,0.03087255
1801.50608643,0.03028655
1803.43489380,0.03135674
1805.36370117,0.03189842
1807.29250854,0.03144274
1809.22131592,0.03153064
1811.15012329,0.03055911
1813.07893066,0.03154758
1815.00773804,0.03161234
1816.93654541,0.03132788
1818.86535278,0.03157289
1820.79416016,0.03132993
1822.72296753,0.03162660
1824.65177490,0.02973223
1826.58058228,0.03088187
1828.50938965,0.03064495
1830.43819702,0.02904704
1832.36700439,0.03136433
1834.29581177,0.03108151
1836.22461914,0.03115433
1838.15342651,0.03080760
1840.08223389,0.03115560
1842.01104126,0.03099270
1843.93984863,0.02765436
1845.86865601,0.02948530
1847.79746338,0.03100096
1849.72627075,0.03035470
1851.65507812,0.03099236
1853.58388550,0.03058601
1855.51269287,0.03079684
1857.44150024,0.03072349
1859.37030762,0.03040160
1861.29911499,0.03039316
1863.22792236,0.03028893
1865.15672974,0.03038609
1867.08553711,0.02959321
1869.01434448,0.02833658
1870.94315186,0.02931617
1872.87195923,0.03053532
1874.80076660,0.02990195
1876.72957397,0.03005359
1878.65838135,0.02990042
1880.58718872,0.02987841
1882.51599609,0.02994096
1884.44480347,0.02948070
1886.37361084,0.03001860
1888.30241821,0.02913881
1890.23122559,0.02867845
1892.16003296,0.02966944
1894.08884033,0.02937945
1896.01764771,0.02901816
1897.94645508,0.02918615
1899.87526245,0.02927774
1901.80406982,0.02914174
1903.73287720,0.02908932
1905.66168457,0.02909486
1907.59049194,0.02873559
1909.51929932,0.02875567
1911.44810669,0.02883343
1913.37691406,0.02891069
1915.30572144,0.02904866
1917.23452881,0.02779189
1919.16333618,0.02785223
1921.09214355,0.02881438
1923.02095093,0.02799836
1924.94975830,0.02840793
1926.87856567,0.02855277
1928.80737305,0.02836137
1930.73618042,0.02875067
1932.66498779,0.02818413
1934.59379517,0.02836036
1936.52260254,0.02815739
1938.45140991,0.02829288
1940.38021729,0.02827972
1942.30902466,0.02733877
1944.23783203,0.02793607
1946.16663940,0.02827764
1948.09544678,0.02816685
1950.02425415,0.02808634
1951.95306152,0.02799840
1953.88186890,0.02809909
1955.81067627,0.02782363
1957.73948364,0.02794217
1959.66829102,0.02792868
1961.59709839,0.02782671
1963.52590576,0.02794944
1965.45471313,0.02769888
1967.38352051,0.02746408
1969.31232788,0.02774388
1971.24113525,0.02777094
1973.16994263,0.02759346
1975.09875000,0.02778792
1977.02755737,0.02760247
1978.95636475,0.02754382
1980.88517212,0.02754638
1982.81397949,0.02741647
1984.74278687,0.02743321
1986.67159424,0.02726926
1988.60040161,0.02733476
1990.52920898,0.02705514
1992.45801636,0.02668110
1994.38682373,0.02699038
1996.31563110,0.02716772
1998.24443848,0.02700176
2000.17324585,0.02694379
2002.10205322,0.02682522
2004.03086060,0.02680483
2005.95966797,0.02684384
2007.88847534,0.02657216
2009.81728271,0.02651112
2011.74609009,0.02652335
2013.67489746,0.02658422
2015.60370483,0.02638711
2017.53251221,0.02605926
2019.46131958,0.02629067
2021.39012695,0.02624516
2023.31893433,0.02618503
2025.24774170,0.02612710
2027.17654907,0.02599551
2029.10535645,0.02599366
2031.03416382,0.02586509
2032.96297119,0.02600209
2034.89177856,0.02589265
2036.82058594,0.02570314
2038.74939331,0.02563065
2040.67820068,0.02554496
2042.60700806,0.02556994
2044.53581543,0.02544386
2046.46462280,0.02544226
2048.39343018,0.02537519
2050.32223755,0.02527036
2052.25104492,0.02526916
2054.17985229,0.02519733
2056.10865967,0.02509280
2058.03746704,0.02509121
2059.96627441,0.02511775
2061.89508179,0.02490007
2063.82388916,0.02476696
2065.75269653,0.02470190
2067.68150391,0.02469811
2069.61031128,0.02477346
2071.53911865,0.02465096
2073.46792603,0.02452020
2075.39673340,0.02456184
2077.32554077,0.02464278
2079.25434814,0.02454930
2081.18315552,0.02443621
2083.11196289,0.02438357
2085.04077026,0.02435327
2086.96957764,0.02423942
2088.89838501,0.02414217
2090.82719238,0.02420051
2092.75599976,0.02415008
2094.68480713,0.02409286
2096.61361450,0.02404648
2098.54242187,0.02402425
2100.47122925,0.02398849
2102.40003662,0.02388959
2104.32884399,0.02396981
2106.25765137,0.02390521
2108.18645874,0.02357825
2110.11526611,0.02365849
2112.04407349,0.02382300
2113.97288086,0.02359654
2115.90168823,0.02363412
2117.83049561,0.02356609
2119.75930298,0.02348199
2121.68811035,0.02360469
2123.61691772,0.02340776
2125.54572510,0.02343373
2127.47453247,0.02341221
2129.40333984,0.02336476
2131.33214722,0.02334777
2133.26095459,0.02319237
2135.18976196,0.02329505
2137.11856934,0.02320649
2139.04737671,0.02318025
2140.97618408,0.02316714
2142.90499146,0.02309807
2144.83379883,0.02320686
2146.76260620,0.02308978
2148.69141357,0.02294346
2150.62022095,0.02292941
2152.54902832,0.02305157
2154.47783569,0.02296600
2156.40664307,0.02282870
2158.33545044,0.02294381
2160.26425781,0.02289857
2162.19306519,0.02284508
2164.12187256,0.02276763
2166.05067993,0.02269602
2167.97948730,0.02278955
2169.90829468,0.02271869
2171.83710205,0.02255492
2173.76590942,0.02244987
2175.69471680,0.02244289
2177.62352417,0.02261691
2179.55233154,0.02253238
2181.48113892,0.02238175
2183.40994629,0.02244831
2185.33875366,0.02233493
2187.26756104,0.02235743
2189.19636841,0.02240123
2191.12517578,0.02229741
2193.05398315,0.02231140
2194.98279053,0.02225097
2196.91159790,0.02213222
2198.84040527,0.02217960
2200.76921265,0.02225211
2202.69802002,0.02211154
2204.62682739,0.02213412
2206.55563477,0.02204199
2208.48444214,0.02196990
2210.41324951,0.02216746
2212.34205688,0.02194405
2214.27086426,0.02187891
2216.19967163,0.02195176
2218.12847900,0.02186585
2220.05728638,0.02185828
2221.98609375,0.02183281
2223.91490112,0.02183933
2225.84370850,0.02165229
2227.77251587,0.02146301
2229.70132324,0.02146544
2231.63013062,0.02165210
2233.55893799,0.02162984
2235.48774536,0.02148859
2237.41655273,0.02148849
2239.34536011,0.02132530
2241.27416748,0.02140214
2243.20297485,0.02140487
2245.13178223,0.02130462
2247.06058960,0.02131687
2248.98939697,0.02125046
2250.91820435,0.02125530
2252.84701172,0.02116085
2254.77581909,0.02115448
2256.70462646,0.02112116
2258.63343384,0.02110963
2260.56224121,0.02109287
2262.49104858,0.02090687
2264.41985596,0.02098719
2266.34866333,0.02101733
2268.27747070,0.02083660
2270.20627808,0.02077775
2272.13508545,0.02077213
2274.06389282,0.02074973
2275.99270020,0.02080987
2277.92150757,0.02070346
2279.85031494,0.02065029
2281.77912231,0.02073688
2283.70792969,0.02061151
2285.63673706,0.02055057
2287.56554443,0.02033927
2289.49435181,0.02027401
2291.42315918,0.02036110
2293.35196655,0.02023418
2295.28077393,0.02024820
2297.20958130,0.02015904
2299.13838867,0.02012351
2301.06719604,0.02006881
2302.99600342,0.01985733
2304.92481079,0.01976141
2306.85361816,0.01974221
2308.78242554,0.01956409
2310.71123291,0.01922990
2312.64004028,0.01910965
2314.56884766,0.01883203
2316.49765503,0.01864856
2318.42646240,0.01850959
2320.35526978,0.01805267
2322.28407715,0.01780617
2324.21288452,0.01753042
2326.14169189,0.01734246
2328.07049927,0.01710271
2329.99930664,0.01674911
2331.92811401,0.01682685
2333.85692139,0.01671242
2335.78572876,0.01650650
2337.71453613,0.01664348
2339.64334351,0.01647638
2341.57215088,0.01647359
2343.50095825,0.01693633
2345.42976562,0.01720001
2347.35857300,0.01793714
2349.28738037,0.01852610
2351.21618774,0.01779630
2353.14499512,0.01682375
2355.07380249,0.01615505
2357.00260986,0.01569519
2358.93141724,0.01543046
2360.86022461,0.01522406
2362.78903198,0.01518356
2364.71783936,0.01530454
2366.64664673,0.01550434
2368.57545410,0.01583120
2370.50426147,0.01623974
2372.43306885,0.01666368
2374.36187622,0.01726928
2376.29068359,0.01782257
2378.21949097,0.01821911
2380.14829834,0.01844486
2382.07710571,0.01851864
2384.00591309,0.01876233
2385.93472046,0.01892271
2387.86352783,0.01885527
2389.79233521,0.01885037
2391.72114258,0.01886386
2393.64994995,0.01864756
2395.57875732,0.01871188
2397.50756470,0.01884885
2399.43637207,0.01860433
2401.36517944,0.01868076
2403.29398682,0.01867607
2405.22279419,0.01858722
2407.15160156,0.01864819
2409.08040894,0.01850470
2411.00921631,0.01848855
2412.93802368,0.01842226
2414.86683105,0.01833781
2416.79563843,0.01837440
2418.72444580,0.01840439
2420.65325317,0.01837945
2422.58206055,0.01826661
2424.51086792,0.01823147
2426.43967529,0.01824451
2428.36848267,0.01824113
2430.29729004,0.01816080
2432.22609741,0.01811385
2434.15490479,0.01813123
2436.08371216,0.01811480
2438.01251953,0.01806477
2439.94132690,0.01806450
2441.87013428,0.01801209
2443.79894165,0.01793401
2445.72774902,0.01796575
2447.65655640,0.01778007
2449.58536377,0.01769386
2451.51417114,0.01773404
2453.44297852,0.01778242
2455.37178589,0.01786176
2457.30059326,0.01772210
2459.22940063,0.01769026
2461.15820801,0.01759334
2463.08701538,0.01765217
2465.01582275,0.01763755
2466.94463013,0.01740827
2468.87343750,0.01757807
2470.80224487,0.01751428
2472.73105225,0.01743469
2474.65985962,0.01748011
2476.58866699,0.01743417
2478.51747437,0.01745876
2480.44628174,0.01741327
2482.37508911,0.01743908
2484.30389648,0.01728217
2486.23270386,0.01721587
2488.16151123,0.01725746
2490.09031860,0.01716179
2492.01912598,0.01716170
2493.94793335,0.01705059
2495.87674072,0.01705187
2497.80554810,0.01711238
2499.73435547,0.01703118
2501.66316284,0.01705402
2503.59197021,0.01699734
2505.52077759,0.01688538
2507.44958496,0.01695569
2509.37839233,0.01694209
2511.30719971,0.01684424
2513.23600708,0.01684967
2515.16481445,0.01680528
2517.09362183,0.01679904
2519.02242920,0.01681853
2520.95123657,0.01674148
2522.88004395,0.01666200
2524.80885132,0.01666871
2526.73765869,0.01666271
2528.66646606,0.01653890
2530.59527344,0.01648839
2532.52408081,0.01655840
2534.45288818,0.01653503
2536.38169556,0.01649181
2538.31050293,0.01657817
2540.23931030,0.01644017
2542.16811768,0.01642196
2544.09692505,0.01657559
2546.02573242,0.01632423
2547.95453979,0.01626999
2549.88334717,0.01626165
2551.81215454,0.01612042
2553.74096191,0.01620476
2555.66976929,0.01623949
2557.59857666,0.01622063
2559.52738403,0.01606645
2561.45619141,0.01601218
2563.38499878,0.01608748
2565.31380615,0.01601014
2567.24261353,0.01593171
2569.17142090,0.01595093
2571.10022827,0.01592731
2573.02903564,0.01585905
2574.95784302,0.01597753
2576.88665039,0.01588399
2578.81545776,0.01571917
2580.74426514,0.01578823
2582.67307251,0.01577388
2584.60187988,0.01577573
2586.53068726,0.01567037
2588.45949463,0.01558969
2590.38830200,0.01567686
2592.31710937,0.01566281
2594.24591675,0.01562289
2596.17472412,0.01558968
2598.10353149,0.01553922
2600.03233887,0.01552008
2601.96114624,0.01555208
2603.88995361,0.01565560
2605.81876099,0.01552062
2607.74756836,0.01533672
2609.67637573,0.01556132
2611.60518311,0.01545893
2613.53399048,0.01524908
2615.46279785,0.01535494
2617.39160522,0.01524592
2619.32041260,0.01517669
2621.24921997,0.01510588
2623.17802734,0.01526501
2625.10683472,0.01531028
2627.03564209,0.01505305
2628.96444946,0.01519454
2630.89325684,0.01510143
2632.82206421,0.01501374
2634.75087158,0.01504797
2636.67967895,0.01494145
2638.60848633,0.01503211
2640.53729370,0.01495884
2642.46610107,0.01488270
2644.39490845,0.01479503
2646.32371582,0.01472527
2648.25252319,0.01485972
2650.18133057,0.01484937
2652.11013794,0.01471167
2654.03894531,0.01462693
2655.96775269,0.01461567
2657.89656006,0.01460635
2659.82536743,0.01467561
2661.75417480,0.01467832
2663.68298218,0.01455846
2665.61178955,0.01452634
2667.54059692,0.01455782
2669.46940430,0.01454889
2671.39821167,0.01446061
2673.32701904,0.01438284
2675.25582642,0.01432151
2677.18463379,0.01432886
2679.11344116,0.01430119
2681.04224854,0.01431998
2682.97105591,0.01434886
2684.89986328,0.01424242
2686.82867065,0.01429672
2688.75747803,0.01420422
2690.68628540,0.01419845
2692.61509277,0.01430276
2694.54390015,0.01407449
2696.47270752,0.01411199
2698.40151489,0.01414525
2700.33032227,0.01404722
2702.25912964,0.01407355
2704.18793701,0.01394020
2706.11674438,0.01387262
2708.04555176,0.01382005
2709.97435913,0.01386823
2711.90316650,0.01396880
2713.83197388,0.01384797
2715.76078125,0.01385085
2717.68958862,0.01385213
2719.61839600,0.01372037
2721.54720337,0.01363540
2723.47601074,0.01366948
2725.40481812,0.01374608
2727.33362549,0.01365094
2729.26243286,0.01356198
2731.19124023,0.01350440
2733.12004761,0.01351845
2735.04885498,0.01360831
2736.97766235,0.01354153
2738.90646973,0.01349554
2740.83527710,0.01349040
2742.76408447,0.01343594
2744.69289185,0.01338038
2746.62169922,0.01343370
2748.55050659,0.01346815
2750.47931396,0.01331620
2752.40812134,0.01322501
2754.33692871,0.01324693
2756.26573608,0.01329701
2758.19454346,0.01317874
2760.12335083,0.01313817
2762.05215820,0.01325374
2763.98096558,0.01313302
2765.90977295,0.01309236
2767.83858032,0.01304910
2769.76738770,0.01291871
2771.69619507,0.01290222
2773.62500244,0.01291661
2775.55380981,0.01290345
2777.48261719,0.01276897
2779.41142456,0.01282378
2781.34023193,0.01287275
2783.26903931,0.01275502
2785.19784668,0.01278752
2787.12665405,0.01272435
2789.05546143,0.01262251
2790.98426880,0.01261457
2792.91307617,0.01261305
2794.84188354,0.01265344
2796.77069092,0.01256093
2798.69949829,0.01245055
2800.62830566,0.01255467
2802.55711304,0.01256820
2804.48592041,0.01240983
2806.41472778,0.01234842
2808.34353516,0.01234784
2810.27234253,0.01230498
2812.20114990,0.01225215
2814.12995728,0.01223666
2816.05876465,0.01222789
2817.98757202,0.01215067
2819.91637939,0.01214651
2821.84518677,0.01225543
2823.77399414,0.01211582
2825.70280151,0.01208114
2827.63160889,0.01217529
2829.56041626,0.01197516
2831.48922363,0.01205261
2833.41803101,0.01192801
2835.34683838,0.01181286
2837.27564575,0.01211673
2839.20445312,0.01185039
2841.13326050,0.01177458
2843.06206787,0.01183233
2844.99087524,0.01153992
2846.91968262,0.01155858
2848.84848999,0.01161289
2850.77729736,0.01145957
2852.70610474,0.01136304
2854.63491211,0.01151281
2856.56371948,0.01145118
2858.49252686,0.01143105
2860.42133423,0.01141928
2862.35014160,0.01122484
2864.27894897,0.01143499
2866.20775635,0.01126986
2868.13656372,0.01107409
2870.06537109,0.01126397
2871.99417847,0.01119604
2873.92298584,0.01116798
2875.85179321,0.01113988
2877.78060059,0.01108429
2879.70940796,0.01110275
2881.63821533,0.01116722
2883.56702270,0.01104524
2885.49583008,0.01098956
2887.42463745,0.01111088
2889.35344482,0.01092980
2891.28225220,0.01086864
2893.21105957,0.01090880
2895.13986694,0.01090382
2897.06867432,0.01088242
2898.99748169,0.01080555
2900.92628906,0.01078669
2902.85509644,0.01068786
2904.78390381,0.01074920
2906.71271118,0.01072120
2908.64151855,0.01049201
2910.57032593,0.01043739
2912.49913330,0.01042821
2914.42794067,0.01031751
2916.35674805,0.01027101
2918.28555542,0.01039413
2920.21436279,0.01036178
2922.14317017,0.01028856
2924.07197754,0.01021558
2926.00078491,0.01008844
2927.92959229,0.01016507
2929.85839966,0.01014931
2931.78720703,0.01010864
2933.71601440,0.01018737
2935.64482178,0.01016245
2937.57362915,0.01014522
2939.50243652,0.01015341
2941.43124390,0.01018247
2943.36005127,0.01013704
2945.28885864,0.01002228
2947.21766602,0.01010391
2949.14647339,0.01007417
2951.07528076,0.00997367
2953.00408813,0.00997650
2954.93289551,0.00984027
2956.86170288,0.00986124
2958.79051025,0.00980096
2960.71931763,0.00974409
2962.64812500,0.00989813
2964.57693237,0.00971843
2966.50573975,0.00969182
2968.43454712,0.00980040
2970.36335449,0.00967893
2972.29216187,0.00965890
2974.22096924,0.00964230
2976.14977661,0.00964980
2978.07858398,0.00969871
2980.00739136,0.00967040
2981.93619873,0.00969753
2983.86500610,0.00968892
2985.79381348,0.00954776
2987.72262085,0.00961412
2989.65142822,0.00960948
2991.58023560,0.00950306
2993.50904297,0.00957771
2995.43785034,0.00936635
2997.36665771,0.00936106
2999.29546509,0.00950509
3001.22427246,0.00935180
3003.15307983,0.00933263
3005.08188721,0.00928221
3007.01069458,0.00929164
3008.93950195,0.00927578
3010.86830933,0.00925500
3012.79711670,0.00934511
3014.72592407,0.00916557
3016.65473145,0.00907264
3018.58353882,0.00920434
3020.51234619,0.00925427
3022.44115356,0.00913865
3024.36996094,0.00904196
3026.29876831,0.00906107
3028.22757568,0.00901221
3030.15638306,0.00896918
3032.08519043,0.00890091
3034.01399780,0.00879616
3035.94280518,0.00885080
3037.87161255,0.00892022
3039.80041992,0.00883154
3041.72922729,0.00877400
3043.65803467,0.00875033
3045.58684204,0.00877416
3047.51564941,0.00879756
3049.44445679,0.00867891
3051.37326416,0.00869186
3053.30207153,0.00867536
3055.23087891,0.00862402
3057.15968628,0.00863502
3059.08849365,0.00853210
3061.01730103,0.00856993
3062.94610840,0.00856986
3064.87491577,0.00849235
3066.80372314,0.00844279
3068.73253052,0.00836915
3070.66133789,0.00844236
3072.59014526,0.00842439
3074.51895264,0.00836643
3076.44776001,0.00839690
3078.37656738,0.00832920
3080.30537476,0.00829371
3082.23418213,0.00831894
3084.16298950,0.00827423
3086.09179687,0.00823572
3088.02060425,0.00817094
3089.94941162,0.00811502
3091.87821899,0.00819330
3093.80702637,0.00812381
3095.73583374,0.00809386
3097.66464111,0.00810367
3099.59344849,0.00793155
3101.52225586,0.00804624
3103.45106323,0.00802717
3105.37987061,0.00787228
3107.30867798,0.00796200
3109.23748535,0.00790666
3111.16629272,0.00796378
3113.09510010,0.00794514
3115.02390747,0.00777580
3116.95271484,0.00772724
3118.88152222,0.00766692
3120.81032959,0.00773320
3122.73913696,0.00777942
3124.66794434,0.00777488
3126.59675171,0.00763452
3128.52555908,0.00764919
3130.45436645,0.00781552
3132.38317383,0.00760895
3134.31198120,0.00760534
3136.24078857,0.00757438
3138.16959595,0.00743095
3140.09840332,0.00755935
3142.02721069,0.00757199
3143.95601807,0.00756133
3145.88482544,0.00753051
3147.81363281,0.00753023
3149.74244019,0.00741783
3151.67124756,0.00736605
3153.60005493,0.00746517
3155.52886230,0.00733489
3157.45766968,0.00737474
3159.38647705,0.00736950
3161.31528442,0.00732067
3163.24409180,0.00730476
3165.17289917,0.00724204
3167.10170654,0.00733647
3169.03051392,0.00720393
3170.95932129,0.00715925
3172.88812866,0.00717489
3174.81693604,0.00713696
3176.74574341,0.00717349
3178.67455078,0.00705967
3180.60335815,0.00706443
3182.53216553,0.00708193
3184.46097290,0.00713285
3186.38978027,0.00711883
3188.31858765,0.00700174
3190.24739502,0.00705177
3192.17620239,0.00704317
3194.10500977,0.00701649
3196.03381714,0.00702149
3197.96262451,0.00706728
3199.89143188,0.00703613
3201.82023926,0.00698086
3203.74904663,0.00704188
3205.67785400,0.00702410
3207.60666138,0.00701893
3209.53546875,0.00698949
3211.46427612,0.00696987
3213.39308350,0.00699864
3215.32189087,0.00697634
3217.25069824,0.00692983
3219.17950562,0.00694815
3221.10831299,0.00703003
3223.03712036,0.00694274
3224.96592773,0.00696967
3226.89473511,0.00706577
3228.82354248,0.00695841
3230.75234985,0.00703281
3232.68115723,0.00704985
3234.60996460,0.00689454
3236.53877197,0.00695892
3238.46757935,0.00702543
3240.39638672,0.00705336
3242.32519409,0.00702316
3244.25400146,0.00688961
3246.18280884,0.00694946
3248.11161621,0.00690696
3250.04042358,0.00685189
3251.96923096,0.00705630
3253.89803833,0.00707016
3255.82684570,0.00693448
3257.75565308,0.00695426
3259.68446045,0.00709363
3261.61326782,0.00709043
3263.54207520,0.00701758
3265.47088257,0.00703824
3267.39968994,0.00707010
3269.32849731,0.00713740
3271.25730469,0.00716989
3273.18611206,0.00714869
3275.11491943,0.00703531
3277.04372681,0.00705154
3278.97253418,0.00708205
3280.90134155,0.00705606
3282.83014893,0.00718477
3284.75895630,0.00704050
3286.68776367,0.00704605
3288.61657104,0.00719167
3290.54537842,0.00708992
3292.47418579,0.00718914
3294.40299316,0.00718450
3296.33180054,0.00705419
3298.26060791,0.00706344
3300.18941528,0.00710815
3302.11822266,0.00709995
3304.04703003,0.00709488
3305.97583740,0.00715931
3307.90464478,0.00713729
3309.83345215,0.00716213
3311.76225952,0.00718702
3313.69106689,0.00717509
3315.61987427,0.00723166
3317.54868164,0.00727236
3319.47748901,0.00724994
3321.40629639,0.00719052
3323.33510376,0.00725307
3325.26391113,0.00727945
3327.19271851,0.00721445
3329.12152588,0.00724726
3331.05033325,0.00727530
3332.97914062,0.00728701
3334.90794800,0.00734968
3336.83675537,0.00735324
3338.76556274,0.00732190
3340.69437012,0.00731809
3342.62317749,0.00734635
3344.55198486,0.00737642
3346.48079224,0.00729950
3348.40959961,0.00732940
3350.33840698,0.00740682
3352.26721436,0.00738053
3354.19602173,0.00730730
3356.12482910,0.00730239
3358.05363647,0.00751438
3359.98244385,0.00750098
3361.91125122,0.00742871
3363.84005859,0.00741484
3365.76886597,0.00742988
3367.69767334,0.00765816
3369.62648071,0.00753450
3371.55528809,0.00748017
3373.48409546,0.00760391
3375.41290283,0.00755368
3377.34171020,0.00757873
3379.27051758,0.00751739
3381.19932495,0.00755098
3383.12813232,0.00757372
3385.05693970,0.00756950
3386.98574707,0.00765160
3388.91455444,0.00756006
3390.84336182,0.00759040
3392.77216919,0.00775042
3394.70097656,0.00772350
3396.62978394,0.00771694
3398.55859131,0.00778958
3400.48739868,0.00775660
3402.41620605,0.00782463
3404.34501343,0.00785508
3406.27382080,0.00779235
3408.20262817,0.00783053
3410.13143555,0.00783447
3412.06024292,0.00784598
3413.98905029,0.00780900
3415.91785767,0.00786727
3417.84666504,0.00796022
3419.77547241,0.00791807
3421.70427979,0.00794238
3423.63308716,0.00799786
3425.56189453,0.00797192
3427.49070190,0.00795527
3429.41950928,0.00809263
3431.34831665,0.00806577
3433.27712402,0.00802512
3435.20593140,0.00807681
3437.13473877,0.00809500
3439.06354614,0.00822069
3440.99235352,0.00810850
3442.92116089,0.00807493
3444.84996826,0.00814393
3446.77877563,0.00811343
3448.70758301,0.00813466
3450.63639038,0.00810103
3452.56519775,0.00820954
3454.49400513,0.00821314
3456.42281250,0.00816289
3458.35161987,0.00827918
3460.28042725,0.00829704
3462.20923462,0.00820495
3464.13804199,0.00826359
3466.06684937,0.00830921
3467.99565674,0.00819341
3469.92446411,0.00822436
3471.85327148,0.00815622
3473.78207886,0.00825605
3475.71088623,0.00840466
3477.63969360,0.00833688
3479.56850098,0.00839662
3481.49730835,0.00830493
3483.42611572,0.00836502
3485.35492310,0.00840979
3487.28373047,0.00837560
3489.21253784,0.00846592
3491.14134521,0.00845510
3493.07015259,0.00849126
3494.99895996,0.00844663
3496.92776733,0.00852639
3498.85657471,0.00848894
3500.78538208,0.00839210
3502.71418945,0.00838403
3504.64299683,0.00830924
3506.57180420,0.00852947
3508.50061157,0.00848656
3510.42941895,0.00838209
3512.35822632,0.00849102
3514.28703369,0.00848670
3516.21584106,0.00852603
3518.14464844,0.00848456
3520.07345581,0.00850474
3522.00226318,0.00846590
3523.93107056,0.00839017
3525.85987793,0.00844972
3527.78868530,0.00837287
3529.71749268,0.00841187
3531.64630005,0.00863094
3533.57510742,0.00861695
3535.50391479,0.00852858
3537.43272217,0.00850171
3539.36152954,0.00848806
3541.29033691,0.00861724
3543.21914429,0.00852970
3545.14795166,0.00825584
3547.07675903,0.00824820
3549.00556641,0.00853993
3550.93437378,0.00858822
3552.86318115,0.00836786
3554.79198853,0.00853481
3556.72079590,0.00858495
3558.64960327,0.00848561
3560.57841064,0.00848060
3562.50721802,0.00841927
3564.43602539,0.00837142
3566.36483276,0.00790260
3568.29364014,0.00780350
3570.22244751,0.00837216
3572.15125488,0.00848642
3574.08006226,0.00836545
3576.00886963,0.00841167
3577.93767700,0.00841156
3579.86648437,0.00846628
3581.79529175,0.00841769
3583.72409912,0.00840250
3585.65290649,0.00827385
3587.58171387,0.00764409
3589.51052124,0.00786212
3591.43932861,0.00845894
3593.36813599,0.00812998
3595.29694336,0.00798621
3597.22575073,0.00820117
3599.15455811,0.00821705
3601.08336548,0.00814000
3603.01217285,0.00826264
3604.94098022,0.00844289
3606.86978760,0.00814491
3608.79859497,0.00755933
3610.72740234,0.00776091
3612.65620972,0.00796785
3614.58501709,0.00774956
3616.51382446,0.00817032
3618.44263184,0.00759254
3620.37143921,0.00758264
3622.30024658,0.00828835
3624.22905395,0.00797276
3626.15786133,0.00837868
3628.08666870,0.00712637
3630.01547607,0.00659260
3631.94428345,0.00814990
3633.87309082,0.00797832
3635.80189819,0.00804989
3637.73070557,0.00823248
3639.65951294,0.00814766
3641.58832031,0.00809604
3643.51712769,0.00808649
3645.44593506,0.00813319
3647.37474243,0.00728224
3649.30354980,0.00671839
3651.23235718,0.00678242
3653.16116455,0.00801831
3655.08997192,0.00784621
3657.01877930,0.00708409
3658.94758667,0.00806422
3660.87639404,0.00783937
3662.80520142,0.00807253
3664.73400879,0.00799373
3666.66281616,0.00779392
3668.59162354,0.00757303
3670.52043091,0.00629775
3672.44923828,0.00752774
3674.37804565,0.00709462
3676.30685303,0.00605636
3678.23566040,0.00747332
3680.16446777,0.00747722
3682.09327515,0.00755359
3684.02208252,0.00769719
3685.95088989,0.00747832
3687.87969727,0.00682698
3689.80850464,0.00637755
3691.73731201,0.00714705
3693.66611938,0.00722151
3695.59492676,0.00743247
3697.52373413,0.00746633
3699.45254150,0.00734746
3701.38134888,0.00714267
3703.31015625,0.00687984
3705.23896362,0.00745363
3707.16777100,0.00710029
3709.09657837,0.00695515
3711.02538574,0.00654238
3712.95419312,0.00617181
3714.88300049,0.00707598
3716.81180786,0.00697548
3718.74061523,0.00697177
3720.66942261,0.00682866
3722.59822998,0.00671311
3724.52703735,0.00677302
3726.45584473,0.00633764
3728.38465210,0.00686941
3730.31345947,0.00669270
3732.24226685,0.00625433
3734.17107422,0.00614559
3736.09988159,0.00583253
3738.02868896,0.00607192
3739.95749634,0.00655686
3741.88630371,0.00675679
3743.81511108,0.00531364
3745.74391846,0.00522905
3747.67272583,0.00653853
3749.60153320,0.00557049
3751.53034058,0.00512547
3753.45914795,0.00583503
3755.38795532,0.00634273
3757.31676270,0.00658801
3759.24557007,0.00601389
3761.17437744,0.00622679
3763.10318481,0.00663583
3765.03199219,0.00615379
3766.96079956,0.00639085
3768.88960693,0.00629236
3770.81841431,0.00592250
3772.74722168,0.00644474
3774.67602905,0.00642173
3776.60483643,0.00637501
3778.53364380,0.00616177
3780.46245117,0.00603852
3782.39125854,0.00645532
3784.32006592,0.00622475
3786.24887329,0.00622076
3788.17768066,0.00629745
3790.10648804,0.00621263
3792.03529541,0.00619940
3793.96410278,0.00633009
3795.89291016,0.00593748
3797.82171753,0.00582956
3799.75052490,0.00616114
3801.67933228,0.00497503
3803.60813965,0.00574578
3805.53694702,0.00613743
3807.46575439,0.00511367
3809.39456177,0.00613651
3811.32336914,0.00602383
3813.25217651,0.00619501
3815.18098389,0.00548166
3817.10979126,0.00498699
3819.03859863,0.00618971
3820.96740601,0.00494491
3822.89621338,0.00532106
3824.82502075,0.00605077
3826.75382812,0.00545666
3828.68263550,0.00585151
3830.61144287,0.00552300
3832.54025024,0.00544135
3834.46905762,0.00559486
3836.39786499,0.00528223
3838.32667236,0.00476693
3840.25547974,0.00513322
3842.18428711,0.00555965
3844.11309448,0.00539900
3846.04190186,0.00582018
3847.97070923,0.00560891
3849.89951660,0.00561539
3851.82832397,0.00509586
3853.75713135,0.00388719
3855.68593872,0.00460886
3857.61474609,0.00561882
3859.54355347,0.00545845
3861.47236084,0.00541672
3863.40116821,0.00527570
3865.32997559,0.00494469
3867.25878296,0.00548994
3869.18759033,0.00503338
3871.11639770,0.00467514
3873.04520508,0.00544497
3874.97401245,0.00501378
3876.90281982,0.00541776
3878.83162720,0.00549676
3880.76043457,0.00473657
3882.68924194,0.00537669
3884.61804932,0.00509712
3886.54685669,0.00479648
3888.47566406,0.00548127
3890.40447144,0.00516931
3892.33327881,0.00489688
3894.26208618,0.00537528
3896.19089355,0.00540020
3898.11970093,0.00504622
3900.04850830,0.00479312
3901.97731567,0.00472544
3903.90612305,0.00471508
3905.83493042,0.00483588
3907.76373779,0.00529278
3909.69254517,0.00530108
3911.62135254,0.00515711
3913.55015991,0.00521277
3915.47896728,0.00503281
3917.40777466,0.00486686
3919.33658203,0.00491165
3921.26538940,0.00515071
3923.19419678,0.00504151
3925.12300415,0.00493329
3927.05181152,0.00505945
3928.98061890,0.00508684
3930.90942627,0.00504833
3932.83823364,0.00487750
3934.76704102,0.00501616
3936.69584839,0.00499664
3938.62465576,0.00489151
3940.55346313,0.00499533
3942.48227051,0.00483492
3944.41107788,0.00489750
3946.33988525,0.00498458
3948.26869263,0.00487700
3950.19750000,0.00489234
3952.12630737,0.00494387
3954.05511475,0.00491130
3955.98392212,0.00481591
3957.91272949,0.00489776
3959.84153687,0.00490898
3961.77034424,0.00467378
3963.69915161,0.00470414
3965.62795898,0.00485563
3967.55676636,0.00477435
3969.48557373,0.00480418
3971.41438110,0.00478385
3973.34318848,0.00469747
3975.27199585,0.00474994
3977.20080322,0.00475963
3979.12961060,0.00476553
3981.05841797,0.00475307
3982.98722534,0.00474966
3984.91603271,0.00465293
3986.84484009,0.00467260
3988.77364746,0.00476525
3990.70245483,0.00461253
3992.63126221,0.00458247
3994.56006958,0.00463599
3996.48887695,0.00462913
3998.41768433,0.00459929
4000.34649170,0.00458023
4002.27529907,0.00456515
4004.20410645,0.00454393
4006.13291382,0.00450798
4008.06172119,0.00449919
4009.99052856,0.00456356
4011.91933594,0.00445451
4013.84814331,0.00450755
4015.77695068,0.00457805
4017.70575806,0.00446323
4019.63456543,0.00445344
4021.56337280,0.00447817
4023.49218018,0.00455001
4025.42098755,0.00442276
4027.34979492,0.00440128
4029.27860229,0.00441731
4031.20740967,0.00433732
4033.13621704,0.00440462
4035.06502441,0.00430941
4036.99383179,0.00434892
4038.92263916,0.00440098
4040.85144653,0.00434994
4042.78025391,0.00432288
4044.70906128,0.00425848
4046.63786865,0.00432501
4048.56667603,0.00433827
4050.49548340,0.00427913
4052.42429077,0.00427471
4054.35309814,0.00433652
4056.28190552,0.00425295
4058.21071289,0.00419692
4060.13952026,0.00422351
4062.06832764,0.00416433
4063.99713501,0.00414859
4065.92594238,0.00411049
4067.85474976,0.00417652
4069.78355713,0.00412803
4071.71236450,0.00414089
4073.64117187,0.00418871
4075.56997925,0.00411536
4077.49878662,0.00421961
4079.42759399,0.00414131
4081.35640137,0.00412833
4083.28520874,0.00409688
4085.21401611,0.00403979
4087.14282349,0.00405746
4089.07163086,0.00393134
4091.00043823,0.00406843
4092.92924561,0.00409374
4094.85805298,0.00403201
4096.78686035,0.00399415
4098.71566772,0.00395739
4100.64447510,0.00404660
4102.57328247,0.00394213
4104.50208984,0.00399709
4106.43089722,0.00404091
4108.35970459,0.00389554
4110.28851196,0.00396948
4112.21731934,0.00406986
4114.14612671,0.00397318
4116.07493408,0.00389967
4118.00374145,0.00390640
4119.93254883,0.00389860
4121.86135620,0.00390129
4123.79016357,0.00379292
4125.71897095,0.00380753
4127.64777832,0.00386849
4129.57658569,0.00385586
4131.50539307,0.00387314
4133.43420044,0.00377492
4135.36300781,0.00379686
4137.29181519,0.00382557
4139.22062256,0.00377453
4141.14942993,0.00373185
4143.07823730,0.00370373
4145.00704468,0.00373673
4146.93585205,0.00376206
4148.86465942,0.00379646
4150.79346680,0.00375767
4152.72227417,0.00376149
4154.65108154,0.00371389
4156.57988892,0.00368181
4158.50869629,0.00367720
4160.43750366,0.00358076
4162.36631103,0.00363237
4164.29511841,0.00366378
4166.22392578,0.00370371
4168.15273315,0.00366640
4170.08154053,0.00368836
4172.01034790,0.00373195
4173.93915527,0.00356844
4175.86796265,0.00365002
4177.79677002,0.00366546
4179.72557739,0.00364720
4181.65438477,0.00363787
4183.58319214,0.00355880
4185.51199951,0.00364836
4187.44080688,0.00354584
4189.36961426,0.00349226
4191.29842163,0.00349005
4193.22722900,0.00349653
4195.15603638,0.00353826
4197.08484375,0.00349633
4199.01365112,0.00359202
4200.94245850,0.00346614
4202.87126587,0.00343331
4204.80007324,0.00354251
4206.72888062,0.00343937
4208.65768799,0.00349432
4210.58649536,0.00344720
4212.51530273,0.00340248
4214.44411011,0.00347742
4216.37291748,0.00337932
4218.30172485,0.00338013
4220.23053223,0.00339790
4222.15933960,0.00334005
4224.08814697,0.00335927
4226.01695435,0.00341284
4227.94576172,0.00345567
4229.87456909,0.00337253
4231.80337646,0.00333145
4233.73218384,0.00335196
4235.66099121,0.00326964
4237.58979858,0.00331233
4239.51860596,0.00331774
4241.44741333,0.00322682
4243.37622070,0.00325825
4245.30502808,0.00326601
4247.23383545,0.00328315
4249.16264282,0.00324241
4251.09145020,0.00319627
4253.02025757,0.00326256
4254.94906494,0.00327210
4256.87787231,0.00326561
4258.80667969,0.00319737
4260.73548706,0.00319882
4262.66429443,0.00323378
4264.59310181,0.00314372
4266.52190918,0.00320313
4268.45071655,0.00320898
4270.37952393,0.00311213
4272.30833130,0.00311572
4274.23713867,0.00309463
4276.16594604,0.00311127
4278.09475342,0.00313367
4280.02356079,0.00316216
4281.95236816,0.00320254
4283.88117554,0.00311338
4285.80998291,0.00307447
4287.73879028,0.00316478
4289.66759766,0.00311947
4291.59640503,0.00301072
4293.52521240,0.00301444
4295.45401978,0.00301710
4297.38282715,0.00303686
4299.31163452,0.00304658
4301.24044189,0.00306189
4303.16924927,0.00306829
4305.09805664,0.00301602
4307.02686401,0.00306515
4308.95567139,0.00301432
4310.88447876,0.00294791
4312.81328613,0.00303841
4314.74209351,0.00298343
4316.67090088,0.00290513
4318.59970825,0.00296449
4320.52851562,0.00304814
4322.45732300,0.00308503
4324.38613037,0.00299726
4326.31493774,0.00287405
4328.24374512,0.00291452
4330.17255249,0.00297045
4332.10135986,0.00292021
4334.03016724,0.00288823
4335.95897461,0.00287512
4337.88778198,0.00290492
4339.81658936,0.00287936
4341.74539673,0.00289669
4343.67420410,0.00292370
4345.60301147,0.00284589
4347.53181885,0.00288093
4349.46062622,0.00283540
4351.38943359,0.00284759
4353.31824097,0.00293046
4355.24704834,0.00284704
4357.17585571,0.00284935
4359.10466309,0.00285082
4361.03347046,0.00282202
4362.96227783,0.00280070
4364.89108520,0.00279536
4366.81989258,0.00282182
4368.74869995,0.00280844
4370.67750732,0.00279633
4372.60631470,0.00277777
4374.53512207,0.00279434
4376.46392944,0.00276325
4378.39273682,0.00276086
4380.32154419,0.00273386
4382.25035156,0.00271099
4384.17915894,0.00280675
4386.10796631,0.00268798
4388.03677368,0.00265815
4389.96558105,0.00273320
4391.89438843,0.00266050
4393.82319580,0.00266913
4395.75200317,0.00263260
4397.68081055,0.00262955
4399.60961792,0.00264894
4401.53842529,0.00260902
4403.46723267,0.00259810
4405.39604004,0.00257818
4407.32484741,0.00261737
4409.25365478,0.00257671
4411.18246216,0.00257421
4413.11126953,0.00262706
4415.04007690,0.00253379
4416.96888428,0.00258078
4418.89769165,0.00259342
4420.82649902,0.00251052
4422.75530640,0.00260171
4424.68411377,0.00255084
4426.61292114,0.00245555
4428.54172852,0.00252640
4430.47053589,0.00252988
4432.39934326,0.00245599
4434.32815063,0.00242753
4436.25695801,0.00251526
4438.18576538,0.00259342
4440.11457275,0.00252737
4442.04338013,0.00246980
4443.97218750,0.00250790
4445.90099487,0.00244342
4447.82980225,0.00237555
4449.75860962,0.00242784
4451.68741699,0.00240517
4453.61622437,0.00244171
4455.54503174,0.00251321
4457.47383911,0.00254033
4459.40264648,0.00250798
4461.33145386,0.00240597
4463.26026123,0.00250035
4465.18906860,0.00251412
4467.11787598,0.00241335
4469.04668335,0.00240239
4470.97549072,0.00236121
4472.90429810,0.00242011
4474.83310547,0.00237366
4476.76191284,0.00228464
4478.69072021,0.00237737
4480.61952759,0.00233836
4482.54833496,0.00230163
4484.47714233,0.00236745
4486.40594971,0.00229706
4488.33475708,0.00231219
4490.26356445,0.00237640
4492.19237183,0.00226251
4494.12117920,0.00227293
4496.04998657,0.00232068
4497.97879395,0.00226015
4499.90760132,0.00233287
4501.83640869,0.00233039
4503.76521606,0.00219341
4505.69402344,0.00222596
4507.62283081,0.00231907
4509.55163818,0.00226945
4511.48044556,0.00224115
4513.40925293,0.00231391
4515.33806030,0.00229005
4517.26686768,0.00221242
4519.19567505,0.00218876
4521.12448242,0.00217519
4523.05328979,0.00224938
4524.98209717,0.00226696
4526.91090454,0.00220547
4528.83971191,0.00217924
4530.76851929,0.00210853
4532.69732666,0.00220163
4534.62613403,0.00220643
4536.55494141,0.00209033
4538.48374878,0.00219465
4540.41255615,0.00218839
4542.34136353,0.00215449
4544.27017090,0.00213109
4546.19897827,0.00208112
4548.12778564,0.00213106
4550.05659302,0.00216074
4551.98540039,0.00217735
4553.91420776,0.00212583
4555.84301514,0.00219123
4557.77182251,0.00218865
4559.70062988,0.00209831
4561.62943726,0.00217044
4563.55824463,0.00210019
4565.48705200,0.00207270
4567.41585937,0.00214287
4569.34466675,0.00213094
4571.27347412,0.00209517
4573.20228149,0.00210051
4575.13108887,0.00210864
4577.05989624,0.00205910
4578.98870361,0.00208486
4580.91751099,0.00203129
4582.84631836,0.00200216
4584.77512573,0.00207389
4586.70393311,0.00201305
4588.63274048,0.00197343
4590.56154785,0.00207911
4592.49035522,0.00207146
4594.41916260,0.00197889
4596.34796997,0.00204689
4598.27677734,0.00200066
4600.20558472,0.00199282
4602.13439209,0.00201595
4604.06319946,0.00197605
4605.99200684,0.00204733
4607.92081421,0.00192796
4609.84962158,0.00196198
4611.77842895,0.00201944
4613.70723633,0.00197794
4615.63604370,0.00200119
4617.56485107,0.00186240
4619.49365845,0.00193821
4621.42246582,0.00193353
4623.35127319,0.00191749
4625.28008057,0.00201925
4627.20888794,0.00190618
4629.13769531,0.00195623
4631.06650269,0.00193828
4632.99531006,0.00186633
4634.92411743,0.00196104
4636.85292480,0.00193075
4638.78173218,0.00183423
4640.71053955,0.00186359
4642.63934692,0.00193030
4644.56815430,0.00187361
4646.49696167,0.00185480
4648.42576904,0.00187564
4650.35457642,0.00184474
4652.28338379,0.00182654
4654.21219116,0.00187501
4656.14099853,0.00191451
4658.06980591,0.00184205
4659.99861328,0.00182328
4661.92742065,0.00186572
4663.85622803,0.00184197
4665.78503540,0.00177149
4667.71384277,0.00176602
4669.64265015,0.00181654
4671.57145752,0.00183010
4673.50026489,0.00178860
4675.42907227,0.00179150
4677.35787964,0.00185349
4679.28668701,0.00178472
4681.21549438,0.00177525
4683.14430176,0.00177863
4685.07310913,0.00170125
4687.00191650,0.00178119
4688.93072388,0.00176786
4690.85953125,0.00169570
4692.78833862,0.00175780
4694.71714600,0.00176699
4696.64595337,0.00170663
4698.57476074,0.00173112
4700.50356812,0.00175726
4702.43237549,0.00169408
4704.36118286,0.00175575
4706.28999023,0.00176961
4708.21879761,0.00163280
4710.14760498,0.00165310
4712.07641235,0.00175360
4714.00521973,0.00171180
4715.93402710,0.00166218
4717.86283447,0.00169995
4719.79164185,0.00163238
4721.72044922,0.00162525
4723.64925659,0.00171452
4725.57806396,0.00166097
4727.50687134,0.00164043
4729.43567871,0.00165548
4731.36448608,0.00165166
4733.29329346,0.00168931
4735.22210083,0.00165582
4737.15090820,0.00159543
4739.07971558,0.00162388
4741.00852295,0.00162239
4742.93733032,0.00154743
4744.86613770,0.00161566
4746.79494507,0.00164590
4748.72375244,0.00157699
4750.65255981,0.00164641
4752.58136719,0.00160377
4754.51017456,0.00157641
4756.43898193,0.00163403
4758.36778931,0.00157451
4760.29659668,0.00159462
4762.22540405,0.00157920
4764.15421143,0.00157871
4766.08301880,0.00158810
4768.01182617,0.00153048
4769.94063354,0.00155860
4771.86944092,0.00153276
4773.79824829,0.00156755
4775.72705566,0.00155854
4777.65586304,0.00150506
4779.58467041,0.00156352
4781.51347778,0.00156401
4783.44228516,0.00157975
4785.37109253,0.00151250
4787.29989990,0.00149196
4789.22870728,0.00152345
4791.15751465,0.00146808
4793.08632202,0.00152624
4795.01512939,0.00147894
4796.94393677,0.00137354
4798.87274414,0.00145904
4800.80155151,0.00149948
4802.73035889,0.00143274
4804.65916626,0.00148412
4806.58797363,0.00150410
4808.51678101,0.00145162
4810.44558838,0.00148132
4812.37439575,0.00148721
4814.30320312,0.00147631
4816.23201050,0.00145874
4818.16081787,0.00150171
4820.08962524,0.00143012
4822.01843262,0.00139737
4823.94723999,0.00149520
4825.87604736,0.00139238
4827.80485474,0.00144483
4829.73366211,0.00142618
4831.66246948,0.00136253
4833.59127686,0.00144534
4835.52008423,0.00138785
4837.44889160,0.00142884
4839.37769897,0.00140008
4841.30650635,0.00140916
4843.23531372,0.00140309
4845.16412109,0.00136593
4847.09292847,0.00146063
4849.02173584,0.00140632
4850.95054321,0.00142834
4852.87935059,0.00136265
4854.80815796,0.00132481
4856.73696533,0.00140293
4858.66577270,0.00138184
4860.59458008,0.00137090
4862.52338745,0.00131822
4864.45219482,0.00141625
4866.38100220,0.00137914
4868.30980957,0.00134786
4870.23861694,0.00140467
4872.16742432,0.00130317
4874.09623169,0.00135829
4876.02503906,0.00132579
4877.95384644,0.00132940
4879.88265381,0.00136786
4881.81146118,0.00134121
4883.74026855,0.00137517
4885.66907593,0.00129276
4887.59788330,0.00130842
4889.52669067,0.00128013
4891.45549805,0.00124757
4893.38430542,0.00132000
4895.31311279,0.00130964
4897.24192017,0.00126310
4899.17072754,0.00126971
4901.09953491,0.00139387
4903.02834228,0.00130268
4904.95714966,0.00121894
4906.88595703,0.00131115
4908.81476440,0.00126213
4910.74357178,0.00127583
4912.67237915,0.00130893
4914.60118652,0.00128575
4916.52999390,0.00126241
4918.45880127,0.00120033
4920.38760864,0.00116828
4922.31641602,0.00121201
4924.24522339,0.00123392
4926.17403076,0.00119549
4928.10283813,0.00121665
4930.03164551,0.00117631
4931.96045288,0.00121763
4933.88926025,0.00132905
4935.81806763,0.00126807
4937.74687500,0.00124597
4939.67568237,0.00122247
4941.60448975,0.00120448
4943.53329712,0.00121592
4945.46210449,0.00115593
4947.39091187,0.00113551
4949.31971924,0.00117895
4951.24852661,0.00121359
4953.17733398,0.00119546
4955.10614136,0.00127620
4957.03494873,0.00122962
4958.96375610,0.00104838
4960.89256348,0.00113150
4962.82137085,0.00123287
4964.75017822,0.00126035
4966.67898560,0.00119682
4968.60779297,0.00110219
4970.53660034,0.00115200
4972.46540771,0.00114860
4974.39421509,0.00120717
4976.32302246,0.00121948
4978.25182983,0.00109494
4980.18063721,0.00113913
4982.10944458,0.00116821
4984.03825195,0.00109968
4985.96705933,0.00112144
4987.89586670,0.00117103
4989.82467407,0.00119857
4991.75348145,0.00115596
4993.68228882,0.00108478
4995.61109619,0.00112217
4997.53990356,0.00113718
4999.46871094,0.00113892
5001.39751831,0.00113205
5003.32632568,0.00106088
5005.25513306,0.00107098
5007.18394043,0.00107804
5009.11274780,0.00114281
5011.04155518,0.00117416
5012.97036255,0.00107753
5014.89916992,0.00110363
5016.82797729,0.00109034
5018.75678467,0.00103220
5020.68559204,0.00106996
5022.61439941,0.00110475
5024.54320679,0.00106302
5026.47201416,0.00101479
5028.40082153,0.00108825
5030.32962891,0.00113327
5032.25843628,0.00108693
5034.18724365,0.00105124
5036.11605103,0.00110580
5038.04485840,0.00114553
5039.97366577,0.00103638
5041.90247314,0.00100406
5043.83128052,0.00106659
5045.76008789,0.00104252
5047.68889526,0.00101820
5049.61770264,0.00102459
5051.54651001,0.00099767
5053.47531738,0.00101339
5055.40412476,0.00100404
5057.33293213,0.00096777
5059.26173950,0.00098774
5061.19054687,0.00097301
5063.11935425,0.00100275
5065.04816162,0.00101855
5066.97696899,0.00098325
5068.90577637,0.00098444
5070.83458374,0.00097923
5072.76339111,0.00103471
5074.69219849,0.00103649
5076.62100586,0.00098619
5078.54981323,0.00104449
5080.47862061,0.00103295
5082.40742798,0.00092661
5084.33623535,0.00093709
5086.26504272,0.00095633
5088.19385010,0.00096704
5090.12265747,0.00103470
5092.05146484,0.00098365
5093.98027222,0.00095160
5095.90907959,0.00095133
5097.83788696,0.00092671
5099.76669434,0.00098428
5101.69550171,0.00095140
5103.62430908,0.00089016
5105.55311645,0.00096094
5107.48192383,0.00097417
5109.41073120,0.00084459
5111.33953857,0.00089439
5113.26834595,0.00101925
5115.19715332,0.00093533
5117.12596069,0.00093108
5119.05476807,0.00099757
5120.98357544,0.00091327
5122.91238281,0.00084224
5124.84119019,0.00096107
5126.76999756,0.00097403
5128.69880493,0.00086769
5130.62761230,0.00092754
5132.55641968,0.00095050
5134.48522705,0.00091577
5136.41403442,0.00092027
5138.34284180,0.00093481
5140.27164917,0.00088465
5142.20045654,0.00088483
5144.12926392,0.00096329
5146.05807129,0.00092209
5147.98687866,0.00088806
5149.91568603,0.00082573
5151.84449341,0.00087948
5153.77330078,0.00092614
5155.70210815,0.00083683
5157.63091553,0.00091569
5159.55972290,0.00090870
5161.48853027,0.00089162
5163.41733765,0.00087889
5165.34614502,0.00079977
5167.27495239,0.00084592
5169.20375977,0.00084407
5171.13256714,0.00081106
5173.06137451,0.00081386
5174.99018188,0.00084680
5176.91898926,0.00083668
5178.84779663,0.00079599
5180.77660400,0.00082411
5182.70541138,0.00082865
5184.63421875,0.00073788
5186.56302612,0.00073933
5188.49183350,0.00087198
5190.42064087,0.00083966
5192.34944824,0.00081870
5194.27825562,0.00079836
5196.20706299,0.00075944
5198.13587036,0.00082732
5200.06467773,0.00077532
5201.99348511,0.00080984
5203.92229248,0.00085599
5205.85109985,0.00079893
5207.77990723,0.00075170
5209.70871460,0.00071760
5211.63752197,0.00076834
5213.56632935,0.00074344
5215.49513672,0.00075297
5217.42394409,0.00077100
5219.35275146,0.00071177
5221.28155884,0.00077262
5223.21036621,0.00079096
5225.13917358,0.00071237
5227.06798096,0.00076657
5228.99678833,0.00083525
5230.92559570,0.00076857
5232.85440308,0.00072761
5234.78321045,0.00076528
5236.71201782,0.00084012
5238.64082520,0.00079338
5240.56963257,0.00074182
5242.49843994,0.00077582
5244.42724731,0.00073377
5246.35605469,0.00075053
5248.28486206,0.00071217
5250.21366943,0.00069676
5252.14247681,0.00075922
5254.07128418,0.00075014
5256.00009155,0.00074617
5257.92889893,0.00076990
5259.85770630,0.00082617
5261.78651367,0.00071916
5263.71532104,0.00071338
5265.64412842,0.00077036
5267.57293579,0.00068371
5269.50174316,0.00074881
5271.43055054,0.00074102
5273.35935791,0.00073471
5275.28816528,0.00075692
5277.21697266,0.00074529
5279.14578003,0.00077002
5281.07458740,0.00068922
5283.00339478,0.00075275
5284.93220215,0.00078068
5286.86100952,0.00066028
5288.78981689,0.00064711
5290.71862427,0.00064970
5292.64743164,0.00069674
5294.57623901,0.00073378
5296.50504639,0.00072531
5298.43385376,0.00071112
5300.36266113,0.00062794
5302.29146851,0.00067697
5304.22027588,0.00071474
5306.14908325,0.00060021
5308.07789062,0.00060961
5310.00669800,0.00059182
5311.93550537,0.00066907
5313.86431274,0.00075283
5315.79312012,0.00065331
5317.72192749,0.00070341
5319.65073486,0.00066743
5321.57954224,0.00069407
5323.50834961,0.00074663
5325.43715698,0.00064295
5327.36596436,0.00069428
5329.29477173,0.00068765
5331.22357910,0.00069439
5333.15238647,0.00064027
5335.08119385,0.00061371
5337.01000122,0.00067361
5338.93880859,0.00056301
5340.86761597,0.00064149
5342.79642334,0.00064868
5344.72523071,0.00058632
5346.65403809,0.00066493
5348.58284546,0.00060342
5350.51165283,0.00060555
5352.44046020,0.00061185
5354.36926758,0.00058207
5356.29807495,0.00067338
5358.22688232,0.00070117
5360.15568970,0.00060249
5362.08449707,0.00060713
5364.01330444,0.00069827
5365.94211182,0.00062653
5367.87091919,0.00056312
5369.79972656,0.00057519
5371.72853394,0.00054784
5373.65734131,0.00056974
5375.58614868,0.00058488
5377.51495605,0.00057737
5379.44376343,0.00054680
5381.37257080,0.00059992
5383.30137817,0.00071745
5385.23018555,0.00063291
5387.15899292,0.00062215
5389.08780029,0.00067915
5391.01660767,0.00063802
5392.94541504,0.00065474
5394.87422241,0.00059988
5396.80302978,0.00059992
5398.73183716,0.00061201
5400.66064453,0.00057580
5402.58945190,0.00058391
5404.51825928,0.00056011
5406.44706665,0.00055882
5408.37587402,0.00051794
5410.30468140,0.00058390
5412.23348877,0.00061856
5414.16229614,0.00056418
5416.09110352,0.00062722
5418.01991089,0.00061766
5419.94871826,0.00056198
5421.87752563,0.00054706
5423.80633301,0.00060944
5425.73514038,0.00058088
5427.66394775,0.00055830
5429.59275513,0.00058994
5431.52156250,0.00054154
5433.45036987,0.00057880
5435.37917725,0.00052158
5437.30798462,0.00056739
5439.23679199,0.00058008
5441.16559936,0.00049393
5443.09440674,0.00057670
5445.02321411,0.00054423
5446.95202148,0.00056413
5448.88082886,0.00051458
5450.80963623,0.00049661
5452.73844360,0.00058303
5454.66725098,0.00051528
5456.59605835,0.00055862
5458.52486572,0.00056672
5460.45367310,0.00053118
5462.38248047,0.00054978
5464.31128784,0.00056025
5466.24009521,0.00051200
5468.16890259,0.00047994
5470.09770996,0.00056240
5472.02651733,0.00053162
5473.95532471,0.00045953
5475.88413208,0.00045525
5477.81293945,0.00047609
5479.74174683,0.00047548
5481.67055420,0.00053837
5483.59936157,0.00055309
5485.52816895,0.00049915
5487.45697632,0.00054609
5489.38578369,0.00047737
5491.31459106,0.00047418
5493.24339844,0.00049772
5495.17220581,0.00044935
5497.10101318,0.00048618
5499.02982056,0.00051911
5500.95862793,0.00049183
5502.88743530,0.00047282
5504.81624268,0.00058203
5506.74505005,0.00046298
5508.67385742,0.00043949
5510.60266479,0.00058680
5512.53147217,0.00047977
5514.46027954,0.00049027
5516.38908691,0.00045116
5518.31789429,0.00041877
5520.24670166,0.00048652
5522.17550903,0.00053666
5524.10431641,0.00055429
5526.03312378,0.00041431
5527.96193115,0.00046660
5529.89073853,0.00054129
5531.81954590,0.00047024
5533.74835327,0.00044973
5535.67716064,0.00045652
5537.60596802,0.00045050
5539.53477539,0.00046830
5541.46358276,0.00049594
5543.39239014,0.00043689
5545.32119751,0.00042878
5547.25000488,0.00042800
5549.17881226,0.00043247
5551.10761963,0.00044377
5553.03642700,0.00044044
5554.96523437,0.00040971
5556.89404175,0.00039486
5558.82284912,0.00050290
5560.75165649,0.00041579
5562.68046387,0.00040643
5564.60927124,0.00050293
5566.53807861,0.00043755
5568.46688599,0.00041469
5570.39569336,0.00041521
5572.32450073,0.00050406
5574.25330811,0.00041772
5576.18211548,0.00034646
5578.11092285,0.00047460
5580.03973022,0.00047603
5581.96853760,0.00048048
5583.89734497,0.00041009
5585.82615234,0.00039115
5587.75495972,0.00048274
5589.68376709,0.00050135
5591.61257446,0.00047290
5593.54138184,0.00041450
5595.47018921,0.00047637
5597.39899658,0.00051351
5599.32780395,0.00040124
5601.25661133,0.00039774
5603.18541870,0.00045108
5605.11422607,0.00042928
5607.04303345,0.00047128
5608.97184082,0.00044188
5610.90064819,0.00042516
5612.82945557,0.00047147
5614.75826294,0.00041660
5616.68707031,0.00048426
5618.61587769,0.00048626
5620.54468506,0.00043643
5622.47349243,0.00044798
5624.40229980,0.00036683
5626.33110718,0.00039460
5628.25991455,0.00044702
5630.18872192,0.00040132
5632.11752930,0.00035981
5634.04633667,0.00041114
5635.97514404,0.00042125
5637.90395142,0.00038939
5639.83275879,0.00044990
5641.76156616,0.00041988
5643.69037353,0.00038754
5645.61918091,0.00042863
5647.54798828,0.00043359
5649.47679565,0.00040356
5651.40560303,0.00041021
5653.33441040,0.00045238
5655.26321777,0.00042450
5657.19202515,0.00036438
5659.12083252,0.00034550
5661.04963989,0.00035027
5662.97844727,0.00036670
5664.90725464,0.00042065
5666.83606201,0.00034930
5668.76486938,0.00033011
5670.69367676,0.00042197
5672.62248413,0.00034960
5674.55129150,0.00032665
5676.48009888,0.00031154
5678.40890625,0.00032654
5680.33771362,0.00038965
5682.26652100,0.00034081
5684.19532837,0.00034166
5686.12413574,0.00035840
5688.05294311,0.00036165
5689.98175049,0.00037021
5691.91055786,0.00038058
5693.83936523,0.00035116
5695.76817261,0.00035767
5697.69697998,0.00040725
5699.62578735,0.00039268
5701.55459473,0.00036771
5703.48340210,0.00033967
5705.41220947,0.00040690
5707.34101685,0.00036812
5709.26982422,0.00029890
5711.19863159,0.00035367
5713.12743896,0.00036874
5715.05624634,0.00041005
5716.98505371,0.00033633
5718.91386108,0.00031529
5720.84266846,0.00038264
5722.77147583,0.00036457
5724.70028320,0.00037030
5726.62909058,0.00037805
5728.55789795,0.00036766
5730.48670532,0.00033908
5732.41551270,0.00035472
5734.34432007,0.00036542
5736.27312744,0.00038351
5738.20193481,0.00032948
5740.13074219,0.00034320
5742.05954956,0.00040430
5743.98835693,0.00027629
5745.91716431,0.00034318
5747.84597168,0.00033518
5749.77477905,0.00025538
5751.70358643,0.00034029
5753.63239380,0.00032788
5755.56120117,0.00031742
5757.49000854,0.00028756
5759.41881592,0.00035459
5761.34762329,0.00036843
5763.27643066,0.00033896
5765.20523804,0.00034224
5767.13404541,0.00029861
5769.06285278,0.00037461
5770.99166016,0.00031250
5772.92046753,0.00032248
5774.84927490,0.00037316
5776.77808228,0.00031316
5778.70688965,0.00040121
5780.63569702,0.00037837
5782.56450439,0.00031645
5784.49331177,0.00031409
5786.42211914,0.00029549
5788.35092651,0.00033756
5790.27973389,0.00030442
5792.20854126,0.00026136
5794.13734863,0.00034516
5796.06615601,0.00030965
5797.99496338,0.00025035
5799.92377075,0.00030641
5801.85257812,0.00029129
5803.78138550,0.00032962
5805.71019287,0.00028919
5807.63900024,0.00026240
5809.56780762,0.00031074
5811.49661499,0.00028641
5813.42542236,0.00040887
5815.35422974,0.00035262
5817.28303711,0.00022946
5819.21184448,0.00028336
5821.14065186,0.00029130
5823.06945923,0.00032451
5824.99826660,0.00030717
5826.92707397,0.00030431
5828.85588135,0.00031751
5830.78468872,0.00029836
5832.71349609,0.00033530
5834.64230347,0.00033161
5836.57111084,0.00035408
5838.49991821,0.00037474
5840.42872559,0.00026887
5842.35753296,0.00026018
5844.28634033,0.00031657
5846.21514770,0.00028588
5848.14395508,0.00030606
5850.07276245,0.00029822
5852.00156982,0.00034455
5853.93037720,0.00032731
5855.85918457,0.00022791
5857.78799194,0.00031095
5859.71679932,0.00029346
5861.64560669,0.00029331
5863.57441406,0.00034893
5865.50322144,0.00033229
5867.43202881,0.00028001
5869.36083618,0.00020642
5871.28964355,0.00028560
5873.21845093,0.00029977
5875.14725830,0.00028777
5877.07606567,0.00025054
5879.00487305,0.00023382
5880.93368042,0.00031684
5882.86248779,0.00025269
5884.79129517,0.00029524
5886.72010254,0.00033423
5888.64890991,0.00026621
5890.57771728,0.00030380
5892.50652466,0.00032851
5894.43533203,0.00029466
5896.36413940,0.00028624
5898.29294678,0.00029654
5900.22175415,0.00023926
5902.15056152,0.00022905
5904.07936890,0.00024663
5906.00817627,0.00028437
5907.93698364,0.00027173
5909.86579102,0.00020583
5911.79459839,0.00025129
5913.72340576,0.00024043
5915.65221313,0.00029626
5917.58102051,0.00031188
5919.50982788,0.00018764
5921.43863525,0.00021385
5923.36744263,0.00028280
5925.29625000,0.00028556
5927.22505737,0.00021168
5929.15386475,0.00021108
5931.08267212,0.00029709
5933.01147949,0.00026001
5934.94028686,0.00017932
5936.86909424,0.00018788
5938.79790161,0.00021925
5940.72670898,0.00025709
5942.65551636,0.00028309
5944.58432373,0.00019328
5946.51313110,0.00021292
5948.44193848,0.00025578
5950.37074585,0.00019852
5952.29955322,0.00027797
5954.22836060,0.00028389
5956.15716797,0.00022340
5958.08597534,0.00025168
5960.01478271,0.00023572
5961.94359009,0.00024937
5963.87239746,0.00028807
5965.80120483,0.00025944
5967.73001221,0.00023763
5969.65881958,0.00022008
5971.58762695,0.00022472
5973.51643433,0.00025272
5975.44524170,0.00023212
5977.37404907,0.00022734
5979.30285645,0.00023029
5981.23166382,0.00026543
5983.16047119,0.00026978
5985.08927856,0.00020026
5987.01808594,0.00020936
5988.94689331,0.00020941
5990.87570068,0.00022006
5992.80450806,0.00023341
5994.73331543,0.00018023
5996.66212280,0.00023005
5998.59093018,0.00026775
6000.51973755,0.00021976
