399.26312622,0.00172075
401.19193359,0.00154178
403.12074097,0.00146909
405.04954834,0.00154425
406.97835571,0.00156206
408.90716309,0.00163587
410.83597046,0.00173495
412.76477783,0.00196327
414.69358521,0.00219433
416.62239258,0.00227335
418.55119995,0.00156424
420.48000732,0.00180513
422.40881470,0.00231272
424.33762207,0.00198349
426.26642944,0.00242185
428.19523682,0.00261940
430.12404419,0.00212288
432.05285156,0.00215096
433.98165894,0.00263279
435.91046631,0.00207369
437.83927368,0.00179479
439.76808105,0.00198409
441.69688843,0.00148042
443.62569580,0.00190513
445.55450317,0.00198629
447.48331055,0.00171694
449.41211792,0.00200365
451.34092529,0.00203772
453.26973267,0.00200744
455.19854004,0.00157648
457.12734741,0.00140376
459.05615479,0.00174620
460.98496216,0.00183769
462.91376953,0.00145142
464.84257690,0.00127720
466.77138428,0.00141798
468.70019165,0.00091221
470.62899902,0.00060343
472.55780640,0.00084097
474.48661377,0.00082621
476.41542114,0.00102631
478.34422852,0.00096195
480.27303589,0.00056647
482.20184326,0.00081395
484.13065063,0.00065025
486.05945801,0.00043122
487.98826538,0.00071689
489.91707275,0.00048894
491.84588013,0.00050537
493.77468750,0.00080272
495.70349487,0.00061472
497.63230225,0.00061206
499.56110962,0.00074780
501.48991699,0.00044099
503.41872437,0.00035454
505.34753174,0.00042924
507.27633911,0.00032548
509.20514648,0.00013438
511.13395386,0.00006106
513.06276123,0.00053532
514.99156860,0.00065615
516.92037598,0.00044486
518.84918335,0.00044332
520.77799072,0.00051837
522.70679810,0.00057591
524.63560547,0.00018923
526.56441284,0.00005860
528.49322021,0.00049737
530.42202759,0.00051902
532.35083496,0.00049221
534.27964233,0.00015841
536.20844971,0.00007468
538.13725708,0.00064777
540.06606445,0.00052721
541.99487183,0.00070867
543.92367920,0.00053280
545.85248657,0.00022226
547.78129395,0.00044987
549.71010132,0.00007926
551.63890869,0.00035573
553.56771606,0.00017539
555.49652344,-0.00005687
557.42533081,0.00049372
559.35413818,0.00016952
561.28294556,-0.00003022
563.21175293,0.00039313
565.14056030,0.00035050
567.06936768,0.00004046
568.99817505,0.00024775
570.92698242,0.00008479
572.85578979,0.00023476
574.78459717,0.00087722
576.71340454,0.00055346
578.64221191,0.00032413
580.57101929,0.00049090
582.49982666,0.00048182
584.42863403,0.00023340
586.35744141,0.00030173
588.28624878,0.00059654
590.21505615,0.00058648
592.14386353,0.00039784
594.07267090,0.00010061
596.00147827,0.00019598
597.93028564,0.00005330
599.85909302,0.00027211
601.78790039,0.00042375
603.71670776,0.00026693
605.64551514,0.00071744
607.57432251,0.00019183
609.50312988,-0.00013949
611.43193726,0.00001974
613.36074463,0.00014148
615.28955200,0.00003954
617.21835938,-0.00002013
619.14716675,0.00006449
621.07597412,-0.00002131
623.00478149,0.00033874
624.93358887,0.00030768
626.86239624,0.00004627
628.79120361,0.00018970
630.72001099,0.00052748
632.64881836,0.00118138
634.57762573,0.00109272
636.50643311,0.00131190
638.43524048,0.00187522
640.36404785,0.00172061
642.29285522,0.00212373
644.22166260,0.00215455
646.15046997,0.00222610
648.07927734,0.00318096
650.00808472,0.00339241
651.93689209,0.00307300
653.86569946,0.00291018
655.79450684,0.00299555
657.72331421,0.00325279
659.65212158,0.00344985
661.58092896,0.00320796
663.50973633,0.00357785
665.43854370,0.00423543
667.36735107,0.00367746
669.29615845,0.00395191
671.22496582,0.00436195
673.15377319,0.00434258
675.08258057,0.00483548
677.01138794,0.00462853
678.94019531,0.00484663
680.86900269,0.00502522
682.79781006,0.00479504
684.72661743,0.00473448
686.65542480,0.00445073
688.58423218,0.00469988
690.51303955,0.00502954
692.44184692,0.00558518
694.37065430,0.00591163
696.29946167,0.00612426
698.22826904,0.00715871
700.15707642,0.00769414
702.08588379,0.00780470
704.01469116,0.00749861
705.94349854,0.00657715
707.87230591,0.00560731
709.80111328,0.00438757
711.72992065,0.00289112
713.65872803,0.00165264
715.58753540,0.00137590
717.51634277,0.00101194
719.44515015,0.00044728
721.37395752,0.00056171
723.30276489,0.00030488
725.23157227,0.00021483
727.16037964,0.00049363
729.08918701,0.00010684
731.01799438,0.00006152
732.94680176,0.00010994
734.87560913,-0.00020797
736.80441650,0.00002451
738.73322388,0.00009396
740.66203125,0.00013249
742.59083862,0.00042839
744.51964600,0.00005747
746.44845337,0.00011570
748.37726074,0.00029372
750.30606812,-0.00004442
752.23487549,0.00023455
754.16368286,-0.00000923
756.09249023,0.00029023
758.02129761,0.00049178
759.95010498,0.00039082
761.87891235,0.00059430
763.80771973,0.00015381
765.73652710,0.00044462
767.66533447,0.00046529
769.59414185,0.00018872
771.52294922,0.00046618
773.45175659,0.00009164
775.38056396,0.00036619
777.30937134,0.00057056
779.23817871,0.00025921
781.16698608,0.00055715
783.09579346,0.00045813
785.02460083,0.00032738
786.95340820,0.00040764
788.88221558,0.00046753
790.81102295,0.00039427
792.73983032,0.00042689
794.66863770,0.00058080
796.59744507,0.00066724
798.52625244,0.00115395
800.45505981,0.00123501
802.38386719,0.00111875
804.31267456,0.00118831
806.24148193,0.00101496
808.17028931,0.00071946
810.09909668,0.00078890
812.02790405,0.00087607
813.95671143,0.00042607
815.88551880,0.00049825
817.81432617,0.00045363
819.74313354,0.00027942
821.67194092,0.00040973
823.60074829,0.00047522
825.52955566,0.00070728
827.45836304,0.00069209
829.38717041,0.00117462
831.31597778,0.00128159
833.24478516,0.00136298
835.17359253,0.00205073
837.10239990,0.00207160
839.03120728,0.00231099
840.96001465,0.00201461
842.88882202,0.00172057
844.81762939,0.00181091
846.74643677,0.00144085
848.67524414,0.00152199
850.60405151,0.00149911
852.53285889,0.00145377
854.46166626,0.00116697
856.39047363,0.00094033
858.31928101,0.00108970
860.24808838,0.00079526
862.17689575,0.00069878
864.10570313,0.00064131
866.03451050,0.00059157
867.96331787,0.00052016
869.89212524,0.00031342
871.82093262,0.00056336
873.74973999,0.00036762
875.67854736,0.00013397
877.60735474,0.00073926
879.53616211,0.00051522
881.46496948,0.00032040
883.39377686,0.00090321
885.32258423,0.00058427
887.25139160,0.00038793
889.18019897,0.00043563
891.10900635,0.00036069
893.03781372,0.00040601
894.96662109,0.00036745
896.89542847,0.00063133
898.82423584,0.00062118
900.75304321,0.00058757
902.68185059,0.00061236
904.61065796,0.00076928
906.53946533,0.00075038
908.46827271,0.00041420
910.39708008,0.00095808
912.32588745,0.00098616
914.25469482,0.00085352
916.18350220,0.00139237
918.11230957,0.00117331
920.04111694,0.00118870
921.96992432,0.00178040
923.89873169,0.00204762
925.82753906,0.00197220
927.75634644,0.00190293
929.68515381,0.00222935
931.61396118,0.00258861
933.54276855,0.00268230
935.47157593,0.00286344
937.40038330,0.00303606
939.32919067,0.00329382
941.25799805,0.00351692
943.18680542,0.00333473
945.11561279,0.00360153
947.04442017,0.00365779
948.97322754,0.00331473
950.90203491,0.00340417
952.83084229,0.00327520
954.75964966,0.00339808
956.68845703,0.00353519
958.61726440,0.00321394
960.54607178,0.00312359
962.47487915,0.00328638
964.40368652,0.00343151
966.33249390,0.00341481
968.26130127,0.00345851
970.19010864,0.00354506
972.11891602,0.00371524
974.04772339,0.00404390
975.97653076,0.00452241
977.90533813,0.00486459
979.83414551,0.00510522
981.76295288,0.00588955
983.69176025,0.00660894
985.62056763,0.00707434
987.54937500,0.00779358
989.47818237,0.00856217
991.40698975,0.00964122
993.33579712,0.01095207
995.26460449,0.01175924
997.19341187,0.01267951
999.12221924,0.01376242
1001.05102661,0.01451313
1002.97983398,0.01573274
1004.90864136,0.01688423
1006.83744873,0.01786724
1008.76625610,0.01907543
1010.69506348,0.02009704
1012.62387085,0.02111291
1014.55267822,0.02218508
1016.48148560,0.02347479
1018.41029297,0.02466938
1020.33910034,0.02575412
1022.26790771,0.02663495
1024.19671509,0.02766442
1026.12552246,0.02891180
1028.05432983,0.02981327
1029.98313721,0.03101498
1031.91194458,0.03152105
1033.84075195,0.03203440
1035.76955933,0.03289128
1037.69836670,0.03288333
1039.62717407,0.03320757
1041.55598145,0.03324696
1043.48478882,0.03288024
1045.41359619,0.03247970
1047.34240356,0.03208525
1049.27121094,0.03166938
1051.20001831,0.03083061
1053.12882568,0.03062380
1055.05763306,0.02994805
1056.98644043,0.02903194
1058.91524780,0.02876062
1060.84405518,0.02784273
1062.77286255,0.02701809
1064.70166992,0.02614991
1066.63047729,0.02499699
1068.55928467,0.02429993
1070.48809204,0.02319499
1072.41689941,0.02186434
1074.34570679,0.02085450
1076.27451416,0.01991677
1078.20332153,0.01912580
1080.13212891,0.01810339
1082.06093628,0.01722160
1083.98974365,0.01645707
1085.91855103,0.01571180
1087.84735840,0.01533740
1089.77616577,0.01435034
1091.70497314,0.01353034
1093.63378052,0.01318835
1095.56258789,0.01256234
1097.49139526,0.01223500
1099.42020264,0.01190841
1101.34901001,0.01147241
1103.27781738,0.01125408
1105.20662476,0.01117268
1107.13543213,0.01088573
1109.06423950,0.01069093
1110.99304687,0.01062866
1112.92185425,0.01032276
1114.85066162,0.01018701
1116.77946899,0.01028405
1118.70827637,0.01050132
1120.63708374,0.01045522
1122.56589111,0.01046277
1124.49469849,0.01054803
1126.42350586,0.01061164
1128.35231323,0.01089040
1130.28112061,0.01100906
1132.20992798,0.01132742
1134.13873535,0.01158565
1136.06754272,0.01218021
1137.99635010,0.01297919
1139.92515747,0.01359808
1141.85396484,0.01458867
1143.78277222,0.01550468
1145.71157959,0.01655481
1147.64038696,0.01731969
1149.56919434,0.01829889
1151.49800171,0.01962399
1153.42680908,0.02048933
1155.35561646,0.02132544
1157.28442383,0.02208795
1159.21323120,0.02311793
1161.14203857,0.02384895
1163.07084595,0.02466090
1164.99965332,0.02570726
1166.92846069,0.02655513
1168.85726807,0.02774331
1170.78607544,0.02847567
1172.71488281,0.02963165
1174.64369019,0.03109363
1176.57249756,0.03204317
1178.50130493,0.03318747
1180.43011230,0.03440357
1182.35891968,0.03608235
1184.28772705,0.03773553
1186.21653442,0.03913189
1188.14534180,0.04108556
1190.07414917,0.04308717
1192.00295654,0.04490890
1193.93176392,0.04708797
1195.86057129,0.04936495
1197.78937866,0.05160630
1199.71818604,0.05382894
1201.64699341,0.05606388
1203.57580078,0.05845531
1205.50460815,0.06067370
1207.43341553,0.06306179
1209.36222290,0.06514809
1211.29103027,0.06677893
1213.21983765,0.06885619
1215.14864502,0.07084005
1217.07745239,0.07222931
1219.00625977,0.07339588
1220.93506714,0.07465667
1222.86387451,0.07560584
1224.79268188,0.07638239
1226.72148926,0.07708242
1228.65029663,0.07751252
1230.57910400,0.07783297
1232.50791138,0.07782513
1234.43671875,0.07788102
1236.36552612,0.07795711
1238.29433350,0.07783491
1240.22314087,0.07753694
1242.15194824,0.07734177
1244.08075562,0.07715262
1246.00956299,0.07655790
1247.93837036,0.07616779
1249.86717773,0.07576675
1251.79598511,0.07510971
1253.72479248,0.07416858
1255.65359985,0.07328720
1257.58240723,0.07246421
1259.51121460,0.07118250
1261.44002197,0.07005924
1263.36882935,0.06913222
1265.29763672,0.06831887
1267.22644409,0.06749631
1269.15525146,0.06663583
1271.08405884,0.06542830
1273.01286621,0.06411256
1274.94167358,0.06324151
1276.87048096,0.06209249
1278.79928833,0.06084933
1280.72809570,0.05946837
1282.65690308,0.05828605
1284.58571045,0.05737902
1286.51451782,0.05621468
1288.44332520,0.05501530
1290.37213257,0.05414495
1292.30093994,0.05396308
1294.22974731,0.05361009
1296.15855469,0.05322997
1298.08736206,0.05291092
1300.01616943,0.05288437
1301.94497681,0.05343747
1303.87378418,0.05377494
1305.80259155,0.05431042
1307.73139893,0.05497339
1309.66020630,0.05594297
1311.58901367,0.05682082
1313.51782104,0.05768803
1315.44662842,0.05926850
1317.37543579,0.06070035
1319.30424316,0.06203440
1321.23305054,0.06403020
1323.16185791,0.06629790
1325.09066528,0.06792670
1327.01947266,0.07007003
1328.94828003,0.07199433
1330.87708740,0.07350266
1332.80589478,0.07554638
1334.73470215,0.07672068
1336.66350952,0.07755405
1338.59231689,0.07703589
1340.52112427,0.07794179
1342.44993164,0.08106602
1344.37873901,0.08150244
1346.30754639,0.08158985
1348.23635376,0.08135597
1350.16516113,0.08070441
1352.09396851,0.08075972
1354.02277588,0.07963485
1355.95158325,0.07900712
1357.88039062,0.07852737
1359.80919800,0.07756659
1361.73800537,0.07426694
1363.66681274,0.07281426
1365.59562012,0.07644786
1367.52442749,0.07487541
1369.45323486,0.07357347
1371.38204224,0.07479800
1373.31084961,0.07132414
1375.23965698,0.07159463
1377.16846436,0.07323936
1379.09727173,0.07292561
1381.02607910,0.07319712
1382.95488647,0.07310537
1384.88369385,0.07285907
1386.81250122,0.06974755
1388.74130859,0.07063903
1390.67011597,0.07634638
1392.59892334,0.07473975
1394.52773071,0.07003640
1396.45653809,0.07319050
1398.38534546,0.07331045
1400.31415283,0.07271288
1402.24296021,0.07828859
1404.17176758,0.07442398
1406.10057495,0.07448538
1408.02938232,0.07745411
1409.95818970,0.07478639
1411.88699707,0.07630132
1413.81580444,0.07366634
1415.74461182,0.07481935
1417.67341919,0.06825215
1419.60222656,0.06088786
1421.53103394,0.06953780
1423.45984131,0.06745331
1425.38864868,0.06518279
1427.31745605,0.06617474
1429.24626343,0.06122961
1431.17507080,0.05946008
1433.10387817,0.06007136
1435.03268555,0.05527131
1436.96149292,0.04692137
1438.89030029,0.05253728
1440.81910767,0.05419895
1442.74791504,0.05008458
1444.67672241,0.05238713
1446.60552979,0.04826977
1448.53433716,0.04882936
1450.46314453,0.05026437
1452.39195190,0.05115931
1454.32075928,0.05356108
1456.24956665,0.04474340
1458.17837402,0.04644497
1460.10718140,0.06114569
1462.03598877,0.06524935
1463.96479614,0.06498782
1465.89360352,0.06753052
1467.82241089,0.07688805
1469.75121826,0.08307769
1471.68002563,0.07435982
1473.60883301,0.07801214
1475.53764038,0.08909954
1477.46644775,0.09577493
1479.39525513,0.10510286
1481.32406250,0.10674184
1483.25286987,0.11328216
1485.18167725,0.11740185
1487.11048462,0.11590889
1489.03929199,0.11564486
1490.96809937,0.11624732
1492.89690674,0.13442022
1494.82571411,0.13221517
1496.75452148,0.11932856
1498.68332886,0.13412207
1500.61213623,0.13862672
1502.54094360,0.14814393
1504.46975098,0.14121047
1506.39855835,0.10430597
1508.32736572,0.12523133
1510.25617310,0.14732760
1512.18498047,0.14233835
1514.11378784,0.15392366
1516.04259521,0.13985893
1517.97140259,0.14502858
1519.90020996,0.14111137
1521.82901733,0.12213024
1523.75782471,0.14809740
1525.68663208,0.14639029
1527.61543945,0.14517787
1529.54424683,0.15998776
1531.47305420,0.15433669
1533.40186157,0.14208138
1535.33066895,0.14926241
1537.25947632,0.16028552
1539.18828369,0.11680414
1541.11709106,0.12004638
1543.04589844,0.14396754
1544.97470581,0.13792768
1546.90351318,0.16206744
1548.83232056,0.15225574
1550.76112793,0.15605089
1552.68993530,0.15559363
1554.61874268,0.14137968
1556.54755005,0.15150672
1558.47635742,0.10892104
1560.40516479,0.11488792
1562.33397217,0.16207978
1564.26277954,0.15411592
1566.19158691,0.15749916
1568.12039429,0.15658355
1570.04920166,0.13897642
1571.97800903,0.15864405
1573.90681641,0.16141258
1575.83562378,0.12840593
1577.76443115,0.14344022
1579.69323853,0.16206215
1581.62204590,0.15500267
1583.55085327,0.15877935
1585.47966064,0.15627170
1587.40846802,0.15694672
1589.33727539,0.15535748
1591.26608276,0.15487301
1593.19489014,0.15505219
1595.12369751,0.15268493
1597.05250488,0.15430373
1598.98131226,0.15289296
1600.91011963,0.15324932
1602.83892700,0.15006758
1604.76773437,0.15205275
1606.69654175,0.14954895
1608.62534912,0.14848784
1610.55415649,0.14802113
1612.48296387,0.14805342
1614.41177124,0.14988509
1616.34057861,0.12286137
1618.26938599,0.13130566
1620.19819336,0.15259808
1622.12700073,0.13534822
1624.05580811,0.13499200
1625.98461548,0.14131956
1627.91342285,0.14026925
1629.84223022,0.13869512
1631.77103760,0.14760052
1633.69984497,0.13700888
1635.62865234,0.11326254
1637.55745972,0.13045460
1639.48626709,0.14350267
1641.41507446,0.14023048
1643.34388184,0.14391762
1645.27268921,0.13100910
1647.20149658,0.11544223
1649.13030396,0.14213178
1651.05911133,0.13667777
1652.98791870,0.08902246
1654.91672607,0.11861897
1656.84553345,0.14964540
1658.77434082,0.14334580
1660.70314819,0.14805628
1662.63195557,0.13560626
1664.56076294,0.14247148
1666.48957031,0.15393689
1668.41837769,0.13581818
1670.34718506,0.13194108
1672.27599243,0.14953396
1674.20479980,0.13956019
1676.13360718,0.13364089
1678.06241455,0.15379751
1679.99122192,0.14947644
1681.92002930,0.14826170
1683.84883667,0.12256098
1685.77764404,0.12004514
1687.70645142,0.16400966
1689.63525879,0.14433548
1691.56406616,0.15717489
1693.49287354,0.16231066
1695.42168091,0.11957920
1697.35048828,0.14620642
1699.27929565,0.13112652
1701.20810303,0.11713579
1703.13691040,0.15890908
1705.06571777,0.14736418
1706.99452515,0.14765255
1708.92333252,0.16079390
1710.85213989,0.15491123
1712.78094727,0.15785632
1714.70975464,0.14762583
1716.63856201,0.13296548
1718.56736938,0.13054743
1720.49617676,0.15398046
1722.42498413,0.16041052
1724.35379150,0.14915125
1726.28259888,0.16178231
1728.21140625,0.15051973
1730.14021362,0.15123785
1732.06902100,0.14820513
1733.99782837,0.11427228
1735.92663574,0.13981713
1737.85544312,0.15534289
1739.78425049,0.13856393
1741.71305786,0.15034267
1743.64186523,0.15300554
1745.57067261,0.15311249
1747.49947998,0.15488662
1749.42828735,0.14848995
1751.35709473,0.14223725
1753.28590210,0.15676375
1755.21470947,0.16448694
1757.14351685,0.15039708
1759.07232422,0.16437781
1761.00113159,0.15590203
1762.92993896,0.14961022
1764.85874634,0.17064983
1766.78755371,0.15491745
1768.71636108,0.15557212
1770.64516846,0.15529647
1772.57397583,0.13981718
1774.50278320,0.15508145
1776.43159058,0.16398126
1778.36039795,0.16169664
1780.28920532,0.15999740
1782.21801270,0.16111599
1784.14682007,0.16103664
1786.07562744,0.15803364
1788.00443481,0.16561320
1789.93324219,0.16215432
1791.86204956,0.14731026
1793.79085693,0.15257326
1795.71966431,0.16367710
1797.64847168,0.16178595
1799.57727905,0.15931347
1801.50608643,0.15679583
1803.43489380,0.16139957
1805.36370117,0.16503724
1807.29250854,0.16288818
1809.22131592,0.16345513
1811.15012329,0.15925118
1813.07893066,0.16383992
1815.00773804,0.16484651
1816.93654541,0.16300052
1818.86535278,0.16437840
1820.79416016,0.16344029
1822.72296753,0.16602774
1824.65177490,0.15568748
1826.58058228,0.16058500
1828.50938965,0.16144420
1830.43819702,0.15142918
1832.36700439,0.16416010
1834.29581177,0.16340008
1836.22461914,0.16300069
1838.15342651,0.16272151
1840.08223389,0.16321087
1842.01104126,0.16394088
1843.93984863,0.14624804
1845.86865601,0.15475982
1847.79746338,0.16356596
1849.72627075,0.15990472
1851.65507812,0.16431329
1853.58388550,0.16131639
1855.51269287,0.16285731
1857.44150024,0.16202652
1859.37030762,0.16082624
1861.29911499,0.16207597
1863.22792236,0.16014846
1865.15672974,0.16170028
1867.08553711,0.15685424
1869.01434448,0.15035604
1870.94315186,0.15589492
1872.87195923,0.16177294
1874.80076660,0.15916978
1876.72957397,0.16005972
1878.65838135,0.15975454
1880.58718872,0.15864801
1882.51599609,0.15994129
1884.44480347,0.15754835
1886.37361084,0.15969524
1888.30241821,0.15635791
1890.23122559,0.15330006
1892.16003296,0.15868902
1894.08884033,0.15663686
1896.01764771,0.15604243
1897.94645508,0.15765254
1899.87526245,0.15681149
1901.80406982,0.15725629
1903.73287720,0.15625277
1905.66168457,0.15683851
1907.59049194,0.15548745
1909.51929932,0.15443039
1911.44810669,0.15514448
1913.37691406,0.15534914
1915.30572144,0.15687352
1917.23452881,0.15024248
1919.16333618,0.15007541
1921.09214355,0.15576872
1923.02095093,0.15106687
1924.94975830,0.15394509
1926.87856567,0.15561965
1928.80737305,0.15344976
1930.73618042,0.15519717
1932.66498779,0.15322125
1934.59379517,0.15461849
1936.52260254,0.15348347
1938.45140991,0.15380675
1940.38021729,0.15401120
1942.30902466,0.14934014
1944.23783203,0.15185723
1946.16663940,0.15319110
1948.09544678,0.15284854
1950.02425415,0.15339684
1951.95306152,0.15296294
1953.88186890,0.15304251
1955.81067627,0.15231702
1957.73948364,0.15285471
1959.66829102,0.15250833
1961.59709839,0.15227661
1963.52590576,0.15265352
1965.45471313,0.15188769
1967.38352051,0.15042096
1969.31232788,0.15135801
1971.24113525,0.15239114
1973.16994263,0.15113536
1975.09875000,0.15188426
1977.02755737,0.15100712
1978.95636475,0.15087199
1980.88517212,0.15129006
1982.81397949,0.15052125
1984.74278687,0.15099332
1986.67159424,0.14969891
1988.60040161,0.15010588
1990.52920898,0.14892691
1992.45801636,0.14691988
1994.38682373,0.14899743
1996.31563110,0.14935666
1998.24443848,0.14862135
2000.17324585,0.14853033
2002.10205322,0.14819437
2004.03086060,0.14813375
2005.95966797,0.14773864
2007.88847534,0.14722218
2009.81728271,0.14700915
2011.74609009,0.14667253
2013.67489746,0.14692971
2015.60370483,0.14598611
2017.53251221,0.14453496
2019.46131958,0.14544800
2021.39012695,0.14523360
2023.31893433,0.14481503
2025.24774170,0.14479655
2027.17654907,0.14426953
2029.10535645,0.14428702
2031.03416382,0.14361647
2032.96297119,0.14353982
2034.89177856,0.14324395
2036.82058594,0.14287981
2038.74939331,0.14266467
2040.67820068,0.14187756
2042.60700806,0.14178878
2044.53581543,0.14175478
2046.46462280,0.14155880
2048.39343018,0.14110702
2050.32223755,0.14089406
2052.25104492,0.14063501
2054.17985229,0.14018621
2056.10865967,0.13998099
2058.03746704,0.13970861
2059.96627441,0.13947916
2061.89508179,0.13921407
2063.82388916,0.13868852
2065.75269653,0.13807410
2067.68150391,0.13845244
2069.61031128,0.13820305
2071.53911865,0.13777727
2073.46792603,0.13776353
2075.39673340,0.13705152
2077.32554077,0.13711071
2079.25434814,0.13689856
2081.18315552,0.13651729
2083.11196289,0.13616826
2085.04077026,0.13606453
2086.96957764,0.13603827
2088.89838501,0.13520774
2090.82719238,0.13512143
2092.75599976,0.13504525
2094.68480713,0.13488325
2096.61361450,0.13461620
2098.54242187,0.13438746
2100.47122925,0.13415545
2102.40003662,0.13376695
2104.32884399,0.13379878
2106.25765137,0.13339995
2108.18645874,0.13331169
2110.11526611,0.13295871
2112.04407349,0.13278499
2113.97288086,0.13269141
2115.90168823,0.13232566
2117.83049561,0.13255340
2119.75930298,0.13206902
2121.68811035,0.13192874
2123.61691772,0.13179880
2125.54572510,0.13152966
2127.47453247,0.13146153
2129.40333984,0.13105528
2131.33214722,0.13098115
2133.26095459,0.13074818
2135.18976196,0.13058928
2137.11856934,0.13040820
2139.04737671,0.13035938
2140.97618408,0.13012360
2142.90499146,0.12992218
2144.83379883,0.12994997
2146.76260620,0.12963656
2148.69141357,0.12964214
2150.62022095,0.12931117
2152.54902832,0.12917280
2154.47783569,0.12904772
2156.40664307,0.12881032
2158.33545044,0.12887922
2160.26425781,0.12857579
2162.19306519,0.12852380
2164.12187256,0.12848350
2166.05067993,0.12832034
2167.97948730,0.12808856
2169.90829468,0.12790799
2171.83710205,0.12772989
2173.76590942,0.12770432
2175.69471680,0.12767492
2177.62352417,0.12727782
2179.55233154,0.12725753
2181.48113892,0.12707478
2183.40994629,0.12698078
2185.33875366,0.12682311
2187.26756104,0.12661558
2189.19636841,0.12663460
2191.12517578,0.12640814
2193.05398315,0.12636533
2194.98279053,0.12608939
2196.91159790,0.12599310
2198.84040527,0.12587380
2200.76921265,0.12570646
2202.69802002,0.12568083
2204.62682739,0.12557229
2206.55563477,0.12557301
2208.48444214,0.12514171
2210.41324951,0.12503307
2212.34205688,0.12496246
2214.27086426,0.12481016
2216.19967163,0.12473139
2218.12847900,0.12453325
2220.05728638,0.12450980
2221.98609375,0.12423453
2223.91490112,0.12407435
2225.84370850,0.12390526
2227.77251587,0.12378907
2229.70132324,0.12352273
2231.63013062,0.12339757
2233.55893799,0.12339388
2235.48774536,0.12295325
2237.41655273,0.12285276
2239.34536011,0.12262370
2241.27416748,0.12251726
2243.20297485,0.12239824
2245.13178223,0.12216615
2247.06058960,0.12212659
2248.98939697,0.12192623
2250.91820435,0.12176563
2252.84701172,0.12149857
2254.77581909,0.12145199
2256.70462646,0.12124263
2258.63343384,0.12113146
2260.56224121,0.12093913
2262.49104858,0.12064531
2264.41985596,0.12072604
2266.34866333,0.12035379
2268.27747070,0.12022130
2270.20627808,0.12017581
2272.13508545,0.12008220
2274.06389282,0.11993256
2275.99270020,0.11981784
2277.92150757,0.11990136
2279.85031494,0.11959220
2281.77912231,0.11960380
2283.70792969,0.11947101
2285.63673706,0.11913574
2287.56554443,0.11893733
2289.49435181,0.11870451
2291.42315918,0.11842819
2293.35196655,0.11807649
2295.28077393,0.11778829
2297.20958130,0.11748406
2299.13838867,0.11717599
2301.06719604,0.11649458
2302.99600342,0.11622472
2304.92481079,0.11567104
2306.85361816,0.11474744
2308.78242554,0.11417070
2310.71123291,0.11312515
2312.64004028,0.11219928
2314.56884766,0.11105499
2316.49765503,0.10987619
2318.42646240,0.10834187
2320.35526978,0.10684916
2322.28407715,0.10568175
2324.21288452,0.10403094
2326.14169189,0.10309939
2328.07049927,0.10192779
2329.99930664,0.10061048
2331.92811401,0.09975366
2333.85692139,0.09932254
2335.78572876,0.09898402
2337.71453613,0.09870765
2339.64334351,0.09879830
2341.57215088,0.09882280
2343.50095825,0.10046333
2345.42976562,0.10233954
2347.35857300,0.10644537
2349.28738037,0.11022252
2351.21618774,0.10642507
2353.14499512,0.10113971
2355.07380249,0.09744419
2357.00260986,0.09436662
2358.93141724,0.09265226
2360.86022461,0.09148807
2362.78903198,0.09137359
2364.71783936,0.09179136
2366.64664673,0.09325799
2368.57545410,0.09511404
2370.50426147,0.09722549
2372.43306885,0.09998725
2374.36187622,0.10279128
2376.29068359,0.10550992
2378.21949097,0.10770046
2380.14829834,0.10960402
2382.07710571,0.11070590
2384.00591309,0.11149678
2385.93472046,0.11189927
2387.86352783,0.11178227
2389.79233521,0.11195750
2391.72114258,0.11190447
2393.64994995,0.11165629
2395.57875732,0.11141527
2397.50756470,0.11131149
2399.43637207,0.11115765
2401.36517944,0.11102271
2403.29398682,0.11081272
2405.22279419,0.11070478
2407.15160156,0.11066423
2409.08040894,0.11041307
2411.00921631,0.11045381
2412.93802368,0.11013687
2414.86683105,0.10992350
2416.79563843,0.10983220
2418.72444580,0.10973866
2420.65325317,0.10976921
2422.58206055,0.10942540
2424.51086792,0.10941274
2426.43967529,0.10917413
2428.36848267,0.10900045
2430.29729004,0.10904811
2432.22609741,0.10880724
2434.15490479,0.10864203
2436.08371216,0.10850537
2438.01251953,0.10852531
2439.94132690,0.10835861
2441.87013428,0.10820385
2443.79894165,0.10792967
2445.72774902,0.10777134
2447.65655640,0.10786435
2449.58536377,0.10757578
2451.51417114,0.10742846
2453.44297852,0.10733407
2455.37178589,0.10718412
2457.30059326,0.10703379
2459.22940063,0.10689367
2461.15820801,0.10680003
2463.08701538,0.10665639
2465.01582275,0.10652874
2466.94463013,0.10636059
2468.87343750,0.10620676
2470.80224487,0.10611238
2472.73105225,0.10612150
2474.65985962,0.10592347
2476.58866699,0.10571270
2478.51747437,0.10553445
2480.44628174,0.10537949
2482.37508911,0.10526941
2484.30389648,0.10513756
2486.23270386,0.10521421
2488.16151123,0.10498688
2490.09031860,0.10483818
2492.01912598,0.10463983
2493.94793335,0.10448872
2495.87674072,0.10451718
2497.80554810,0.10420436
2499.73435547,0.10430373
2501.66316284,0.10416645
2503.59197021,0.10387272
2505.52077759,0.10378771
2507.44958496,0.10365550
2509.37839233,0.10363941
2511.30719971,0.10343158
2513.23600708,0.10333119
2515.16481445,0.10320413
2517.09362183,0.10310784
2519.02242920,0.10286518
2520.95123657,0.10268003
2522.88004395,0.10260915
2524.80885132,0.10233091
2526.73765869,0.10234539
2528.66646606,0.10223298
2530.59527344,0.10210229
2532.52408081,0.10196595
2534.45288818,0.10189217
2536.38169556,0.10175350
2538.31050293,0.10156748
2540.23931030,0.10166666
2542.16811768,0.10133013
2544.09692505,0.10119424
2546.02573242,0.10112648
2547.95453979,0.10093256
2549.88334717,0.10090948
2551.81215454,0.10072692
2553.74096191,0.10064210
2555.66976929,0.10048375
2557.59857666,0.10030398
2559.52738403,0.10016875
2561.45619141,0.10011549
2563.38499878,0.09985314
2565.31380615,0.09978293
2567.24261353,0.09984450
2569.17142090,0.09945320
2571.10022827,0.09937131
2573.02903564,0.09925802
2574.95784302,0.09920967
2576.88665039,0.09912589
2578.81545776,0.09889248
2580.74426514,0.09885336
2582.67307251,0.09865846
2584.60187988,0.09860975
2586.53068726,0.09843075
2588.45949463,0.09829050
2590.38830200,0.09821178
2592.31710937,0.09803301
2594.24591675,0.09788899
2596.17472412,0.09773235
2598.10353149,0.09762878
2600.03233887,0.09734872
2601.96114624,0.09730715
2603.88995361,0.09720276
2605.81876099,0.09708183
2607.74756836,0.09705317
2609.67637573,0.09678051
2611.60518311,0.09671123
2613.53399048,0.09662439
2615.46279785,0.09643941
2617.39160522,0.09632555
2619.32041260,0.09624451
2621.24921997,0.09606823
2623.17802734,0.09597689
2625.10683472,0.09577495
2627.03564209,0.09568484
2628.96444946,0.09568222
2630.89325684,0.09527400
2632.82206421,0.09535125
2634.75087158,0.09518582
2636.67967895,0.09498748
2638.60848633,0.09498455
2640.53729370,0.09463249
2642.46610107,0.09471334
2644.39490845,0.09450036
2646.32371582,0.09432783
2648.25252319,0.09425595
2650.18133057,0.09418973
2652.11013794,0.09408204
2654.03894531,0.09377380
2655.96775269,0.09388623
2657.89656006,0.09351895
2659.82536743,0.09338346
2661.75417480,0.09335557
2663.68298218,0.09309382
2665.61178955,0.09310515
2667.54059692,0.09282728
2669.46940430,0.09281141
2671.39821167,0.09266216
2673.32701904,0.09252302
2675.25582642,0.09241596
2677.18463379,0.09216483
2679.11344116,0.09219193
2681.04224854,0.09197224
2682.97105591,0.09186176
2684.89986328,0.09181508
2686.82867065,0.09164102
2688.75747803,0.09150577
2690.68628540,0.09136061
2692.61509277,0.09118226
2694.54390015,0.09107792
2696.47270752,0.09103544
2698.40151489,0.09084689
2700.33032227,0.09069748
2702.25912964,0.09045066
2704.18793701,0.09036656
2706.11674438,0.09031940
2708.04555176,0.09024093
2709.97435913,0.09021162
2711.90316650,0.08988616
2713.83197388,0.08972533
2715.76078125,0.08965839
2717.68958862,0.08955488
2719.61839600,0.08932263
2721.54720337,0.08916390
2723.47601074,0.08914161
2725.40481812,0.08896971
2727.33362549,0.08894095
2729.26243286,0.08869483
2731.19124023,0.08846796
2733.12004761,0.08840471
2735.04885498,0.08821714
2736.97766235,0.08815655
2738.90646973,0.08810183
2740.83527710,0.08784240
2742.76408447,0.08770268
2744.69289185,0.08769689
2746.62169922,0.08736956
2748.55050659,0.08726798
2750.47931396,0.08715858
2752.40812134,0.08691772
2754.33692871,0.08690681
2756.26573608,0.08672675
2758.19454346,0.08658119
2760.12335083,0.08635753
2762.05215820,0.08629991
2763.98096558,0.08618394
2765.90977295,0.08596895
2767.83858032,0.08599234
2769.76738770,0.08573702
2771.69619507,0.08563496
2773.62500244,0.08555661
2775.55380981,0.08537877
2777.48261719,0.08517811
2779.41142456,0.08494887
2781.34023193,0.08486815
2783.26903931,0.08464482
2785.19784668,0.08453281
2787.12665405,0.08438461
2789.05546143,0.08426933
2790.98426880,0.08414535
2792.91307617,0.08385609
2794.84188354,0.08374016
2796.77069092,0.08365670
2798.69949829,0.08357929
2800.62830566,0.08327416
2802.55711304,0.08300848
2804.48592041,0.08295377
2806.41472778,0.08277234
2808.34353516,0.08260903
2810.27234253,0.08242577
2812.20114990,0.08229280
2814.12995728,0.08221587
2816.05876465,0.08200084
2817.98757202,0.08188800
2819.91637939,0.08182994
2821.84518677,0.08146036
2823.77399414,0.08126806
2825.70280151,0.08126149
2827.63160889,0.08111390
2829.56041626,0.08095625
2831.48922363,0.08066319
2833.41803101,0.08053333
2835.34683838,0.08036094
2837.27564575,0.08010589
2839.20445312,0.07992221
2841.13326050,0.07962608
2843.06206787,0.07936980
2844.99087524,0.07897265
2846.91968262,0.07862559
2848.84848999,0.07816682
2850.77729736,0.07774999
2852.70610474,0.07776228
2854.63491211,0.07771577
2856.56371948,0.07759023
2858.49252686,0.07745287
2860.42133423,0.07742254
2862.35014160,0.07735299
2864.27894897,0.07720136
2866.20775635,0.07706854
2868.13656372,0.07683486
2870.06537109,0.07668509
2871.99417847,0.07653670
2873.92298584,0.07645084
2875.85179321,0.07636243
2877.78060059,0.07618258
2879.70940796,0.07601856
2881.63821533,0.07593888
2883.56702270,0.07586937
2885.49583008,0.07566811
2887.42463745,0.07554054
2889.35344482,0.07534035
2891.28225220,0.07524566
2893.21105957,0.07514746
2895.13986694,0.07481043
2897.06867432,0.07468459
2898.99748169,0.07449049
2900.92628906,0.07421304
2902.85509644,0.07401621
2904.78390381,0.07375843
2906.71271118,0.07351565
2908.64151855,0.07325348
2910.57032593,0.07296181
2912.49913330,0.07248758
2914.42794067,0.07206137
2916.35674805,0.07188464
2918.28555542,0.07154043
2920.21436279,0.07132530
2922.14317017,0.07137778
2924.07197754,0.07123275
2926.00078491,0.07113265
2927.92959229,0.07102810
2929.85839966,0.07092036
2931.78720703,0.07083089
2933.71601440,0.07071055
2935.64482178,0.07082343
2937.57362915,0.07062440
2939.50243652,0.07063340
2941.43124390,0.07078154
2943.36005127,0.07041632
2945.28885864,0.07039639
2947.21766602,0.07025921
2949.14647339,0.07004051
2951.07528076,0.06999810
2953.00408813,0.06971523
2954.93289551,0.06956294
2956.86170288,0.06933910
2958.79051025,0.06908469
2960.71931763,0.06883315
2962.64812500,0.06865196
2964.57693237,0.06861837
2966.50573975,0.06840321
2968.43454712,0.06828722
2970.36335449,0.06835976
2972.29216187,0.06839624
2974.22096924,0.06828512
2976.14977661,0.06821432
2978.07858398,0.06819962
2980.00739136,0.06815866
2981.93619873,0.06818376
2983.86500610,0.06807528
2985.79381348,0.06797262
2987.72262085,0.06781275
2989.65142822,0.06761515
2991.58023560,0.06764952
2993.50904297,0.06748495
2995.43785034,0.06729336
2997.36665771,0.06729198
2999.29546509,0.06697358
3001.22427246,0.06673317
3003.15307983,0.06668125
3005.08188721,0.06639705
3007.01069458,0.06630957
3008.93950195,0.06616647
3010.86830933,0.06570804
3012.79711670,0.06552120
3014.72592407,0.06542237
3016.65473145,0.06519663
3018.58353882,0.06513041
3020.51234619,0.06500014
3022.44115356,0.06472208
3024.36996094,0.06453799
3026.29876831,0.06431066
3028.22757568,0.06415579
3030.15638306,0.06387973
3032.08519043,0.06349603
3034.01399780,0.06348337
3035.94280518,0.06334204
3037.87161255,0.06312092
3039.80041992,0.06297858
3041.72922729,0.06267524
3043.65803467,0.06246105
3045.58684204,0.06227966
3047.51564941,0.06214789
3049.44445679,0.06195661
3051.37326416,0.06175299
3053.30207153,0.06162877
3055.23087891,0.06128025
3057.15968628,0.06099025
3059.08849365,0.06094269
3061.01730103,0.06081939
3062.94610840,0.06051930
3064.87491577,0.06024615
3066.80372314,0.06006492
3068.73253052,0.05989748
3070.66133789,0.05979374
3072.59014526,0.05963204
3074.51895264,0.05934076
3076.44776001,0.05906359
3078.37656738,0.05872774
3080.30537476,0.05851209
3082.23418213,0.05851803
3084.16298950,0.05831276
3086.09179687,0.05807439
3088.02060425,0.05786478
3089.94941162,0.05759533
3091.87821899,0.05745126
3093.80702637,0.05715839
3095.73583374,0.05691531
3097.66464111,0.05677532
3099.59344849,0.05645052
3101.52225586,0.05614840
3103.45106323,0.05599636
3105.37987061,0.05581525
3107.30867798,0.05549552
3109.23748535,0.05530158
3111.16629272,0.05513687
3113.09510010,0.05484542
3115.02390747,0.05455384
3116.95271484,0.05416431
3118.88152222,0.05387509
3120.81032959,0.05377483
3122.73913696,0.05346744
3124.66794434,0.05320315
3126.59675171,0.05306512
3128.52555908,0.05273227
3130.45436645,0.05257819
3132.38317383,0.05230026
3134.31198120,0.05196115
3136.24078857,0.05181958
3138.16959595,0.05145875
3140.09840332,0.05122452
3142.02721069,0.05099248
3143.95601807,0.05074447
3145.88482544,0.05050340
3147.81363281,0.05027437
3149.74244019,0.05007479
3151.67124756,0.04968384
3153.60005493,0.04951033
3155.52886230,0.04914761
3157.45766968,0.04880631
3159.38647705,0.04856984
3161.31528442,0.04824360
3163.24409180,0.04817053
3165.17289917,0.04787586
3167.10170654,0.04764128
3169.03051392,0.04736931
3170.95932129,0.04709970
3172.88812866,0.04691678
3174.81693604,0.04658933
3176.74574341,0.04635010
3178.67455078,0.04600475
3180.60335815,0.04580409
3182.53216553,0.04553826
3184.46097290,0.04533977
3186.38978027,0.04512106
3188.31858765,0.04482367
3190.24739502,0.04476517
3192.17620239,0.04443778
3194.10500977,0.04425005
3196.03381714,0.04398572
3197.96262451,0.04372591
3199.89143188,0.04366279
3201.82023926,0.04341030
3203.74904663,0.04317537
3205.67785400,0.04294238
3207.60666138,0.04284991
3209.53546875,0.04255494
3211.46427612,0.04236074
3213.39308350,0.04216232
3215.32189087,0.04187168
3217.25069824,0.04186333
3219.17950562,0.04162002
3221.10831299,0.04149048
3223.03712036,0.04142804
3224.96592773,0.04131932
3226.89473511,0.04107573
3228.82354248,0.04089239
3230.75234985,0.04083361
3232.68115723,0.04061138
3234.60996460,0.04061542
3236.53877197,0.04042389
3238.46757935,0.04035112
3240.39638672,0.04020552
3242.32519409,0.03999349
3244.25400146,0.03998373
3246.18280884,0.03969940
3248.11161621,0.03975257
3250.04042358,0.03971665
3251.96923096,0.03958882
3253.89803833,0.03945166
3255.82684570,0.03929733
3257.75565308,0.03931571
3259.68446045,0.03916147
3261.61326782,0.03918201
3263.54207520,0.03900038
3265.47088257,0.03891860
3267.39968994,0.03897040
3269.32849731,0.03880469
3271.25730469,0.03865143
3273.18611206,0.03847332
3275.11491943,0.03845941
3277.04372681,0.03836275
3278.97253418,0.03840857
3280.90134155,0.03840625
3282.83014893,0.03828547
3284.75895630,0.03825359
3286.68776367,0.03817286
3288.61657104,0.03817457
3290.54537842,0.03793885
3292.47418579,0.03779429
3294.40299316,0.03786854
3296.33180054,0.03782628
3298.26060791,0.03765389
3300.18941528,0.03758397
3302.11822266,0.03754073
3304.04703003,0.03746583
3305.97583740,0.03739505
3307.90464478,0.03717262
3309.83345215,0.03728726
3311.76225952,0.03719701
3313.69106689,0.03708357
3315.61987427,0.03715363
3317.54868164,0.03692047
3319.47748901,0.03696102
3321.40629639,0.03687156
3323.33510376,0.03671801
3325.26391113,0.03667676
3327.19271851,0.03663046
3329.12152588,0.03660541
3331.05033325,0.03657495
3332.97914062,0.03655424
3334.90794800,0.03638405
3336.83675537,0.03632475
3338.76556274,0.03610794
3340.69437012,0.03612936
3342.62317749,0.03615654
3344.55198486,0.03596211
3346.48079224,0.03596277
3348.40959961,0.03580348
3350.33840698,0.03579771
3352.26721436,0.03572358
3354.19602173,0.03568875
3356.12482910,0.03563535
3358.05363647,0.03547566
3359.98244385,0.03540717
3361.91125122,0.03535882
3363.84005859,0.03538455
3365.76886597,0.03514165
3367.69767334,0.03518800
3369.62648071,0.03512746
3371.55528809,0.03503652
3373.48409546,0.03513646
3375.41290283,0.03504515
3377.34171020,0.03507714
3379.27051758,0.03492383
3381.19932495,0.03499297
3383.12813232,0.03489535
3385.05693970,0.03480753
3386.98574707,0.03489271
3388.91455444,0.03487026
3390.84336182,0.03481407
3392.77216919,0.03449715
3394.70097656,0.03472245
3396.62978394,0.03458150
3398.55859131,0.03449184
3400.48739868,0.03472167
3402.41620605,0.03453638
3404.34501343,0.03460491
3406.27382080,0.03454949
3408.20262817,0.03466486
3410.13143555,0.03462011
3412.06024292,0.03464407
3413.98905029,0.03470501
3415.91785767,0.03463663
3417.84666504,0.03484828
3419.77547241,0.03458620
3421.70427979,0.03448973
3423.63308716,0.03457312
3425.56189453,0.03467905
3427.49070190,0.03463332
3429.41950928,0.03464442
3431.34831665,0.03473497
3433.27712402,0.03456441
3435.20593140,0.03474207
3437.13473877,0.03464206
3439.06354614,0.03475907
3440.99235352,0.03471396
3442.92116089,0.03466336
3444.84996826,0.03485317
3446.77877563,0.03435409
3448.70758301,0.03458909
3450.63639038,0.03496864
3452.56519775,0.03496033
3454.49400513,0.03499706
3456.42281250,0.03496110
3458.35161987,0.03501255
3460.28042725,0.03496823
3462.20923462,0.03498470
3464.13804199,0.03506762
3466.06684937,0.03512608
3467.99565674,0.03502983
3469.92446411,0.03526153
3471.85327148,0.03532705
3473.78207886,0.03528700
3475.71088623,0.03535283
3477.63969360,0.03533930
3479.56850098,0.03556234
3481.49730835,0.03522281
3483.42611572,0.03537604
3485.35492310,0.03565762
3487.28373047,0.03547181
3489.21253784,0.03558540
3491.14134521,0.03575461
3493.07015259,0.03595229
3494.99895996,0.03577951
3496.92776733,0.03584652
3498.85657471,0.03589841
3500.78538208,0.03597340
3502.71418945,0.03569316
3504.64299683,0.03565339
3506.57180420,0.03637302
3508.50061157,0.03597229
3510.42941895,0.03608863
3512.35822632,0.03639770
3514.28703369,0.03645681
3516.21584106,0.03663778
3518.14464844,0.03642049
3520.07345581,0.03681585
3522.00226318,0.03656958
3523.93107056,0.03618933
3525.85987793,0.03628882
3527.78868530,0.03642968
3529.71749268,0.03663905
3531.64630005,0.03696264
3533.57510742,0.03731783
3535.50391479,0.03693923
3537.43272217,0.03699689
3539.36152954,0.03734011
3541.29033691,0.03732634
3543.21914429,0.03718471
3545.14795166,0.03658574
3547.07675903,0.03618648
3549.00556641,0.03721283
3550.93437378,0.03762551
3552.86318115,0.03685905
3554.79198853,0.03766489
3556.72079590,0.03794904
3558.64960327,0.03774924
3560.57841064,0.03762468
3562.50721802,0.03750096
3564.43602539,0.03779466
3566.36483276,0.03553659
3568.29364014,0.03483207
3570.22244751,0.03746915
3572.15125488,0.03844073
3574.08006226,0.03813563
3576.00886963,0.03833872
3577.93767700,0.03828858
3579.86648437,0.03826547
3581.79529175,0.03830999
3583.72409912,0.03844754
3585.65290649,0.03786273
3587.58171387,0.03507546
3589.51052124,0.03603476
3591.43932861,0.03893422
3593.36813599,0.03803493
3595.29694336,0.03753216
3597.22575073,0.03803305
3599.15455811,0.03852455
3601.08336548,0.03829947
3603.01217285,0.03857145
3604.94098022,0.03928831
3606.86978760,0.03807634
3608.79859497,0.03611068
3610.72740234,0.03680541
3612.65620972,0.03775402
3614.58501709,0.03677896
3616.51382446,0.03921002
3618.44263184,0.03679444
3620.37143921,0.03553121
3622.30024658,0.03964654
3624.22905395,0.03874221
3626.15786133,0.04047743
3628.08666870,0.03487128
3630.01547607,0.03188925
3631.94428345,0.03954204
3633.87309082,0.03876460
3635.80189819,0.03939120
3637.73070557,0.04019911
3639.65951294,0.03957956
3641.58832031,0.04005069
3643.51712769,0.03967611
3645.44593506,0.04005848
3647.37474243,0.03630173
3649.30354980,0.03359823
3651.23235718,0.03402160
3653.16116455,0.03989881
3655.08997192,0.03951419
3657.01877930,0.03572004
3658.94758667,0.04085059
3660.87639404,0.04007949
3662.80520142,0.04069392
3664.73400879,0.04065562
3666.66281616,0.04022006
3668.59162354,0.03942301
3670.52043091,0.03255622
3672.44923828,0.03877379
3674.37804565,0.03733896
3676.30685303,0.03118135
3678.23566040,0.03875066
3680.16446777,0.03974736
3682.09327515,0.03971325
3684.02208252,0.04093033
3685.95088989,0.04026094
3687.87969727,0.03657261
3689.80850464,0.03374244
3691.73731201,0.03822266
3693.66611938,0.03938289
3695.59492676,0.04019265
3697.52373413,0.04027624
3699.45254150,0.03989568
3701.38134888,0.03898975
3703.31015625,0.03757208
3705.23896362,0.04104749
3707.16777100,0.03928098
3709.09657837,0.03838558
3711.02538574,0.03634399
3712.95419312,0.03412560
3714.88300049,0.03956161
3716.81180786,0.03908207
3718.74061523,0.03938982
3720.66942261,0.03874832
3722.59822998,0.03737432
3724.52703735,0.03861624
3726.45584473,0.03611265
3728.38465210,0.03882847
3730.31345947,0.03841500
3732.24226685,0.03555381
3734.17107422,0.03475697
3736.09988159,0.03324707
3738.02868896,0.03492276
3739.95749634,0.03748849
3741.88630371,0.03938553
3743.81511108,0.03106479
3745.74391846,0.02916258
3747.67272583,0.03741392
3749.60153320,0.03269349
3751.53034058,0.03014975
3753.45914795,0.03426309
3755.38795532,0.03680099
3757.31676270,0.03813663
3759.24557007,0.03547079
3761.17437744,0.03667228
3763.10318481,0.03879873
3765.03199219,0.03630204
3766.96079956,0.03701753
3768.88960693,0.03674848
3770.81841431,0.03505845
3772.74722168,0.03778448
3774.67602905,0.03787196
3776.60483643,0.03773968
3778.53364380,0.03690882
3780.46245117,0.03552133
3782.39125854,0.03776272
3784.32006592,0.03696363
3786.24887329,0.03658826
3788.17768066,0.03743816
3790.10648804,0.03717108
3792.03529541,0.03686710
3793.96410278,0.03759854
3795.89291016,0.03550346
3797.82171753,0.03499877
3799.75052490,0.03685489
3801.67933228,0.02961834
3803.60813965,0.03408571
3805.53694702,0.03697960
3807.46575439,0.03059854
3809.39456177,0.03653886
3811.32336914,0.03587281
3813.25217651,0.03710987
3815.18098389,0.03378940
3817.10979126,0.02979385
3819.03859863,0.03719452
3820.96740601,0.03051669
3822.89621338,0.03187472
3824.82502075,0.03696235
3826.75382812,0.03357576
3828.68263550,0.03594194
3830.61144287,0.03465901
3832.54025024,0.03356270
3834.46905762,0.03421953
3836.39786499,0.03263677
3838.32667236,0.02970722
3840.25547974,0.03201034
3842.18428711,0.03433531
3844.11309448,0.03273864
3846.04190186,0.03524902
3847.97070923,0.03473749
3849.89951660,0.03481978
3851.82832397,0.03170577
3853.75713135,0.02418360
3855.68593872,0.02807636
3857.61474609,0.03490023
3859.54355347,0.03401826
3861.47236084,0.03351788
3863.40116821,0.03295877
3865.32997559,0.03066206
3867.25878296,0.03408039
3869.18759033,0.03142008
3871.11639770,0.02908888
3873.04520508,0.03423700
3874.97401245,0.03159852
3876.90281982,0.03384668
3878.83162720,0.03451938
3880.76043457,0.02986732
3882.68924194,0.03398275
3884.61804932,0.03197604
3886.54685669,0.02948775
3888.47566406,0.03406025
3890.40447144,0.03241296
3892.33327881,0.03046410
3894.26208618,0.03322257
3896.19089355,0.03376214
3898.11970093,0.03221985
3900.04850830,0.03072563
3901.97731567,0.03033609
3903.90612305,0.02998514
3905.83493042,0.03046635
3907.76373779,0.03316803
3909.69254517,0.03300476
3911.62135254,0.03272171
3913.55015991,0.03335411
3915.47896728,0.03215121
3917.40777466,0.03138782
3919.33658203,0.03119558
3921.26538940,0.03227255
3923.19419678,0.03218411
3925.12300415,0.03156753
3927.05181152,0.03201001
3928.98061890,0.03227250
3930.90942627,0.03180873
3932.83823364,0.03078118
3934.76704102,0.03190192
3936.69584839,0.03214541
3938.62465576,0.03185637
3940.55346313,0.03216630
3942.48227051,0.03098775
3944.41107788,0.03120412
3946.33988525,0.03167086
3948.26869263,0.03105202
3950.19750000,0.03107468
3952.12630737,0.03144262
3954.05511475,0.03142750
3955.98392212,0.03144614
3957.91272949,0.03132083
3959.84153687,0.03121130
3961.77034424,0.03115747
3963.69915161,0.03093757
3965.62795898,0.03126965
3967.55676636,0.03105448
3969.48557373,0.03096157
3971.41438110,0.03094463
3973.34318848,0.03070980
3975.27199585,0.03079671
3977.20080322,0.03065368
3979.12961060,0.03085230
3981.05841797,0.03059755
3982.98722534,0.03054680
3984.91603271,0.03057622
3986.84484009,0.03049846
3988.77364746,0.03049102
3990.70245483,0.03017098
3992.63126221,0.03038236
3994.56006958,0.03013606
3996.48887695,0.03017025
3998.41768433,0.03014939
4000.34649170,0.03004470
4002.27529907,0.03015767
4004.20410645,0.02987579
4006.13291382,0.03005947
4008.06172119,0.02972339
4009.99052856,0.02972600
4011.91933594,0.02978102
4013.84814331,0.02953533
4015.77695068,0.02963222
4017.70575806,0.02950038
4019.63456543,0.02955189
4021.56337280,0.02944685
4023.49218018,0.02942477
4025.42098755,0.02913171
4027.34979492,0.02909657
4029.27860229,0.02919040
4031.20740967,0.02906012
4033.13621704,0.02923373
4035.06502441,0.02900306
4036.99383179,0.02896564
4038.92263916,0.02881873
4040.85144653,0.02889847
4042.78025391,0.02882565
4044.70906128,0.02849708
4046.63786865,0.02872311
4048.56667603,0.02864169
4050.49548340,0.02865769
4052.42429077,0.02846726
4054.35309814,0.02841225
4056.28190552,0.02846544
4058.21071289,0.02826030
4060.13952026,0.02821367
4062.06832764,0.02819728
4063.99713501,0.02823590
4065.92594238,0.02796906
4067.85474976,0.02802610
4069.78355713,0.02799183
4071.71236450,0.02788108
4073.64117187,0.02793953
4075.56997925,0.02780095
4077.49878662,0.02777991
4079.42759399,0.02766582
4081.35640137,0.02770210
4083.28520874,0.02753485
4085.21401611,0.02754183
4087.14282349,0.02751457
4089.07163086,0.02732001
4091.00043823,0.02738920
4092.92924561,0.02727787
4094.85805298,0.02732810
4096.78686035,0.02719757
4098.71566772,0.02718329
4100.64447510,0.02710364
4102.57328247,0.02701166
4104.50208984,0.02696620
4106.43089722,0.02673041
4108.35970459,0.02687640
4110.28851196,0.02671816
4112.21731934,0.02674441
4114.14612671,0.02669726
4116.07493408,0.02651354
4118.00374145,0.02653539
4119.93254883,0.02648800
4121.86135620,0.02655453
4123.79016357,0.02625914
4125.71897095,0.02636606
4127.64777832,0.02634171
4129.57658569,0.02613680
4131.50539307,0.02619083
4133.43420044,0.02611108
4135.36300781,0.02619508
4137.29181519,0.02603037
4139.22062256,0.02601486
4141.14942993,0.02588563
4143.07823730,0.02580078
4145.00704468,0.02582415
4146.93585205,0.02565926
4148.86465942,0.02574287
4150.79346680,0.02562999
4152.72227417,0.02557984
4154.65108154,0.02550116
4156.57988892,0.02543750
4158.50869629,0.02538342
4160.43750366,0.02532634
4162.36631103,0.02533953
4164.29511841,0.02516102
4166.22392578,0.02520479
4168.15273315,0.02514585
4170.08154053,0.02510525
4172.01034790,0.02504278
4173.93915527,0.02493197
4175.86796265,0.02496897
4177.79677002,0.02489465
4179.72557739,0.02484952
4181.65438477,0.02474991
4183.58319214,0.02477343
4185.51199951,0.02469697
4187.44080688,0.02461578
4189.36961426,0.02466357
4191.29842163,0.02456050
4193.22722900,0.02443044
4195.15603638,0.02435081
4197.08484375,0.02433148
4199.01365112,0.02426314
4200.94245850,0.02427819
4202.87126587,0.02423485
4204.80007324,0.02425497
4206.72888062,0.02411611
4208.65768799,0.02395896
4210.58649536,0.02408583
4212.51530273,0.02396685
4214.44411011,0.02392395
4216.37291748,0.02379563
4218.30172485,0.02375668
4220.23053223,0.02379104
4222.15933960,0.02366752
4224.08814697,0.02366305
4226.01695435,0.02358096
4227.94576172,0.02358107
4229.87456909,0.02351677
4231.80337646,0.02350366
4233.73218384,0.02336253
4235.66099121,0.02331079
4237.58979858,0.02332804
4239.51860596,0.02315558
4241.44741333,0.02326800
4243.37622070,0.02313184
4245.30502808,0.02307091
4247.23383545,0.02303129
4249.16264282,0.02298072
4251.09145020,0.02305509
4253.02025757,0.02291971
4254.94906494,0.02287886
4256.87787231,0.02275240
4258.80667969,0.02283323
4260.73548706,0.02276945
4262.66429443,0.02268425
4264.59310181,0.02273253
4266.52190918,0.02258647
4268.45071655,0.02252983
4270.37952393,0.02241212
4272.30833130,0.02253451
4274.23713867,0.02243077
4276.16594604,0.02232331
4278.09475342,0.02234219
4280.02356079,0.02215467
4281.95236816,0.02217077
4283.88117554,0.02208872
4285.80998291,0.02208634
4287.73879028,0.02208006
4289.66759766,0.02207244
4291.59640503,0.02195018
4293.52521240,0.02183938
4295.45401978,0.02189697
4297.38282715,0.02175054
4299.31163452,0.02177191
4301.24044189,0.02174934
4303.16924927,0.02168159
4305.09805664,0.02158413
4307.02686401,0.02157981
4308.95567139,0.02153760
4310.88447876,0.02141669
4312.81328613,0.02154076
4314.74209351,0.02136506
4316.67090088,0.02134149
4318.59970825,0.02133072
4320.52851562,0.02124351
4322.45732300,0.02127344
4324.38613037,0.02111285
4326.31493774,0.02109673
4328.24374512,0.02103984
4330.17255249,0.02098520
4332.10135986,0.02094872
4334.03016724,0.02091427
4335.95897461,0.02084021
4337.88778198,0.02084674
4339.81658936,0.02089387
4341.74539673,0.02077404
4343.67420410,0.02074851
4345.60301147,0.02061819
4347.53181885,0.02064472
4349.46062622,0.02063404
4351.38943359,0.02058319
4353.31824097,0.02052421
4355.24704834,0.02031574
4357.17585571,0.02040656
4359.10466309,0.02038566
4361.03347046,0.02028868
4362.96227783,0.02014292
4364.89108520,0.02018126
4366.81989258,0.02029114
4368.74869995,0.02013731
4370.67750732,0.02014923
4372.60631470,0.02009526
4374.53512207,0.02005083
4376.46392944,0.01999553
4378.39273682,0.01988882
4380.32154419,0.01976097
4382.25035156,0.01983785
4384.17915894,0.01990258
4386.10796631,0.01968412
4388.03677368,0.01970830
4389.96558105,0.01964035
4391.89438843,0.01964778
4393.82319580,0.01957631
4395.75200317,0.01949965
4397.68081055,0.01959747
4399.60961792,0.01940773
4401.53842529,0.01932436
4403.46723267,0.01928639
4405.39604004,0.01935068
4407.32484741,0.01923987
4409.25365478,0.01917852
4411.18246216,0.01923694
4413.11126953,0.01904212
4415.04007690,0.01912531
4416.96888428,0.01911273
4418.89769165,0.01899614
4420.82649902,0.01896173
4422.75530640,0.01902701
4424.68411377,0.01894042
4426.61292114,0.01876483
4428.54172852,0.01879232
4430.47053589,0.01871371
4432.39934326,0.01880107
4434.32815063,0.01869428
4436.25695801,0.01862542
4438.18576538,0.01866852
4440.11457275,0.01854539
4442.04338013,0.01855097
4443.97218750,0.01848090
4445.90099487,0.01847282
4447.82980225,0.01839694
4449.75860962,0.01837049
4451.68741699,0.01825265
4453.61622437,0.01819851
4455.54503174,0.01827223
4457.47383911,0.01813963
4459.40264648,0.01819758
4461.33145386,0.01809140
4463.26026123,0.01804766
4465.18906860,0.01802984
4467.11787598,0.01798322
4469.04668335,0.01803861
4470.97549072,0.01784322
4472.90429810,0.01781783
4474.83310547,0.01782910
4476.76191284,0.01785364
4478.69072021,0.01778923
4480.61952759,0.01765400
4482.54833496,0.01763988
4484.47714233,0.01758000
4486.40594971,0.01759763
4488.33475708,0.01758646
4490.26356445,0.01757269
4492.19237183,0.01751774
4494.12117920,0.01746320
4496.04998657,0.01734995
4497.97879395,0.01725904
4499.90760132,0.01725332
4501.83640869,0.01728134
4503.76521606,0.01725444
4505.69402344,0.01707334
4507.62283081,0.01718929
4509.55163818,0.01717569
4511.48044556,0.01715684
4513.40925293,0.01710296
4515.33806030,0.01689077
4517.26686768,0.01697420
4519.19567505,0.01683506
4521.12448242,0.01687706
4523.05328979,0.01688109
4524.98209717,0.01675559
4526.91090454,0.01676687
4528.83971191,0.01667525
4530.76851929,0.01673000
4532.69732666,0.01659045
4534.62613403,0.01659289
4536.55494141,0.01658897
4538.48374878,0.01649291
4540.41255615,0.01652312
4542.34136353,0.01642230
4544.27017090,0.01642420
4546.19897827,0.01631692
4548.12778564,0.01635488
4550.05659302,0.01637318
4551.98540039,0.01619313
4553.91420776,0.01620208
4555.84301514,0.01619647
4557.77182251,0.01613436
4559.70062988,0.01604051
4561.62943726,0.01599662
4563.55824463,0.01602853
4565.48705200,0.01601505
4567.41585937,0.01592311
4569.34466675,0.01599852
4571.27347412,0.01596367
4573.20228149,0.01579069
4575.13108887,0.01590116
4577.05989624,0.01584221
4578.98870361,0.01568848
4580.91751099,0.01568009
4582.84631836,0.01566173
4584.77512573,0.01554999
4586.70393311,0.01548825
4588.63274048,0.01550848
4590.56154785,0.01544805
4592.49035522,0.01547561
4594.41916260,0.01544536
4596.34796997,0.01539975
4598.27677734,0.01535424
4600.20558472,0.01530801
4602.13439209,0.01529025
4604.06319946,0.01521373
4605.99200684,0.01521350
4607.92081421,0.01519393
4609.84962158,0.01522972
4611.77842895,0.01516843
4613.70723633,0.01501188
4615.63604370,0.01500278
4617.56485107,0.01505559
4619.49365845,0.01498142
4621.42246582,0.01491130
4623.35127319,0.01496213
4625.28008057,0.01484157
4627.20888794,0.01480345
4629.13769531,0.01469246
4631.06650269,0.01460418
4632.99531006,0.01468473
4634.92411743,0.01458811
4636.85292480,0.01461387
4638.78173218,0.01464253
4640.71053955,0.01465406
4642.63934692,0.01456872
4644.56815430,0.01447524
4646.49696167,0.01452176
4648.42576904,0.01449292
4650.35457642,0.01445533
4652.28338379,0.01435802
4654.21219116,0.01431792
4656.14099853,0.01425827
4658.06980591,0.01428364
4659.99861328,0.01422151
4661.92742065,0.01416317
4663.85622803,0.01428049
4665.78503540,0.01414906
4667.71384277,0.01410013
4669.64265015,0.01408326
4671.57145752,0.01404999
4673.50026489,0.01397551
4675.42907227,0.01396750
4677.35787964,0.01398561
4679.28668701,0.01390596
4681.21549438,0.01397021
4683.14430176,0.01377595
4685.07310913,0.01382655
4687.00191650,0.01388767
4688.93072388,0.01375565
4690.85953125,0.01378117
4692.78833862,0.01371454
4694.71714600,0.01377461
4696.64595337,0.01362142
4698.57476074,0.01364112
4700.50356812,0.01365086
4702.43237549,0.01352254
4704.36118286,0.01360185
4706.28999023,0.01347816
4708.21879761,0.01348913
4710.14760498,0.01342698
4712.07641235,0.01341123
4714.00521973,0.01341542
4715.93402710,0.01334325
4717.86283447,0.01339490
4719.79164185,0.01330163
4721.72044922,0.01328204
4723.64925659,0.01325975
4725.57806396,0.01323091
4727.50687134,0.01315089
4729.43567871,0.01314231
4731.36448608,0.01307657
4733.29329346,0.01301256
4735.22210083,0.01311975
4737.15090820,0.01299519
4739.07971558,0.01303449
4741.00852295,0.01295420
4742.93733032,0.01287151
4744.86613770,0.01293869
4746.79494507,0.01283590
4748.72375244,0.01285428
4750.65255981,0.01278107
4752.58136719,0.01277603
4754.51017456,0.01278817
4756.43898193,0.01278207
4758.36778931,0.01274502
4760.29659668,0.01266196
4762.22540405,0.01268787
4764.15421143,0.01265602
4766.08301880,0.01264825
4768.01182617,0.01253981
4769.94063354,0.01253954
4771.86944092,0.01250838
4773.79824829,0.01240175
4775.72705566,0.01246748
4777.65586304,0.01242368
4779.58467041,0.01234480
4781.51347778,0.01235554
4783.44228516,0.01239501
4785.37109253,0.01227269
4787.29989990,0.01228336
4789.22870728,0.01226650
4791.15751465,0.01212954
4793.08632202,0.01218282
4795.01512939,0.01211962
4796.94393677,0.01212750
4798.87274414,0.01215652
4800.80155151,0.01211630
4802.73035889,0.01203018
4804.65916626,0.01201123
4806.58797363,0.01201452
4808.51678101,0.01190998
4810.44558838,0.01198537
4812.37439575,0.01193463
4814.30320312,0.01189378
4816.23201050,0.01188075
4818.16081787,0.01181170
4820.08962524,0.01173786
4822.01843262,0.01166948
4823.94723999,0.01177184
4825.87604736,0.01171295
4827.80485474,0.01172794
4829.73366211,0.01170180
4831.66246948,0.01160505
4833.59127686,0.01157035
4835.52008423,0.01151424
4837.44889160,0.01157194
4839.37769897,0.01144353
4841.30650635,0.01139958
4843.23531372,0.01146792
4845.16412109,0.01149530
4847.09292847,0.01140166
4849.02173584,0.01135560
4850.95054321,0.01142589
4852.87935059,0.01129945
4854.80815796,0.01132034
4856.73696533,0.01124721
4858.66577270,0.01124810
4860.59458008,0.01126115
4862.52338745,0.01107576
4864.45219482,0.01115334
4866.38100220,0.01111860
4868.30980957,0.01102568
4870.23861694,0.01101466
4872.16742432,0.01100544
4874.09623169,0.01100492
4876.02503906,0.01103206
4877.95384644,0.01098805
4879.88265381,0.01092306
4881.81146118,0.01096707
4883.74026855,0.01084036
4885.66907593,0.01082363
4887.59788330,0.01079869
4889.52669067,0.01080604
4891.45549805,0.01080652
4893.38430542,0.01063179
4895.31311279,0.01071093
4897.24192017,0.01073410
4899.17072754,0.01074024
4901.09953491,0.01066867
4903.02834228,0.01056577
4904.95714966,0.01062493
4906.88595703,0.01056662
4908.81476440,0.01052224
4910.74357178,0.01052511
4912.67237915,0.01054299
4914.60118652,0.01046300
4916.52999390,0.01046958
4918.45880127,0.01043833
4920.38760864,0.01034576
4922.31641602,0.01040871
4924.24522339,0.01030895
4926.17403076,0.01028654
4928.10283813,0.01031213
4930.03164551,0.01029359
4931.96045288,0.01025876
4933.88926025,0.01016050
4935.81806763,0.01021208
4937.74687500,0.01023677
4939.67568237,0.01012021
4941.60448975,0.01007947
4943.53329712,0.01012422
4945.46210449,0.01006516
4947.39091187,0.01007900
4949.31971924,0.01003859
4951.24852661,0.00998567
4953.17733398,0.00999881
4955.10614136,0.00991793
4957.03494873,0.00996501
4958.96375610,0.00987998
4960.89256348,0.00987188
4962.82137085,0.00990161
4964.75017822,0.00985899
4966.67898560,0.00990135
4968.60779297,0.00973150
4970.53660034,0.00972433
4972.46540771,0.00971207
4974.39421509,0.00969508
4976.32302246,0.00974625
4978.25182983,0.00959840
4980.18063721,0.00960854
4982.10944458,0.00966497
4984.03825195,0.00965289
4985.96705933,0.00958088
4987.89586670,0.00952983
4989.82467407,0.00951711
4991.75348145,0.00945666
4993.68228882,0.00947182
4995.61109619,0.00950105
4997.53990356,0.00946292
4999.46871094,0.00940997
5001.39751831,0.00938273
5003.32632568,0.00932133
5005.25513306,0.00936736
5007.18394043,0.00931855
5009.11274780,0.00920795
5011.04155518,0.00926015
5012.97036255,0.00923709
5014.89916992,0.00920863
5016.82797729,0.00915193
5018.75678467,0.00918661
5020.68559204,0.00921346
5022.61439941,0.00915285
5024.54320679,0.00912376
5026.47201416,0.00906281
5028.40082153,0.00909144
5030.32962891,0.00901408
5032.25843628,0.00899880
5034.18724365,0.00899762
5036.11605103,0.00893280
5038.04485840,0.00896438
5039.97366577,0.00887424
5041.90247314,0.00885483
5043.83128052,0.00885644
5045.76008789,0.00884584
5047.68889526,0.00885880
5049.61770264,0.00881670
5051.54651001,0.00878312
5053.47531738,0.00874096
5055.40412476,0.00877167
5057.33293213,0.00882591
5059.26173950,0.00876418
5061.19054687,0.00865605
5063.11935425,0.00873223
5065.04816162,0.00869453
5066.97696899,0.00862743
5068.90577637,0.00864168
5070.83458374,0.00844996
5072.76339111,0.00852402
5074.69219849,0.00860055
5076.62100586,0.00849088
5078.54981323,0.00853631
5080.47862061,0.00852786
5082.40742798,0.00847458
5084.33623535,0.00842281
5086.26504272,0.00837460
5088.19385010,0.00838163
5090.12265747,0.00842692
5092.05146484,0.00839014
5093.98027222,0.00832305
5095.90907959,0.00826186
5097.83788696,0.00826496
5099.76669434,0.00830247
5101.69550171,0.00824143
5103.62430908,0.00828269
5105.55311645,0.00820637
5107.48192383,0.00815629
5109.41073120,0.00825895
5111.33953857,0.00821701
5113.26834595,0.00815301
5115.19715332,0.00806938
5117.12596069,0.00807553
5119.05476807,0.00809745
5120.98357544,0.00811004
5122.91238281,0.00810427
5124.84119019,0.00801907
5126.76999756,0.00802824
5128.69880493,0.00801370
5130.62761230,0.00796263
5132.55641968,0.00792387
5134.48522705,0.00792065
5136.41403442,0.00787568
5138.34284180,0.00789021
5140.27164917,0.00790951
5142.20045654,0.00780872
5144.12926392,0.00785806
5146.05807129,0.00785971
5147.98687866,0.00788432
5149.91568603,0.00786275
5151.84449341,0.00770155
5153.77330078,0.00771439
5155.70210815,0.00773835
5157.63091553,0.00771891
5159.55972290,0.00765460
5161.48853027,0.00766116
5163.41733765,0.00763118
5165.34614502,0.00759453
5167.27495239,0.00765932
5169.20375977,0.00753957
5171.13256714,0.00758039
5173.06137451,0.00762950
5174.99018188,0.00751343
5176.91898926,0.00753497
5178.84779663,0.00747535
5180.77660400,0.00744528
5182.70541138,0.00748881
5184.63421875,0.00741010
5186.56302612,0.00738784
5188.49183350,0.00743038
5190.42064087,0.00733463
5192.34944824,0.00733893
5194.27825562,0.00742444
5196.20706299,0.00728719
5198.13587036,0.00725588
5200.06467773,0.00729699
5201.99348511,0.00725623
5203.92229248,0.00727161
5205.85109985,0.00715989
5207.77990723,0.00701558
5209.70871460,0.00700984
5211.63752197,0.00713735
5213.56632935,0.00720089
5215.49513672,0.00717030
5217.42394409,0.00722069
5219.35275146,0.00708556
5221.28155884,0.00705605
5223.21036621,0.00712468
5225.13917358,0.00691150
5227.06798096,0.00697889
5228.99678833,0.00711717
5230.92559570,0.00704388
5232.85440308,0.00706175
5234.78321045,0.00702349
5236.71201782,0.00699986
5238.64082520,0.00703610
5240.56963257,0.00705304
5242.49843994,0.00691956
5244.42724731,0.00679667
5246.35605469,0.00689034
5248.28486206,0.00678376
5250.21366943,0.00678275
5252.14247681,0.00693344
5254.07128418,0.00671333
5256.00009155,0.00673724
5257.92889893,0.00688334
5259.85770630,0.00675447
5261.78651367,0.00677870
5263.71532104,0.00666249
5265.64412842,0.00662070
5267.57293579,0.00672750
5269.50174316,0.00663705
5271.43055054,0.00674138
5273.35935791,0.00674254
5275.28816528,0.00668974
5277.21697266,0.00676800
5279.14578003,0.00666157
5281.07458740,0.00664993
5283.00339478,0.00664306
5284.93220215,0.00656298
5286.86100952,0.00661466
5288.78981689,0.00661645
5290.71862427,0.00651923
5292.64743164,0.00653245
5294.57623901,0.00656612
5296.50504639,0.00651461
5298.43385376,0.00651783
5300.36266113,0.00648755
5302.29146851,0.00640865
5304.22027588,0.00641024
5306.14908325,0.00640218
5308.07789062,0.00627598
5310.00669800,0.00631595
5311.93550537,0.00641865
5313.86431274,0.00637166
5315.79312012,0.00636372
5317.72192749,0.00628564
5319.65073486,0.00629878
5321.57954224,0.00625697
5323.50834961,0.00622296
5325.43715698,0.00627866
5327.36596436,0.00611137
5329.29477173,0.00616558
5331.22357910,0.00622092
5333.15238647,0.00617310
5335.08119385,0.00619127
5337.01000122,0.00609537
5338.93880859,0.00596869
5340.86761597,0.00601406
5342.79642334,0.00615618
5344.72523071,0.00590171
5346.65403809,0.00596307
5348.58284546,0.00615081
5350.51165283,0.00598432
5352.44046020,0.00597672
5354.36926758,0.00580083
5356.29807495,0.00591600
5358.22688232,0.00605751
5360.15568970,0.00597391
5362.08449707,0.00603529
5364.01330444,0.00589751
5365.94211182,0.00589543
5367.87091919,0.00594123
5369.79972656,0.00598844
5371.72853394,0.00596830
5373.65734131,0.00578814
5375.58614868,0.00574647
5377.51495605,0.00573206
5379.44376343,0.00581874
5381.37257080,0.00585812
5383.30137817,0.00577239
5385.23018555,0.00565758
5387.15899292,0.00568207
5389.08780029,0.00581668
5391.01660767,0.00577853
5392.94541504,0.00565580
5394.87422241,0.00554288
5396.80302978,0.00564219
5398.73183716,0.00572141
5400.66064453,0.00573255
5402.58945190,0.00573050
5404.51825928,0.00553285
5406.44706665,0.00563869
5408.37587402,0.00568385
5410.30468140,0.00548727
5412.23348877,0.00552393
5414.16229614,0.00545730
5416.09110352,0.00551656
5418.01991089,0.00558446
5419.94871826,0.00545553
5421.87752563,0.00554863
5423.80633301,0.00549254
5425.73514038,0.00548516
5427.66394775,0.00546906
5429.59275513,0.00524447
5431.52156250,0.00541640
5433.45036987,0.00545219
5435.37917725,0.00527812
5437.30798462,0.00538046
5439.23679199,0.00542979
5441.16559936,0.00531238
5443.09440674,0.00528700
5445.02321411,0.00526868
5446.95202148,0.00520725
5448.88082886,0.00531472
5450.80963623,0.00524183
5452.73844360,0.00526657
5454.66725098,0.00531932
5456.59605835,0.00521299
5458.52486572,0.00528952
5460.45367310,0.00509452
5462.38248047,0.00515006
5464.31128784,0.00525331
5466.24009521,0.00514681
5468.16890259,0.00526261
5470.09770996,0.00515006
5472.02651733,0.00516841
5473.95532471,0.00510036
5475.88413208,0.00496325
5477.81293945,0.00513270
5479.74174683,0.00518127
5481.67055420,0.00510251
5483.59936157,0.00508249
5485.52816895,0.00511538
5487.45697632,0.00497381
5489.38578369,0.00501138
5491.31459106,0.00503917
5493.24339844,0.00496702
5495.17220581,0.00508391
5497.10101318,0.00501529
5499.02982056,0.00497009
5500.95862793,0.00494096
5502.88743530,0.00497330
5504.81624268,0.00498097
5506.74505005,0.00489536
5508.67385742,0.00496095
5510.60266479,0.00493956
5512.53147217,0.00492412
5514.46027954,0.00488074
5516.38908691,0.00486569
5518.31789429,0.00486148
5520.24670166,0.00484708
5522.17550903,0.00489239
5524.10431641,0.00483874
5526.03312378,0.00488319
5527.96193115,0.00486205
5529.89073853,0.00480084
5531.81954590,0.00484050
5533.74835327,0.00479615
5535.67716064,0.00472198
5537.60596802,0.00466221
5539.53477539,0.00466171
5541.46358276,0.00474841
5543.39239014,0.00476391
5545.32119751,0.00471522
5547.25000488,0.00472046
5549.17881226,0.00465755
5551.10761963,0.00471804
5553.03642700,0.00468892
5554.96523437,0.00462113
5556.89404175,0.00476808
5558.82284912,0.00464609
5560.75165649,0.00464269
5562.68046387,0.00466642
5564.60927124,0.00459367
5566.53807861,0.00465731
5568.46688599,0.00459210
5570.39569336,0.00464830
5572.32450073,0.00463347
5574.25330811,0.00454673
5576.18211548,0.00446423
5578.11092285,0.00444669
5580.03973022,0.00457178
5581.96853760,0.00454183
5583.89734497,0.00455147
5585.82615234,0.00447322
5587.75495972,0.00447158
5589.68376709,0.00456367
5591.61257446,0.00443272
5593.54138184,0.00441991
5595.47018921,0.00444152
5597.39899658,0.00436546
5599.32780395,0.00438697
5601.25661133,0.00444677
5603.18541870,0.00438659
5605.11422607,0.00437344
5607.04303345,0.00441816
5608.97184082,0.00435600
5610.90064819,0.00426216
5612.82945557,0.00426984
5614.75826294,0.00435680
5616.68707031,0.00435234
5618.61587769,0.00432071
5620.54468506,0.00420374
5622.47349243,0.00422429
5624.40229980,0.00429972
5626.33110718,0.00414298
5628.25991455,0.00421811
5630.18872192,0.00426978
5632.11752930,0.00416178
5634.04633667,0.00413442
5635.97514404,0.00412779
5637.90395142,0.00421521
5639.83275879,0.00421880
5641.76156616,0.00415473
5643.69037353,0.00412491
5645.61918091,0.00413290
5647.54798828,0.00410568
5649.47679565,0.00407425
5651.40560303,0.00413795
5653.33441040,0.00409123
5655.26321777,0.00403651
5657.19202515,0.00404217
5659.12083252,0.00404086
5661.04963989,0.00409985
5662.97844727,0.00401443
5664.90725464,0.00392916
5666.83606201,0.00406302
5668.76486938,0.00403723
5670.69367676,0.00394620
5672.62248413,0.00400716
5674.55129150,0.00399512
5676.48009888,0.00398704
5678.40890625,0.00400653
5680.33771362,0.00397410
5682.26652100,0.00395359
5684.19532837,0.00394582
5686.12413574,0.00388922
5688.05294311,0.00390593
5689.98175049,0.00394900
5691.91055786,0.00386474
5693.83936523,0.00387663
5695.76817261,0.00387076
5697.69697998,0.00385397
5699.62578735,0.00388033
5701.55459473,0.00379970
5703.48340210,0.00380937
5705.41220947,0.00380807
5707.34101685,0.00377575
5709.26982422,0.00382305
5711.19863159,0.00381705
5713.12743896,0.00374255
5715.05624634,0.00370108
5716.98505371,0.00371133
5718.91386108,0.00376930
5720.84266846,0.00377908
5722.77147583,0.00367610
5724.70028320,0.00370242
5726.62909058,0.00370757
5728.55789795,0.00370357
5730.48670532,0.00377178
5732.41551270,0.00370342
5734.34432007,0.00366375
5736.27312744,0.00360990
5738.20193481,0.00359560
5740.13074219,0.00363501
5742.05954956,0.00360959
5743.98835693,0.00359085
5745.91716431,0.00356940
5747.84597168,0.00355449
5749.77477905,0.00355000
5751.70358643,0.00355620
5753.63239380,0.00352564
5755.56120117,0.00355704
5757.49000854,0.00349421
5759.41881592,0.00343756
5761.34762329,0.00351662
5763.27643066,0.00347349
5765.20523804,0.00350353
5767.13404541,0.00350701
5769.06285278,0.00349153
5770.99166016,0.00343788
5772.92046753,0.00335594
5774.84927490,0.00343088
5776.77808228,0.00343137
5778.70688965,0.00341846
5780.63569702,0.00339544
5782.56450439,0.00344435
5784.49331177,0.00340324
5786.42211914,0.00334250
5788.35092651,0.00342415
5790.27973389,0.00334734
5792.20854126,0.00336590
5794.13734863,0.00336896
5796.06615601,0.00332916
5797.99496338,0.00330652
5799.92377075,0.00333161
5801.85257812,0.00336389
5803.78138550,0.00325012
5805.71019287,0.00336891
5807.63900024,0.00330102
5809.56780762,0.00319190
5811.49661499,0.00335302
5813.42542236,0.00328423
5815.35422974,0.00321432
5817.28303711,0.00325377
5819.21184448,0.00324512
5821.14065186,0.00318675
5823.06945923,0.00319104
5824.99826660,0.00322663
5826.92707397,0.00325108
5828.85588135,0.00327690
5830.78468872,0.00321136
5832.71349609,0.00314009
5834.64230347,0.00315887
5836.57111084,0.00317412
5838.49991821,0.00309806
5840.42872559,0.00313181
5842.35753296,0.00307765
5844.28634033,0.00306762
5846.21514770,0.00317086
5848.14395508,0.00307146
5850.07276245,0.00312710
5852.00156982,0.00314169
5853.93037720,0.00311335
5855.85918457,0.00310082
5857.78799194,0.00302469
5859.71679932,0.00308740
5861.64560669,0.00305300
5863.57441406,0.00303409
5865.50322144,0.00301914
5867.43202881,0.00298383
5869.36083618,0.00299115
5871.28964355,0.00305758
5873.21845093,0.00300711
5875.14725830,0.00287709
5877.07606567,0.00303510
5879.00487305,0.00299262
5880.93368042,0.00296379
5882.86248779,0.00301923
5884.79129517,0.00291293
5886.72010254,0.00299951
5888.64890991,0.00298727
5890.57771728,0.00291542
5892.50652466,0.00291062
5894.43533203,0.00291781
5896.36413940,0.00289791
5898.29294678,0.00286640
5900.22175415,0.00285920
5902.15056152,0.00280509
5904.07936890,0.00287795
5906.00817627,0.00289984
5907.93698364,0.00284775
5909.86579102,0.00281091
5911.79459839,0.00281425
5913.72340576,0.00282770
5915.65221313,0.00280542
5917.58102051,0.00284676
5919.50982788,0.00278522
5921.43863525,0.00275545
5923.36744263,0.00273051
5925.29625000,0.00274373
5927.22505737,0.00280843
5929.15386475,0.00272461
5931.08267212,0.00277102
5933.01147949,0.00280034
5934.94028686,0.00273434
5936.86909424,0.00275236
5938.79790161,0.00275460
5940.72670898,0.00270723
5942.65551636,0.00270078
5944.58432373,0.00277361
5946.51313110,0.00276155
5948.44193848,0.00266335
5950.37074585,0.00264472
5952.29955322,0.00268570
5954.22836060,0.00264728
5956.15716797,0.00266094
5958.08597534,0.00268102
5960.01478271,0.00265216
5961.94359009,0.00269779
5963.87239746,0.00266491
5965.80120483,0.00264738
5967.73001221,0.00264813
5969.65881958,0.00264236
5971.58762695,0.00264177
5973.51643433,0.00255886
5975.44524170,0.00254569
5977.37404907,0.00257802
5979.30285645,0.00256974
5981.23166382,0.00254678
5983.16047119,0.00256829
5985.08927856,0.00258694
5987.01808594,0.00259668
5988.94689331,0.00253680
5990.87570068,0.00246839
5992.80450806,0.00253188
5994.73331543,0.00251943
5996.66212280,0.00255095
5998.59093018,0.00251610
6000.51973755,0.00243881
