399.26312622,0.00058580
401.19193359,0.00049685
403.12074097,-0.00020307
405.04954834,0.00012252
406.97835571,0.00015189
408.90716309,0.00001004
410.83597046,0.00006150
412.76477783,-0.00012959
414.69358521,0.00029734
416.62239258,-0.00001454
418.55119995,-0.00003599
420.48000732,0.00015522
422.40881470,0.00005337
424.33762207,0.00006412
426.26642944,-0.00008238
428.19523682,0.00060718
430.12404419,0.00032429
432.05285156,-0.00021532
433.98165894,0.00017142
435.91046631,0.00025576
437.83927368,0.00021065
439.76808105,-0.00002885
441.69688843,0.00014233
443.62569580,0.00002677
445.55450317,-0.00004245
447.48331055,0.00019489
449.41211792,0.00012679
451.34092529,0.00025344
453.26973267,-0.00001516
455.19854004,0.00017416
457.12734741,0.00031321
459.05615479,0.00010202
460.98496216,0.00018198
462.91376953,0.00035716
464.84257690,0.00029222
466.77138428,-0.00006319
468.70019165,0.00014811
470.62899902,0.00008964
472.55780640,0.00012274
474.48661377,0.00024585
476.41542114,0.00011928
478.34422852,0.00016292
480.27303589,0.00002771
482.20184326,0.00022880
484.13065063,0.00016154
486.05945801,0.00026109
487.98826538,0.00027940
489.91707275,-0.00006431
491.84588013,0.00016412
493.77468750,-0.00000983
495.70349487,0.00001752
497.63230225,0.00017897
499.56110962,0.00003477
501.48991699,0.00013749
503.41872437,0.00008481
505.34753174,0.00012924
507.27633911,0.00011569
509.20514648,0.00008579
511.13395386,0.00013898
513.06276123,0.00006035
514.99156860,0.00028351
516.92037598,0.00031416
518.84918335,0.00020061
520.77799072,0.00043692
522.70679810,0.00005429
524.63560547,0.00011636
526.56441284,0.00036386
528.49322021,-0.00008584
530.42202759,0.00026237
532.35083496,0.00035269
534.27964233,-0.00010485
536.20844971,-0.00011824
538.13725708,0.00005853
540.06606445,-0.00002879
541.99487183,-0.00017986
543.92367920,-0.00014067
545.85248657,0.00022298
547.78129395,0.00011570
549.71010132,0.00012803
551.63890869,0.00035657
553.56771606,0.00013766
555.49652344,0.00013824
557.42533081,0.00014285
559.35413818,0.00006703
561.28294556,-0.00012794
563.21175293,-0.00000747
565.14056030,0.00043033
567.06936768,0.00014987
568.99817505,-0.00013204
570.92698242,-0.00011804
572.85578979,-0.00015262
574.78459717,-0.00006997
576.71340454,-0.00015646
578.64221191,-0.00004419
580.57101929,0.00035597
582.49982666,0.00043405
584.42863403,0.00000768
586.35744141,0.00000269
588.28624878,0.00012029
590.21505615,0.00011859
592.14386353,0.00017163
594.07267090,-0.00026933
596.00147827,0.00016862
597.93028564,0.00046315
599.85909302,-0.00028172
601.78790039,0.00031175
603.71670776,0.00028271
605.64551514,-0.00035844
607.57432251,0.00011523
609.50312988,0.00012678
611.43193726,0.00009220
613.36074463,0.00002469
615.28955200,0.00005339
617.21835938,0.00013036
619.14716675,-0.00018575
621.07597412,0.00009022
623.00478149,-0.00007062
624.93358887,-0.00011439
626.86239624,0.00005409
628.79120361,-0.00006294
630.72001099,0.00022584
632.64881836,0.00000721
634.57762573,0.00010563
636.50643311,0.00030339
638.43524048,0.00011857
640.36404785,0.00019773
642.29285522,-0.00003011
644.22166260,-0.00000775
646.15046997,0.00024799
648.07927734,0.00031775
650.00808472,0.00018891
651.93689209,0.00015442
653.86569946,0.00042550
655.79450684,0.00033209
657.72331421,0.00008357
659.65212158,0.00008337
661.58092896,0.00024985
663.50973633,0.00028983
665.43854370,0.00036617
667.36735107,0.00029360
669.29615845,0.00002586
671.22496582,0.00041521
673.15377319,0.00060463
675.08258057,0.00030410
677.01138794,0.00025813
678.94019531,0.00027385
680.86900269,0.00031569
682.79781006,0.00056000
684.72661743,0.00059368
686.65542480,0.00032931
688.58423218,0.00047836
690.51303955,0.00059713
692.44184692,0.00064477
694.37065430,0.00048562
696.29946167,0.00032859
698.22826904,0.00074655
700.15707642,0.00071681
702.08588379,0.00069435
704.01469116,0.00059298
705.94349854,0.00057378
707.87230591,0.00078002
709.80111328,0.00059225
711.72992065,0.00051352
713.65872803,0.00014349
715.58753540,0.00025883
717.51634277,0.00028276
719.44515015,0.00007117
721.37395752,0.00034357
723.30276489,0.00021028
725.23157227,0.00036090
727.16037964,0.00034877
729.08918701,0.00005243
731.01799438,0.00024449
732.94680176,0.00050846
734.87560913,0.00028576
736.80441650,0.00009211
738.73322388,0.00021211
740.66203125,0.00005142
742.59083862,0.00027944
744.51964600,0.00041516
746.44845337,0.00020200
748.37726074,0.00011459
750.30606812,0.00008998
752.23487549,0.00019694
754.16368286,0.00008974
756.09249023,0.00027787
758.02129761,0.00022667
759.95010498,0.00003507
761.87891235,0.00018724
763.80771973,0.00002277
765.73652710,0.00027558
767.66533447,0.00023588
769.59414185,-0.00005325
771.52294922,0.00025006
773.45175659,0.00039386
775.38056396,0.00036690
777.30937134,0.00030463
779.23817871,0.00031647
781.16698608,0.00009867
783.09579346,0.00005730
785.02460083,0.00029539
786.95340820,0.00012944
788.88221558,0.00015215
790.81102295,0.00025567
792.73983032,0.00021106
794.66863770,-0.00008654
796.59744507,-0.00016425
798.52625244,0.00012506
800.45505981,-0.00006446
802.38386719,0.00009850
804.31267456,0.00038711
806.24148193,0.00041482
808.17028931,0.00020907
810.09909668,0.00012173
812.02790405,0.00038356
813.95671143,0.00007574
815.88551880,0.00007548
817.81432617,0.00027732
819.74313354,0.00016055
821.67194092,0.00016794
823.60074829,0.00013243
825.52955566,0.00009593
827.45836304,0.00011704
829.38717041,0.00028500
831.31597778,0.00026307
833.24478516,0.00023408
835.17359253,0.00032562
837.10239990,0.00022829
839.03120728,0.00037398
840.96001465,0.00045427
842.88882202,0.00011775
844.81762939,0.00014627
846.74643677,0.00039518
848.67524414,0.00031288
850.60405151,0.00022697
852.53285889,0.00019971
854.46166626,0.00025314
856.39047363,0.00036243
858.31928101,0.00017353
860.24808838,0.00012238
862.17689575,0.00034691
864.10570313,0.00020112
866.03451050,0.00008434
867.96331787,0.00016825
869.89212524,0.00016411
871.82093262,0.00034674
873.74973999,0.00026921
875.67854736,0.00013808
877.60735474,0.00029903
879.53616211,0.00028916
881.46496948,0.00023353
883.39377686,0.00012565
885.32258423,0.00032408
887.25139160,0.00035413
889.18019897,-0.00009494
891.10900635,0.00017109
893.03781372,0.00035262
894.96662109,0.00004862
896.89542847,0.00031739
898.82423584,0.00062128
900.75304321,0.00037157
902.68185059,0.00009136
904.61065796,0.00021656
906.53946533,0.00056709
908.46827271,0.00056509
910.39708008,0.00021192
912.32588745,0.00033926
914.25469482,0.00052195
916.18350220,0.00035383
918.11230957,0.00041284
920.04111694,0.00044372
921.96992432,0.00055141
923.89873169,0.00053634
925.82753906,0.00033747
927.75634644,0.00045276
929.68515381,0.00040675
931.61396118,0.00038810
933.54276855,0.00055221
935.47157593,0.00046776
937.40038330,0.00041284
939.32919067,0.00045040
941.25799805,0.00045504
943.18680542,0.00053180
945.11561279,0.00051172
947.04442017,0.00052093
948.97322754,0.00065957
950.90203491,0.00053679
952.83084229,0.00032958
954.75964966,0.00033469
956.68845703,0.00043671
958.61726440,0.00049151
960.54607178,0.00045599
962.47487915,0.00032968
964.40368652,0.00032130
966.33249390,0.00050416
968.26130127,0.00054046
970.19010864,0.00054437
972.11891602,0.00047369
974.04772339,0.00052982
975.97653076,0.00064270
977.90533813,0.00041600
979.83414551,0.00060863
981.76295288,0.00075088
983.69176025,0.00067615
985.62056763,0.00088895
987.54937500,0.00083650
989.47818237,0.00086439
991.40698975,0.00094110
993.33579712,0.00094855
995.26460449,0.00093445
997.19341187,0.00094884
999.12221924,0.00119271
1001.05102661,0.00124294
1002.97983398,0.00124800
1004.90864136,0.00111040
1006.83744873,0.00127051
1008.76625610,0.00149622
1010.69506348,0.00131712
1012.62387085,0.00150360
1014.55267822,0.00152802
1016.48148560,0.00166768
1018.41029297,0.00170118
1020.33910034,0.00161252
1022.26790771,0.00187326
1024.19671509,0.00172041
1026.12552246,0.00200130
1028.05432983,0.00213789
1029.98313721,0.00196755
1031.91194458,0.00207269
1033.84075195,0.00210446
1035.76955933,0.00239742
1037.69836670,0.00218456
1039.62717407,0.00212480
1041.55598145,0.00225512
1043.48478882,0.00212671
1045.41359619,0.00228897
1047.34240356,0.00209783
1049.27121094,0.00206064
1051.20001831,0.00221910
1053.12882568,0.00220992
1055.05763306,0.00213929
1056.98644043,0.00207274
1058.91524780,0.00202751
1060.84405518,0.00175043
1062.77286255,0.00177638
1064.70166992,0.00182503
1066.63047729,0.00171917
1068.55928467,0.00171340
1070.48809204,0.00168737
1072.41689941,0.00167287
1074.34570679,0.00143810
1076.27451416,0.00125643
1078.20332153,0.00133117
1080.13212891,0.00139122
1082.06093628,0.00133242
1083.98974365,0.00125451
1085.91855103,0.00119720
1087.84735840,0.00120082
1089.77616577,0.00112454
1091.70497314,0.00104910
1093.63378052,0.00107268
1095.56258789,0.00089966
1097.49139526,0.00102807
1099.42020264,0.00120570
1101.34901001,0.00101837
1103.27781738,0.00087658
1105.20662476,0.00081618
1107.13543213,0.00096845
1109.06423950,0.00110066
1110.99304687,0.00106651
1112.92185425,0.00086620
1114.85066162,0.00086036
1116.77946899,0.00100785
1118.70827637,0.00097385
1120.63708374,0.00111018
1122.56589111,0.00101304
1124.49469849,0.00105632
1126.42350586,0.00117433
1128.35231323,0.00096834
1130.28112061,0.00110222
1132.20992798,0.00102330
1134.13873535,0.00091384
1136.06754272,0.00113687
1137.99635010,0.00123238
1139.92515747,0.00123672
1141.85396484,0.00121123
1143.78277222,0.00132075
1145.71157959,0.00137901
1147.64038696,0.00131111
1149.56919434,0.00142509
1151.49800171,0.00158417
1153.42680908,0.00157125
1155.35561646,0.00164233
1157.28442383,0.00164363
1159.21323120,0.00165837
1161.14203857,0.00191188
1163.07084595,0.00187271
1164.99965332,0.00176283
1166.92846069,0.00180777
1168.85726807,0.00198863
1170.78607544,0.00219700
1172.71488281,0.00222339
1174.64369019,0.00219040
1176.57249756,0.00213931
1178.50130493,0.00225039
1180.43011230,0.00238931
1182.35891968,0.00246540
1184.28772705,0.00232744
1186.21653442,0.00251180
1188.14534180,0.00294382
1190.07414917,0.00286402
1192.00295654,0.00299299
1193.93176392,0.00309423
1195.86057129,0.00318385
1197.78937866,0.00332733
1199.71818604,0.00339028
1201.64699341,0.00362475
1203.57580078,0.00357283
1205.50460815,0.00376154
1207.43341553,0.00380713
1209.36222290,0.00391101
1211.29103027,0.00426114
1213.21983765,0.00418103
1215.14864502,0.00444689
1217.07745239,0.00452231
1219.00625977,0.00447917
1220.93506714,0.00460441
1222.86387451,0.00456912
1224.79268188,0.00470544
1226.72148926,0.00464840
1228.65029663,0.00473839
1230.57910400,0.00486100
1232.50791138,0.00476643
1234.43671875,0.00478983
1236.36552612,0.00462171
1238.29433350,0.00463983
1240.22314087,0.00494490
1242.15194824,0.00485704
1244.08075562,0.00467095
1246.00956299,0.00478557
1247.93837036,0.00484040
1249.86717773,0.00475307
1251.79598511,0.00458206
1253.72479248,0.00458634
1255.65359985,0.00464436
1257.58240723,0.00448749
1259.51121460,0.00464008
1261.44002197,0.00457663
1263.36882935,0.00432631
1265.29763672,0.00447708
1267.22644409,0.00425627
1269.15525146,0.00408139
1271.08405884,0.00415782
1273.01286621,0.00405799
1274.94167358,0.00411369
1276.87048096,0.00398086
1278.79928833,0.00380453
1280.72809570,0.00378045
1282.65690308,0.00376333
1284.58571045,0.00367634
1286.51451782,0.00357064
1288.44332520,0.00375165
1290.37213257,0.00356224
1292.30093994,0.00347115
1294.22974731,0.00351582
1296.15855469,0.00323104
1298.08736206,0.00342893
1300.01616943,0.00346220
1301.94497681,0.00360299
1303.87378418,0.00371663
1305.80259155,0.00333370
1307.73139893,0.00356464
1309.66020630,0.00375797
1311.58901367,0.00369500
1313.51782104,0.00369012
1315.44662842,0.00381816
1317.37543579,0.00408687
1319.30424316,0.00401371
1321.23305054,0.00408378
1323.16185791,0.00428043
1325.09066528,0.00433796
1327.01947266,0.00452913
1328.94828003,0.00473977
1330.87708740,0.00465877
1332.80589478,0.00469340
1334.73470215,0.00487901
1336.66350952,0.00481434
1338.59231689,0.00483392
1340.52112427,0.00481691
1342.44993164,0.00499593
1344.37873901,0.00517961
1346.30754639,0.00510233
1348.23635376,0.00516537
1350.16516113,0.00499501
1352.09396851,0.00493071
1354.02277588,0.00511325
1355.95158325,0.00497204
1357.88039062,0.00480719
1359.80919800,0.00488246
1361.73800537,0.00446799
1363.66681274,0.00431948
1365.59562012,0.00480820
1367.52442749,0.00452739
1369.45323486,0.00447675
1371.38204224,0.00467946
1373.31084961,0.00454182
1375.23965698,0.00458183
1377.16846436,0.00454228
1379.09727173,0.00461912
1381.02607910,0.00448670
1382.95488647,0.00457234
1384.88369385,0.00469500
1386.81250122,0.00442872
1388.74130859,0.00455292
1390.67011597,0.00485719
1392.59892334,0.00477549
1394.52773071,0.00438692
1396.45653809,0.00463345
1398.38534546,0.00467445
1400.31415283,0.00463294
1402.24296021,0.00485425
1404.17176758,0.00443500
1406.10057495,0.00470090
1408.02938232,0.00487822
1409.95818970,0.00479060
1411.88699707,0.00480146
1413.81580444,0.00457014
1415.74461182,0.00476491
1417.67341919,0.00412537
1419.60222656,0.00393241
1421.53103394,0.00447921
1423.45984131,0.00425315
1425.38864868,0.00430521
1427.31745605,0.00435158
1429.24626343,0.00398091
1431.17507080,0.00363874
1433.10387817,0.00378805
1435.03268555,0.00358633
1436.96149292,0.00296037
1438.89030029,0.00330363
1440.81910767,0.00345452
1442.74791504,0.00328094
1444.67672241,0.00353177
1446.60552979,0.00343215
1448.53433716,0.00327873
1450.46314453,0.00341512
1452.39195190,0.00360186
1454.32075928,0.00357512
1456.24956665,0.00307745
1458.17837402,0.00320955
1460.10718140,0.00405665
1462.03598877,0.00416358
1463.96479614,0.00402391
1465.89360352,0.00423814
1467.82241089,0.00480460
1469.75121826,0.00507120
1471.68002563,0.00467133
1473.60883301,0.00491236
1475.53764038,0.00527435
1477.46644775,0.00574249
1479.39525513,0.00628967
1481.32406250,0.00635260
1483.25286987,0.00694304
1485.18167725,0.00708985
1487.11048462,0.00697640
1489.03929199,0.00693005
1490.96809937,0.00684004
1492.89690674,0.00787051
1494.82571411,0.00766875
1496.75452148,0.00696486
1498.68332886,0.00782567
1500.61213623,0.00803715
1502.54094360,0.00863935
1504.46975098,0.00819603
1506.39855835,0.00628390
1508.32736572,0.00749364
1510.25617310,0.00827349
1512.18498047,0.00813692
1514.11378784,0.00884779
1516.04259521,0.00780225
1517.97140259,0.00823799
1519.90020996,0.00806695
1521.82901733,0.00721740
1523.75782471,0.00858878
1525.68663208,0.00829978
1527.61543945,0.00837686
1529.54424683,0.00908992
1531.47305420,0.00870936
1533.40186157,0.00803636
1535.33066895,0.00858519
1537.25947632,0.00907356
1539.18828369,0.00646188
1541.11709106,0.00686919
1543.04589844,0.00815720
1544.97470581,0.00781161
1546.90351318,0.00907868
1548.83232056,0.00857789
1550.76112793,0.00889256
1552.68993530,0.00857130
1554.61874268,0.00797552
1556.54755005,0.00860478
1558.47635742,0.00610741
1560.40516479,0.00670240
1562.33397217,0.00920520
1564.26277954,0.00872687
1566.19158691,0.00910137
1568.12039429,0.00889466
1570.04920166,0.00791987
1571.97800903,0.00911804
1573.90681641,0.00919116
1575.83562378,0.00737339
1577.76443115,0.00819100
1579.69323853,0.00917941
1581.62204590,0.00880925
1583.55085327,0.00896067
1585.47966064,0.00884777
1587.40846802,0.00892765
1589.33727539,0.00875356
1591.26608276,0.00882918
1593.19489014,0.00903891
1595.12369751,0.00870222
1597.05250488,0.00877163
1598.98131226,0.00900276
1600.91011963,0.00892533
1602.83892700,0.00883664
1604.76773437,0.00899809
1606.69654175,0.00868692
1608.62534912,0.00879205
1610.55415649,0.00875663
1612.48296387,0.00889273
1614.41177124,0.00900116
1616.34057861,0.00736193
1618.26938599,0.00807327
1620.19819336,0.00911273
1622.12700073,0.00810636
1624.05580811,0.00831643
1625.98461548,0.00874777
1627.91342285,0.00871499
1629.84223022,0.00874369
1631.77103760,0.00938970
1633.69984497,0.00856698
1635.62865234,0.00740410
1637.55745972,0.00868225
1639.48626709,0.00931362
1641.41507446,0.00917493
1643.34388184,0.00943372
1645.27268921,0.00862044
1647.20149658,0.00774581
1649.13030396,0.00959224
1651.05911133,0.00903068
1652.98791870,0.00599476
1654.91672607,0.00816275
1656.84553345,0.01003207
1658.77434082,0.00967977
1660.70314819,0.00988599
1662.63195557,0.00905949
1664.56076294,0.00975446
1666.48957031,0.01038514
1668.41837769,0.00915066
1670.34718506,0.00896622
1672.27599243,0.01004518
1674.20479980,0.00929860
1676.13360718,0.00904085
1678.06241455,0.01032507
1679.99122192,0.00988648
1681.92002930,0.00997051
1683.84883667,0.00831071
1685.77764404,0.00810929
1687.70645142,0.01086175
1689.63525879,0.00949576
1691.56406616,0.01040616
1693.49287354,0.01057842
1695.42168091,0.00786647
1697.35048828,0.00961272
1699.27929565,0.00855810
1701.20810303,0.00783281
1703.13691040,0.01026244
1705.06571777,0.00934731
1706.99452515,0.00963454
1708.92333252,0.01049254
1710.85213989,0.01002263
1712.78094727,0.01006087
1714.70975464,0.00926048
1716.63856201,0.00838547
1718.56736938,0.00839522
1720.49617676,0.00991138
1722.42498413,0.01022880
1724.35379150,0.00943300
1726.28259888,0.01008355
1728.21140625,0.00949127
1730.14021362,0.00952181
1732.06902100,0.00916814
1733.99782837,0.00724942
1735.92663574,0.00883930
1737.85544312,0.00973012
1739.78425049,0.00860116
1741.71305786,0.00920509
1743.64186523,0.00948992
1745.57067261,0.00949978
1747.49947998,0.00956738
1749.42828735,0.00916943
1751.35709473,0.00866227
1753.28590210,0.00942123
1755.21470947,0.01001409
1757.14351685,0.00914808
1759.07232422,0.00982777
1761.00113159,0.00945681
1762.92993896,0.00908123
1764.85874634,0.01022567
1766.78755371,0.00924239
1768.71636108,0.00932390
1770.64516846,0.00933909
1772.57397583,0.00840952
1774.50278320,0.00935679
1776.43159058,0.00981011
1778.36039795,0.00974948
1780.28920532,0.00961394
1782.21801270,0.00951490
1784.14682007,0.00948458
1786.07562744,0.00933426
1788.00443481,0.00981012
1789.93324219,0.00955952
1791.86204956,0.00883920
1793.79085693,0.00907554
1795.71966431,0.00961225
1797.64847168,0.00969343
1799.57727905,0.00945118
1801.50608643,0.00917083
1803.43489380,0.00956554
1805.36370117,0.00980951
1807.29250854,0.00945108
1809.22131592,0.00949014
1811.15012329,0.00942210
1813.07893066,0.00967807
1815.00773804,0.00963448
1816.93654541,0.00950648
1818.86535278,0.00975165
1820.79416016,0.00964509
1822.72296753,0.00971554
1824.65177490,0.00911113
1826.58058228,0.00945017
1828.50938965,0.00956192
1830.43819702,0.00883847
1832.36700439,0.00962710
1834.29581177,0.00963040
1836.22461914,0.00952236
1838.15342651,0.00946137
1840.08223389,0.00951437
1842.01104126,0.00942521
1843.93984863,0.00836611
1845.86865601,0.00905964
1847.79746338,0.00942831
1849.72627075,0.00923557
1851.65507812,0.00958995
1853.58388550,0.00943503
1855.51269287,0.00944782
1857.44150024,0.00923904
1859.37030762,0.00931691
1861.29911499,0.00932335
1863.22792236,0.00924231
1865.15672974,0.00939300
1867.08553711,0.00906932
1869.01434448,0.00878935
1870.94315186,0.00901376
1872.87195923,0.00924609
1874.80076660,0.00916342
1876.72957397,0.00933696
1878.65838135,0.00911772
1880.58718872,0.00919146
1882.51599609,0.00941029
1884.44480347,0.00905035
1886.37361084,0.00921397
1888.30241821,0.00880953
1890.23122559,0.00870697
1892.16003296,0.00912856
1894.08884033,0.00898304
1896.01764771,0.00900763
1897.94645508,0.00897517
1899.87526245,0.00898255
1901.80406982,0.00884756
1903.73287720,0.00899592
1905.66168457,0.00907980
1907.59049194,0.00865963
1909.51929932,0.00879455
1911.44810669,0.00887253
1913.37691406,0.00888863
1915.30572144,0.00883980
1917.23452881,0.00846847
1919.16333618,0.00864853
1921.09214355,0.00879141
1923.02095093,0.00866836
1924.94975830,0.00886922
1926.87856567,0.00877055
1928.80737305,0.00874001
1930.73618042,0.00885571
1932.66498779,0.00872490
1934.59379517,0.00889882
1936.52260254,0.00871851
1938.45140991,0.00858831
1940.38021729,0.00869878
1942.30902466,0.00846856
1944.23783203,0.00856012
1946.16663940,0.00857440
1948.09544678,0.00854470
1950.02425415,0.00862733
1951.95306152,0.00862302
1953.88186890,0.00869748
1955.81067627,0.00869443
1957.73948364,0.00861534
1959.66829102,0.00855128
1961.59709839,0.00859325
1963.52590576,0.00857188
1965.45471313,0.00862434
1967.38352051,0.00857940
1969.31232788,0.00857131
1971.24113525,0.00863416
1973.16994263,0.00843189
1975.09875000,0.00852336
1977.02755737,0.00851094
1978.95636475,0.00849130
1980.88517212,0.00853827
1982.81397949,0.00843515
1984.74278687,0.00856146
1986.67159424,0.00837441
1988.60040161,0.00833161
1990.52920898,0.00846446
1992.45801636,0.00830853
1994.38682373,0.00839524
1996.31563110,0.00843527
1998.24443848,0.00832223
2000.17324585,0.00829965
2002.10205322,0.00821788
2004.03086060,0.00828968
2005.95966797,0.00836770
2007.88847534,0.00821965
2009.81728271,0.00823223
2011.74609009,0.00823422
2013.67489746,0.00821742
2015.60370483,0.00819230
2017.53251221,0.00807902
2019.46131958,0.00814313
2021.39012695,0.00815235
2023.31893433,0.00814317
2025.24774170,0.00809644
2027.17654907,0.00807450
2029.10535645,0.00805055
2031.03416382,0.00805661
2032.96297119,0.00808432
2034.89177856,0.00790617
2036.82058594,0.00806900
2038.74939331,0.00804797
2040.67820068,0.00786417
2042.60700806,0.00793672
2044.53581543,0.00791506
2046.46462280,0.00793287
2048.39343018,0.00776540
2050.32223755,0.00782901
2052.25104492,0.00796860
2054.17985229,0.00791787
2056.10865967,0.00792601
2058.03746704,0.00783736
2059.96627441,0.00781903
2061.89508179,0.00774951
2063.82388916,0.00770365
2065.75269653,0.00765856
2067.68150391,0.00772592
2069.61031128,0.00773183
2071.53911865,0.00765373
2073.46792603,0.00778249
2075.39673340,0.00765477
2077.32554077,0.00762747
2079.25434814,0.00770627
2081.18315552,0.00771314
2083.11196289,0.00769282
2085.04077026,0.00756467
2086.96957764,0.00750871
2088.89838501,0.00748804
2090.82719238,0.00761719
2092.75599976,0.00752110
2094.68480713,0.00741840
2096.61361450,0.00749446
2098.54242187,0.00745624
2100.47122925,0.00745715
2102.40003662,0.00742998
2104.32884399,0.00750777
2106.25765137,0.00755473
2108.18645874,0.00749140
2110.11526611,0.00741949
2112.04407349,0.00746233
2113.97288086,0.00743046
2115.90168823,0.00725716
2117.83049561,0.00727751
2119.75930298,0.00731071
2121.68811035,0.00744208
2123.61691772,0.00740536
2125.54572510,0.00736761
2127.47453247,0.00742275
2129.40333984,0.00724498
2131.33214722,0.00724871
2133.26095459,0.00719417
2135.18976196,0.00716570
2137.11856934,0.00724575
2139.04737671,0.00726661
2140.97618408,0.00727415
2142.90499146,0.00728155
2144.83379883,0.00731252
2146.76260620,0.00716602
2148.69141357,0.00722103
2150.62022095,0.00722044
2152.54902832,0.00705160
2154.47783569,0.00715459
2156.40664307,0.00722795
2158.33545044,0.00717405
2160.26425781,0.00710926
2162.19306519,0.00707431
2164.12187256,0.00705296
2166.05067993,0.00711457
2167.97948730,0.00714881
2169.90829468,0.00713173
2171.83710205,0.00703075
2173.76590942,0.00695734
2175.69471680,0.00705924
2177.62352417,0.00709016
2179.55233154,0.00718549
2181.48113892,0.00708746
2183.40994629,0.00705436
2185.33875366,0.00709530
2187.26756104,0.00687836
2189.19636841,0.00698666
2191.12517578,0.00708890
2193.05398315,0.00701872
2194.98279053,0.00686291
2196.91159790,0.00692349
2198.84040527,0.00707039
2200.76921265,0.00688014
2202.69802002,0.00704018
2204.62682739,0.00701237
2206.55563477,0.00682515
2208.48444214,0.00701708
2210.41324951,0.00697430
2212.34205688,0.00682993
2214.27086426,0.00685127
2216.19967163,0.00696034
2218.12847900,0.00690023
2220.05728638,0.00687370
2221.98609375,0.00704521
2223.91490112,0.00693205
2225.84370850,0.00684708
2227.77251587,0.00695921
2229.70132324,0.00686989
2231.63013062,0.00680643
2233.55893799,0.00681800
2235.48774536,0.00683842
2237.41655273,0.00683360
2239.34536011,0.00671789
2241.27416748,0.00673049
2243.20297485,0.00664086
2245.13178223,0.00669289
2247.06058960,0.00683094
2248.98939697,0.00669469
2250.91820435,0.00673394
2252.84701172,0.00667519
2254.77581909,0.00668730
2256.70462646,0.00668740
2258.63343384,0.00654590
2260.56224121,0.00667379
2262.49104858,0.00665886
2264.41985596,0.00667599
2266.34866333,0.00670569
2268.27747070,0.00667637
2270.20627808,0.00665799
2272.13508545,0.00657126
2274.06389282,0.00651866
2275.99270020,0.00648974
2277.92150757,0.00670261
2279.85031494,0.00662677
2281.77912231,0.00640841
2283.70792969,0.00647960
2285.63673706,0.00654863
2287.56554443,0.00658089
2289.49435181,0.00642903
2291.42315918,0.00641015
2293.35196655,0.00641635
2295.28077393,0.00634468
2297.20958130,0.00643317
2299.13838867,0.00644002
2301.06719604,0.00633801
2302.99600342,0.00626936
2304.92481079,0.00626746
2306.85361816,0.00617330
2308.78242554,0.00616940
2310.71123291,0.00617343
2312.64004028,0.00605975
2314.56884766,0.00601257
2316.49765503,0.00593432
2318.42646240,0.00590304
2320.35526978,0.00585986
2322.28407715,0.00577216
2324.21288452,0.00558952
2326.14169189,0.00551824
2328.07049927,0.00555532
2329.99930664,0.00534735
2331.92811401,0.00534895
2333.85692139,0.00542077
2335.78572876,0.00528317
2337.71453613,0.00531224
2339.64334351,0.00535428
2341.57215088,0.00536839
2343.50095825,0.00549699
2345.42976562,0.00553307
2347.35857300,0.00571090
2349.28738037,0.00592102
2351.21618774,0.00566494
2353.14499512,0.00539078
2355.07380249,0.00516962
2357.00260986,0.00498172
2358.93141724,0.00497242
2360.86022461,0.00484819
2362.78903198,0.00481917
2364.71783936,0.00490967
2366.64664673,0.00498351
2368.57545410,0.00506087
2370.50426147,0.00519595
2372.43306885,0.00533789
2374.36187622,0.00538970
2376.29068359,0.00559802
2378.21949097,0.00585300
2380.14829834,0.00594610
2382.07710571,0.00594252
2384.00591309,0.00599194
2385.93472046,0.00606055
2387.86352783,0.00609076
2389.79233521,0.00608425
2391.72114258,0.00600742
2393.64994995,0.00602732
2395.57875732,0.00602110
2397.50756470,0.00599154
2399.43637207,0.00598786
2401.36517944,0.00599548
2403.29398682,0.00597397
2405.22279419,0.00584411
2407.15160156,0.00596721
2409.08040894,0.00604607
2411.00921631,0.00586253
2412.93802368,0.00582239
2414.86683105,0.00589109
2416.79563843,0.00590998
2418.72444580,0.00582352
2420.65325317,0.00577971
2422.58206055,0.00588919
2424.51086792,0.00592494
2426.43967529,0.00581088
2428.36848267,0.00580390
2430.29729004,0.00576549
2432.22609741,0.00570468
2434.15490479,0.00580975
2436.08371216,0.00581539
2438.01251953,0.00575149
2439.94132690,0.00572090
2441.87013428,0.00577501
2443.79894165,0.00578197
2445.72774902,0.00572507
2447.65655640,0.00569397
2449.58536377,0.00567558
2451.51417114,0.00575746
2453.44297852,0.00569978
2455.37178589,0.00581362
2457.30059326,0.00582427
2459.22940063,0.00561330
2461.15820801,0.00577046
2463.08701538,0.00568287
2465.01582275,0.00562539
2466.94463013,0.00566468
2468.87343750,0.00546852
2470.80224487,0.00560658
2472.73105225,0.00567201
2474.65985962,0.00556479
2476.58866699,0.00554729
2478.51747437,0.00553212
2480.44628174,0.00561204
2482.37508911,0.00560593
2484.30389648,0.00555816
2486.23270386,0.00552183
2488.16151123,0.00539195
2490.09031860,0.00542841
2492.01912598,0.00550249
2493.94793335,0.00545777
2495.87674072,0.00549800
2497.80554810,0.00555070
2499.73435547,0.00561567
2501.66316284,0.00547685
2503.59197021,0.00532969
2505.52077759,0.00546534
2507.44958496,0.00547633
2509.37839233,0.00538591
2511.30719971,0.00528988
2513.23600708,0.00542007
2515.16481445,0.00553874
2517.09362183,0.00538189
2519.02242920,0.00536874
2520.95123657,0.00531183
2522.88004395,0.00530716
2524.80885132,0.00535268
2526.73765869,0.00530513
2528.66646606,0.00532298
2530.59527344,0.00528439
2532.52408081,0.00525071
2534.45288818,0.00530326
2536.38169556,0.00538424
2538.31050293,0.00525366
2540.23931030,0.00520651
2542.16811768,0.00534537
2544.09692505,0.00527151
2546.02573242,0.00524333
2547.95453979,0.00525624
2549.88334717,0.00522875
2551.81215454,0.00534592
2553.74096191,0.00538340
2555.66976929,0.00518317
2557.59857666,0.00516770
2559.52738403,0.00518066
2561.45619141,0.00506101
2563.38499878,0.00518037
2565.31380615,0.00511940
2567.24261353,0.00508357
2569.17142090,0.00517547
2571.10022827,0.00508502
2573.02903564,0.00510845
2574.95784302,0.00508090
2576.88665039,0.00505004
2578.81545776,0.00509099
2580.74426514,0.00515907
2582.67307251,0.00512954
2584.60187988,0.00509942
2586.53068726,0.00518323
2588.45949463,0.00505608
2590.38830200,0.00502079
2592.31710937,0.00502582
2594.24591675,0.00501454
2596.17472412,0.00502565
2598.10353149,0.00503792
2600.03233887,0.00511487
2601.96114624,0.00494307
2603.88995361,0.00495343
2605.81876099,0.00497452
2607.74756836,0.00492311
2609.67637573,0.00502273
2611.60518311,0.00489931
2613.53399048,0.00492329
2615.46279785,0.00489660
2617.39160522,0.00482592
2619.32041260,0.00493734
2621.24921997,0.00489889
2623.17802734,0.00487940
2625.10683472,0.00488555
2627.03564209,0.00491933
2628.96444946,0.00487138
2630.89325684,0.00483643
2632.82206421,0.00490572
2634.75087158,0.00482936
2636.67967895,0.00491928
2638.60848633,0.00499495
2640.53729370,0.00482368
2642.46610107,0.00483935
2644.39490845,0.00487378
2646.32371582,0.00479136
2648.25252319,0.00485251
2650.18133057,0.00481653
2652.11013794,0.00473079
2654.03894531,0.00479219
2655.96775269,0.00475499
2657.89656006,0.00477583
2659.82536743,0.00484393
2661.75417480,0.00478514
2663.68298218,0.00473894
2665.61178955,0.00466697
2667.54059692,0.00464451
2669.46940430,0.00465665
2671.39821167,0.00464122
2673.32701904,0.00464467
2675.25582642,0.00453660
2677.18463379,0.00455423
2679.11344116,0.00468085
2681.04224854,0.00462019
2682.97105591,0.00465907
2684.89986328,0.00466854
2686.82867065,0.00456576
2688.75747803,0.00460539
2690.68628540,0.00462510
2692.61509277,0.00460605
2694.54390015,0.00449274
2696.47270752,0.00444272
2698.40151489,0.00448861
2700.33032227,0.00447062
2702.25912964,0.00455214
2704.18793701,0.00453081
2706.11674438,0.00447773
2708.04555176,0.00451736
2709.97435913,0.00455749
2711.90316650,0.00451858
2713.83197388,0.00440728
2715.76078125,0.00451795
2717.68958862,0.00451509
2719.61839600,0.00442479
2721.54720337,0.00449733
2723.47601074,0.00442514
2725.40481812,0.00433741
2727.33362549,0.00437407
2729.26243286,0.00444320
2731.19124023,0.00441873
2733.12004761,0.00440547
2735.04885498,0.00445799
2736.97766235,0.00439304
2738.90646973,0.00431897
2740.83527710,0.00434875
2742.76408447,0.00433696
2744.69289185,0.00424849
2746.62169922,0.00432859
2748.55050659,0.00434917
2750.47931396,0.00424154
2752.40812134,0.00427796
2754.33692871,0.00431135
2756.26573608,0.00432365
2758.19454346,0.00425872
2760.12335083,0.00427734
2762.05215820,0.00433370
2763.98096558,0.00426350
2765.90977295,0.00431904
2767.83858032,0.00423750
2769.76738770,0.00414480
2771.69619507,0.00424144
2773.62500244,0.00424189
2775.55380981,0.00419690
2777.48261719,0.00415557
2779.41142456,0.00422579
2781.34023193,0.00422121
2783.26903931,0.00407085
2785.19784668,0.00413118
2787.12665405,0.00414020
2789.05546143,0.00406275
2790.98426880,0.00413366
2792.91307617,0.00408700
2794.84188354,0.00405488
2796.77069092,0.00408489
2798.69949829,0.00400865
2800.62830566,0.00405297
2802.55711304,0.00406725
2804.48592041,0.00397111
2806.41472778,0.00400184
2808.34353516,0.00408067
2810.27234253,0.00407472
2812.20114990,0.00403262
2814.12995728,0.00395215
2816.05876465,0.00389496
2817.98757202,0.00404387
2819.91637939,0.00402935
2821.84518677,0.00390008
2823.77399414,0.00395353
2825.70280151,0.00388627
2827.63160889,0.00394261
2829.56041626,0.00398673
2831.48922363,0.00388022
2833.41803101,0.00393278
2835.34683838,0.00387257
2837.27564575,0.00383958
2839.20445312,0.00386279
2841.13326050,0.00384186
2843.06206787,0.00386320
2844.99087524,0.00379941
2846.91968262,0.00377282
2848.84848999,0.00372047
2850.77729736,0.00374234
2852.70610474,0.00376316
2854.63491211,0.00368681
2856.56371948,0.00376482
2858.49252686,0.00366394
2860.42133423,0.00365994
2862.35014160,0.00375768
2864.27894897,0.00359190
2866.20775635,0.00369764
2868.13656372,0.00370281
2870.06537109,0.00355849
2871.99417847,0.00373176
2873.92298584,0.00373850
2875.85179321,0.00364885
2877.78060059,0.00368527
2879.70940796,0.00360421
2881.63821533,0.00350988
2883.56702270,0.00362634
2885.49583008,0.00367531
2887.42463745,0.00354631
2889.35344482,0.00345648
2891.28225220,0.00334975
2893.21105957,0.00344073
2895.13986694,0.00357271
2897.06867432,0.00353603
2898.99748169,0.00356086
2900.92628906,0.00349072
2902.85509644,0.00344026
2904.78390381,0.00342551
2906.71271118,0.00336644
2908.64151855,0.00340093
2910.57032593,0.00339364
2912.49913330,0.00341243
2914.42794067,0.00342497
2916.35674805,0.00335650
2918.28555542,0.00332861
2920.21436279,0.00335024
2922.14317017,0.00340930
2924.07197754,0.00338756
2926.00078491,0.00331461
2927.92959229,0.00333464
2929.85839966,0.00338162
2931.78720703,0.00332670
2933.71601440,0.00328303
2935.64482178,0.00335018
2937.57362915,0.00333914
2939.50243652,0.00335207
2941.43124390,0.00336390
2943.36005127,0.00325562
2945.28885864,0.00331922
2947.21766602,0.00332705
2949.14647339,0.00322354
2951.07528076,0.00328530
2953.00408813,0.00324342
2954.93289551,0.00314482
2956.86170288,0.00319843
2958.79051025,0.00320935
2960.71931763,0.00307277
2962.64812500,0.00312496
2964.57693237,0.00329013
2966.50573975,0.00322144
2968.43454712,0.00321958
2970.36335449,0.00318753
2972.29216187,0.00308138
2974.22096924,0.00316871
2976.14977661,0.00323416
2978.07858398,0.00315683
2980.00739136,0.00309414
2981.93619873,0.00322388
2983.86500610,0.00319718
2985.79381348,0.00312322
2987.72262085,0.00326124
2989.65142822,0.00312772
2991.58023560,0.00299997
2993.50904297,0.00308384
2995.43785034,0.00315018
2997.36665771,0.00317699
2999.29546509,0.00307867
3001.22427246,0.00303431
3003.15307983,0.00303395
3005.08188721,0.00297479
3007.01069458,0.00298539
3008.93950195,0.00310369
3010.86830933,0.00318879
3012.79711670,0.00310322
3014.72592407,0.00297329
3016.65473145,0.00299611
3018.58353882,0.00305666
3020.51234619,0.00301740
3022.44115356,0.00298107
3024.36996094,0.00289078
3026.29876831,0.00290200
3028.22757568,0.00302234
3030.15638306,0.00295029
3032.08519043,0.00294600
3034.01399780,0.00296509
3035.94280518,0.00284843
3037.87161255,0.00289430
3039.80041992,0.00290049
3041.72922729,0.00281356
3043.65803467,0.00286720
3045.58684204,0.00285277
3047.51564941,0.00287993
3049.44445679,0.00290654
3051.37326416,0.00277361
3053.30207153,0.00277923
3055.23087891,0.00277574
3057.15968628,0.00272600
3059.08849365,0.00272963
3061.01730103,0.00279238
3062.94610840,0.00281947
3064.87491577,0.00268325
3066.80372314,0.00274216
3068.73253052,0.00277246
3070.66133789,0.00269571
3072.59014526,0.00272620
3074.51895264,0.00270127
3076.44776001,0.00272193
3078.37656738,0.00272349
3080.30537476,0.00268789
3082.23418213,0.00264933
3084.16298950,0.00269162
3086.09179687,0.00266874
3088.02060425,0.00257080
3089.94941162,0.00263776
3091.87821899,0.00255527
3093.80702637,0.00253701
3095.73583374,0.00259653
3097.66464111,0.00257580
3099.59344849,0.00263094
3101.52225586,0.00258394
3103.45106323,0.00258345
3105.37987061,0.00254828
3107.30867798,0.00252480
3109.23748535,0.00264200
3111.16629272,0.00256278
3113.09510010,0.00245949
3115.02390747,0.00254275
3116.95271484,0.00254023
3118.88152222,0.00250586
3120.81032959,0.00253653
3122.73913696,0.00253292
3124.66794434,0.00263139
3126.59675171,0.00256235
3128.52555908,0.00244492
3130.45436645,0.00250068
3132.38317383,0.00249026
3134.31198120,0.00250095
3136.24078857,0.00243506
3138.16959595,0.00252119
3140.09840332,0.00250207
3142.02721069,0.00233947
3143.95601807,0.00251181
3145.88482544,0.00251375
3147.81363281,0.00248661
3149.74244019,0.00244136
3151.67124756,0.00232488
3153.60005493,0.00236583
3155.52886230,0.00225908
3157.45766968,0.00229045
3159.38647705,0.00240463
3161.31528442,0.00238787
3163.24409180,0.00238735
3165.17289917,0.00234900
3167.10170654,0.00233212
3169.03051392,0.00231381
3170.95932129,0.00232867
3172.88812866,0.00237728
3174.81693604,0.00228293
3176.74574341,0.00222449
3178.67455078,0.00232548
3180.60335815,0.00231943
3182.53216553,0.00230452
3184.46097290,0.00237438
3186.38978027,0.00236312
3188.31858765,0.00228924
3190.24739502,0.00227102
3192.17620239,0.00227974
3194.10500977,0.00222449
3196.03381714,0.00218336
3197.96262451,0.00208694
3199.89143188,0.00221223
3201.82023926,0.00238798
3203.74904663,0.00224373
3205.67785400,0.00227282
3207.60666138,0.00228802
3209.53546875,0.00220669
3211.46427612,0.00226112
3213.39308350,0.00230459
3215.32189087,0.00225179
3217.25069824,0.00218782
3219.17950562,0.00221726
3221.10831299,0.00214501
3223.03712036,0.00222389
3224.96592773,0.00226623
3226.89473511,0.00215478
3228.82354248,0.00222241
3230.75234985,0.00225245
3232.68115723,0.00223878
3234.60996460,0.00216760
3236.53877197,0.00224628
3238.46757935,0.00229618
3240.39638672,0.00225094
3242.32519409,0.00230600
3244.25400146,0.00222506
3246.18280884,0.00227389
3248.11161621,0.00224873
3250.04042358,0.00216492
3251.96923096,0.00220894
3253.89803833,0.00227167
3255.82684570,0.00237232
3257.75565308,0.00231903
3259.68446045,0.00225158
3261.61326782,0.00223904
3263.54207520,0.00233667
3265.47088257,0.00225118
3267.39968994,0.00224240
3269.32849731,0.00240797
3271.25730469,0.00228377
3273.18611206,0.00237329
3275.11491943,0.00229779
3277.04372681,0.00227961
3278.97253418,0.00247972
3280.90134155,0.00236538
3282.83014893,0.00240001
3284.75895630,0.00236756
3286.68776367,0.00237769
3288.61657104,0.00232037
3290.54537842,0.00228059
3292.47418579,0.00246344
3294.40299316,0.00229104
3296.33180054,0.00230760
3298.26060791,0.00239689
3300.18941528,0.00234760
3302.11822266,0.00238472
3304.04703003,0.00233618
3305.97583740,0.00240815
3307.90464478,0.00239163
3309.83345215,0.00236567
3311.76225952,0.00241937
3313.69106689,0.00238891
3315.61987427,0.00240333
3317.54868164,0.00237958
3319.47748901,0.00241796
3321.40629639,0.00247515
3323.33510376,0.00236233
3325.26391113,0.00240085
3327.19271851,0.00254673
3329.12152588,0.00251473
3331.05033325,0.00255308
3332.97914062,0.00249772
3334.90794800,0.00238810
3336.83675537,0.00251186
3338.76556274,0.00252470
3340.69437012,0.00246485
3342.62317749,0.00246150
3344.55198486,0.00248397
3346.48079224,0.00246802
3348.40959961,0.00246225
3350.33840698,0.00252173
3352.26721436,0.00244716
3354.19602173,0.00245864
3356.12482910,0.00251063
3358.05363647,0.00249982
3359.98244385,0.00244888
3361.91125122,0.00237983
3363.84005859,0.00251572
3365.76886597,0.00253946
3367.69767334,0.00251307
3369.62648071,0.00257277
3371.55528809,0.00249905
3373.48409546,0.00251658
3375.41290283,0.00262668
3377.34171020,0.00261222
3379.27051758,0.00256033
3381.19932495,0.00259548
3383.12813232,0.00255623
3385.05693970,0.00255986
3386.98574707,0.00266230
3388.91455444,0.00259242
3390.84336182,0.00252400
3392.77216919,0.00256108
3394.70097656,0.00260733
3396.62978394,0.00263313
3398.55859131,0.00263462
3400.48739868,0.00256125
3402.41620605,0.00253672
3404.34501343,0.00261738
3406.27382080,0.00259176
3408.20262817,0.00269029
3410.13143555,0.00271471
3412.06024292,0.00264256
3413.98905029,0.00278025
3415.91785767,0.00271392
3417.84666504,0.00270263
3419.77547241,0.00274252
3421.70427979,0.00259582
3423.63308716,0.00269595
3425.56189453,0.00276012
3427.49070190,0.00272534
3429.41950928,0.00274611
3431.34831665,0.00266926
3433.27712402,0.00271161
3435.20593140,0.00273552
3437.13473877,0.00272162
3439.06354614,0.00280044
3440.99235352,0.00272179
3442.92116089,0.00270252
3444.84996826,0.00276657
3446.77877563,0.00275683
3448.70758301,0.00277688
3450.63639038,0.00276764
3452.56519775,0.00279708
3454.49400513,0.00274207
3456.42281250,0.00275817
3458.35161987,0.00287215
3460.28042725,0.00278880
3462.20923462,0.00279443
3464.13804199,0.00280368
3466.06684937,0.00281011
3467.99565674,0.00284757
3469.92446411,0.00278208
3471.85327148,0.00280603
3473.78207886,0.00278148
3475.71088623,0.00273268
3477.63969360,0.00277694
3479.56850098,0.00288211
3481.49730835,0.00285907
3483.42611572,0.00279493
3485.35492310,0.00288987
3487.28373047,0.00285116
3489.21253784,0.00283962
3491.14134521,0.00284131
3493.07015259,0.00281578
3494.99895996,0.00284297
3496.92776733,0.00283020
3498.85657471,0.00291625
3500.78538208,0.00284572
3502.71418945,0.00279309
3504.64299683,0.00290797
3506.57180420,0.00292339
3508.50061157,0.00286067
3510.42941895,0.00283787
3512.35822632,0.00292938
3514.28703369,0.00290678
3516.21584106,0.00291561
3518.14464844,0.00293746
3520.07345581,0.00289473
3522.00226318,0.00291501
3523.93107056,0.00287790
3525.85987793,0.00290050
3527.78868530,0.00288843
3529.71749268,0.00291552
3531.64630005,0.00290591
3533.57510742,0.00289347
3535.50391479,0.00298315
3537.43272217,0.00287885
3539.36152954,0.00296214
3541.29033691,0.00301006
3543.21914429,0.00287345
3545.14795166,0.00284228
3547.07675903,0.00281249
3549.00556641,0.00295407
3550.93437378,0.00294681
3552.86318115,0.00287180
3554.79198853,0.00295122
3556.72079590,0.00292849
3558.64960327,0.00289992
3560.57841064,0.00291288
3562.50721802,0.00298562
3564.43602539,0.00289499
3566.36483276,0.00267113
3568.29364014,0.00274063
3570.22244751,0.00292878
3572.15125488,0.00292667
3574.08006226,0.00291449
3576.00886963,0.00289343
3577.93767700,0.00288078
3579.86648437,0.00295864
3581.79529175,0.00288996
3583.72409912,0.00296946
3585.65290649,0.00293151
3587.58171387,0.00262471
3589.51052124,0.00276524
3591.43932861,0.00290753
3593.36813599,0.00280744
3595.29694336,0.00288758
3597.22575073,0.00301750
3599.15455811,0.00286513
3601.08336548,0.00278135
3603.01217285,0.00294551
3604.94098022,0.00289264
3606.86978760,0.00288508
3608.79859497,0.00275566
3610.72740234,0.00268764
3612.65620972,0.00279205
3614.58501709,0.00271638
3616.51382446,0.00284282
3618.44263184,0.00262730
3620.37143921,0.00265201
3622.30024658,0.00287061
3624.22905395,0.00274435
3626.15786133,0.00298273
3628.08666870,0.00247743
3630.01547607,0.00226597
3631.94428345,0.00282471
3633.87309082,0.00273377
3635.80189819,0.00289604
3637.73070557,0.00294444
3639.65951294,0.00281148
3641.58832031,0.00291688
3643.51712769,0.00291880
3645.44593506,0.00286721
3647.37474243,0.00260293
3649.30354980,0.00246247
3651.23235718,0.00248925
3653.16116455,0.00285830
3655.08997192,0.00285373
3657.01877930,0.00249770
3658.94758667,0.00282701
3660.87639404,0.00285039
3662.80520142,0.00279983
3664.73400879,0.00282967
3666.66281616,0.00278130
3668.59162354,0.00270293
3670.52043091,0.00226762
3672.44923828,0.00257014
3674.37804565,0.00254338
3676.30685303,0.00223104
3678.23566040,0.00272670
3680.16446777,0.00272410
3682.09327515,0.00266440
3684.02208252,0.00281321
3685.95088989,0.00272402
3687.87969727,0.00239187
3689.80850464,0.00225009
3691.73731201,0.00256108
3693.66611938,0.00266674
3695.59492676,0.00278413
3697.52373413,0.00266491
3699.45254150,0.00260665
3701.38134888,0.00258327
3703.31015625,0.00240965
3705.23896362,0.00271185
3707.16777100,0.00257652
3709.09657837,0.00247437
3711.02538574,0.00240832
3712.95419312,0.00221925
3714.88300049,0.00258533
3716.81180786,0.00259618
3718.74061523,0.00258188
3720.66942261,0.00251231
3722.59822998,0.00240306
3724.52703735,0.00239115
3726.45584473,0.00228407
3728.38465210,0.00256019
3730.31345947,0.00241508
3732.24226685,0.00228389
3734.17107422,0.00227043
3736.09988159,0.00206962
3738.02868896,0.00224539
3739.95749634,0.00241699
3741.88630371,0.00246091
3743.81511108,0.00190916
3745.74391846,0.00184876
3747.67272583,0.00239463
3749.60153320,0.00206073
3751.53034058,0.00194985
3753.45914795,0.00218714
3755.38795532,0.00235165
3757.31676270,0.00242333
3759.24557007,0.00215390
3761.17437744,0.00227013
3763.10318481,0.00241020
3765.03199219,0.00228689
3766.96079956,0.00239703
3768.88960693,0.00234236
3770.81841431,0.00225585
3772.74722168,0.00241629
3774.67602905,0.00241529
3776.60483643,0.00239831
3778.53364380,0.00229412
3780.46245117,0.00216403
3782.39125854,0.00234213
3784.32006592,0.00237851
3786.24887329,0.00222381
3788.17768066,0.00224945
3790.10648804,0.00233327
3792.03529541,0.00229623
3793.96410278,0.00229218
3795.89291016,0.00212540
3797.82171753,0.00223131
3799.75052490,0.00226300
3801.67933228,0.00176136
3803.60813965,0.00221654
3805.53694702,0.00223295
3807.46575439,0.00185741
3809.39456177,0.00235480
3811.32336914,0.00223081
3813.25217651,0.00228619
3815.18098389,0.00201068
3817.10979126,0.00181823
3819.03859863,0.00227370
3820.96740601,0.00178898
3822.89621338,0.00194227
3824.82502075,0.00219915
3826.75382812,0.00201189
3828.68263550,0.00226550
3830.61144287,0.00218399
3832.54025024,0.00204288
3834.46905762,0.00200031
3836.39786499,0.00195241
3838.32667236,0.00178740
3840.25547974,0.00195305
3842.18428711,0.00209492
3844.11309448,0.00197359
3846.04190186,0.00219845
3847.97070923,0.00207213
3849.89951660,0.00210157
3851.82832397,0.00186452
3853.75713135,0.00132107
3855.68593872,0.00174193
3857.61474609,0.00204252
3859.54355347,0.00201305
3861.47236084,0.00203788
3863.40116821,0.00189215
3865.32997559,0.00189091
3867.25878296,0.00201224
3869.18759033,0.00183637
3871.11639770,0.00173440
3873.04520508,0.00195837
3874.97401245,0.00187364
3876.90281982,0.00197603
3878.83162720,0.00205701
3880.76043457,0.00187693
3882.68924194,0.00206666
3884.61804932,0.00190804
3886.54685669,0.00177856
3888.47566406,0.00201719
3890.40447144,0.00193953
3892.33327881,0.00187412
3894.26208618,0.00189800
3896.19089355,0.00199082
3898.11970093,0.00200726
3900.04850830,0.00177897
3901.97731567,0.00177813
3903.90612305,0.00177542
3905.83493042,0.00179338
3907.76373779,0.00200453
3909.69254517,0.00186840
3911.62135254,0.00183484
3913.55015991,0.00196442
3915.47896728,0.00188747
3917.40777466,0.00190976
3919.33658203,0.00186916
3921.26538940,0.00191002
3923.19419678,0.00198008
3925.12300415,0.00186942
3927.05181152,0.00188764
3928.98061890,0.00187985
3930.90942627,0.00178392
3932.83823364,0.00183091
3934.76704102,0.00194126
3936.69584839,0.00190259
3938.62465576,0.00187168
3940.55346313,0.00187450
3942.48227051,0.00186390
3944.41107788,0.00193775
3946.33988525,0.00184198
3948.26869263,0.00178254
3950.19750000,0.00189803
3952.12630737,0.00189333
3954.05511475,0.00183504
3955.98392212,0.00183869
3957.91272949,0.00185744
3959.84153687,0.00180302
3961.77034424,0.00177814
3963.69915161,0.00184364
3965.62795898,0.00191097
3967.55676636,0.00187692
3969.48557373,0.00184981
3971.41438110,0.00185445
3973.34318848,0.00175015
3975.27199585,0.00180247
3977.20080322,0.00187760
3979.12961060,0.00185697
3981.05841797,0.00184184
3982.98722534,0.00170511
3984.91603271,0.00173722
3986.84484009,0.00181975
3988.77364746,0.00177266
3990.70245483,0.00180071
3992.63126221,0.00176575
3994.56006958,0.00170732
3996.48887695,0.00172577
3998.41768433,0.00174456
4000.34649170,0.00178517
4002.27529907,0.00179537
4004.20410645,0.00174875
4006.13291382,0.00168160
4008.06172119,0.00168384
4009.99052856,0.00185230
4011.91933594,0.00183826
4013.84814331,0.00168277
4015.77695068,0.00172442
4017.70575806,0.00173489
4019.63456543,0.00173264
4021.56337280,0.00169992
4023.49218018,0.00171183
4025.42098755,0.00178139
4027.34979492,0.00172110
4029.27860229,0.00174092
4031.20740967,0.00167061
4033.13621704,0.00169629
4035.06502441,0.00174879
4036.99383179,0.00158169
4038.92263916,0.00165294
4040.85144653,0.00169749
4042.78025391,0.00169331
4044.70906128,0.00169660
4046.63786865,0.00158445
4048.56667603,0.00163274
4050.49548340,0.00173349
4052.42429077,0.00175199
4054.35309814,0.00168205
4056.28190552,0.00168960
4058.21071289,0.00164148
4060.13952026,0.00157908
4062.06832764,0.00170887
4063.99713501,0.00167130
4065.92594238,0.00158292
4067.85474976,0.00159211
4069.78355713,0.00161676
4071.71236450,0.00158708
4073.64117187,0.00152087
4075.56997925,0.00156436
4077.49878662,0.00158445
4079.42759399,0.00153105
4081.35640137,0.00152216
4083.28520874,0.00163162
4085.21401611,0.00160613
4087.14282349,0.00153190
4089.07163086,0.00160510
4091.00043823,0.00162446
4092.92924561,0.00161308
4094.85805298,0.00161793
4096.78686035,0.00166626
4098.71566772,0.00157929
4100.64447510,0.00155743
4102.57328247,0.00162469
4104.50208984,0.00152777
4106.43089722,0.00157175
4108.35970459,0.00158683
4110.28851196,0.00154112
4112.21731934,0.00147297
4114.14612671,0.00148575
4116.07493408,0.00155811
4118.00374145,0.00144645
4119.93254883,0.00151965
4121.86135620,0.00150599
4123.79016357,0.00148598
4125.71897095,0.00157055
4127.64777832,0.00146007
4129.57658569,0.00149270
4131.50539307,0.00149427
4133.43420044,0.00146277
4135.36300781,0.00154125
4137.29181519,0.00155246
4139.22062256,0.00152083
4141.14942993,0.00156871
4143.07823730,0.00154984
4145.00704468,0.00142681
4146.93585205,0.00146594
4148.86465942,0.00144350
4150.79346680,0.00151416
4152.72227417,0.00158569
4154.65108154,0.00145852
4156.57988892,0.00150668
4158.50869629,0.00148852
4160.43750366,0.00145077
4162.36631103,0.00147164
4164.29511841,0.00140890
4166.22392578,0.00141772
4168.15273315,0.00144183
4170.08154053,0.00137616
4172.01034790,0.00138722
4173.93915527,0.00150083
4175.86796265,0.00145797
4177.79677002,0.00144868
4179.72557739,0.00145844
4181.65438477,0.00142509
4183.58319214,0.00145957
4185.51199951,0.00140717
4187.44080688,0.00140501
4189.36961426,0.00142387
4191.29842163,0.00142033
4193.22722900,0.00140084
4195.15603638,0.00135297
4197.08484375,0.00131833
4199.01365112,0.00132234
4200.94245850,0.00145055
4202.87126587,0.00142450
4204.80007324,0.00135257
4206.72888062,0.00141025
4208.65768799,0.00140572
4210.58649536,0.00138437
4212.51530273,0.00136293
4214.44411011,0.00138459
4216.37291748,0.00139862
4218.30172485,0.00132126
4220.23053223,0.00131780
4222.15933960,0.00137181
4224.08814697,0.00131278
4226.01695435,0.00129623
4227.94576172,0.00132082
4229.87456909,0.00132276
4231.80337646,0.00133925
4233.73218384,0.00128057
4235.66099121,0.00133672
4237.58979858,0.00138681
4239.51860596,0.00137173
4241.44741333,0.00138372
4243.37622070,0.00132287
4245.30502808,0.00126994
4247.23383545,0.00124033
4249.16264282,0.00138327
4251.09145020,0.00140597
4253.02025757,0.00126869
4254.94906494,0.00130831
4256.87787231,0.00132441
4258.80667969,0.00127416
4260.73548706,0.00121320
4262.66429443,0.00126908
4264.59310181,0.00130128
4266.52190918,0.00127020
4268.45071655,0.00125747
4270.37952393,0.00123276
4272.30833130,0.00128002
4274.23713867,0.00122874
4276.16594604,0.00127310
4278.09475342,0.00124824
4280.02356079,0.00120206
4281.95236816,0.00132888
4283.88117554,0.00124761
4285.80998291,0.00126359
4287.73879028,0.00125626
4289.66759766,0.00119911
4291.59640503,0.00125886
4293.52521240,0.00120557
4295.45401978,0.00122957
4297.38282715,0.00125378
4299.31163452,0.00126238
4301.24044189,0.00125727
4303.16924927,0.00124413
4305.09805664,0.00127118
4307.02686401,0.00123168
4308.95567139,0.00120083
4310.88447876,0.00120431
4312.81328613,0.00124349
4314.74209351,0.00117092
4316.67090088,0.00120470
4318.59970825,0.00131883
4320.52851562,0.00119841
4322.45732300,0.00118538
4324.38613037,0.00119682
4326.31493774,0.00112109
4328.24374512,0.00113301
4330.17255249,0.00118256
4332.10135986,0.00117848
4334.03016724,0.00112829
4335.95897461,0.00121638
4337.88778198,0.00124473
4339.81658936,0.00115521
4341.74539673,0.00115986
4343.67420410,0.00122490
4345.60301147,0.00126292
4347.53181885,0.00116772
4349.46062622,0.00111717
4351.38943359,0.00114983
4353.31824097,0.00110819
4355.24704834,0.00108924
4357.17585571,0.00114875
4359.10466309,0.00121097
4361.03347046,0.00117604
4362.96227783,0.00114460
4364.89108520,0.00117022
4366.81989258,0.00114829
4368.74869995,0.00110775
4370.67750732,0.00113706
4372.60631470,0.00114838
4374.53512207,0.00105891
4376.46392944,0.00107940
4378.39273682,0.00112227
4380.32154419,0.00110589
4382.25035156,0.00111783
4384.17915894,0.00109545
4386.10796631,0.00108767
4388.03677368,0.00106533
4389.96558105,0.00115249
4391.89438843,0.00111796
4393.82319580,0.00104411
4395.75200317,0.00120068
4397.68081055,0.00110250
4399.60961792,0.00112139
4401.53842529,0.00117925
4403.46723267,0.00102987
4405.39604004,0.00110046
4407.32484741,0.00105751
4409.25365478,0.00106808
4411.18246216,0.00112824
4413.11126953,0.00101719
4415.04007690,0.00099994
4416.96888428,0.00108595
4418.89769165,0.00108676
4420.82649902,0.00095296
4422.75530640,0.00107800
4424.68411377,0.00108894
4426.61292114,0.00096434
4428.54172852,0.00108920
4430.47053589,0.00104083
4432.39934326,0.00100893
4434.32815063,0.00101825
4436.25695801,0.00096649
4438.18576538,0.00101645
4440.11457275,0.00105865
4442.04338013,0.00106169
4443.97218750,0.00107247
4445.90099487,0.00114877
4447.82980225,0.00107110
4449.75860962,0.00098123
4451.68741699,0.00106402
4453.61622437,0.00108618
4455.54503174,0.00105269
4457.47383911,0.00105783
4459.40264648,0.00103860
4461.33145386,0.00099577
4463.26026123,0.00111243
4465.18906860,0.00109767
4467.11787598,0.00097707
4469.04668335,0.00103677
4470.97549072,0.00099266
4472.90429810,0.00095540
4474.83310547,0.00100369
4476.76191284,0.00098012
4478.69072021,0.00091959
4480.61952759,0.00098294
4482.54833496,0.00106276
4484.47714233,0.00100364
4486.40594971,0.00103785
4488.33475708,0.00099118
4490.26356445,0.00090584
4492.19237183,0.00097522
4494.12117920,0.00103677
4496.04998657,0.00103128
4497.97879395,0.00098776
4499.90760132,0.00102843
4501.83640869,0.00099520
4503.76521606,0.00100081
4505.69402344,0.00107167
4507.62283081,0.00098889
4509.55163818,0.00095187
4511.48044556,0.00094655
4513.40925293,0.00097521
4515.33806030,0.00098794
4517.26686768,0.00100204
4519.19567505,0.00101078
4521.12448242,0.00090563
4523.05328979,0.00094996
4524.98209717,0.00100030
4526.91090454,0.00097336
4528.83971191,0.00099324
4530.76851929,0.00098722
4532.69732666,0.00094977
4534.62613403,0.00091980
4536.55494141,0.00096558
4538.48374878,0.00092549
4540.41255615,0.00091733
4542.34136353,0.00098707
4544.27017090,0.00096691
4546.19897827,0.00098372
4548.12778564,0.00095786
4550.05659302,0.00089198
4551.98540039,0.00089369
4553.91420776,0.00092174
4555.84301514,0.00092097
4557.77182251,0.00094728
4559.70062988,0.00094195
4561.62943726,0.00089533
4563.55824463,0.00092288
4565.48705200,0.00082937
4567.41585937,0.00085946
4569.34466675,0.00098520
4571.27347412,0.00094643
4573.20228149,0.00097630
4575.13108887,0.00093264
4577.05989624,0.00088432
4578.98870361,0.00088987
4580.91751099,0.00089207
4582.84631836,0.00092375
4584.77512573,0.00092516
4586.70393311,0.00092884
4588.63274048,0.00084680
4590.56154785,0.00084620
4592.49035522,0.00084171
4594.41916260,0.00083637
4596.34796997,0.00090924
4598.27677734,0.00085774
4600.20558472,0.00086333
4602.13439209,0.00085440
4604.06319946,0.00087056
4605.99200684,0.00086543
4607.92081421,0.00082676
4609.84962158,0.00092238
4611.77842895,0.00086208
4613.70723633,0.00083119
4615.63604370,0.00084423
4617.56485107,0.00081794
4619.49365845,0.00089549
4621.42246582,0.00087606
4623.35127319,0.00082388
4625.28008057,0.00083115
4627.20888794,0.00085599
4629.13769531,0.00085587
4631.06650269,0.00084734
4632.99531006,0.00083453
4634.92411743,0.00080641
4636.85292480,0.00082437
4638.78173218,0.00083960
4640.71053955,0.00089188
4642.63934692,0.00090098
4644.56815430,0.00079029
4646.49696167,0.00077683
4648.42576904,0.00085193
4650.35457642,0.00076610
4652.28338379,0.00068803
4654.21219116,0.00078507
4656.14099853,0.00081747
4658.06980591,0.00078918
4659.99861328,0.00081214
4661.92742065,0.00084486
4663.85622803,0.00079161
4665.78503540,0.00077306
4667.71384277,0.00086397
4669.64265015,0.00088923
4671.57145752,0.00085391
4673.50026489,0.00077018
4675.42907227,0.00077772
4677.35787964,0.00082451
4679.28668701,0.00080068
4681.21549438,0.00079696
4683.14430176,0.00076655
4685.07310913,0.00080724
4687.00191650,0.00080503
4688.93072388,0.00077707
4690.85953125,0.00081565
4692.78833862,0.00079666
4694.71714600,0.00079682
4696.64595337,0.00076947
4698.57476074,0.00081621
4700.50356812,0.00087631
4702.43237549,0.00076719
4704.36118286,0.00074059
4706.28999023,0.00079022
4708.21879761,0.00076264
4710.14760498,0.00074653
4712.07641235,0.00076634
4714.00521973,0.00079398
4715.93402710,0.00079145
4717.86283447,0.00076226
4719.79164185,0.00079615
4721.72044922,0.00081386
4723.64925659,0.00081543
4725.57806396,0.00080713
4727.50687134,0.00075419
4729.43567871,0.00078489
4731.36448608,0.00076481
4733.29329346,0.00069083
4735.22210083,0.00072998
4737.15090820,0.00079499
4739.07971558,0.00075480
4741.00852295,0.00068469
4742.93733032,0.00070522
4744.86613770,0.00071963
4746.79494507,0.00073744
4748.72375244,0.00075200
4750.65255981,0.00076952
4752.58136719,0.00074737
4754.51017456,0.00067701
4756.43898193,0.00069099
4758.36778931,0.00065787
4760.29659668,0.00072754
4762.22540405,0.00083123
4764.15421143,0.00073760
4766.08301880,0.00071374
4768.01182617,0.00070031
4769.94063354,0.00065967
4771.86944092,0.00074204
4773.79824829,0.00074893
4775.72705566,0.00067942
4777.65586304,0.00068528
4779.58467041,0.00063687
4781.51347778,0.00064116
4783.44228516,0.00066794
4785.37109253,0.00063312
4787.29989990,0.00070042
4789.22870728,0.00067988
4791.15751465,0.00068363
4793.08632202,0.00071706
4795.01512939,0.00071045
4796.94393677,0.00078663
4798.87274414,0.00069865
4800.80155151,0.00065216
4802.73035889,0.00076502
4804.65916626,0.00077527
4806.58797363,0.00065283
4808.51678101,0.00061116
4810.44558838,0.00070557
4812.37439575,0.00072313
4814.30320312,0.00070880
4816.23201050,0.00065150
4818.16081787,0.00062807
4820.08962524,0.00062852
4822.01843262,0.00064612
4823.94723999,0.00071553
4825.87604736,0.00062843
4827.80485474,0.00061485
4829.73366211,0.00067769
4831.66246948,0.00066254
4833.59127686,0.00064446
4835.52008423,0.00066507
4837.44889160,0.00070830
4839.37769897,0.00063048
4841.30650635,0.00064611
4843.23531372,0.00070172
4845.16412109,0.00063629
4847.09292847,0.00065012
4849.02173584,0.00065891
4850.95054321,0.00065506
4852.87935059,0.00070566
4854.80815796,0.00068523
4856.73696533,0.00064281
4858.66577270,0.00063913
4860.59458008,0.00064984
4862.52338745,0.00067335
4864.45219482,0.00060914
4866.38100220,0.00058781
4868.30980957,0.00065172
4870.23861694,0.00068631
4872.16742432,0.00069805
4874.09623169,0.00065260
4876.02503906,0.00065845
4877.95384644,0.00060658
4879.88265381,0.00057141
4881.81146118,0.00059961
4883.74026855,0.00057997
4885.66907593,0.00066590
4887.59788330,0.00063978
4889.52669067,0.00058866
4891.45549805,0.00061543
4893.38430542,0.00061605
4895.31311279,0.00060579
4897.24192017,0.00059604
4899.17072754,0.00069626
4901.09953491,0.00063932
4903.02834228,0.00059803
4904.95714966,0.00063723
4906.88595703,0.00059537
4908.81476440,0.00066958
4910.74357178,0.00065104
4912.67237915,0.00061959
4914.60118652,0.00057018
4916.52999390,0.00050514
4918.45880127,0.00063277
4920.38760864,0.00062497
4922.31641602,0.00055590
4924.24522339,0.00062110
4926.17403076,0.00058807
4928.10283813,0.00057300
4930.03164551,0.00063080
4931.96045288,0.00059404
4933.88926025,0.00059464
4935.81806763,0.00056332
4937.74687500,0.00057089
4939.67568237,0.00060972
4941.60448975,0.00053206
4943.53329712,0.00057946
4945.46210449,0.00055081
4947.39091187,0.00055550
4949.31971924,0.00060035
4951.24852661,0.00052827
4953.17733398,0.00063651
4955.10614136,0.00062737
4957.03494873,0.00057978
4958.96375610,0.00057956
4960.89256348,0.00053309
4962.82137085,0.00056565
4964.75017822,0.00049215
4966.67898560,0.00054436
4968.60779297,0.00062355
4970.53660034,0.00052667
4972.46540771,0.00056350
4974.39421509,0.00060589
4976.32302246,0.00062339
4978.25182983,0.00071190
4980.18063721,0.00056490
4982.10944458,0.00048495
4984.03825195,0.00059165
4985.96705933,0.00049559
4987.89586670,0.00053401
4989.82467407,0.00053048
4991.75348145,0.00052277
4993.68228882,0.00065474
4995.61109619,0.00047716
4997.53990356,0.00047595
4999.46871094,0.00054052
5001.39751831,0.00045185
5003.32632568,0.00049902
5005.25513306,0.00051668
5007.18394043,0.00054310
5009.11274780,0.00052120
5011.04155518,0.00053112
5012.97036255,0.00054901
5014.89916992,0.00049953
5016.82797729,0.00049219
5018.75678467,0.00049140
5020.68559204,0.00049785
5022.61439941,0.00051412
5024.54320679,0.00056953
5026.47201416,0.00052092
5028.40082153,0.00054084
5030.32962891,0.00058714
5032.25843628,0.00054402
5034.18724365,0.00059734
5036.11605103,0.00051140
5038.04485840,0.00050154
5039.97366577,0.00050275
5041.90247314,0.00045026
5043.83128052,0.00058307
5045.76008789,0.00053283
5047.68889526,0.00048271
5049.61770264,0.00054405
5051.54651001,0.00052949
5053.47531738,0.00050297
5055.40412476,0.00048735
5057.33293213,0.00052892
5059.26173950,0.00049212
5061.19054687,0.00046406
5063.11935425,0.00053758
5065.04816162,0.00051895
5066.97696899,0.00045741
5068.90577637,0.00049623
5070.83458374,0.00047764
5072.76339111,0.00038379
5074.69219849,0.00039689
5076.62100586,0.00048419
5078.54981323,0.00052324
5080.47862061,0.00043258
5082.40742798,0.00046052
5084.33623535,0.00054001
5086.26504272,0.00044987
5088.19385010,0.00048802
5090.12265747,0.00057510
5092.05146484,0.00052767
5093.98027222,0.00045810
5095.90907959,0.00046279
5097.83788696,0.00048689
5099.76669434,0.00046674
5101.69550171,0.00045679
5103.62430908,0.00047992
5105.55311645,0.00054001
5107.48192383,0.00049554
5109.41073120,0.00049334
5111.33953857,0.00050853
5113.26834595,0.00044334
5115.19715332,0.00052159
5117.12596069,0.00048591
5119.05476807,0.00043246
5120.98357544,0.00050762
5122.91238281,0.00051296
5124.84119019,0.00049017
5126.76999756,0.00045271
5128.69880493,0.00047996
5130.62761230,0.00043453
5132.55641968,0.00040724
5134.48522705,0.00046574
5136.41403442,0.00043832
5138.34284180,0.00046509
5140.27164917,0.00042378
5142.20045654,0.00038676
5144.12926392,0.00043255
5146.05807129,0.00038873
5147.98687866,0.00042383
5149.91568603,0.00049923
5151.84449341,0.00046952
5153.77330078,0.00046049
5155.70210815,0.00042836
5157.63091553,0.00035505
5159.55972290,0.00039433
5161.48853027,0.00041025
5163.41733765,0.00045298
5165.34614502,0.00048566
5167.27495239,0.00038816
5169.20375977,0.00040195
5171.13256714,0.00038085
5173.06137451,0.00044137
5174.99018188,0.00051345
5176.91898926,0.00040375
5178.84779663,0.00047190
5180.77660400,0.00045362
5182.70541138,0.00041802
5184.63421875,0.00045894
5186.56302612,0.00037765
5188.49183350,0.00043772
5190.42064087,0.00042934
5192.34944824,0.00040515
5194.27825562,0.00046972
5196.20706299,0.00037545
5198.13587036,0.00036820
5200.06467773,0.00049734
5201.99348511,0.00044883
5203.92229248,0.00033846
5205.85109985,0.00040429
5207.77990723,0.00036307
5209.70871460,0.00032738
5211.63752197,0.00048570
5213.56632935,0.00043717
5215.49513672,0.00035399
5217.42394409,0.00041966
5219.35275146,0.00041323
5221.28155884,0.00043003
5223.21036621,0.00044956
5225.13917358,0.00038781
5227.06798096,0.00042308
5228.99678833,0.00045113
5230.92559570,0.00036133
5232.85440308,0.00034941
5234.78321045,0.00038304
5236.71201782,0.00040697
5238.64082520,0.00039239
5240.56963257,0.00036952
5242.49843994,0.00042052
5244.42724731,0.00043413
5246.35605469,0.00042557
5248.28486206,0.00041929
5250.21366943,0.00041462
5252.14247681,0.00038191
5254.07128418,0.00034262
5256.00009155,0.00038521
5257.92889893,0.00039571
5259.85770630,0.00037968
5261.78651367,0.00039617
5263.71532104,0.00041265
5265.64412842,0.00040106
5267.57293579,0.00041250
5269.50174316,0.00039821
5271.43055054,0.00032921
5273.35935791,0.00037675
5275.28816528,0.00035724
5277.21697266,0.00033937
5279.14578003,0.00039272
5281.07458740,0.00035313
5283.00339478,0.00043328
5284.93220215,0.00038732
5286.86100952,0.00029144
5288.78981689,0.00037410
5290.71862427,0.00032837
5292.64743164,0.00036603
5294.57623901,0.00044644
5296.50504639,0.00039970
5298.43385376,0.00038157
5300.36266113,0.00035385
5302.29146851,0.00040229
5304.22027588,0.00037785
5306.14908325,0.00026051
5308.07789062,0.00033241
5310.00669800,0.00036226
5311.93550537,0.00033582
5313.86431274,0.00038186
5315.79312012,0.00034296
5317.72192749,0.00034422
5319.65073486,0.00040567
5321.57954224,0.00044312
5323.50834961,0.00036768
5325.43715698,0.00029779
5327.36596436,0.00037564
5329.29477173,0.00036323
5331.22357910,0.00039997
5333.15238647,0.00038462
5335.08119385,0.00033201
5337.01000122,0.00040868
5338.93880859,0.00036042
5340.86761597,0.00043927
5342.79642334,0.00042988
5344.72523071,0.00036742
5346.65403809,0.00047148
5348.58284546,0.00037690
5350.51165283,0.00037810
5352.44046020,0.00035960
5354.36926758,0.00030858
5356.29807495,0.00035625
5358.22688232,0.00028195
5360.15568970,0.00033332
5362.08449707,0.00039546
5364.01330444,0.00040949
5365.94211182,0.00041005
5367.87091919,0.00037829
5369.79972656,0.00033314
5371.72853394,0.00024927
5373.65734131,0.00031591
5375.58614868,0.00034348
5377.51495605,0.00036348
5379.44376343,0.00039939
5381.37257080,0.00031951
5383.30137817,0.00029190
5385.23018555,0.00024018
5387.15899292,0.00026054
5389.08780029,0.00033075
5391.01660767,0.00030827
5392.94541504,0.00029639
5394.87422241,0.00030908
5396.80302978,0.00034066
5398.73183716,0.00029627
5400.66064453,0.00024953
5402.58945190,0.00026390
5404.51825928,0.00029379
5406.44706665,0.00034603
5408.37587402,0.00030295
5410.30468140,0.00026985
5412.23348877,0.00029410
5414.16229614,0.00030913
5416.09110352,0.00035163
5418.01991089,0.00032187
5419.94871826,0.00031720
5421.87752563,0.00034126
5423.80633301,0.00030566
5425.73514038,0.00035554
5427.66394775,0.00036573
5429.59275513,0.00030605
5431.52156250,0.00031034
5433.45036987,0.00028031
5435.37917725,0.00025029
5437.30798462,0.00028780
5439.23679199,0.00033944
5441.16559936,0.00030861
5443.09440674,0.00025352
5445.02321411,0.00031845
5446.95202148,0.00031355
5448.88082886,0.00024968
5450.80963623,0.00027563
5452.73844360,0.00026030
5454.66725098,0.00027365
5456.59605835,0.00030159
5458.52486572,0.00026090
5460.45367310,0.00026479
5462.38248047,0.00026846
5464.31128784,0.00032153
5466.24009521,0.00038177
5468.16890259,0.00028838
5470.09770996,0.00021084
5472.02651733,0.00024662
5473.95532471,0.00030929
5475.88413208,0.00028713
5477.81293945,0.00027450
5479.74174683,0.00033511
5481.67055420,0.00029847
5483.59936157,0.00028187
5485.52816895,0.00033929
5487.45697632,0.00033892
5489.38578369,0.00027831
5491.31459106,0.00027200
5493.24339844,0.00031715
5495.17220581,0.00031963
5497.10101318,0.00034113
5499.02982056,0.00030016
5500.95862793,0.00027850
5502.88743530,0.00028312
5504.81624268,0.00020857
5506.74505005,0.00027973
5508.67385742,0.00033607
5510.60266479,0.00030576
5512.53147217,0.00033271
5514.46027954,0.00027599
5516.38908691,0.00029962
5518.31789429,0.00035355
5520.24670166,0.00022790
5522.17550903,0.00024504
5524.10431641,0.00028989
5526.03312378,0.00019701
5527.96193115,0.00024072
5529.89073853,0.00024233
5531.81954590,0.00022444
5533.74835327,0.00029713
5535.67716064,0.00028641
5537.60596802,0.00024639
5539.53477539,0.00020795
5541.46358276,0.00024841
5543.39239014,0.00031200
5545.32119751,0.00031071
5547.25000488,0.00027425
5549.17881226,0.00026449
5551.10761963,0.00030376
5553.03642700,0.00022290
5554.96523437,0.00022225
5556.89404175,0.00032989
5558.82284912,0.00030462
5560.75165649,0.00024901
5562.68046387,0.00026805
5564.60927124,0.00030608
5566.53807861,0.00026585
5568.46688599,0.00026328
5570.39569336,0.00023915
5572.32450073,0.00020134
5574.25330811,0.00026766
5576.18211548,0.00027043
5578.11092285,0.00027640
5580.03973022,0.00028521
5581.96853760,0.00024468
5583.89734497,0.00023323
5585.82615234,0.00025951
5587.75495972,0.00024361
5589.68376709,0.00021244
5591.61257446,0.00032640
5593.54138184,0.00032525
5595.47018921,0.00022376
5597.39899658,0.00026699
5599.32780395,0.00025723
5601.25661133,0.00021033
5603.18541870,0.00025009
5605.11422607,0.00026242
5607.04303345,0.00023248
5608.97184082,0.00025352
5610.90064819,0.00026950
5612.82945557,0.00027829
5614.75826294,0.00026471
5616.68707031,0.00022936
5618.61587769,0.00026480
5620.54468506,0.00027684
5622.47349243,0.00028345
5624.40229980,0.00024460
5626.33110718,0.00017787
5628.25991455,0.00021026
5630.18872192,0.00024332
5632.11752930,0.00024494
5634.04633667,0.00019034
5635.97514404,0.00021535
5637.90395142,0.00028122
5639.83275879,0.00021879
5641.76156616,0.00018712
5643.69037353,0.00021829
5645.61918091,0.00025773
5647.54798828,0.00022659
5649.47679565,0.00019688
5651.40560303,0.00023317
5653.33441040,0.00020442
5655.26321777,0.00023671
5657.19202515,0.00028048
5659.12083252,0.00021558
5661.04963989,0.00021227
5662.97844727,0.00021758
5664.90725464,0.00025308
5666.83606201,0.00034362
5668.76486938,0.00027396
5670.69367676,0.00020366
5672.62248413,0.00024573
5674.55129150,0.00030038
5676.48009888,0.00030291
5678.40890625,0.00024652
5680.33771362,0.00027024
5682.26652100,0.00024580
5684.19532837,0.00025060
5686.12413574,0.00029383
5688.05294311,0.00022649
5689.98175049,0.00022518
5691.91055786,0.00020537
5693.83936523,0.00023241
5695.76817261,0.00022255
5697.69697998,0.00014069
5699.62578735,0.00023373
5701.55459473,0.00024785
5703.48340210,0.00020608
5705.41220947,0.00023435
5707.34101685,0.00023551
5709.26982422,0.00018831
5711.19863159,0.00020469
5713.12743896,0.00027001
5715.05624634,0.00019799
5716.98505371,0.00021900
5718.91386108,0.00024274
5720.84266846,0.00021622
5722.77147583,0.00028781
5724.70028320,0.00024286
5726.62909058,0.00023183
5728.55789795,0.00022926
5730.48670532,0.00016129
5732.41551270,0.00021581
5734.34432007,0.00023989
5736.27312744,0.00020260
5738.20193481,0.00021551
5740.13074219,0.00024533
5742.05954956,0.00025350
5743.98835693,0.00018755
5745.91716431,0.00014561
5747.84597168,0.00020666
5749.77477905,0.00019537
5751.70358643,0.00018216
5753.63239380,0.00020839
5755.56120117,0.00022352
5757.49000854,0.00023274
5759.41881592,0.00019967
5761.34762329,0.00026835
5763.27643066,0.00023121
5765.20523804,0.00020716
5767.13404541,0.00025061
5769.06285278,0.00017202
5770.99166016,0.00025766
5772.92046753,0.00019827
5774.84927490,0.00019845
5776.77808228,0.00032583
5778.70688965,0.00019572
5780.63569702,0.00023976
5782.56450439,0.00027581
5784.49331177,0.00025758
5786.42211914,0.00025165
5788.35092651,0.00013890
5790.27973389,0.00017568
5792.20854126,0.00020302
5794.13734863,0.00016513
5796.06615601,0.00016856
5797.99496338,0.00019828
5799.92377075,0.00016548
5801.85257812,0.00020291
5803.78138550,0.00028167
5805.71019287,0.00018123
5807.63900024,0.00021672
5809.56780762,0.00025202
5811.49661499,0.00016744
5813.42542236,0.00017628
5815.35422974,0.00018929
5817.28303711,0.00019618
5819.21184448,0.00020519
5821.14065186,0.00019988
5823.06945923,0.00014295
5824.99826660,0.00016562
5826.92707397,0.00021227
5828.85588135,0.00019773
5830.78468872,0.00021565
5832.71349609,0.00018988
5834.64230347,0.00015987
5836.57111084,0.00016545
5838.49991821,0.00021894
5840.42872559,0.00015521
5842.35753296,0.00015887
5844.28634033,0.00026621
5846.21514770,0.00013333
5848.14395508,0.00015397
5850.07276245,0.00021650
5852.00156982,0.00013520
5853.93037720,0.00015034
5855.85918457,0.00018494
5857.78799194,0.00024669
5859.71679932,0.00022204
5861.64560669,0.00023672
5863.57441406,0.00023290
5865.50322144,0.00016805
5867.43202881,0.00027151
5869.36083618,0.00019250
5871.28964355,0.00007767
5873.21845093,0.00020516
5875.14725830,0.00020049
5877.07606567,0.00014197
5879.00487305,0.00018612
5880.93368042,0.00019216
5882.86248779,0.00021959
5884.79129517,0.00020627
5886.72010254,0.00018883
5888.64890991,0.00023787
5890.57771728,0.00017884
5892.50652466,0.00014304
5894.43533203,0.00016075
5896.36413940,0.00013335
5898.29294678,0.00019186
5900.22175415,0.00024739
5902.15056152,0.00018781
5904.07936890,0.00019018
5906.00817627,0.00015727
5907.93698364,0.00010412
5909.86579102,0.00020617
5911.79459839,0.00017559
5913.72340576,0.00020034
5915.65221313,0.00023394
5917.58102051,0.00011128
5919.50982788,0.00016171
5921.43863525,0.00014007
5923.36744263,0.00017044
5925.29625000,0.00024479
5927.22505737,0.00020545
5929.15386475,0.00021552
5931.08267212,0.00013736
5933.01147949,0.00014837
5934.94028686,0.00017558
5936.86909424,0.00016697
5938.79790161,0.00016938
5940.72670898,0.00019764
5942.65551636,0.00024127
5944.58432373,0.00012658
5946.51313110,0.00015236
5948.44193848,0.00016789
5950.37074585,0.00013582
5952.29955322,0.00018386
5954.22836060,0.00018171
5956.15716797,0.00021840
5958.08597534,0.00017001
5960.01478271,0.00019110
5961.94359009,0.00018497
5963.87239746,0.00015233
5965.80120483,0.00019943
5967.73001221,0.00012500
5969.65881958,0.00015111
5971.58762695,0.00015509
5973.51643433,0.00010025
5975.44524170,0.00013116
5977.37404907,0.00016232
5979.30285645,0.00016909
5981.23166382,0.00016096
5983.16047119,0.00016907
5985.08927856,0.00010564
5987.01808594,0.00013415
5988.94689331,0.00017863
5990.87570068,0.00013961
5992.80450806,0.00017926
5994.73331543,0.00016412
5996.66212280,0.00015338
5998.59093018,0.00019777
6000.51973755,0.00021048
