399.26312622,0.00039390
401.19193359,0.00064638
403.12074097,0.00029160
405.04954834,0.00032704
406.97835571,0.00025845
408.90716309,0.00025147
410.83597046,0.00075099
412.76477783,0.00073980
414.69358521,0.00063227
416.62239258,0.00040132
418.55119995,0.00053004
420.48000732,0.00052826
422.40881470,0.00023919
424.33762207,0.00066450
426.26642944,0.00045131
428.19523682,0.00016884
430.12404419,0.00061521
432.05285156,0.00074215
433.98165894,0.00078391
435.91046631,0.00083624
437.83927368,0.00097000
439.76808105,0.00076631
441.69688843,0.00053458
443.62569580,0.00045531
445.55450317,0.00018728
447.48331055,0.00056978
449.41211792,0.00055287
451.34092529,0.00056784
453.26973267,0.00060434
455.19854004,0.00010676
457.12734741,0.00057804
459.05615479,0.00069617
460.98496216,0.00059073
462.91376953,0.00055327
464.84257690,0.00004836
466.77138428,0.00038987
468.70019165,0.00057973
470.62899902,0.00026515
472.55780640,0.00023891
474.48661377,0.00017554
476.41542114,0.00019843
478.34422852,0.00029953
480.27303589,0.00056883
482.20184326,0.00036775
484.13065063,0.00005348
486.05945801,0.00044442
487.98826538,0.00022939
489.91707275,0.00007976
491.84588013,0.00010666
493.77468750,0.00028037
495.70349487,0.00044057
497.63230225,-0.00000524
499.56110962,0.00074409
501.48991699,0.00045904
503.41872437,-0.00007528
505.34753174,0.00043630
507.27633911,-0.00018542
509.20514648,0.00002473
511.13395386,0.00015584
513.06276123,-0.00011542
514.99156860,0.00002562
516.92037598,0.00000258
518.84918335,0.00027363
520.77799072,0.00019043
522.70679810,0.00021965
524.63560547,0.00008603
526.56441284,0.00009308
528.49322021,0.00013370
530.42202759,-0.00001197
532.35083496,0.00046170
534.27964233,0.00007278
536.20844971,-0.00008559
538.13725708,0.00030425
540.06606445,0.00012907
541.99487183,0.00004686
543.92367920,-0.00012521
545.85248657,0.00001751
547.78129395,0.00006457
549.71010132,0.00004803
551.63890869,0.00012405
553.56771606,0.00005890
555.49652344,0.00041290
557.42533081,0.00016073
559.35413818,-0.00002616
561.28294556,0.00046149
563.21175293,0.00034066
565.14056030,0.00013448
567.06936768,0.00008003
568.99817505,-0.00010930
570.92698242,-0.00008140
572.85578979,0.00025907
574.78459717,0.00022047
576.71340454,0.00009653
578.64221191,0.00035882
580.57101929,-0.00014271
582.49982666,-0.00013811
584.42863403,0.00037014
586.35744141,0.00008143
588.28624878,0.00017660
590.21505615,-0.00005188
592.14386353,-0.00017572
594.07267090,-0.00007831
596.00147827,-0.00016100
597.93028564,0.00046717
599.85909302,0.00024927
601.78790039,0.00003765
603.71670776,0.00019100
605.64551514,-0.00003195
607.57432251,0.00022447
609.50312988,0.00008400
611.43193726,-0.00004124
613.36074463,0.00013281
615.28955200,0.00009118
617.21835938,-0.00015165
619.14716675,-0.00018068
621.07597412,0.00004604
623.00478149,0.00025383
624.93358887,0.00013593
626.86239624,-0.00014728
628.79120361,-0.00010249
630.72001099,-0.00021005
632.64881836,0.00032887
634.57762573,0.00064033
636.50643311,0.00033340
638.43524048,0.00074249
640.36404785,0.00057380
642.29285522,0.00060818
644.22166260,0.00097523
646.15046997,0.00098119
648.07927734,0.00135874
650.00808472,0.00131089
651.93689209,0.00103770
653.86569946,0.00117364
655.79450684,0.00138764
657.72331421,0.00141489
659.65212158,0.00152861
661.58092896,0.00128042
663.50973633,0.00156405
665.43854370,0.00222069
667.36735107,0.00152718
669.29615845,0.00164362
671.22496582,0.00196697
673.15377319,0.00176331
675.08258057,0.00219936
677.01138794,0.00214019
678.94019531,0.00230498
680.86900269,0.00239962
682.79781006,0.00212041
684.72661743,0.00212171
686.65542480,0.00205925
688.58423218,0.00201184
690.51303955,0.00215080
692.44184692,0.00245227
694.37065430,0.00256685
696.29946167,0.00288991
698.22826904,0.00303728
700.15707642,0.00324151
702.08588379,0.00357659
704.01469116,0.00309677
705.94349854,0.00279027
707.87230591,0.00252436
709.80111328,0.00193385
711.72992065,0.00120168
713.65872803,0.00063854
715.58753540,0.00057751
717.51634277,0.00040367
719.44515015,0.00036775
721.37395752,0.00027748
723.30276489,0.00017113
725.23157227,0.00018998
727.16037964,0.00010414
729.08918701,0.00011954
731.01799438,0.00000888
732.94680176,0.00007340
734.87560913,0.00011436
736.80441650,0.00025419
738.73322388,0.00062130
740.66203125,0.00035655
742.59083862,0.00004013
744.51964600,-0.00001402
746.44845337,0.00014404
748.37726074,0.00038181
750.30606812,0.00008177
752.23487549,0.00027994
754.16368286,0.00051599
756.09249023,0.00006181
758.02129761,0.00033316
759.95010498,0.00030831
761.87891235,0.00006009
763.80771973,0.00029332
765.73652710,-0.00006107
767.66533447,0.00010288
769.59414185,0.00027583
771.52294922,0.00018908
773.45175659,0.00039223
775.38056396,0.00032735
777.30937134,0.00025065
779.23817871,-0.00006473
781.16698608,0.00024754
783.09579346,0.00041956
785.02460083,-0.00002342
786.95340820,0.00031257
788.88221558,0.00053992
790.81102295,0.00045781
792.73983032,0.00026423
794.66863770,0.00042571
796.59744507,0.00060332
798.52625244,0.00044709
800.45505981,0.00058114
802.38386719,0.00025268
804.31267456,0.00033157
806.24148193,0.00043855
808.17028931,0.00014222
810.09909668,0.00038001
812.02790405,0.00025163
813.95671143,0.00018887
815.88551880,0.00010732
817.81432617,0.00011562
819.74313354,0.00028549
821.67194092,0.00015546
823.60074829,0.00041959
825.52955566,0.00027930
827.45836304,0.00035811
829.38717041,0.00061320
831.31597778,0.00057090
833.24478516,0.00096328
835.17359253,0.00085398
837.10239990,0.00083390
839.03120728,0.00100136
840.96001465,0.00096224
842.88882202,0.00099119
844.81762939,0.00074542
846.74643677,0.00059644
848.67524414,0.00065927
850.60405151,0.00075140
852.53285889,0.00054274
854.46166626,0.00059234
856.39047363,0.00068479
858.31928101,0.00048747
860.24808838,0.00069241
862.17689575,0.00056324
864.10570313,0.00044322
866.03451050,0.00045365
867.96331787,0.00039036
869.89212524,0.00056605
871.82093262,0.00036935
873.74973999,0.00021912
875.67854736,0.00029080
877.60735474,0.00021933
879.53616211,0.00021080
881.46496948,0.00029468
883.39377686,0.00019511
885.32258423,0.00043148
887.25139160,0.00035315
889.18019897,0.00009677
891.10900635,0.00066439
893.03781372,0.00039327
894.96662109,0.00038455
896.89542847,0.00055414
898.82423584,-0.00002894
900.75304321,0.00021199
902.68185059,0.00028602
904.61065796,0.00039600
906.53946533,0.00038092
908.46827271,0.00020588
910.39708008,0.00041892
912.32588745,0.00034227
914.25469482,0.00042989
916.18350220,0.00056059
918.11230957,0.00071211
920.04111694,0.00070810
921.96992432,0.00095092
923.89873169,0.00108601
925.82753906,0.00071679
927.75634644,0.00101083
929.68515381,0.00101381
931.61396118,0.00093331
933.54276855,0.00116104
935.47157593,0.00110569
937.40038330,0.00145350
939.32919067,0.00174696
941.25799805,0.00140898
943.18680542,0.00115974
945.11561279,0.00146712
947.04442017,0.00164963
948.97322754,0.00149805
950.90203491,0.00130218
952.83084229,0.00133760
954.75964966,0.00142734
956.68845703,0.00110025
958.61726440,0.00118118
960.54607178,0.00142307
962.47487915,0.00118182
964.40368652,0.00131042
966.33249390,0.00154384
968.26130127,0.00124307
970.19010864,0.00140462
972.11891602,0.00183517
974.04772339,0.00171924
975.97653076,0.00186959
977.90533813,0.00204133
979.83414551,0.00188869
981.76295288,0.00200884
983.69176025,0.00241680
985.62056763,0.00256495
987.54937500,0.00263721
989.47818237,0.00316951
991.40698975,0.00356048
993.33579712,0.00377034
995.26460449,0.00395885
997.19341187,0.00441984
999.12221924,0.00494200
1001.05102661,0.00505334
1002.97983398,0.00532808
1004.90864136,0.00570111
1006.83744873,0.00617345
1008.76625610,0.00630948
1010.69506348,0.00669416
1012.62387085,0.00727984
1014.55267822,0.00730401
1016.48148560,0.00788743
1018.41029297,0.00821870
1020.33910034,0.00852587
1022.26790771,0.00892473
1024.19671509,0.00890793
1026.12552246,0.00941729
1028.05432983,0.00981704
1029.98313721,0.01019302
1031.91194458,0.01024749
1033.84075195,0.01034797
1035.76955933,0.01078187
1037.69836670,0.01064080
1039.62717407,0.01068703
1041.55598145,0.01063331
1043.48478882,0.01055609
1045.41359619,0.01054289
1047.34240356,0.01030840
1049.27121094,0.01029659
1051.20001831,0.00988939
1053.12882568,0.00935166
1055.05763306,0.00930078
1056.98644043,0.00917264
1058.91524780,0.00886048
1060.84405518,0.00888561
1062.77286255,0.00858617
1064.70166992,0.00790241
1066.63047729,0.00790062
1068.55928467,0.00775910
1070.48809204,0.00703359
1072.41689941,0.00680739
1074.34570679,0.00662955
1076.27451416,0.00611484
1078.20332153,0.00597469
1080.13212891,0.00571713
1082.06093628,0.00572603
1083.98974365,0.00560847
1085.91855103,0.00479776
1087.84735840,0.00473261
1089.77616577,0.00451678
1091.70497314,0.00428088
1093.63378052,0.00420377
1095.56258789,0.00383882
1097.49139526,0.00401194
1099.42020264,0.00368044
1101.34901001,0.00361123
1103.27781738,0.00369796
1105.20662476,0.00336451
1107.13543213,0.00349176
1109.06423950,0.00339776
1110.99304687,0.00347761
1112.92185425,0.00337025
1114.85066162,0.00332187
1116.77946899,0.00339590
1118.70827637,0.00304833
1120.63708374,0.00341104
1122.56589111,0.00349168
1124.49469849,0.00332851
1126.42350586,0.00342114
1128.35231323,0.00339426
1130.28112061,0.00373083
1132.20992798,0.00361812
1134.13873535,0.00351132
1136.06754272,0.00391305
1137.99635010,0.00413782
1139.92515747,0.00430078
1141.85396484,0.00451730
1143.78277222,0.00493691
1145.71157959,0.00525017
1147.64038696,0.00547536
1149.56919434,0.00579383
1151.49800171,0.00604568
1153.42680908,0.00642278
1155.35561646,0.00644026
1157.28442383,0.00647485
1159.21323120,0.00701203
1161.14203857,0.00719312
1163.07084595,0.00742432
1164.99965332,0.00787656
1166.92846069,0.00799863
1168.85726807,0.00824275
1170.78607544,0.00860895
1172.71488281,0.00882463
1174.64369019,0.00905223
1176.57249756,0.00949140
1178.50130493,0.00994776
1180.43011230,0.01022435
1182.35891968,0.01068641
1184.28772705,0.01127604
1186.21653442,0.01174470
1188.14534180,0.01207500
1190.07414917,0.01240296
1192.00295654,0.01300570
1193.93176392,0.01374909
1195.86057129,0.01457206
1197.78937866,0.01525805
1199.71818604,0.01581895
1201.64699341,0.01647275
1203.57580078,0.01688508
1205.50460815,0.01758384
1207.43341553,0.01834668
1209.36222290,0.01866368
1211.29103027,0.01934130
1213.21983765,0.01996408
1215.14864502,0.02027765
1217.07745239,0.02067804
1219.00625977,0.02114706
1220.93506714,0.02141890
1222.86387451,0.02138540
1224.79268188,0.02175549
1226.72148926,0.02198696
1228.65029663,0.02189261
1230.57910400,0.02216798
1232.50791138,0.02229588
1234.43671875,0.02218481
1236.36552612,0.02210362
1238.29433350,0.02202148
1240.22314087,0.02198257
1242.15194824,0.02197666
1244.08075562,0.02191111
1246.00956299,0.02194664
1247.93837036,0.02171851
1249.86717773,0.02129371
1251.79598511,0.02131851
1253.72479248,0.02097189
1255.65359985,0.02068101
1257.58240723,0.02068006
1259.51121460,0.02014316
1261.44002197,0.01988599
1263.36882935,0.01973158
1265.29763672,0.01938065
1267.22644409,0.01909291
1269.15525146,0.01887089
1271.08405884,0.01878928
1273.01286621,0.01829388
1274.94167358,0.01791318
1276.87048096,0.01783047
1278.79928833,0.01734666
1280.72809570,0.01699652
1282.65690308,0.01673871
1284.58571045,0.01636631
1286.51451782,0.01593188
1288.44332520,0.01548144
1290.37213257,0.01560102
1292.30093994,0.01542889
1294.22974731,0.01514603
1296.15855469,0.01530490
1298.08736206,0.01499323
1300.01616943,0.01503196
1301.94497681,0.01532554
1303.87378418,0.01533029
1305.80259155,0.01535843
1307.73139893,0.01555816
1309.66020630,0.01601852
1311.58901367,0.01605581
1313.51782104,0.01638214
1315.44662842,0.01694951
1317.37543579,0.01718390
1319.30424316,0.01767955
1321.23305054,0.01822554
1323.16185791,0.01871754
1325.09066528,0.01913908
1327.01947266,0.01968412
1328.94828003,0.02019259
1330.87708740,0.02073286
1332.80589478,0.02129281
1334.73470215,0.02142043
1336.66350952,0.02160994
1338.59231689,0.02167496
1340.52112427,0.02199430
1342.44993164,0.02274173
1344.37873901,0.02279595
1346.30754639,0.02265099
1348.23635376,0.02284551
1350.16516113,0.02260503
1352.09396851,0.02225294
1354.02277588,0.02226091
1355.95158325,0.02201274
1357.88039062,0.02183954
1359.80919800,0.02170099
1361.73800537,0.02072646
1363.66681274,0.02020561
1365.59562012,0.02089717
1367.52442749,0.02075026
1369.45323486,0.02064941
1371.38204224,0.02104157
1373.31084961,0.02001312
1375.23965698,0.01989366
1377.16846436,0.02055839
1379.09727173,0.02027937
1381.02607910,0.02014081
1382.95488647,0.02033020
1384.88369385,0.02040157
1386.81250122,0.01957388
1388.74130859,0.01983131
1390.67011597,0.02125010
1392.59892334,0.02046429
1394.52773071,0.01930115
1396.45653809,0.02039903
1398.38534546,0.02031737
1400.31415283,0.02014187
1402.24296021,0.02159259
1404.17176758,0.02046007
1406.10057495,0.02063111
1408.02938232,0.02137217
1409.95818970,0.02065510
1411.88699707,0.02126346
1413.81580444,0.02042222
1415.74461182,0.02054335
1417.67341919,0.01862305
1419.60222656,0.01688477
1421.53103394,0.01921446
1423.45984131,0.01845028
1425.38864868,0.01818376
1427.31745605,0.01832279
1429.24626343,0.01690837
1431.17507080,0.01643808
1433.10387817,0.01653965
1435.03268555,0.01528612
1436.96149292,0.01314511
1438.89030029,0.01495150
1440.81910767,0.01495073
1442.74791504,0.01395251
1444.67672241,0.01476460
1446.60552979,0.01335469
1448.53433716,0.01365792
1450.46314453,0.01382849
1452.39195190,0.01428808
1454.32075928,0.01492087
1456.24956665,0.01236973
1458.17837402,0.01308921
1460.10718140,0.01682544
1462.03598877,0.01785365
1463.96479614,0.01777959
1465.89360352,0.01860410
1467.82241089,0.02104409
1469.75121826,0.02247690
1471.68002563,0.02011347
1473.60883301,0.02110487
1475.53764038,0.02425963
1477.46644775,0.02583664
1479.39525513,0.02823656
1481.32406250,0.02868122
1483.25286987,0.03041941
1485.18167725,0.03131340
1487.11048462,0.03067868
1489.03929199,0.03078816
1490.96809937,0.03080430
1492.89690674,0.03569236
1494.82571411,0.03483877
1496.75452148,0.03138113
1498.68332886,0.03549121
1500.61213623,0.03630412
1502.54094360,0.03903922
1504.46975098,0.03678053
1506.39855835,0.02718658
1508.32736572,0.03319990
1510.25617310,0.03827459
1512.18498047,0.03697334
1514.11378784,0.03988843
1516.04259521,0.03619631
1517.97140259,0.03772523
1519.90020996,0.03641894
1521.82901733,0.03192567
1523.75782471,0.03860994
1525.68663208,0.03782696
1527.61543945,0.03763542
1529.54424683,0.04137222
1531.47305420,0.03972612
1533.40186157,0.03658538
1535.33066895,0.03883177
1537.25947632,0.04123374
1539.18828369,0.02982302
1541.11709106,0.03120863
1543.04589844,0.03701366
1544.97470581,0.03561197
1546.90351318,0.04182098
1548.83232056,0.03893840
1550.76112793,0.04005212
1552.68993530,0.03959971
1554.61874268,0.03630053
1556.54755005,0.03873327
1558.47635742,0.02754699
1560.40516479,0.02998285
1562.33397217,0.04174280
1564.26277954,0.03938536
1566.19158691,0.04045393
1568.12039429,0.03985168
1570.04920166,0.03555924
1571.97800903,0.04074358
1573.90681641,0.04095338
1575.83562378,0.03282439
1577.76443115,0.03705018
1579.69323853,0.04139616
1581.62204590,0.03972220
1583.55085327,0.04063570
1585.47966064,0.03998121
1587.40846802,0.04034470
1589.33727539,0.03969898
1591.26608276,0.03972273
1593.19489014,0.03963851
1595.12369751,0.03914821
1597.05250488,0.03968855
1598.98131226,0.03916962
1600.91011963,0.03958422
1602.83892700,0.03889243
1604.76773437,0.03947063
1606.69654175,0.03891642
1608.62534912,0.03893121
1610.55415649,0.03885952
1612.48296387,0.03901866
1614.41177124,0.03959138
1616.34057861,0.03260328
1618.26938599,0.03563086
1620.19819336,0.04098943
1622.12700073,0.03655650
1624.05580811,0.03721654
1625.98461548,0.03897932
1627.91342285,0.03895006
1629.84223022,0.03890008
1631.77103760,0.04185303
1633.69984497,0.03883493
1635.62865234,0.03265008
1637.55745972,0.03824912
1639.48626709,0.04207288
1641.41507446,0.04139447
1643.34388184,0.04274118
1645.27268921,0.03906532
1647.20149658,0.03488600
1649.13030396,0.04354055
1651.05911133,0.04108895
1652.98791870,0.02708993
1654.91672607,0.03733338
1656.84553345,0.04607853
1658.77434082,0.04426663
1660.70314819,0.04574334
1662.63195557,0.04197028
1664.56076294,0.04476878
1666.48957031,0.04785643
1668.41837769,0.04209610
1670.34718506,0.04133304
1672.27599243,0.04664640
1674.20479980,0.04320621
1676.13360718,0.04197159
1678.06241455,0.04807538
1679.99122192,0.04626398
1681.92002930,0.04593857
1683.84883667,0.03736458
1685.77764404,0.03737302
1687.70645142,0.05074486
1689.63525879,0.04406802
1691.56406616,0.04866053
1693.49287354,0.04907021
1695.42168091,0.03637493
1697.35048828,0.04480927
1699.27929565,0.03913390
1701.20810303,0.03562188
1703.13691040,0.04771542
1705.06571777,0.04367116
1706.99452515,0.04419523
1708.92333252,0.04764785
1710.85213989,0.04572017
1712.78094727,0.04639898
1714.70975464,0.04306816
1716.63856201,0.03865710
1718.56736938,0.03811543
1720.49617676,0.04488721
1722.42498413,0.04607978
1724.35379150,0.04296925
1726.28259888,0.04652969
1728.21140625,0.04277777
1730.14021362,0.04321826
1732.06902100,0.04190064
1733.99782837,0.03221141
1735.92663574,0.03979358
1737.85544312,0.04364876
1739.78425049,0.03900657
1741.71305786,0.04222393
1743.64186523,0.04270308
1745.57067261,0.04266702
1747.49947998,0.04279921
1749.42828735,0.04092099
1751.35709473,0.03931960
1753.28590210,0.04335367
1755.21470947,0.04484095
1757.14351685,0.04121300
1759.07232422,0.04510943
1761.00113159,0.04209405
1762.92993896,0.04098044
1764.85874634,0.04635241
1766.78755371,0.04183483
1768.71636108,0.04225260
1770.64516846,0.04149490
1772.57397583,0.03759615
1774.50278320,0.04178833
1776.43159058,0.04392120
1778.36039795,0.04327766
1780.28920532,0.04278100
1782.21801270,0.04322292
1784.14682007,0.04287076
1786.07562744,0.04199380
1788.00443481,0.04413400
1789.93324219,0.04292529
1791.86204956,0.03904505
1793.79085693,0.04068040
1795.71966431,0.04324926
1797.64847168,0.04258269
1799.57727905,0.04208209
1801.50608643,0.04131189
1803.43489380,0.04243459
1805.36370117,0.04332720
1807.29250854,0.04279521
1809.22131592,0.04278951
1811.15012329,0.04177511
1813.07893066,0.04294375
1815.00773804,0.04298972
1816.93654541,0.04262964
1818.86535278,0.04281621
1820.79416016,0.04269094
1822.72296753,0.04304922
1824.65177490,0.04024678
1826.58058228,0.04175594
1828.50938965,0.04153781
1830.43819702,0.03931447
1832.36700439,0.04254900
1834.29581177,0.04211493
1836.22461914,0.04215207
1838.15342651,0.04179861
1840.08223389,0.04208864
1842.01104126,0.04210498
1843.93984863,0.03759345
1845.86865601,0.04003176
1847.79746338,0.04197404
1849.72627075,0.04101565
1851.65507812,0.04213814
1853.58388550,0.04116124
1855.51269287,0.04161569
1857.44150024,0.04146807
1859.37030762,0.04102676
1861.29911499,0.04138960
1863.22792236,0.04090953
1865.15672974,0.04133857
1867.08553711,0.03991863
1869.01434448,0.03814583
1870.94315186,0.03971741
1872.87195923,0.04085591
1874.80076660,0.04030795
1876.72957397,0.04061041
1878.65838135,0.04038654
1880.58718872,0.04033531
1882.51599609,0.04043088
1884.44480347,0.03983887
1886.37361084,0.04042950
1888.30241821,0.03945363
1890.23122559,0.03869484
1892.16003296,0.03998242
1894.08884033,0.03939050
1896.01764771,0.03913891
1897.94645508,0.03967716
1899.87526245,0.03947226
1901.80406982,0.03940553
1903.73287720,0.03915768
1905.66168457,0.03946197
1907.59049194,0.03899961
1909.51929932,0.03856177
1911.44810669,0.03889013
1913.37691406,0.03877432
1915.30572144,0.03910297
1917.23452881,0.03754567
1919.16333618,0.03749176
1921.09214355,0.03883461
1923.02095093,0.03753307
1924.94975830,0.03835179
1926.87856567,0.03859351
1928.80737305,0.03804943
1930.73618042,0.03865898
1932.66498779,0.03797028
1934.59379517,0.03826822
1936.52260254,0.03808186
1938.45140991,0.03821444
1940.38021729,0.03813986
1942.30902466,0.03680760
1944.23783203,0.03750494
1946.16663940,0.03783476
1948.09544678,0.03766003
1950.02425415,0.03795842
1951.95306152,0.03784285
1953.88186890,0.03783700
1955.81067627,0.03772561
1957.73948364,0.03763961
1959.66829102,0.03753252
1961.59709839,0.03740297
1963.52590576,0.03745852
1965.45471313,0.03737465
1967.38352051,0.03700132
1969.31232788,0.03723918
1971.24113525,0.03731064
1973.16994263,0.03703894
1975.09875000,0.03732648
1977.02755737,0.03718798
1978.95636475,0.03709342
1980.88517212,0.03702971
1982.81397949,0.03689962
1984.74278687,0.03687814
1986.67159424,0.03673723
1988.60040161,0.03680441
1990.52920898,0.03631661
1992.45801636,0.03601292
1994.38682373,0.03635786
1996.31563110,0.03636999
1998.24443848,0.03620467
2000.17324585,0.03620976
2002.10205322,0.03622377
2004.03086060,0.03617686
2005.95966797,0.03598389
2007.88847534,0.03585212
2009.81728271,0.03589253
2011.74609009,0.03559583
2013.67489746,0.03567975
2015.60370483,0.03557154
2017.53251221,0.03514422
2019.46131958,0.03540312
2021.39012695,0.03523550
2023.31893433,0.03500602
2025.24774170,0.03505029
2027.17654907,0.03500290
2029.10535645,0.03495648
2031.03416382,0.03483392
2032.96297119,0.03472661
2034.89177856,0.03462180
2036.82058594,0.03468276
2038.74939331,0.03450388
2040.67820068,0.03434066
2042.60700806,0.03420805
2044.53581543,0.03410177
2046.46462280,0.03413702
2048.39343018,0.03403240
2050.32223755,0.03399388
2052.25104492,0.03378294
2054.17985229,0.03375422
2056.10865967,0.03371100
2058.03746704,0.03377346
2059.96627441,0.03372362
2061.89508179,0.03334375
2063.82388916,0.03338628
2065.75269653,0.03317529
2067.68150391,0.03325016
2069.61031128,0.03326971
2071.53911865,0.03312772
2073.46792603,0.03324065
2075.39673340,0.03288337
2077.32554077,0.03288709
2079.25434814,0.03281542
2081.18315552,0.03270579
2083.11196289,0.03275650
2085.04077026,0.03267170
2086.96957764,0.03270165
2088.89838501,0.03243694
2090.82719238,0.03243651
2092.75599976,0.03244638
2094.68480713,0.03231619
2096.61361450,0.03234465
2098.54242187,0.03225430
2100.47122925,0.03215853
2102.40003662,0.03200134
2104.32884399,0.03193243
2106.25765137,0.03197472
2108.18645874,0.03193674
2110.11526611,0.03182799
2112.04407349,0.03185439
2113.97288086,0.03172723
2115.90168823,0.03157932
2117.83049561,0.03162671
2119.75930298,0.03146068
2121.68811035,0.03145211
2123.61691772,0.03148690
2125.54572510,0.03139132
2127.47453247,0.03132852
2129.40333984,0.03122932
2131.33214722,0.03111340
2133.26095459,0.03107712
2135.18976196,0.03118194
2137.11856934,0.03108962
2139.04737671,0.03090504
2140.97618408,0.03085237
2142.90499146,0.03091721
2144.83379883,0.03088807
2146.76260620,0.03081277
2148.69141357,0.03079232
2150.62022095,0.03070078
2152.54902832,0.03074552
2154.47783569,0.03072498
2156.40664307,0.03073539
2158.33545044,0.03066677
2160.26425781,0.03055193
2162.19306519,0.03062354
2164.12187256,0.03044226
2166.05067993,0.03041499
2167.97948730,0.03049096
2169.90829468,0.03030605
2171.83710205,0.03026492
2173.76590942,0.03032566
2175.69471680,0.03019276
2177.62352417,0.03010396
2179.55233154,0.03009881
2181.48113892,0.03002959
2183.40994629,0.03008718
2185.33875366,0.03002704
2187.26756104,0.02990321
2189.19636841,0.02980531
2191.12517578,0.02977811
2193.05398315,0.02982333
2194.98279053,0.02970380
2196.91159790,0.02966843
2198.84040527,0.02969902
2200.76921265,0.02971774
2202.69802002,0.02957001
2204.62682739,0.02954959
2206.55563477,0.02959535
2208.48444214,0.02941747
2210.41324951,0.02947601
2212.34205688,0.02936997
2214.27086426,0.02928990
2216.19967163,0.02940421
2218.12847900,0.02930009
2220.05728638,0.02919694
2221.98609375,0.02909799
2223.91490112,0.02900524
2225.84370850,0.02900016
2227.77251587,0.02893819
2229.70132324,0.02882053
2231.63013062,0.02898674
2233.55893799,0.02897153
2235.48774536,0.02873941
2237.41655273,0.02874188
2239.34536011,0.02873779
2241.27416748,0.02860684
2243.20297485,0.02848666
2245.13178223,0.02862954
2247.06058960,0.02843179
2248.98939697,0.02836302
2250.91820435,0.02851047
2252.84701172,0.02822965
2254.77581909,0.02823440
2256.70462646,0.02818170
2258.63343384,0.02814297
2260.56224121,0.02805173
2262.49104858,0.02797186
2264.41985596,0.02809800
2266.34866333,0.02793331
2268.27747070,0.02790776
2270.20627808,0.02773506
2272.13508545,0.02771157
2274.06389282,0.02777565
2275.99270020,0.02767837
2277.92150757,0.02778979
2279.85031494,0.02776033
2281.77912231,0.02766489
2283.70792969,0.02749301
2285.63673706,0.02751150
2287.56554443,0.02743452
2289.49435181,0.02734419
2291.42315918,0.02735716
2293.35196655,0.02721853
2295.28077393,0.02724874
2297.20958130,0.02704220
2299.13838867,0.02697008
2301.06719604,0.02683951
2302.99600342,0.02659676
2304.92481079,0.02651250
2306.85361816,0.02628143
2308.78242554,0.02617534
2310.71123291,0.02584017
2312.64004028,0.02549808
2314.56884766,0.02523654
2316.49765503,0.02496276
2318.42646240,0.02458105
2320.35526978,0.02415733
2322.28407715,0.02389689
2324.21288452,0.02349554
2326.14169189,0.02333278
2328.07049927,0.02294425
2329.99930664,0.02258728
2331.92811401,0.02251262
2333.85692139,0.02230613
2335.78572876,0.02224200
2337.71453613,0.02215642
2339.64334351,0.02217053
2341.57215088,0.02220279
2343.50095825,0.02253615
2345.42976562,0.02298445
2347.35857300,0.02398292
2349.28738037,0.02484380
2351.21618774,0.02376102
2353.14499512,0.02256798
2355.07380249,0.02170311
2357.00260986,0.02102227
2358.93141724,0.02078292
2360.86022461,0.02031013
2362.78903198,0.02026882
2364.71783936,0.02040431
2366.64664673,0.02059921
2368.57545410,0.02102587
2370.50426147,0.02167156
2372.43306885,0.02235577
2374.36187622,0.02303913
2376.29068359,0.02376004
2378.21949097,0.02410307
2380.14829834,0.02463929
2382.07710571,0.02496567
2384.00591309,0.02500003
2385.93472046,0.02521876
2387.86352783,0.02528590
2389.79233521,0.02522718
2391.72114258,0.02507130
2393.64994995,0.02508902
2395.57875732,0.02507227
2397.50756470,0.02501514
2399.43637207,0.02496947
2401.36517944,0.02483711
2403.29398682,0.02475098
2405.22279419,0.02470819
2407.15160156,0.02477218
2409.08040894,0.02459978
2411.00921631,0.02464318
2412.93802368,0.02480298
2414.86683105,0.02456687
2416.79563843,0.02447832
2418.72444580,0.02456062
2420.65325317,0.02453475
2422.58206055,0.02443773
2424.51086792,0.02446327
2426.43967529,0.02436456
2428.36848267,0.02432048
2430.29729004,0.02431493
2432.22609741,0.02416406
2434.15490479,0.02418156
2436.08371216,0.02397568
2438.01251953,0.02394608
2439.94132690,0.02413745
2441.87013428,0.02405735
2443.79894165,0.02394086
2445.72774902,0.02389003
2447.65655640,0.02392940
2449.58536377,0.02380823
2451.51417114,0.02377062
2453.44297852,0.02376239
2455.37178589,0.02368865
2457.30059326,0.02371336
2459.22940063,0.02358268
2461.15820801,0.02355027
2463.08701538,0.02345644
2465.01582275,0.02337480
2466.94463013,0.02341650
2468.87343750,0.02333095
2470.80224487,0.02343641
2472.73105225,0.02341124
2474.65985962,0.02320893
2476.58866699,0.02322310
2478.51747437,0.02319951
2480.44628174,0.02317087
2482.37508911,0.02322806
2484.30389648,0.02314516
2486.23270386,0.02299410
2488.16151123,0.02296175
2490.09031860,0.02305688
2492.01912598,0.02301282
2493.94793335,0.02282858
2495.87674072,0.02289154
2497.80554810,0.02288060
2499.73435547,0.02275276
2501.66316284,0.02278278
2503.59197021,0.02265154
2505.52077759,0.02258101
2507.44958496,0.02268121
2509.37839233,0.02264371
2511.30719971,0.02254292
2513.23600708,0.02250976
2515.16481445,0.02253028
2517.09362183,0.02246053
2519.02242920,0.02230791
2520.95123657,0.02227213
2522.88004395,0.02233355
2524.80885132,0.02220428
2526.73765869,0.02209828
2528.66646606,0.02219436
2530.59527344,0.02218530
2532.52408081,0.02221636
2534.45288818,0.02224406
2536.38169556,0.02211372
2538.31050293,0.02201887
2540.23931030,0.02200620
2542.16811768,0.02193737
2544.09692505,0.02178880
2546.02573242,0.02173979
2547.95453979,0.02170974
2549.88334717,0.02176993
2551.81215454,0.02172052
2553.74096191,0.02159592
2555.66976929,0.02170074
2557.59857666,0.02157249
2559.52738403,0.02157046
2561.45619141,0.02159370
2563.38499878,0.02140472
2565.31380615,0.02144719
2567.24261353,0.02136124
2569.17142090,0.02137114
2571.10022827,0.02136760
2573.02903564,0.02133870
2574.95784302,0.02141632
2576.88665039,0.02123620
2578.81545776,0.02115466
2580.74426514,0.02101746
2582.67307251,0.02102031
2584.60187988,0.02109661
2586.53068726,0.02093146
2588.45949463,0.02090213
2590.38830200,0.02094982
2592.31710937,0.02104860
2594.24591675,0.02083733
2596.17472412,0.02071888
2598.10353149,0.02081789
2600.03233887,0.02071340
2601.96114624,0.02075621
2603.88995361,0.02065586
2605.81876099,0.02065974
2607.74756836,0.02069609
2609.67637573,0.02048007
2611.60518311,0.02040667
2613.53399048,0.02037288
2615.46279785,0.02044813
2617.39160522,0.02042616
2619.32041260,0.02033325
2621.24921997,0.02030666
2623.17802734,0.02025106
2625.10683472,0.02024851
2627.03564209,0.02010651
2628.96444946,0.02010714
2630.89325684,0.02018909
2632.82206421,0.01996579
2634.75087158,0.01986786
2636.67967895,0.02001835
2638.60848633,0.01999219
2640.53729370,0.01987463
2642.46610107,0.01991008
2644.39490845,0.01989473
2646.32371582,0.01980374
2648.25252319,0.01981061
2650.18133057,0.01974334
2652.11013794,0.01953764
2654.03894531,0.01955553
2655.96775269,0.01963900
2657.89656006,0.01956480
2659.82536743,0.01954492
2661.75417480,0.01941051
2663.68298218,0.01939767
2665.61178955,0.01957297
2667.54059692,0.01940423
2669.46940430,0.01924098
2671.39821167,0.01927090
2673.32701904,0.01923823
2675.25582642,0.01929809
2677.18463379,0.01924431
2679.11344116,0.01913880
2681.04224854,0.01910909
2682.97105591,0.01898156
2684.89986328,0.01901501
2686.82867065,0.01896866
2688.75747803,0.01890790
2690.68628540,0.01895192
2692.61509277,0.01883863
2694.54390015,0.01886329
2696.47270752,0.01874455
2698.40151489,0.01865399
2700.33032227,0.01876220
2702.25912964,0.01864445
2704.18793701,0.01860048
2706.11674438,0.01860474
2708.04555176,0.01854562
2709.97435913,0.01852219
2711.90316650,0.01848633
2713.83197388,0.01835736
2715.76078125,0.01833969
2717.68958862,0.01843645
2719.61839600,0.01829978
2721.54720337,0.01829120
2723.47601074,0.01832631
2725.40481812,0.01818128
2727.33362549,0.01811512
2729.26243286,0.01804246
2731.19124023,0.01800766
2733.12004761,0.01800335
2735.04885498,0.01794698
2736.97766235,0.01794159
2738.90646973,0.01793798
2740.83527710,0.01784094
2742.76408447,0.01780038
2744.69289185,0.01786162
2746.62169922,0.01789390
2748.55050659,0.01770793
2750.47931396,0.01756113
2752.40812134,0.01770602
2754.33692871,0.01763164
2756.26573608,0.01752854
2758.19454346,0.01755258
2760.12335083,0.01748708
2762.05215820,0.01746404
2763.98096558,0.01739279
2765.90977295,0.01733785
2767.83858032,0.01727000
2769.76738770,0.01722579
2771.69619507,0.01717230
2773.62500244,0.01718716
2775.55380981,0.01718959
2777.48261719,0.01704343
2779.41142456,0.01708364
2781.34023193,0.01700661
2783.26903931,0.01695592
2785.19784668,0.01696707
2787.12665405,0.01690115
2789.05546143,0.01688452
2790.98426880,0.01677635
2792.91307617,0.01686581
2794.84188354,0.01675240
2796.77069092,0.01661336
2798.69949829,0.01666594
2800.62830566,0.01654791
2802.55711304,0.01659357
2804.48592041,0.01661723
2806.41472778,0.01661998
2808.34353516,0.01654120
2810.27234253,0.01633586
2812.20114990,0.01631551
2814.12995728,0.01637776
2816.05876465,0.01628177
2817.98757202,0.01609467
2819.91637939,0.01616599
2821.84518677,0.01620824
2823.77399414,0.01615180
2825.70280151,0.01609107
2827.63160889,0.01601072
2829.56041626,0.01597804
2831.48922363,0.01584621
2833.41803101,0.01585348
2835.34683838,0.01595496
2837.27564575,0.01587195
2839.20445312,0.01563674
2841.13326050,0.01561235
2843.06206787,0.01560185
2844.99087524,0.01542925
2846.91968262,0.01545759
2848.84848999,0.01532356
2850.77729736,0.01515200
2852.70610474,0.01512210
2854.63491211,0.01519197
2856.56371948,0.01525422
2858.49252686,0.01512385
2860.42133423,0.01521765
2862.35014160,0.01519274
2864.27894897,0.01505775
2866.20775635,0.01504675
2868.13656372,0.01492067
2870.06537109,0.01494633
2871.99417847,0.01496377
2873.92298584,0.01485913
2875.85179321,0.01481939
2877.78060059,0.01480507
2879.70940796,0.01483915
2881.63821533,0.01478243
2883.56702270,0.01465372
2885.49583008,0.01469300
2887.42463745,0.01463125
2889.35344482,0.01458124
2891.28225220,0.01457448
2893.21105957,0.01436724
2895.13986694,0.01440736
2897.06867432,0.01440418
2898.99748169,0.01436140
2900.92628906,0.01435231
2902.85509644,0.01418867
2904.78390381,0.01424576
2906.71271118,0.01414483
2908.64151855,0.01407333
2910.57032593,0.01403935
2912.49913330,0.01389448
2914.42794067,0.01389086
2916.35674805,0.01376077
2918.28555542,0.01376440
2920.21436279,0.01370291
2922.14317017,0.01360737
2924.07197754,0.01368527
2926.00078491,0.01364331
2927.92959229,0.01356939
2929.85839966,0.01347437
2931.78720703,0.01349844
2933.71601440,0.01350085
2935.64482178,0.01348665
2937.57362915,0.01349214
2939.50243652,0.01335236
2941.43124390,0.01336701
2943.36005127,0.01344817
2945.28885864,0.01338920
2947.21766602,0.01334448
2949.14647339,0.01336854
2951.07528076,0.01333956
2953.00408813,0.01326573
2954.93289551,0.01319302
2956.86170288,0.01316714
2958.79051025,0.01311092
2960.71931763,0.01301769
2962.64812500,0.01305052
2964.57693237,0.01298063
2966.50573975,0.01285810
2968.43454712,0.01284548
2970.36335449,0.01290648
2972.29216187,0.01291117
2974.22096924,0.01284876
2976.14977661,0.01287430
2978.07858398,0.01278470
2980.00739136,0.01275629
2981.93619873,0.01279473
2983.86500610,0.01277041
2985.79381348,0.01275815
2987.72262085,0.01270734
2989.65142822,0.01276059
2991.58023560,0.01272244
2993.50904297,0.01255907
2995.43785034,0.01246549
2997.36665771,0.01252354
2999.29546509,0.01255465
3001.22427246,0.01249829
3003.15307983,0.01248414
3005.08188721,0.01238855
3007.01069458,0.01240523
3008.93950195,0.01231803
3010.86830933,0.01221866
3012.79711670,0.01226458
3014.72592407,0.01215789
3016.65473145,0.01220173
3018.58353882,0.01221380
3020.51234619,0.01210436
3022.44115356,0.01206134
3024.36996094,0.01201603
3026.29876831,0.01191639
3028.22757568,0.01181244
3030.15638306,0.01185181
3032.08519043,0.01182130
3034.01399780,0.01182657
3035.94280518,0.01184683
3037.87161255,0.01173830
3039.80041992,0.01168333
3041.72922729,0.01168315
3043.65803467,0.01167048
3045.58684204,0.01154687
3047.51564941,0.01147162
3049.44445679,0.01143365
3051.37326416,0.01141274
3053.30207153,0.01143265
3055.23087891,0.01136924
3057.15968628,0.01138795
3059.08849365,0.01136914
3061.01730103,0.01130032
3062.94610840,0.01129869
3064.87491577,0.01117989
3066.80372314,0.01109531
3068.73253052,0.01113985
3070.66133789,0.01107376
3072.59014526,0.01101049
3074.51895264,0.01106703
3076.44776001,0.01106217
3078.37656738,0.01102401
3080.30537476,0.01093885
3082.23418213,0.01080934
3084.16298950,0.01082325
3086.09179687,0.01083382
3088.02060425,0.01075695
3089.94941162,0.01080981
3091.87821899,0.01071776
3093.80702637,0.01061912
3095.73583374,0.01076108
3097.66464111,0.01060885
3099.59344849,0.01055903
3101.52225586,0.01062061
3103.45106323,0.01045695
3105.37987061,0.01053787
3107.30867798,0.01054045
3109.23748535,0.01044715
3111.16629272,0.01042351
3113.09510010,0.01036001
3115.02390747,0.01032406
3116.95271484,0.01023676
3118.88152222,0.01027986
3120.81032959,0.01030317
3122.73913696,0.01019939
3124.66794434,0.01016545
3126.59675171,0.01010596
3128.52555908,0.01004600
3130.45436645,0.01011575
3132.38317383,0.01005621
3134.31198120,0.00989864
3136.24078857,0.00992407
3138.16959595,0.00991236
3140.09840332,0.00988584
3142.02721069,0.00982968
3143.95601807,0.00981975
3145.88482544,0.00987810
3147.81363281,0.00981594
3149.74244019,0.00985374
3151.67124756,0.00981501
3153.60005493,0.00972911
3155.52886230,0.00971027
3157.45766968,0.00972146
3159.38647705,0.00971765
3161.31528442,0.00963328
3163.24409180,0.00967022
3165.17289917,0.00955402
3167.10170654,0.00953454
3169.03051392,0.00960187
3170.95932129,0.00941325
3172.88812866,0.00945755
3174.81693604,0.00950014
3176.74574341,0.00941782
3178.67455078,0.00942430
3180.60335815,0.00933050
3182.53216553,0.00934763
3184.46097290,0.00940369
3186.38978027,0.00928068
3188.31858765,0.00929401
3190.24739502,0.00931391
3192.17620239,0.00931313
3194.10500977,0.00935405
3196.03381714,0.00924731
3197.96262451,0.00930832
3199.89143188,0.00927764
3201.82023926,0.00922664
3203.74904663,0.00933794
3205.67785400,0.00928426
3207.60666138,0.00929662
3209.53546875,0.00925528
3211.46427612,0.00923282
3213.39308350,0.00919781
3215.32189087,0.00919942
3217.25069824,0.00927281
3219.17950562,0.00916669
3221.10831299,0.00919645
3223.03712036,0.00913038
3224.96592773,0.00910881
3226.89473511,0.00921587
3228.82354248,0.00926665
3230.75234985,0.00927040
3232.68115723,0.00917000
3234.60996460,0.00927423
3236.53877197,0.00922661
3238.46757935,0.00923892
3240.39638672,0.00937430
3242.32519409,0.00927456
3244.25400146,0.00920815
3246.18280884,0.00922890
3248.11161621,0.00937534
3250.04042358,0.00927308
3251.96923096,0.00920979
3253.89803833,0.00927625
3255.82684570,0.00923844
3257.75565308,0.00933897
3259.68446045,0.00931811
3261.61326782,0.00940982
3263.54207520,0.00946926
3265.47088257,0.00937952
3267.39968994,0.00938054
3269.32849731,0.00938395
3271.25730469,0.00941780
3273.18611206,0.00936910
3275.11491943,0.00944984
3277.04372681,0.00947013
3278.97253418,0.00944158
3280.90134155,0.00954024
3282.83014893,0.00949583
3284.75895630,0.00953543
3286.68776367,0.00947574
3288.61657104,0.00943146
3290.54537842,0.00958727
3292.47418579,0.00948051
3294.40299316,0.00943705
3296.33180054,0.00952342
3298.26060791,0.00950266
3300.18941528,0.00953737
3302.11822266,0.00952878
3304.04703003,0.00958526
3305.97583740,0.00958133
3307.90464478,0.00956596
3309.83345215,0.00964501
3311.76225952,0.00952789
3313.69106689,0.00961438
3315.61987427,0.00969328
3317.54868164,0.00963063
3319.47748901,0.00968038
3321.40629639,0.00965257
3323.33510376,0.00972805
3325.26391113,0.00966714
3327.19271851,0.00964908
3329.12152588,0.00977651
3331.05033325,0.00975635
3332.97914062,0.00976147
3334.90794800,0.00973736
3336.83675537,0.00981844
3338.76556274,0.00985422
3340.69437012,0.00980314
3342.62317749,0.00982750
3344.55198486,0.00982967
3346.48079224,0.00985408
3348.40959961,0.00990234
3350.33840698,0.00993975
3352.26721436,0.00990387
3354.19602173,0.00994264
3356.12482910,0.00995336
3358.05363647,0.00990650
3359.98244385,0.00992950
3361.91125122,0.00999286
3363.84005859,0.01007533
3365.76886597,0.01007764
3367.69767334,0.01011754
3369.62648071,0.01013171
3371.55528809,0.01016957
3373.48409546,0.01015569
3375.41290283,0.01015478
3377.34171020,0.01023011
3379.27051758,0.01018935
3381.19932495,0.01033035
3383.12813232,0.01034100
3385.05693970,0.01027026
3386.98574707,0.01035827
3388.91455444,0.01036486
3390.84336182,0.01032770
3392.77216919,0.01034871
3394.70097656,0.01044363
3396.62978394,0.01040081
3398.55859131,0.01053268
3400.48739868,0.01057023
3402.41620605,0.01053717
3404.34501343,0.01069105
3406.27382080,0.01058072
3408.20262817,0.01069286
3410.13143555,0.01085539
3412.06024292,0.01082471
3413.98905029,0.01082187
3415.91785767,0.01086629
3417.84666504,0.01087695
3419.77547241,0.01075314
3421.70427979,0.01084744
3423.63308716,0.01093699
3425.56189453,0.01102995
3427.49070190,0.01102913
3429.41950928,0.01098677
3431.34831665,0.01106055
3433.27712402,0.01100662
3435.20593140,0.01113792
3437.13473877,0.01114688
3439.06354614,0.01114772
3440.99235352,0.01123537
3442.92116089,0.01120360
3444.84996826,0.01121918
3446.77877563,0.01113524
3448.70758301,0.01124282
3450.63639038,0.01136371
3452.56519775,0.01133030
3454.49400513,0.01136295
3456.42281250,0.01145651
3458.35161987,0.01151680
3460.28042725,0.01147274
3462.20923462,0.01152994
3464.13804199,0.01163259
3466.06684937,0.01163627
3467.99565674,0.01160209
3469.92446411,0.01171911
3471.85327148,0.01173114
3473.78207886,0.01162351
3475.71088623,0.01170284
3477.63969360,0.01184127
3479.56850098,0.01184928
3481.49730835,0.01167813
3483.42611572,0.01181319
3485.35492310,0.01195898
3487.28373047,0.01188887
3489.21253784,0.01192940
3491.14134521,0.01190908
3493.07015259,0.01202023
3494.99895996,0.01210932
3496.92776733,0.01206441
3498.85657471,0.01208600
3500.78538208,0.01212065
3502.71418945,0.01201905
3504.64299683,0.01206273
3506.57180420,0.01225203
3508.50061157,0.01207592
3510.42941895,0.01204667
3512.35822632,0.01222078
3514.28703369,0.01232852
3516.21584106,0.01236046
3518.14464844,0.01233005
3520.07345581,0.01243788
3522.00226318,0.01230919
3523.93107056,0.01215805
3525.85987793,0.01220507
3527.78868530,0.01225235
3529.71749268,0.01235851
3531.64630005,0.01250350
3533.57510742,0.01254917
3535.50391479,0.01244691
3537.43272217,0.01246757
3539.36152954,0.01258536
3541.29033691,0.01263849
3543.21914429,0.01254467
3545.14795166,0.01227704
3547.07675903,0.01218661
3549.00556641,0.01257023
3550.93437378,0.01264644
3552.86318115,0.01237656
3554.79198853,0.01260275
3556.72079590,0.01272302
3558.64960327,0.01270930
3560.57841064,0.01257539
3562.50721802,0.01248105
3564.43602539,0.01264900
3566.36483276,0.01193437
3568.29364014,0.01159129
3570.22244751,0.01248098
3572.15125488,0.01279549
3574.08006226,0.01271409
3576.00886963,0.01281541
3577.93767700,0.01269148
3579.86648437,0.01277682
3581.79529175,0.01267428
3583.72409912,0.01264401
3585.65290649,0.01256712
3587.58171387,0.01155774
3589.51052124,0.01184189
3591.43932861,0.01276226
3593.36813599,0.01256194
3595.29694336,0.01239451
3597.22575073,0.01242390
3599.15455811,0.01260583
3601.08336548,0.01252638
3603.01217285,0.01269269
3604.94098022,0.01299399
3606.86978760,0.01249808
3608.79859497,0.01177810
3610.72740234,0.01204628
3612.65620972,0.01224278
3614.58501709,0.01194023
3616.51382446,0.01278164
3618.44263184,0.01180866
3620.37143921,0.01153967
3622.30024658,0.01284782
3624.22905395,0.01246794
3626.15786133,0.01311151
3628.08666870,0.01115575
3630.01547607,0.01025817
3631.94428345,0.01277182
3633.87309082,0.01246437
3635.80189819,0.01261536
3637.73070557,0.01290451
3639.65951294,0.01281384
3641.58832031,0.01286476
3643.51712769,0.01266707
3645.44593506,0.01278724
3647.37474243,0.01171540
3649.30354980,0.01080650
3651.23235718,0.01086052
3653.16116455,0.01286176
3655.08997192,0.01267513
3657.01877930,0.01147859
3658.94758667,0.01298461
3660.87639404,0.01267972
3662.80520142,0.01291396
3664.73400879,0.01279427
3666.66281616,0.01282311
3668.59162354,0.01242191
3670.52043091,0.01022762
3672.44923828,0.01232107
3674.37804565,0.01163937
3676.30685303,0.00979851
3678.23566040,0.01210700
3680.16446777,0.01227892
3682.09327515,0.01226048
3684.02208252,0.01258625
3685.95088989,0.01243099
3687.87969727,0.01112211
3689.80850464,0.01027303
3691.73731201,0.01160059
3693.66611938,0.01177264
3695.59492676,0.01206882
3697.52373413,0.01201107
3699.45254150,0.01188213
3701.38134888,0.01156085
3703.31015625,0.01114375
3705.23896362,0.01215716
3707.16777100,0.01149025
3709.09657837,0.01121011
3711.02538574,0.01049327
3712.95419312,0.00989878
3714.88300049,0.01145379
3716.81180786,0.01121755
3718.74061523,0.01128072
3720.66942261,0.01090687
3722.59822998,0.01053430
3724.52703735,0.01086744
3726.45584473,0.01009701
3728.38465210,0.01084659
3730.31345947,0.01073465
3732.24226685,0.00995443
3734.17107422,0.00959217
3736.09988159,0.00922563
3738.02868896,0.00966163
3739.95749634,0.01031583
3741.88630371,0.01083757
3743.81511108,0.00836101
3745.74391846,0.00792050
3747.67272583,0.01020548
3749.60153320,0.00873946
3751.53034058,0.00805167
3753.45914795,0.00921296
3755.38795532,0.00989346
3757.31676270,0.01023049
3759.24557007,0.00943821
3761.17437744,0.00966290
3763.10318481,0.01016100
3765.03199219,0.00953321
3766.96079956,0.00977763
3768.88960693,0.00961968
3770.81841431,0.00922844
3772.74722168,0.00993278
3774.67602905,0.00982494
3776.60483643,0.00977628
3778.53364380,0.00943068
3780.46245117,0.00919875
3782.39125854,0.00978434
3784.32006592,0.00934376
3786.24887329,0.00935730
3788.17768066,0.00955297
3790.10648804,0.00946650
3792.03529541,0.00938392
3793.96410278,0.00941690
3795.89291016,0.00888948
3797.82171753,0.00876218
3799.75052490,0.00923986
3801.67933228,0.00738727
3803.60813965,0.00848815
3805.53694702,0.00926179
3807.46575439,0.00765936
3809.39456177,0.00913868
3811.32336914,0.00894444
3813.25217651,0.00917897
3815.18098389,0.00829378
3817.10979126,0.00734970
3819.03859863,0.00916775
3820.96740601,0.00741808
3822.89621338,0.00776455
3824.82502075,0.00902688
3826.75382812,0.00813621
3828.68263550,0.00870350
3830.61144287,0.00837180
3832.54025024,0.00807388
3834.46905762,0.00827531
3836.39786499,0.00779647
3838.32667236,0.00708476
3840.25547974,0.00775716
3842.18428711,0.00817874
3844.11309448,0.00778923
3846.04190186,0.00844573
3847.97070923,0.00825616
3849.89951660,0.00831906
3851.82832397,0.00753423
3853.75713135,0.00572122
3855.68593872,0.00674265
3857.61474609,0.00827768
3859.54355347,0.00802328
3861.47236084,0.00798774
3863.40116821,0.00769176
3865.32997559,0.00721345
3867.25878296,0.00814654
3869.18759033,0.00728837
3871.11639770,0.00676848
3873.04520508,0.00791552
3874.97401245,0.00721359
3876.90281982,0.00788742
3878.83162720,0.00797511
3880.76043457,0.00691100
3882.68924194,0.00795063
3884.61804932,0.00746083
3886.54685669,0.00677262
3888.47566406,0.00777914
3890.40447144,0.00746089
3892.33327881,0.00697331
3894.26208618,0.00763170
3896.19089355,0.00777315
3898.11970093,0.00741473
3900.04850830,0.00697362
3901.97731567,0.00681988
3903.90612305,0.00682961
3905.83493042,0.00688538
3907.76373779,0.00757686
3909.69254517,0.00755159
3911.62135254,0.00741633
3913.55015991,0.00760639
3915.47896728,0.00726325
3917.40777466,0.00714592
3919.33658203,0.00703059
3921.26538940,0.00718597
3923.19419678,0.00728257
3925.12300415,0.00711153
3927.05181152,0.00723115
3928.98061890,0.00722693
3930.90942627,0.00707437
3932.83823364,0.00695887
3934.76704102,0.00712417
3936.69584839,0.00714953
3938.62465576,0.00716840
3940.55346313,0.00719921
3942.48227051,0.00687292
3944.41107788,0.00693814
3946.33988525,0.00707795
3948.26869263,0.00686066
3950.19750000,0.00681468
3952.12630737,0.00695045
3954.05511475,0.00693179
3955.98392212,0.00692444
3957.91272949,0.00696722
3959.84153687,0.00694878
3961.77034424,0.00695472
3963.69915161,0.00685647
3965.62795898,0.00681996
3967.55676636,0.00686401
3969.48557373,0.00685079
3971.41438110,0.00678246
3973.34318848,0.00674396
3975.27199585,0.00675744
3977.20080322,0.00671490
3979.12961060,0.00671136
3981.05841797,0.00669753
3982.98722534,0.00666960
3984.91603271,0.00666153
3986.84484009,0.00661369
3988.77364746,0.00654834
3990.70245483,0.00656926
3992.63126221,0.00655458
3994.56006958,0.00653902
3996.48887695,0.00657849
3998.41768433,0.00653743
4000.34649170,0.00655933
4002.27529907,0.00641758
4004.20410645,0.00638126
4006.13291382,0.00645998
4008.06172119,0.00641262
4009.99052856,0.00647729
4011.91933594,0.00636937
4013.84814331,0.00628869
4015.77695068,0.00628057
4017.70575806,0.00638394
4019.63456543,0.00637430
4021.56337280,0.00627642
4023.49218018,0.00641336
4025.42098755,0.00621938
4027.34979492,0.00626475
4029.27860229,0.00632224
4031.20740967,0.00609957
4033.13621704,0.00620254
4035.06502441,0.00621373
4036.99383179,0.00620031
4038.92263916,0.00620148
4040.85144653,0.00610515
4042.78025391,0.00605110
4044.70906128,0.00612034
4046.63786865,0.00605727
4048.56667603,0.00595248
4050.49548340,0.00607360
4052.42429077,0.00612853
4054.35309814,0.00611893
4056.28190552,0.00595656
4058.21071289,0.00596380
4060.13952026,0.00598075
4062.06832764,0.00590437
4063.99713501,0.00604087
4065.92594238,0.00596643
4067.85474976,0.00591520
4069.78355713,0.00589322
4071.71236450,0.00588487
4073.64117187,0.00588845
4075.56997925,0.00583689
4077.49878662,0.00583219
4079.42759399,0.00575157
4081.35640137,0.00579044
4083.28520874,0.00569745
4085.21401611,0.00572551
4087.14282349,0.00581477
4089.07163086,0.00564768
4091.00043823,0.00566074
4092.92924561,0.00571461
4094.85805298,0.00571923
4096.78686035,0.00564592
4098.71566772,0.00565191
4100.64447510,0.00565608
4102.57328247,0.00554328
4104.50208984,0.00557168
4106.43089722,0.00554118
4108.35970459,0.00553588
4110.28851196,0.00559774
4112.21731934,0.00558227
4114.14612671,0.00554033
4116.07493408,0.00548317
4118.00374145,0.00548489
4119.93254883,0.00549700
4121.86135620,0.00535980
4123.79016357,0.00537051
4125.71897095,0.00547509
4127.64777832,0.00536895
4129.57658569,0.00536887
4131.50539307,0.00529767
4133.43420044,0.00528128
4135.36300781,0.00534052
4137.29181519,0.00526051
4139.22062256,0.00529723
4141.14942993,0.00523981
4143.07823730,0.00526743
4145.00704468,0.00525687
4146.93585205,0.00520517
4148.86465942,0.00526518
4150.79346680,0.00521678
4152.72227417,0.00521398
4154.65108154,0.00516444
4156.57988892,0.00521112
4158.50869629,0.00512649
4160.43750366,0.00509896
4162.36631103,0.00522864
4164.29511841,0.00508737
4166.22392578,0.00516820
4168.15273315,0.00513492
4170.08154053,0.00504444
4172.01034790,0.00512032
4173.93915527,0.00495881
4175.86796265,0.00497019
4177.79677002,0.00503820
4179.72557739,0.00498832
4181.65438477,0.00500681
4183.58319214,0.00501057
4185.51199951,0.00499682
4187.44080688,0.00496535
4189.36961426,0.00497002
4191.29842163,0.00501578
4193.22722900,0.00494141
4195.15603638,0.00491199
4197.08484375,0.00496282
4199.01365112,0.00484846
4200.94245850,0.00485480
4202.87126587,0.00488624
4204.80007324,0.00483660
4206.72888062,0.00491060
4208.65768799,0.00484804
4210.58649536,0.00480370
4212.51530273,0.00483456
4214.44411011,0.00476288
4216.37291748,0.00476126
4218.30172485,0.00475613
4220.23053223,0.00471903
4222.15933960,0.00475060
4224.08814697,0.00472441
4226.01695435,0.00469719
4227.94576172,0.00473840
4229.87456909,0.00466760
4231.80337646,0.00462056
4233.73218384,0.00472760
4235.66099121,0.00468442
4237.58979858,0.00454585
4239.51860596,0.00456104
4241.44741333,0.00455904
4243.37622070,0.00458191
4245.30502808,0.00455988
4247.23383545,0.00451495
4249.16264282,0.00462345
4251.09145020,0.00451576
4253.02025757,0.00446955
4254.94906494,0.00456513
4256.87787231,0.00453740
4258.80667969,0.00449161
4260.73548706,0.00437476
4262.66429443,0.00445911
4264.59310181,0.00447256
4266.52190918,0.00436800
4268.45071655,0.00441669
4270.37952393,0.00437484
4272.30833130,0.00432779
4274.23713867,0.00436101
4276.16594604,0.00441656
4278.09475342,0.00436375
4280.02356079,0.00437791
4281.95236816,0.00434737
4283.88117554,0.00429621
4285.80998291,0.00437292
4287.73879028,0.00425483
4289.66759766,0.00430285
4291.59640503,0.00426174
4293.52521240,0.00419667
4295.45401978,0.00437289
4297.38282715,0.00421868
4299.31163452,0.00419380
4301.24044189,0.00427634
4303.16924927,0.00416411
4305.09805664,0.00419377
4307.02686401,0.00421387
4308.95567139,0.00412519
4310.88447876,0.00413196
4312.81328613,0.00418938
4314.74209351,0.00415406
4316.67090088,0.00413146
4318.59970825,0.00415581
4320.52851562,0.00416572
4322.45732300,0.00411700
4324.38613037,0.00411922
4326.31493774,0.00410878
4328.24374512,0.00406193
4330.17255249,0.00405994
4332.10135986,0.00398623
4334.03016724,0.00405345
4335.95897461,0.00405652
4337.88778198,0.00396595
4339.81658936,0.00401241
4341.74539673,0.00399635
4343.67420410,0.00400971
4345.60301147,0.00396627
4347.53181885,0.00394609
4349.46062622,0.00403265
4351.38943359,0.00397678
4353.31824097,0.00392044
4355.24704834,0.00394459
4357.17585571,0.00388397
4359.10466309,0.00385126
4361.03347046,0.00384633
4362.96227783,0.00377767
4364.89108520,0.00383470
4366.81989258,0.00384347
4368.74869995,0.00390641
4370.67750732,0.00397477
4372.60631470,0.00379019
4374.53512207,0.00379092
4376.46392944,0.00381528
4378.39273682,0.00375714
4380.32154419,0.00382154
4382.25035156,0.00380582
4384.17915894,0.00372855
4386.10796631,0.00378094
4388.03677368,0.00382148
4389.96558105,0.00369645
4391.89438843,0.00371111
4393.82319580,0.00374916
4395.75200317,0.00367276
4397.68081055,0.00364549
4399.60961792,0.00365722
4401.53842529,0.00367504
4403.46723267,0.00364039
4405.39604004,0.00365658
4407.32484741,0.00366943
4409.25365478,0.00364770
4411.18246216,0.00361742
4413.11126953,0.00363667
4415.04007690,0.00365137
4416.96888428,0.00354796
4418.89769165,0.00351998
4420.82649902,0.00351916
4422.75530640,0.00353711
4424.68411377,0.00351978
4426.61292114,0.00354334
4428.54172852,0.00361331
4430.47053589,0.00353477
4432.39934326,0.00350617
4434.32815063,0.00348237
4436.25695801,0.00348368
4438.18576538,0.00345774
4440.11457275,0.00342756
4442.04338013,0.00350036
4443.97218750,0.00349275
4445.90099487,0.00346538
4447.82980225,0.00341849
4449.75860962,0.00342565
4451.68741699,0.00341545
4453.61622437,0.00339926
4455.54503174,0.00341445
4457.47383911,0.00336012
4459.40264648,0.00340380
4461.33145386,0.00340679
4463.26026123,0.00334932
4465.18906860,0.00332375
4467.11787598,0.00333618
4469.04668335,0.00328883
4470.97549072,0.00323561
4472.90429810,0.00330755
4474.83310547,0.00321603
4476.76191284,0.00325779
4478.69072021,0.00339638
4480.61952759,0.00325507
4482.54833496,0.00323967
4484.47714233,0.00331031
4486.40594971,0.00325901
4488.33475708,0.00322925
4490.26356445,0.00320031
4492.19237183,0.00322440
4494.12117920,0.00324589
4496.04998657,0.00317495
4497.97879395,0.00316893
4499.90760132,0.00319838
4501.83640869,0.00320367
4503.76521606,0.00313838
4505.69402344,0.00314868
4507.62283081,0.00321275
4509.55163818,0.00309955
4511.48044556,0.00313454
4513.40925293,0.00312947
4515.33806030,0.00305635
4517.26686768,0.00312083
4519.19567505,0.00308029
4521.12448242,0.00312498
4523.05328979,0.00311487
4524.98209717,0.00307662
4526.91090454,0.00310482
4528.83971191,0.00304089
4530.76851929,0.00302334
4532.69732666,0.00298946
4534.62613403,0.00299266
4536.55494141,0.00297519
4538.48374878,0.00297247
4540.41255615,0.00305811
4542.34136353,0.00298020
4544.27017090,0.00294083
4546.19897827,0.00304155
4548.12778564,0.00298148
4550.05659302,0.00296374
4551.98540039,0.00300753
4553.91420776,0.00290181
4555.84301514,0.00291570
4557.77182251,0.00288580
4559.70062988,0.00288675
4561.62943726,0.00293343
4563.55824463,0.00279975
4565.48705200,0.00287483
4567.41585937,0.00291577
4569.34466675,0.00287476
4571.27347412,0.00289357
4573.20228149,0.00285423
4575.13108887,0.00287720
4577.05989624,0.00288020
4578.98870361,0.00285298
4580.91751099,0.00278448
4582.84631836,0.00282407
4584.77512573,0.00283160
4586.70393311,0.00279484
4588.63274048,0.00282673
4590.56154785,0.00273380
4592.49035522,0.00274907
4594.41916260,0.00275336
4596.34796997,0.00270930
4598.27677734,0.00274012
4600.20558472,0.00278043
4602.13439209,0.00277574
4604.06319946,0.00270856
4605.99200684,0.00270854
4607.92081421,0.00267639
4609.84962158,0.00272737
4611.77842895,0.00266014
4613.70723633,0.00257219
4615.63604370,0.00271452
4617.56485107,0.00265105
4619.49365845,0.00260263
4621.42246582,0.00267595
4623.35127319,0.00269178
4625.28008057,0.00267476
4627.20888794,0.00259332
4629.13769531,0.00256622
4631.06650269,0.00266707
4632.99531006,0.00268530
4634.92411743,0.00254663
4636.85292480,0.00254605
4638.78173218,0.00254490
4640.71053955,0.00255984
4642.63934692,0.00260040
4644.56815430,0.00253662
4646.49696167,0.00259202
4648.42576904,0.00254106
4650.35457642,0.00246059
4652.28338379,0.00255654
4654.21219116,0.00259191
4656.14099853,0.00257785
4658.06980591,0.00260656
4659.99861328,0.00255471
4661.92742065,0.00249683
4663.85622803,0.00252269
4665.78503540,0.00247941
4667.71384277,0.00250992
4669.64265015,0.00250772
4671.57145752,0.00247190
4673.50026489,0.00248826
4675.42907227,0.00242580
4677.35787964,0.00242506
4679.28668701,0.00240440
4681.21549438,0.00243984
4683.14430176,0.00242132
4685.07310913,0.00238747
4687.00191650,0.00241822
4688.93072388,0.00235237
4690.85953125,0.00243105
4692.78833862,0.00236751
4694.71714600,0.00238750
4696.64595337,0.00246396
4698.57476074,0.00226776
4700.50356812,0.00234132
4702.43237549,0.00236119
4704.36118286,0.00231234
4706.28999023,0.00235083
4708.21879761,0.00228422
4710.14760498,0.00232629
4712.07641235,0.00230863
4714.00521973,0.00228899
4715.93402710,0.00228992
4717.86283447,0.00225131
4719.79164185,0.00233250
4721.72044922,0.00236913
4723.64925659,0.00229912
4725.57806396,0.00229689
4727.50687134,0.00232816
4729.43567871,0.00226528
4731.36448608,0.00225008
4733.29329346,0.00225286
4735.22210083,0.00226952
4737.15090820,0.00230381
4739.07971558,0.00222008
4741.00852295,0.00223317
4742.93733032,0.00229160
4744.86613770,0.00230174
4746.79494507,0.00226172
4748.72375244,0.00216791
4750.65255981,0.00218835
4752.58136719,0.00222064
4754.51017456,0.00225086
4756.43898193,0.00222187
4758.36778931,0.00217504
4760.29659668,0.00216051
4762.22540405,0.00213155
4764.15421143,0.00221036
4766.08301880,0.00217755
4768.01182617,0.00222335
4769.94063354,0.00227672
4771.86944092,0.00214171
4773.79824829,0.00221756
4775.72705566,0.00215435
4777.65586304,0.00205843
4779.58467041,0.00215144
4781.51347778,0.00207607
4783.44228516,0.00209475
4785.37109253,0.00218579
4787.29989990,0.00212224
4789.22870728,0.00209700
4791.15751465,0.00213366
4793.08632202,0.00201777
4795.01512939,0.00195109
4796.94393677,0.00203769
4798.87274414,0.00203059
4800.80155151,0.00206985
4802.73035889,0.00208673
4804.65916626,0.00201563
4806.58797363,0.00200552
4808.51678101,0.00202644
4810.44558838,0.00201069
4812.37439575,0.00197920
4814.30320312,0.00203063
4816.23201050,0.00197552
4818.16081787,0.00193428
4820.08962524,0.00202769
4822.01843262,0.00201953
4823.94723999,0.00196028
4825.87604736,0.00190765
4827.80485474,0.00194404
4829.73366211,0.00197713
4831.66246948,0.00198192
4833.59127686,0.00202001
4835.52008423,0.00198101
4837.44889160,0.00198578
4839.37769897,0.00192637
4841.30650635,0.00184703
4843.23531372,0.00192983
4845.16412109,0.00197504
4847.09292847,0.00191282
4849.02173584,0.00183165
4850.95054321,0.00185812
4852.87935059,0.00191909
4854.80815796,0.00195145
4856.73696533,0.00192007
4858.66577270,0.00185340
4860.59458008,0.00189752
4862.52338745,0.00180165
4864.45219482,0.00178214
4866.38100220,0.00192032
4868.30980957,0.00184592
4870.23861694,0.00185343
4872.16742432,0.00184750
4874.09623169,0.00173689
4876.02503906,0.00178984
4877.95384644,0.00182957
4879.88265381,0.00177250
4881.81146118,0.00177054
4883.74026855,0.00183041
4885.66907593,0.00179703
4887.59788330,0.00180432
4889.52669067,0.00181426
4891.45549805,0.00179254
4893.38430542,0.00185227
4895.31311279,0.00180285
4897.24192017,0.00179469
4899.17072754,0.00180014
4901.09953491,0.00178919
4903.02834228,0.00179092
4904.95714966,0.00173366
4906.88595703,0.00177936
4908.81476440,0.00172970
4910.74357178,0.00172375
4912.67237915,0.00177212
4914.60118652,0.00166579
4916.52999390,0.00168308
4918.45880127,0.00175548
4920.38760864,0.00170266
4922.31641602,0.00170945
4924.24522339,0.00181523
4926.17403076,0.00169989
4928.10283813,0.00165863
4930.03164551,0.00176273
4931.96045288,0.00169331
4933.88926025,0.00170646
4935.81806763,0.00165936
4937.74687500,0.00165109
4939.67568237,0.00171756
4941.60448975,0.00163090
4943.53329712,0.00163299
4945.46210449,0.00166451
4947.39091187,0.00161651
4949.31971924,0.00157532
4951.24852661,0.00167460
4953.17733398,0.00168523
4955.10614136,0.00159492
4957.03494873,0.00167223
4958.96375610,0.00162667
4960.89256348,0.00153340
4962.82137085,0.00157726
4964.75017822,0.00161180
4966.67898560,0.00161075
4968.60779297,0.00158193
4970.53660034,0.00154396
4972.46540771,0.00154546
4974.39421509,0.00157639
4976.32302246,0.00155850
4978.25182983,0.00156383
4980.18063721,0.00157655
4982.10944458,0.00155055
4984.03825195,0.00157239
4985.96705933,0.00157320
4987.89586670,0.00155375
4989.82467407,0.00162416
4991.75348145,0.00159182
4993.68228882,0.00146016
4995.61109619,0.00146432
4997.53990356,0.00147641
4999.46871094,0.00150716
5001.39751831,0.00150756
5003.32632568,0.00145475
5005.25513306,0.00148770
5007.18394043,0.00151499
5009.11274780,0.00149903
5011.04155518,0.00143421
5012.97036255,0.00149001
5014.89916992,0.00149811
5016.82797729,0.00146485
5018.75678467,0.00154003
5020.68559204,0.00140195
5022.61439941,0.00138878
5024.54320679,0.00151064
5026.47201416,0.00147936
5028.40082153,0.00145250
5030.32962891,0.00144007
5032.25843628,0.00145025
5034.18724365,0.00141083
5036.11605103,0.00138088
5038.04485840,0.00136507
5039.97366577,0.00139670
5041.90247314,0.00146344
5043.83128052,0.00140912
5045.76008789,0.00140328
5047.68889526,0.00144490
5049.61770264,0.00139789
5051.54651001,0.00136177
5053.47531738,0.00142869
5055.40412476,0.00144422
5057.33293213,0.00136516
5059.26173950,0.00135320
5061.19054687,0.00137952
5063.11935425,0.00137044
5065.04816162,0.00135852
5066.97696899,0.00133240
5068.90577637,0.00133583
5070.83458374,0.00138096
5072.76339111,0.00133349
5074.69219849,0.00135137
5076.62100586,0.00136369
5078.54981323,0.00136849
5080.47862061,0.00142899
5082.40742798,0.00130077
5084.33623535,0.00133171
5086.26504272,0.00135046
5088.19385010,0.00126804
5090.12265747,0.00135407
5092.05146484,0.00132037
5093.98027222,0.00128730
5095.90907959,0.00126834
5097.83788696,0.00128226
5099.76669434,0.00130832
5101.69550171,0.00128690
5103.62430908,0.00132288
5105.55311645,0.00135442
5107.48192383,0.00137205
5109.41073120,0.00127062
5111.33953857,0.00124574
5113.26834595,0.00124338
5115.19715332,0.00122826
5117.12596069,0.00124376
5119.05476807,0.00117988
5120.98357544,0.00125402
5122.91238281,0.00124338
5124.84119019,0.00124545
5126.76999756,0.00133356
5128.69880493,0.00126289
5130.62761230,0.00120762
5132.55641968,0.00122796
5134.48522705,0.00123291
5136.41403442,0.00115699
5138.34284180,0.00118819
5140.27164917,0.00123253
5142.20045654,0.00120577
5144.12926392,0.00120797
5146.05807129,0.00117612
5147.98687866,0.00115386
5149.91568603,0.00115948
5151.84449341,0.00125419
5153.77330078,0.00123877
5155.70210815,0.00114484
5157.63091553,0.00113278
5159.55972290,0.00113723
5161.48853027,0.00114995
5163.41733765,0.00112678
5165.34614502,0.00118520
5167.27495239,0.00119096
5169.20375977,0.00113138
5171.13256714,0.00112200
5173.06137451,0.00112342
5174.99018188,0.00113373
5176.91898926,0.00112516
5178.84779663,0.00113078
5180.77660400,0.00110095
5182.70541138,0.00112572
5184.63421875,0.00111679
5186.56302612,0.00110187
5188.49183350,0.00116461
5190.42064087,0.00115839
5192.34944824,0.00118514
5194.27825562,0.00118396
5196.20706299,0.00111494
5198.13587036,0.00109496
5200.06467773,0.00115810
5201.99348511,0.00108742
5203.92229248,0.00105210
5205.85109985,0.00112556
5207.77990723,0.00102702
5209.70871460,0.00107139
5211.63752197,0.00106180
5213.56632935,0.00104905
5215.49513672,0.00111047
5217.42394409,0.00100866
5219.35275146,0.00107906
5221.28155884,0.00112055
5223.21036621,0.00111940
5225.13917358,0.00110176
5227.06798096,0.00107145
5228.99678833,0.00105581
5230.92559570,0.00094019
5232.85440308,0.00105259
5234.78321045,0.00107244
5236.71201782,0.00098814
5238.64082520,0.00106778
5240.56963257,0.00105840
5242.49843994,0.00101942
5244.42724731,0.00101115
5246.35605469,0.00102072
5248.28486206,0.00099061
5250.21366943,0.00097893
5252.14247681,0.00101609
5254.07128418,0.00102171
5256.00009155,0.00103246
5257.92889893,0.00103771
5259.85770630,0.00102627
5261.78651367,0.00101655
5263.71532104,0.00099165
5265.64412842,0.00092270
5267.57293579,0.00096801
5269.50174316,0.00102924
5271.43055054,0.00100171
5273.35935791,0.00100952
5275.28816528,0.00096527
5277.21697266,0.00098413
5279.14578003,0.00104772
5281.07458740,0.00104344
5283.00339478,0.00106503
5284.93220215,0.00106502
5286.86100952,0.00098109
5288.78981689,0.00089012
5290.71862427,0.00095828
5292.64743164,0.00100767
5294.57623901,0.00095529
5296.50504639,0.00100134
5298.43385376,0.00097310
5300.36266113,0.00092196
5302.29146851,0.00094825
5304.22027588,0.00088260
5306.14908325,0.00087658
5308.07789062,0.00090285
5310.00669800,0.00090711
5311.93550537,0.00098510
5313.86431274,0.00096230
5315.79312012,0.00089305
5317.72192749,0.00093417
5319.65073486,0.00094438
5321.57954224,0.00088295
5323.50834961,0.00091809
5325.43715698,0.00095016
5327.36596436,0.00093054
5329.29477173,0.00092271
5331.22357910,0.00089462
5333.15238647,0.00089897
5335.08119385,0.00083689
5337.01000122,0.00089086
5338.93880859,0.00090432
5340.86761597,0.00083351
5342.79642334,0.00097653
5344.72523071,0.00089145
5346.65403809,0.00084017
5348.58284546,0.00091021
5350.51165283,0.00085633
5352.44046020,0.00088567
5354.36926758,0.00083394
5356.29807495,0.00084888
5358.22688232,0.00086996
5360.15568970,0.00083872
5362.08449707,0.00082231
5364.01330444,0.00082558
5365.94211182,0.00089693
5367.87091919,0.00087320
5369.79972656,0.00089002
5371.72853394,0.00086184
5373.65734131,0.00082314
5375.58614868,0.00080658
5377.51495605,0.00082833
5379.44376343,0.00090156
5381.37257080,0.00082088
5383.30137817,0.00088388
5385.23018555,0.00090927
5387.15899292,0.00080176
5389.08780029,0.00079637
5391.01660767,0.00083887
5392.94541504,0.00081111
5394.87422241,0.00074037
5396.80302978,0.00084885
5398.73183716,0.00082799
5400.66064453,0.00081316
5402.58945190,0.00081509
5404.51825928,0.00074977
5406.44706665,0.00085064
5408.37587402,0.00079616
5410.30468140,0.00085319
5412.23348877,0.00090953
5414.16229614,0.00077973
5416.09110352,0.00077098
5418.01991089,0.00077163
5419.94871826,0.00083368
5421.87752563,0.00082107
5423.80633301,0.00073581
5425.73514038,0.00072355
5427.66394775,0.00078092
5429.59275513,0.00078805
5431.52156250,0.00073031
5433.45036987,0.00077106
5435.37917725,0.00069210
5437.30798462,0.00066788
5439.23679199,0.00079937
5441.16559936,0.00081525
5443.09440674,0.00075078
5445.02321411,0.00071178
5446.95202148,0.00079101
5448.88082886,0.00079593
5450.80963623,0.00072488
5452.73844360,0.00075585
5454.66725098,0.00077105
5456.59605835,0.00073531
5458.52486572,0.00073291
5460.45367310,0.00074164
5462.38248047,0.00069093
5464.31128784,0.00074382
5466.24009521,0.00082773
5468.16890259,0.00074961
5470.09770996,0.00075800
5472.02651733,0.00081285
5473.95532471,0.00074617
5475.88413208,0.00073229
5477.81293945,0.00074993
5479.74174683,0.00071713
5481.67055420,0.00069312
5483.59936157,0.00069041
5485.52816895,0.00072953
5487.45697632,0.00072537
5489.38578369,0.00063542
5491.31459106,0.00068058
5493.24339844,0.00074319
5495.17220581,0.00061651
5497.10101318,0.00060779
5499.02982056,0.00069042
5500.95862793,0.00069750
5502.88743530,0.00068163
5504.81624268,0.00063723
5506.74505005,0.00067192
5508.67385742,0.00066217
5510.60266479,0.00067705
5512.53147217,0.00071165
5514.46027954,0.00063838
5516.38908691,0.00065567
5518.31789429,0.00067925
5520.24670166,0.00078046
5522.17550903,0.00080512
5524.10431641,0.00068637
5526.03312378,0.00067624
5527.96193115,0.00059896
5529.89073853,0.00062223
5531.81954590,0.00066982
5533.74835327,0.00062033
5535.67716064,0.00068778
5537.60596802,0.00066410
5539.53477539,0.00059067
5541.46358276,0.00059659
5543.39239014,0.00062022
5545.32119751,0.00066331
5547.25000488,0.00065660
5549.17881226,0.00065849
5551.10761963,0.00069621
5553.03642700,0.00067987
5554.96523437,0.00066066
5556.89404175,0.00064254
5558.82284912,0.00061188
5560.75165649,0.00060904
5562.68046387,0.00066384
5564.60927124,0.00068548
5566.53807861,0.00061238
5568.46688599,0.00064181
5570.39569336,0.00062337
5572.32450073,0.00058423
5574.25330811,0.00061311
5576.18211548,0.00055770
5578.11092285,0.00063243
5580.03973022,0.00065384
5581.96853760,0.00063640
5583.89734497,0.00060803
5585.82615234,0.00053010
5587.75495972,0.00057436
5589.68376709,0.00051388
5591.61257446,0.00062541
5593.54138184,0.00066863
5595.47018921,0.00053384
5597.39899658,0.00058875
5599.32780395,0.00052375
5601.25661133,0.00056532
5603.18541870,0.00063264
5605.11422607,0.00056962
5607.04303345,0.00059556
5608.97184082,0.00060699
5610.90064819,0.00060723
5612.82945557,0.00058074
5614.75826294,0.00056979
5616.68707031,0.00054754
5618.61587769,0.00058827
5620.54468506,0.00062676
5622.47349243,0.00050163
5624.40229980,0.00053629
5626.33110718,0.00067288
5628.25991455,0.00060611
5630.18872192,0.00057610
5632.11752930,0.00057984
5634.04633667,0.00050758
5635.97514404,0.00063945
5637.90395142,0.00065211
5639.83275879,0.00052519
5641.76156616,0.00056478
5643.69037353,0.00055287
5645.61918091,0.00053724
5647.54798828,0.00048786
5649.47679565,0.00049193
5651.40560303,0.00051652
5653.33441040,0.00052089
5655.26321777,0.00060070
5657.19202515,0.00052705
5659.12083252,0.00048962
5661.04963989,0.00054697
5662.97844727,0.00059027
5664.90725464,0.00055333
5666.83606201,0.00053078
5668.76486938,0.00059365
5670.69367676,0.00053674
5672.62248413,0.00050848
5674.55129150,0.00049974
5676.48009888,0.00057973
5678.40890625,0.00056678
5680.33771362,0.00048168
5682.26652100,0.00060515
5684.19532837,0.00050672
5686.12413574,0.00045171
5688.05294311,0.00054771
5689.98175049,0.00052091
5691.91055786,0.00051089
5693.83936523,0.00051752
5695.76817261,0.00056691
5697.69697998,0.00052073
5699.62578735,0.00046607
5701.55459473,0.00047814
5703.48340210,0.00050203
5705.41220947,0.00055588
5707.34101685,0.00053247
5709.26982422,0.00050549
5711.19863159,0.00055386
5713.12743896,0.00057072
5715.05624634,0.00046416
5716.98505371,0.00048102
5718.91386108,0.00051295
5720.84266846,0.00043463
5722.77147583,0.00047307
5724.70028320,0.00046912
5726.62909058,0.00048318
5728.55789795,0.00049321
5730.48670532,0.00048608
5732.41551270,0.00050540
5734.34432007,0.00047115
5736.27312744,0.00053927
5738.20193481,0.00048399
5740.13074219,0.00041862
5742.05954956,0.00047867
5743.98835693,0.00046947
5745.91716431,0.00049302
5747.84597168,0.00049429
5749.77477905,0.00050198
5751.70358643,0.00049985
5753.63239380,0.00051860
5755.56120117,0.00048602
5757.49000854,0.00040980
5759.41881592,0.00050857
5761.34762329,0.00046138
5763.27643066,0.00041999
5765.20523804,0.00048306
5767.13404541,0.00044074
5769.06285278,0.00045667
5770.99166016,0.00043994
5772.92046753,0.00047232
5774.84927490,0.00045474
5776.77808228,0.00038558
5778.70688965,0.00047078
5780.63569702,0.00047292
5782.56450439,0.00044471
5784.49331177,0.00044995
5786.42211914,0.00042266
5788.35092651,0.00039815
5790.27973389,0.00041892
5792.20854126,0.00041859
5794.13734863,0.00036832
5796.06615601,0.00044478
5797.99496338,0.00048358
5799.92377075,0.00041572
5801.85257812,0.00038756
5803.78138550,0.00043020
5805.71019287,0.00044186
5807.63900024,0.00036583
5809.56780762,0.00041478
5811.49661499,0.00042854
5813.42542236,0.00039044
5815.35422974,0.00049249
5817.28303711,0.00049230
5819.21184448,0.00040640
5821.14065186,0.00041811
5823.06945923,0.00042061
5824.99826660,0.00039136
5826.92707397,0.00039467
5828.85588135,0.00035007
5830.78468872,0.00038689
5832.71349609,0.00045695
5834.64230347,0.00034301
5836.57111084,0.00032301
5838.49991821,0.00042774
5840.42872559,0.00040591
5842.35753296,0.00039975
5844.28634033,0.00046264
5846.21514770,0.00036285
5848.14395508,0.00030964
5850.07276245,0.00039002
5852.00156982,0.00032516
5853.93037720,0.00035820
5855.85918457,0.00041942
5857.78799194,0.00036382
5859.71679932,0.00041730
5861.64560669,0.00035457
5863.57441406,0.00030202
5865.50322144,0.00046116
5867.43202881,0.00045440
5869.36083618,0.00034957
5871.28964355,0.00036879
5873.21845093,0.00036807
5875.14725830,0.00035178
5877.07606567,0.00038493
5879.00487305,0.00040000
5880.93368042,0.00035994
5882.86248779,0.00033887
5884.79129517,0.00029329
5886.72010254,0.00030845
5888.64890991,0.00042844
5890.57771728,0.00041005
5892.50652466,0.00038012
5894.43533203,0.00033457
5896.36413940,0.00035716
5898.29294678,0.00042666
5900.22175415,0.00031865
5902.15056152,0.00035721
5904.07936890,0.00031868
5906.00817627,0.00025925
5907.93698364,0.00032782
5909.86579102,0.00026772
5911.79459839,0.00032466
5913.72340576,0.00032727
5915.65221313,0.00030960
5917.58102051,0.00037636
5919.50982788,0.00036906
5921.43863525,0.00034824
5923.36744263,0.00033642
5925.29625000,0.00039445
5927.22505737,0.00037040
5929.15386475,0.00035806
5931.08267212,0.00038720
5933.01147949,0.00034341
5934.94028686,0.00031776
5936.86909424,0.00029799
5938.79790161,0.00035485
5940.72670898,0.00038810
5942.65551636,0.00033432
5944.58432373,0.00033472
5946.51313110,0.00034207
5948.44193848,0.00027236
5950.37074585,0.00029806
5952.29955322,0.00033802
5954.22836060,0.00032581
5956.15716797,0.00036129
5958.08597534,0.00031920
5960.01478271,0.00036786
5961.94359009,0.00033180
5963.87239746,0.00027886
5965.80120483,0.00037043
5967.73001221,0.00031512
5969.65881958,0.00030947
5971.58762695,0.00033886
5973.51643433,0.00036212
5975.44524170,0.00028333
5977.37404907,0.00029525
5979.30285645,0.00039083
5981.23166382,0.00028383
5983.16047119,0.00040326
5985.08927856,0.00042813
5987.01808594,0.00031581
5988.94689331,0.00026333
5990.87570068,0.00023579
5992.80450806,0.00034021
5994.73331543,0.00029327
5996.66212280,0.00032042
5998.59093018,0.00033399
6000.51973755,0.00029162
