399.26312622,0.00148471
401.19193359,0.00217669
403.12074097,0.00176205
405.04954834,0.00129132
406.97835571,0.00121473
408.90716309,0.00135328
410.83597046,0.00158432
412.76477783,0.00175271
414.69358521,0.00175625
416.62239258,0.00191661
418.55119995,0.00203750
420.48000732,0.00220828
422.40881470,0.00209681
424.33762207,0.00179623
426.26642944,0.00195573
428.19523682,0.00192206
430.12404419,0.00199235
432.05285156,0.00229922
433.98165894,0.00230619
435.91046631,0.00199705
437.83927368,0.00157065
439.76808105,0.00180174
441.69688843,0.00164256
443.62569580,0.00167678
445.55450317,0.00234047
447.48331055,0.00171073
449.41211792,0.00144011
451.34092529,0.00139734
453.26973267,0.00151338
455.19854004,0.00204842
457.12734741,0.00129704
459.05615479,0.00140136
460.98496216,0.00150907
462.91376953,0.00085701
464.84257690,0.00077084
466.77138428,0.00087313
468.70019165,0.00143203
470.62899902,0.00107461
472.55780640,0.00063420
474.48661377,0.00066403
476.41542114,0.00078355
478.34422852,0.00107268
480.27303589,0.00077784
482.20184326,0.00086926
484.13065063,0.00061361
486.05945801,0.00010004
487.98826538,0.00045935
489.91707275,0.00078938
491.84588013,0.00059025
493.77468750,0.00070780
495.70349487,0.00078880
497.63230225,0.00033819
499.56110962,0.00041027
501.48991699,0.00055043
503.41872437,0.00058401
505.34753174,0.00026292
507.27633911,0.00026270
509.20514648,0.00070515
511.13395386,0.00035751
513.06276123,0.00015881
514.99156860,0.00051577
516.92037598,0.00075405
518.84918335,0.00004732
520.77799072,0.00029350
522.70679810,0.00087037
524.63560547,0.00032466
526.56441284,0.00031180
528.49322021,0.00039097
530.42202759,0.00082276
532.35083496,0.00043879
534.27964233,0.00003386
536.20844971,0.00035722
538.13725708,0.00022685
540.06606445,0.00030223
541.99487183,0.00012220
543.92367920,0.00050294
545.85248657,0.00046133
547.78129395,0.00061968
549.71010132,0.00088254
551.63890869,0.00020401
553.56771606,0.00054919
555.49652344,0.00045007
557.42533081,0.00024992
559.35413818,0.00040802
561.28294556,0.00037066
563.21175293,0.00018985
565.14056030,0.00006709
567.06936768,0.00044549
568.99817505,0.00016036
570.92698242,0.00051109
572.85578979,0.00079901
574.78459717,0.00033407
576.71340454,0.00020387
578.64221191,0.00002579
580.57101929,0.00043792
582.49982666,0.00046837
584.42863403,-0.00015999
586.35744141,-0.00018390
588.28624878,0.00024617
590.21505615,0.00045607
592.14386353,0.00038791
594.07267090,0.00028361
596.00147827,0.00041675
597.93028564,0.00027214
599.85909302,-0.00005077
601.78790039,0.00029780
603.71670776,0.00016867
605.64551514,0.00015896
607.57432251,0.00010425
609.50312988,0.00025139
611.43193726,0.00068242
613.36074463,0.00003887
615.28955200,0.00007117
617.21835938,0.00005898
619.14716675,0.00015901
621.07597412,0.00022529
623.00478149,-0.00009413
624.93358887,0.00034967
626.86239624,0.00012726
628.79120361,0.00027452
630.72001099,0.00089913
632.64881836,0.00100247
634.57762573,0.00118944
636.50643311,0.00155493
638.43524048,0.00178699
640.36404785,0.00148346
642.29285522,0.00204109
644.22166260,0.00275786
646.15046997,0.00248848
648.07927734,0.00250130
650.00808472,0.00276350
651.93689209,0.00290652
653.86569946,0.00315414
655.79450684,0.00311198
657.72331421,0.00299603
659.65212158,0.00345452
661.58092896,0.00303133
663.50973633,0.00322990
665.43854370,0.00403316
667.36735107,0.00314447
669.29615845,0.00358190
671.22496582,0.00434587
673.15377319,0.00432158
675.08258057,0.00472431
677.01138794,0.00475605
678.94019531,0.00503955
680.86900269,0.00490891
682.79781006,0.00490698
684.72661743,0.00494895
686.65542480,0.00473185
688.58423218,0.00491243
690.51303955,0.00498058
692.44184692,0.00546495
694.37065430,0.00586461
696.29946167,0.00651350
698.22826904,0.00744438
700.15707642,0.00800410
702.08588379,0.00812611
704.01469116,0.00768776
705.94349854,0.00689673
707.87230591,0.00567801
709.80111328,0.00472177
711.72992065,0.00305835
713.65872803,0.00164555
715.58753540,0.00124104
717.51634277,0.00061594
719.44515015,0.00062591
721.37395752,0.00038156
723.30276489,0.00047160
725.23157227,0.00052435
727.16037964,-0.00000449
729.08918701,0.00024132
731.01799438,0.00012494
732.94680176,0.00029718
734.87560913,0.00034954
736.80441650,0.00009102
738.73322388,0.00035600
740.66203125,-0.00003715
742.59083862,0.00005543
744.51964600,0.00058808
746.44845337,0.00050102
748.37726074,0.00033574
750.30606812,0.00013034
752.23487549,0.00029642
754.16368286,0.00019859
756.09249023,-0.00015624
758.02129761,0.00009915
759.95010498,0.00028977
761.87891235,0.00016215
763.80771973,0.00027056
765.73652710,0.00058279
767.66533447,0.00068090
769.59414185,0.00051441
771.52294922,0.00062277
773.45175659,0.00053590
775.38056396,0.00031284
777.30937134,0.00061684
779.23817871,0.00042432
781.16698608,0.00039723
783.09579346,0.00070481
785.02460083,0.00066241
786.95340820,0.00069632
788.88221558,0.00045900
790.81102295,0.00044330
792.73983032,0.00046568
794.66863770,0.00061505
796.59744507,0.00097971
798.52625244,0.00108387
800.45505981,0.00141653
802.38386719,0.00145579
804.31267456,0.00111957
806.24148193,0.00077427
808.17028931,0.00081472
810.09909668,0.00087760
812.02790405,0.00040737
813.95671143,0.00026923
815.88551880,0.00038224
817.81432617,0.00048156
819.74313354,0.00036041
821.67194092,0.00049088
823.60074829,0.00088127
825.52955566,0.00077601
827.45836304,0.00111281
829.38717041,0.00130729
831.31597778,0.00128865
833.24478516,0.00191989
835.17359253,0.00208302
837.10239990,0.00202449
839.03120728,0.00222313
840.96001465,0.00226356
842.88882202,0.00215542
844.81762939,0.00188202
846.74643677,0.00172025
848.67524414,0.00166280
850.60405151,0.00144176
852.53285889,0.00113413
854.46166626,0.00108333
856.39047363,0.00103347
858.31928101,0.00089376
860.24808838,0.00091961
862.17689575,0.00076004
864.10570313,0.00080782
866.03451050,0.00056606
867.96331787,0.00047451
869.89212524,0.00102126
871.82093262,0.00085416
873.74973999,0.00078729
875.67854736,0.00041026
877.60735474,0.00013818
879.53616211,0.00059228
881.46496948,0.00033804
883.39377686,0.00045279
885.32258423,0.00048415
887.25139160,0.00040642
889.18019897,0.00059268
891.10900635,0.00035858
893.03781372,0.00041743
894.96662109,0.00038694
896.89542847,0.00063088
898.82423584,0.00068738
900.75304321,0.00031212
902.68185059,0.00044670
904.61065796,0.00066203
906.53946533,0.00065009
908.46827271,0.00080464
910.39708008,0.00114844
912.32588745,0.00091934
914.25469482,0.00117227
916.18350220,0.00150847
918.11230957,0.00136718
920.04111694,0.00154219
921.96992432,0.00160878
923.89873169,0.00220463
925.82753906,0.00221912
927.75634644,0.00214314
929.68515381,0.00263966
931.61396118,0.00266236
933.54276855,0.00295488
935.47157593,0.00306336
937.40038330,0.00341185
939.32919067,0.00361106
941.25799805,0.00378945
943.18680542,0.00411389
945.11561279,0.00362715
947.04442017,0.00364341
948.97322754,0.00345421
950.90203491,0.00335583
952.83084229,0.00364985
954.75964966,0.00352279
956.68845703,0.00371184
958.61726440,0.00363267
960.54607178,0.00344881
962.47487915,0.00338166
964.40368652,0.00368496
966.33249390,0.00390208
968.26130127,0.00381170
970.19010864,0.00441559
972.11891602,0.00441761
974.04772339,0.00454958
975.97653076,0.00536887
977.90533813,0.00556597
979.83414551,0.00596511
981.76295288,0.00651018
983.69176025,0.00711985
985.62056763,0.00786160
987.54937500,0.00873138
989.47818237,0.00996972
991.40698975,0.01078816
993.33579712,0.01188625
995.26460449,0.01296148
997.19341187,0.01379418
999.12221924,0.01551049
1001.05102661,0.01669559
1002.97983398,0.01753777
1004.90864136,0.01875633
1006.83744873,0.01976519
1008.76625610,0.02113019
1010.69506348,0.02257309
1012.62387085,0.02373199
1014.55267822,0.02485339
1016.48148560,0.02616179
1018.41029297,0.02749006
1020.33910034,0.02883389
1022.26790771,0.03012148
1024.19671509,0.03105937
1026.12552246,0.03223885
1028.05432983,0.03337782
1029.98313721,0.03427235
1031.91194458,0.03527857
1033.84075195,0.03617084
1035.76955933,0.03666451
1037.69836670,0.03685830
1039.62717407,0.03719475
1041.55598145,0.03733363
1043.48478882,0.03698593
1045.41359619,0.03639100
1047.34240356,0.03595699
1049.27121094,0.03562673
1051.20001831,0.03497627
1053.12882568,0.03415815
1055.05763306,0.03344964
1056.98644043,0.03284140
1058.91524780,0.03201942
1060.84405518,0.03118099
1062.77286255,0.03026939
1064.70166992,0.02921180
1066.63047729,0.02823384
1068.55928467,0.02705951
1070.48809204,0.02576245
1072.41689941,0.02468824
1074.34570679,0.02362137
1076.27451416,0.02216597
1078.20332153,0.02119613
1080.13212891,0.02044902
1082.06093628,0.01929693
1083.98974365,0.01848151
1085.91855103,0.01769635
1087.84735840,0.01670730
1089.77616577,0.01577575
1091.70497314,0.01539280
1093.63378052,0.01489823
1095.56258789,0.01408602
1097.49139526,0.01361356
1099.42020264,0.01316005
1101.34901001,0.01304660
1103.27781738,0.01274678
1105.20662476,0.01251279
1107.13543213,0.01232536
1109.06423950,0.01193809
1110.99304687,0.01189743
1112.92185425,0.01156727
1114.85066162,0.01165792
1116.77946899,0.01167167
1118.70827637,0.01141769
1120.63708374,0.01167627
1122.56589111,0.01183194
1124.49469849,0.01197220
1126.42350586,0.01195467
1128.35231323,0.01212049
1130.28112061,0.01252129
1132.20992798,0.01283116
1134.13873535,0.01321780
1136.06754272,0.01385786
1137.99635010,0.01462453
1139.92515747,0.01529804
1141.85396484,0.01635432
1143.78277222,0.01745801
1145.71157959,0.01843376
1147.64038696,0.01959068
1149.56919434,0.02081893
1151.49800171,0.02174168
1153.42680908,0.02268474
1155.35561646,0.02389791
1157.28442383,0.02489490
1159.21323120,0.02589795
1161.14203857,0.02675853
1163.07084595,0.02791148
1164.99965332,0.02906417
1166.92846069,0.02987804
1168.85726807,0.03104121
1170.78607544,0.03212608
1172.71488281,0.03327554
1174.64369019,0.03460485
1176.57249756,0.03604199
1178.50130493,0.03723996
1180.43011230,0.03862474
1182.35891968,0.04057346
1184.28772705,0.04239677
1186.21653442,0.04415073
1188.14534180,0.04596310
1190.07414917,0.04850264
1192.00295654,0.05076729
1193.93176392,0.05263700
1195.86057129,0.05511753
1197.78937866,0.05766327
1199.71818604,0.06028734
1201.64699341,0.06275460
1203.57580078,0.06546021
1205.50460815,0.06800446
1207.43341553,0.07047882
1209.36222290,0.07297841
1211.29103027,0.07501508
1213.21983765,0.07732079
1215.14864502,0.07915065
1217.07745239,0.08089837
1219.00625977,0.08243306
1220.93506714,0.08344624
1222.86387451,0.08466466
1224.79268188,0.08548221
1226.72148926,0.08600339
1228.65029663,0.08639895
1230.57910400,0.08681638
1232.50791138,0.08697858
1234.43671875,0.08709700
1236.36552612,0.08706558
1238.29433350,0.08673982
1240.22314087,0.08680384
1242.15194824,0.08649342
1244.08075562,0.08609354
1246.00956299,0.08577146
1247.93837036,0.08516307
1249.86717773,0.08442941
1251.79598511,0.08361755
1253.72479248,0.08294386
1255.65359985,0.08222018
1257.58240723,0.08105890
1259.51121460,0.07949023
1261.44002197,0.07852846
1263.36882935,0.07747312
1265.29763672,0.07624023
1267.22644409,0.07552977
1269.15525146,0.07446001
1271.08405884,0.07329383
1273.01286621,0.07191500
1274.94167358,0.07075620
1276.87048096,0.06965430
1278.79928833,0.06797253
1280.72809570,0.06658427
1282.65690308,0.06529745
1284.58571045,0.06413910
1286.51451782,0.06277478
1288.44332520,0.06147329
1290.37213257,0.06096065
1292.30093994,0.06033852
1294.22974731,0.05976188
1296.15855469,0.05936220
1298.08736206,0.05914739
1300.01616943,0.05951750
1301.94497681,0.05970017
1303.87378418,0.05996723
1305.80259155,0.06066278
1307.73139893,0.06148937
1309.66020630,0.06269593
1311.58901367,0.06353258
1313.51782104,0.06465769
1315.44662842,0.06648745
1317.37543579,0.06784470
1319.30424316,0.06949636
1321.23305054,0.07171148
1323.16185791,0.07390402
1325.09066528,0.07605784
1327.01947266,0.07837754
1328.94828003,0.08042111
1330.87708740,0.08222539
1332.80589478,0.08442486
1334.73470215,0.08604594
1336.66350952,0.08673049
1338.59231689,0.08620369
1340.52112427,0.08732979
1342.44993164,0.09069861
1344.37873901,0.09113036
1346.30754639,0.09095223
1348.23635376,0.09108707
1350.16516113,0.09017766
1352.09396851,0.09020604
1354.02277588,0.08916146
1355.95158325,0.08840128
1357.88039062,0.08805260
1359.80919800,0.08633196
1361.73800537,0.08284853
1363.66681274,0.08160032
1365.59562012,0.08517693
1367.52442749,0.08360171
1369.45323486,0.08243813
1371.38204224,0.08375963
1373.31084961,0.07973873
1375.23965698,0.08013505
1377.16846436,0.08204759
1379.09727173,0.08186717
1381.02607910,0.08201268
1382.95488647,0.08154316
1384.88369385,0.08153407
1386.81250122,0.07796227
1388.74130859,0.07893763
1390.67011597,0.08535971
1392.59892334,0.08320086
1394.52773071,0.07808942
1396.45653809,0.08168688
1398.38534546,0.08175495
1400.31415283,0.08133549
1402.24296021,0.08749345
1404.17176758,0.08310360
1406.10057495,0.08336687
1408.02938232,0.08672856
1409.95818970,0.08360830
1411.88699707,0.08516698
1413.81580444,0.08248484
1415.74461182,0.08358110
1417.67341919,0.07581256
1419.60222656,0.06777133
1421.53103394,0.07774834
1423.45984131,0.07572519
1425.38864868,0.07287233
1427.31745605,0.07412767
1429.24626343,0.06883173
1431.17507080,0.06634537
1433.10387817,0.06726193
1435.03268555,0.06166711
1436.96149292,0.05227520
1438.89030029,0.05891069
1440.81910767,0.06042676
1442.74791504,0.05596240
1444.67672241,0.05866674
1446.60552979,0.05390511
1448.53433716,0.05450426
1450.46314453,0.05649640
1452.39195190,0.05760136
1454.32075928,0.05971851
1456.24956665,0.04970361
1458.17837402,0.05161090
1460.10718140,0.06824066
1462.03598877,0.07290103
1463.96479614,0.07255730
1465.89360352,0.07555284
1467.82241089,0.08573241
1469.75121826,0.09274346
1471.68002563,0.08318764
1473.60883301,0.08703770
1475.53764038,0.09940516
1477.46644775,0.10669167
1479.39525513,0.11717340
1481.32406250,0.11894702
1483.25286987,0.12608501
1485.18167725,0.13099672
1487.11048462,0.12904468
1489.03929199,0.12867296
1490.96809937,0.12950030
1492.89690674,0.14960971
1494.82571411,0.14714478
1496.75452148,0.13274460
1498.68332886,0.14956330
1500.61213623,0.15432790
1502.54094360,0.16469170
1504.46975098,0.15684584
1506.39855835,0.11562812
1508.32736572,0.13941142
1510.25617310,0.16349508
1512.18498047,0.15806834
1514.11378784,0.17104609
1516.04259521,0.15519987
1517.97140259,0.16127430
1519.90020996,0.15620373
1521.82901733,0.13567509
1523.75782471,0.16469701
1525.68663208,0.16218099
1527.61543945,0.16116780
1529.54424683,0.17749529
1531.47305420,0.17120701
1533.40186157,0.15751252
1535.33066895,0.16588260
1537.25947632,0.17778337
1539.18828369,0.12922136
1541.11709106,0.13349766
1543.04589844,0.15976745
1544.97470581,0.15327686
1546.90351318,0.17958584
1548.83232056,0.16828573
1550.76112793,0.17291915
1552.68993530,0.17221275
1554.61874268,0.15655458
1556.54755005,0.16722786
1558.47635742,0.12017738
1560.40516479,0.12750813
1562.33397217,0.17910361
1564.26277954,0.17009950
1566.19158691,0.17412032
1568.12039429,0.17277017
1570.04920166,0.15348621
1571.97800903,0.17535272
1573.90681641,0.17781758
1575.83562378,0.14166567
1577.76443115,0.15857968
1579.69323853,0.17874864
1581.62204590,0.17067364
1583.55085327,0.17453182
1585.47966064,0.17150797
1587.40846802,0.17202426
1589.33727539,0.17049581
1591.26608276,0.16986462
1593.19489014,0.16965133
1595.12369751,0.16699308
1597.05250488,0.16850050
1598.98131226,0.16680034
1600.91011963,0.16725123
1602.83892700,0.16358255
1604.76773437,0.16527584
1606.69654175,0.16251802
1608.62534912,0.16124499
1610.55415649,0.16024485
1612.48296387,0.16011733
1614.41177124,0.16164523
1616.34057861,0.13241193
1618.26938599,0.14180017
1620.19819336,0.16393554
1622.12700073,0.14513017
1624.05580811,0.14505893
1625.98461548,0.15123183
1627.91342285,0.15002148
1629.84223022,0.14859721
1631.77103760,0.15778305
1633.69984497,0.14633472
1635.62865234,0.12108662
1637.55745972,0.13958856
1639.48626709,0.15337864
1641.41507446,0.14974013
1643.34388184,0.15376966
1645.27268921,0.13977726
1647.20149658,0.12348388
1649.13030396,0.15249312
1651.05911133,0.14613003
1652.98791870,0.09549399
1654.91672607,0.12800400
1656.84553345,0.16105473
1658.77434082,0.15436511
1660.70314819,0.15952228
1662.63195557,0.14637455
1664.56076294,0.15415074
1666.48957031,0.16631272
1668.41837769,0.14695743
1670.34718506,0.14327097
1672.27599243,0.16222721
1674.20479980,0.15151179
1676.13360718,0.14571229
1678.06241455,0.16745627
1679.99122192,0.16262934
1681.92002930,0.16163367
1683.84883667,0.13359651
1685.77764404,0.13146788
1687.70645142,0.17965370
1689.63525879,0.15811086
1691.56406616,0.17267403
1693.49287354,0.17780939
1695.42168091,0.13124402
1697.35048828,0.16091457
1699.27929565,0.14398560
1701.20810303,0.12938572
1703.13691040,0.17529193
1705.06571777,0.16208237
1706.99452515,0.16304231
1708.92333252,0.17769188
1710.85213989,0.17118356
1712.78094727,0.17445016
1714.70975464,0.16312146
1716.63856201,0.14709529
1718.56736938,0.14463252
1720.49617676,0.17074916
1722.42498413,0.17772523
1724.35379150,0.16550374
1726.28259888,0.17959979
1728.21140625,0.16677508
1730.14021362,0.16809475
1732.06902100,0.16482106
1733.99782837,0.12677786
1735.92663574,0.15543193
1737.85544312,0.17264572
1739.78425049,0.15410189
1741.71305786,0.16742426
1743.64186523,0.17020676
1745.57067261,0.17034775
1747.49947998,0.17228264
1749.42828735,0.16512936
1751.35709473,0.15821140
1753.28590210,0.17442979
1755.21470947,0.18297610
1757.14351685,0.16742329
1759.07232422,0.18312931
1761.00113159,0.17330508
1762.92993896,0.16681932
1764.85874634,0.19038713
1766.78755371,0.17241226
1768.71636108,0.17359936
1770.64516846,0.17298777
1772.57397583,0.15579811
1774.50278320,0.17310402
1776.43159058,0.18266824
1778.36039795,0.18028611
1780.28920532,0.17829642
1782.21801270,0.17965619
1784.14682007,0.17955603
1786.07562744,0.17594981
1788.00443481,0.18471923
1789.93324219,0.18065575
1791.86204956,0.16409487
1793.79085693,0.17044929
1795.71966431,0.18263580
1797.64847168,0.18035287
1799.57727905,0.17779034
1801.50608643,0.17501411
1803.43489380,0.18012270
1805.36370117,0.18406837
1807.29250854,0.18158415
1809.22131592,0.18231189
1811.15012329,0.17783047
1813.07893066,0.18295695
1815.00773804,0.18379527
1816.93654541,0.18176728
1818.86535278,0.18344043
1820.79416016,0.18237156
1822.72296753,0.18502963
1824.65177490,0.17348289
1826.58058228,0.17912269
1828.50938965,0.17993459
1830.43819702,0.16903871
1832.36700439,0.18306327
1834.29581177,0.18213513
1836.22461914,0.18196964
1838.15342651,0.18119061
1840.08223389,0.18201655
1842.01104126,0.18282217
1843.93984863,0.16305141
1845.86865601,0.17285168
1847.79746338,0.18212470
1849.72627075,0.17835990
1851.65507812,0.18349031
1853.58388550,0.17990215
1855.51269287,0.18160433
1857.44150024,0.18051219
1859.37030762,0.17944357
1861.29911499,0.18075801
1863.22792236,0.17853811
1865.15672974,0.18039587
1867.08553711,0.17490113
1869.01434448,0.16784334
1870.94315186,0.17402241
1872.87195923,0.18036932
1874.80076660,0.17743278
1876.72957397,0.17839867
1878.65838135,0.17797002
1880.58718872,0.17687944
1882.51599609,0.17832524
1884.44480347,0.17544867
1886.37361084,0.17793125
1888.30241821,0.17425415
1890.23122559,0.17071974
1892.16003296,0.17674431
1894.08884033,0.17453331
1896.01764771,0.17364180
1897.94645508,0.17553669
1899.87526245,0.17489606
1901.80406982,0.17515588
1903.73287720,0.17400745
1905.66168457,0.17464946
1907.59049194,0.17307234
1909.51929932,0.17195806
1911.44810669,0.17283711
1913.37691406,0.17300275
1915.30572144,0.17431006
1917.23452881,0.16719770
1919.16333618,0.16719836
1921.09214355,0.17321524
1923.02095093,0.16809371
1924.94975830,0.17128327
1926.87856567,0.17307368
1928.80737305,0.17082341
1930.73618042,0.17284104
1932.66498779,0.17036198
1934.59379517,0.17180949
1936.52260254,0.17078280
1938.45140991,0.17114812
1940.38021729,0.17133488
1942.30902466,0.16593777
1944.23783203,0.16871297
1946.16663940,0.17043823
1948.09544678,0.17014481
1950.02425415,0.17060909
1951.95306152,0.16988423
1953.88186890,0.17020324
1955.81067627,0.16931047
1957.73948364,0.16968006
1959.66829102,0.16955516
1961.59709839,0.16929516
1963.52590576,0.16956584
1965.45471313,0.16858166
1967.38352051,0.16705015
1969.31232788,0.16806322
1971.24113525,0.16922942
1973.16994263,0.16813831
1975.09875000,0.16869065
1977.02755737,0.16784677
1978.95636475,0.16788591
1980.88517212,0.16792396
1982.81397949,0.16701946
1984.74278687,0.16746366
1986.67159424,0.16612712
1988.60040161,0.16661501
1990.52920898,0.16512120
1992.45801636,0.16319445
1994.38682373,0.16547655
1996.31563110,0.16571438
1998.24443848,0.16490547
2000.17324585,0.16480872
2002.10205322,0.16446158
2004.03086060,0.16410890
2005.95966797,0.16375256
2007.88847534,0.16328529
2009.81728271,0.16303015
2011.74609009,0.16270319
2013.67489746,0.16254944
2015.60370483,0.16158140
2017.53251221,0.16022095
2019.46131958,0.16118190
2021.39012695,0.16102451
2023.31893433,0.16039783
2025.24774170,0.16030580
2027.17654907,0.15968907
2029.10535645,0.15976465
2031.03416382,0.15900621
2032.96297119,0.15883532
2034.89177856,0.15855804
2036.82058594,0.15806572
2038.74939331,0.15798727
2040.67820068,0.15697327
2042.60700806,0.15671007
2044.53581543,0.15672942
2046.46462280,0.15637039
2048.39343018,0.15604350
2050.32223755,0.15577045
2052.25104492,0.15541968
2054.17985229,0.15500681
2056.10865967,0.15477210
2058.03746704,0.15441626
2059.96627441,0.15393376
2061.89508179,0.15368834
2063.82388916,0.15314186
2065.75269653,0.15245894
2067.68150391,0.15288138
2069.61031128,0.15251142
2071.53911865,0.15195173
2073.46792603,0.15190516
2075.39673340,0.15149722
2077.32554077,0.15153383
2079.25434814,0.15087497
2081.18315552,0.15065724
2083.11196289,0.15048352
2085.04077026,0.14998871
2086.96957764,0.14993179
2088.89838501,0.14930677
2090.82719238,0.14909929
2092.75599976,0.14904486
2094.68480713,0.14886239
2096.61361450,0.14843366
2098.54242187,0.14809003
2100.47122925,0.14789310
2102.40003662,0.14759944
2104.32884399,0.14740857
2106.25765137,0.14707497
2108.18645874,0.14703611
2110.11526611,0.14658070
2112.04407349,0.14645842
2113.97288086,0.14619160
2115.90168823,0.14579946
2117.83049561,0.14591938
2119.75930298,0.14544137
2121.68811035,0.14537770
2123.61691772,0.14509067
2125.54572510,0.14485902
2127.47453247,0.14474833
2129.40333984,0.14438891
2131.33214722,0.14438540
2133.26095459,0.14411619
2135.18976196,0.14381452
2137.11856934,0.14355570
2139.04737671,0.14359742
2140.97618408,0.14337316
2142.90499146,0.14338432
2144.83379883,0.14321789
2146.76260620,0.14268959
2148.69141357,0.14285782
2150.62022095,0.14250870
2152.54902832,0.14234291
2154.47783569,0.14213949
2156.40664307,0.14192721
2158.33545044,0.14179587
2160.26425781,0.14149758
2162.19306519,0.14153257
2164.12187256,0.14115363
2166.05067993,0.14116061
2167.97948730,0.14100352
2169.90829468,0.14075106
2171.83710205,0.14072101
2173.76590942,0.14060135
2175.69471680,0.14045602
2177.62352417,0.14018749
2179.55233154,0.14030726
2181.48113892,0.13988692
2183.40994629,0.13980195
2185.33875366,0.13982356
2187.26756104,0.13950345
2189.19636841,0.13941246
2191.12517578,0.13907379
2193.05398315,0.13900194
2194.98279053,0.13877374
2196.91159790,0.13866317
2198.84040527,0.13841617
2200.76921265,0.13823536
2202.69802002,0.13817601
2204.62682739,0.13793479
2206.55563477,0.13801247
2208.48444214,0.13779087
2210.41324951,0.13777986
2212.34205688,0.13749951
2214.27086426,0.13726832
2216.19967163,0.13725480
2218.12847900,0.13700810
2220.05728638,0.13686436
2221.98609375,0.13669702
2223.91490112,0.13680427
2225.84370850,0.13628133
2227.77251587,0.13609582
2229.70132324,0.13608810
2231.63013062,0.13571176
2233.55893799,0.13562956
2235.48774536,0.13529736
2237.41655273,0.13528673
2239.34536011,0.13509141
2241.27416748,0.13488366
2243.20297485,0.13464433
2245.13178223,0.13448668
2247.06058960,0.13439953
2248.98939697,0.13397172
2250.91820435,0.13396089
2252.84701172,0.13370037
2254.77581909,0.13350838
2256.70462646,0.13324556
2258.63343384,0.13313738
2260.56224121,0.13305026
2262.49104858,0.13266739
2264.41985596,0.13271508
2266.34866333,0.13238448
2268.27747070,0.13226976
2270.20627808,0.13214785
2272.13508545,0.13198581
2274.06389282,0.13188308
2275.99270020,0.13167113
2277.92150757,0.13164777
2279.85031494,0.13137174
2281.77912231,0.13148913
2283.70792969,0.13130933
2285.63673706,0.13104758
2287.56554443,0.13085359
2289.49435181,0.13048047
2291.42315918,0.13022211
2293.35196655,0.12971169
2295.28077393,0.12944582
2297.20958130,0.12898123
2299.13838867,0.12868935
2301.06719604,0.12821442
2302.99600342,0.12752742
2304.92481079,0.12711650
2306.85361816,0.12620658
2308.78242554,0.12530032
2310.71123291,0.12429519
2312.64004028,0.12318739
2314.56884766,0.12199446
2316.49765503,0.12065482
2318.42646240,0.11904249
2320.35526978,0.11747214
2322.28407715,0.11589233
2324.21288452,0.11414018
2326.14169189,0.11302624
2328.07049927,0.11158859
2329.99930664,0.11025412
2331.92811401,0.10946617
2333.85692139,0.10895503
2335.78572876,0.10850897
2337.71453613,0.10822183
2339.64334351,0.10825885
2341.57215088,0.10850827
2343.50095825,0.11028641
2345.42976562,0.11227719
2347.35857300,0.11682105
2349.28738037,0.12079532
2351.21618774,0.11671290
2353.14499512,0.11081833
2355.07380249,0.10673766
2357.00260986,0.10338717
2358.93141724,0.10142839
2360.86022461,0.10028212
2362.78903198,0.10014100
2364.71783936,0.10066778
2366.64664673,0.10218844
2368.57545410,0.10412638
2370.50426147,0.10663793
2372.43306885,0.10968056
2374.36187622,0.11278983
2376.29068359,0.11585887
2378.21949097,0.11826025
2380.14829834,0.12031330
2382.07710571,0.12153710
2384.00591309,0.12236182
2385.93472046,0.12273731
2387.86352783,0.12269711
2389.79233521,0.12276790
2391.72114258,0.12266412
2393.64994995,0.12263583
2395.57875732,0.12241334
2397.50756470,0.12224819
2399.43637207,0.12204668
2401.36517944,0.12192439
2403.29398682,0.12171312
2405.22279419,0.12140150
2407.15160156,0.12140441
2409.08040894,0.12123635
2411.00921631,0.12113475
2412.93802368,0.12088864
2414.86683105,0.12080516
2416.79563843,0.12062856
2418.72444580,0.12037130
2420.65325317,0.12045230
2422.58206055,0.12010048
2424.51086792,0.11985428
2426.43967529,0.11981525
2428.36848267,0.11971664
2430.29729004,0.11954397
2432.22609741,0.11948773
2434.15490479,0.11933543
2436.08371216,0.11905560
2438.01251953,0.11889035
2439.94132690,0.11862870
2441.87013428,0.11884575
2443.79894165,0.11868332
2445.72774902,0.11832745
2447.65655640,0.11826995
2449.58536377,0.11796530
2451.51417114,0.11782201
2453.44297852,0.11773186
2455.37178589,0.11766508
2457.30059326,0.11737902
2459.22940063,0.11730577
2461.15820801,0.11715563
2463.08701538,0.11690545
2465.01582275,0.11692178
2466.94463013,0.11651792
2468.87343750,0.11649300
2470.80224487,0.11641455
2472.73105225,0.11616063
2474.65985962,0.11621172
2476.58866699,0.11599765
2478.51747437,0.11575671
2480.44628174,0.11564663
2482.37508911,0.11545834
2484.30389648,0.11523284
2486.23270386,0.11529480
2488.16151123,0.11501463
2490.09031860,0.11478963
2492.01912598,0.11487082
2493.94793335,0.11464834
2495.87674072,0.11451004
2497.80554810,0.11421293
2499.73435547,0.11410357
2501.66316284,0.11401893
2503.59197021,0.11376680
2505.52077759,0.11370766
2507.44958496,0.11355895
2509.37839233,0.11344914
2511.30719971,0.11326323
2513.23600708,0.11305730
2515.16481445,0.11295719
2517.09362183,0.11286473
2519.02242920,0.11261664
2520.95123657,0.11251172
2522.88004395,0.11248273
2524.80885132,0.11224879
2526.73765869,0.11214235
2528.66646606,0.11193992
2530.59527344,0.11181517
2532.52408081,0.11165220
2534.45288818,0.11148442
2536.38169556,0.11145671
2538.31050293,0.11125018
2540.23931030,0.11107493
2542.16811768,0.11091501
2544.09692505,0.11078767
2546.02573242,0.11067387
2547.95453979,0.11063649
2549.88334717,0.11043064
2551.81215454,0.11021057
2553.74096191,0.11005226
2555.66976929,0.10983011
2557.59857666,0.10987218
2559.52738403,0.10961086
2561.45619141,0.10943332
2563.38499878,0.10933743
2565.31380615,0.10911944
2567.24261353,0.10909487
2569.17142090,0.10893500
2571.10022827,0.10876218
2573.02903564,0.10847110
2574.95784302,0.10844459
2576.88665039,0.10832573
2578.81545776,0.10804688
2580.74426514,0.10807200
2582.67307251,0.10787323
2584.60187988,0.10768139
2586.53068726,0.10758691
2588.45949463,0.10751002
2590.38830200,0.10727094
2592.31710937,0.10713577
2594.24591675,0.10704042
2596.17472412,0.10673002
2598.10353149,0.10666024
2600.03233887,0.10659264
2601.96114624,0.10649872
2603.88995361,0.10625331
2605.81876099,0.10605320
2607.74756836,0.10587902
2609.67637573,0.10574227
2611.60518311,0.10577334
2613.53399048,0.10554464
2615.46279785,0.10538828
2617.39160522,0.10513521
2619.32041260,0.10510741
2621.24921997,0.10510246
2623.17802734,0.10474398
2625.10683472,0.10462041
2627.03564209,0.10448420
2628.96444946,0.10443610
2630.89325684,0.10419845
2632.82206421,0.10389017
2634.75087158,0.10381822
2636.67967895,0.10372534
2638.60848633,0.10366161
2640.53729370,0.10348414
2642.46610107,0.10334747
2644.39490845,0.10324346
2646.32371582,0.10303669
2648.25252319,0.10279710
2650.18133057,0.10272281
2652.11013794,0.10256369
2654.03894531,0.10232393
2655.96775269,0.10218036
2657.89656006,0.10205205
2659.82536743,0.10199898
2661.75417480,0.10173489
2663.68298218,0.10170300
2665.61178955,0.10154495
2667.54059692,0.10131337
2669.46940430,0.10131840
2671.39821167,0.10092992
2673.32701904,0.10083571
2675.25582642,0.10081683
2677.18463379,0.10068461
2679.11344116,0.10051283
2681.04224854,0.10032907
2682.97105591,0.10026535
2684.89986328,0.10001578
2686.82867065,0.09994416
2688.75747803,0.09969576
2690.68628540,0.09963229
2692.61509277,0.09953740
2694.54390015,0.09914280
2696.47270752,0.09912085
2698.40151489,0.09894200
2700.33032227,0.09878783
2702.25912964,0.09862129
2704.18793701,0.09848320
2706.11674438,0.09835081
2708.04555176,0.09813061
2709.97435913,0.09810745
2711.90316650,0.09790543
2713.83197388,0.09774207
2715.76078125,0.09757216
2717.68958862,0.09750831
2719.61839600,0.09738724
2721.54720337,0.09705757
2723.47601074,0.09697793
2725.40481812,0.09690845
2727.33362549,0.09674305
2729.26243286,0.09640828
2731.19124023,0.09625711
2733.12004761,0.09619544
2735.04885498,0.09603476
2736.97766235,0.09599610
2738.90646973,0.09577125
2740.83527710,0.09551829
2742.76408447,0.09539477
2744.69289185,0.09528875
2746.62169922,0.09505454
2748.55050659,0.09497721
2750.47931396,0.09481972
2752.40812134,0.09449640
2754.33692871,0.09452710
2756.26573608,0.09423344
2758.19454346,0.09398435
2760.12335083,0.09395263
2762.05215820,0.09367298
2763.98096558,0.09365734
2765.90977295,0.09351471
2767.83858032,0.09327303
2769.76738770,0.09318867
2771.69619507,0.09298326
2773.62500244,0.09281589
2775.55380981,0.09261085
2777.48261719,0.09244874
2779.41142456,0.09235440
2781.34023193,0.09212878
2783.26903931,0.09193949
2785.19784668,0.09175859
2787.12665405,0.09159480
2789.05546143,0.09143564
2790.98426880,0.09120822
2792.91307617,0.09103069
2794.84188354,0.09077762
2796.77069092,0.09067112
2798.69949829,0.09056243
2800.62830566,0.09021150
2802.55711304,0.09010519
2804.48592041,0.08996639
2806.41472778,0.08972889
2808.34353516,0.08969605
2810.27234253,0.08954418
2812.20114990,0.08925743
2814.12995728,0.08901991
2816.05876465,0.08888645
2817.98757202,0.08872591
2819.91637939,0.08842085
2821.84518677,0.08821169
2823.77399414,0.08809423
2825.70280151,0.08794159
2827.63160889,0.08778827
2829.56041626,0.08760868
2831.48922363,0.08737777
2833.41803101,0.08704427
2835.34683838,0.08695880
2837.27564575,0.08685242
2839.20445312,0.08636291
2841.13326050,0.08612330
2843.06206787,0.08588887
2844.99087524,0.08550431
2846.91968262,0.08499785
2848.84848999,0.08441018
2850.77729736,0.08422673
2852.70610474,0.08410698
2854.63491211,0.08397305
2856.56371948,0.08383535
2858.49252686,0.08383570
2860.42133423,0.08379976
2862.35014160,0.08344705
2864.27894897,0.08327261
2866.20775635,0.08307176
2868.13656372,0.08293971
2870.06537109,0.08284470
2871.99417847,0.08264631
2873.92298584,0.08247136
2875.85179321,0.08227444
2877.78060059,0.08222944
2879.70940796,0.08206384
2881.63821533,0.08191314
2883.56702270,0.08176161
2885.49583008,0.08165226
2887.42463745,0.08153947
2889.35344482,0.08119021
2891.28225220,0.08101513
2893.21105957,0.08075233
2895.13986694,0.08058852
2897.06867432,0.08048409
2898.99748169,0.08007178
2900.92628906,0.07983346
2902.85509644,0.07965834
2904.78390381,0.07925767
2906.71271118,0.07900268
2908.64151855,0.07890588
2910.57032593,0.07851259
2912.49913330,0.07809481
2914.42794067,0.07761204
2916.35674805,0.07723886
2918.28555542,0.07705720
2920.21436279,0.07671318
2922.14317017,0.07664466
2924.07197754,0.07646682
2926.00078491,0.07630599
2927.92959229,0.07630949
2929.85839966,0.07613723
2931.78720703,0.07603124
2933.71601440,0.07590480
2935.64482178,0.07589117
2937.57362915,0.07583192
2939.50243652,0.07573054
2941.43124390,0.07559232
2943.36005127,0.07551403
2945.28885864,0.07543024
2947.21766602,0.07518670
2949.14647339,0.07511231
2951.07528076,0.07479545
2953.00408813,0.07458510
2954.93289551,0.07440270
2956.86170288,0.07403069
2958.79051025,0.07375823
2960.71931763,0.07345370
2962.64812500,0.07336161
2964.57693237,0.07309252
2966.50573975,0.07296704
2968.43454712,0.07293661
2970.36335449,0.07285188
2972.29216187,0.07298680
2974.22096924,0.07284261
2976.14977661,0.07275902
2978.07858398,0.07264899
2980.00739136,0.07252838
2981.93619873,0.07254663
2983.86500610,0.07249596
2985.79381348,0.07227685
2987.72262085,0.07203622
2989.65142822,0.07202953
2991.58023560,0.07179287
2993.50904297,0.07158452
2995.43785034,0.07135068
2997.36665771,0.07110643
2999.29546509,0.07095875
3001.22427246,0.07075889
3003.15307983,0.07065703
3005.08188721,0.07031187
3007.01069458,0.07019770
3008.93950195,0.06990701
3010.86830933,0.06952688
3012.79711670,0.06945062
3014.72592407,0.06904681
3016.65473145,0.06892171
3018.58353882,0.06880987
3020.51234619,0.06856909
3022.44115356,0.06835704
3024.36996094,0.06801218
3026.29876831,0.06778893
3028.22757568,0.06753102
3030.15638306,0.06723790
3032.08519043,0.06693128
3034.01399780,0.06675756
3035.94280518,0.06650663
3037.87161255,0.06626513
3039.80041992,0.06619957
3041.72922729,0.06592165
3043.65803467,0.06555078
3045.58684204,0.06533839
3047.51564941,0.06511813
3049.44445679,0.06476219
3051.37326416,0.06458752
3053.30207153,0.06426543
3055.23087891,0.06400318
3057.15968628,0.06381588
3059.08849365,0.06348774
3061.01730103,0.06349848
3062.94610840,0.06316485
3064.87491577,0.06274374
3066.80372314,0.06243835
3068.73253052,0.06223818
3070.66133789,0.06218754
3072.59014526,0.06181221
3074.51895264,0.06168211
3076.44776001,0.06134619
3078.37656738,0.06085631
3080.30537476,0.06060047
3082.23418213,0.06039866
3084.16298950,0.06019584
3086.09179687,0.05986849
3088.02060425,0.05971094
3089.94941162,0.05934824
3091.87821899,0.05915973
3093.80702637,0.05887089
3095.73583374,0.05841191
3097.66464111,0.05831028
3099.59344849,0.05783346
3101.52225586,0.05758433
3103.45106323,0.05746875
3105.37987061,0.05710899
3107.30867798,0.05679357
3109.23748535,0.05642820
3111.16629272,0.05618568
3113.09510010,0.05586868
3115.02390747,0.05552365
3116.95271484,0.05518343
3118.88152222,0.05491585
3120.81032959,0.05455790
3122.73913696,0.05427544
3124.66794434,0.05411661
3126.59675171,0.05360104
3128.52555908,0.05328660
3130.45436645,0.05306064
3132.38317383,0.05272945
3134.31198120,0.05241402
3136.24078857,0.05209206
3138.16959595,0.05186344
3140.09840332,0.05142143
3142.02721069,0.05114565
3143.95601807,0.05095158
3145.88482544,0.05054069
3147.81363281,0.05020954
3149.74244019,0.04987513
3151.67124756,0.04962480
3153.60005493,0.04930925
3155.52886230,0.04894056
3157.45766968,0.04870315
3159.38647705,0.04829849
3161.31528442,0.04801388
3163.24409180,0.04776031
3165.17289917,0.04732526
3167.10170654,0.04708525
3169.03051392,0.04678267
3170.95932129,0.04645759
3172.88812866,0.04613512
3174.81693604,0.04588196
3176.74574341,0.04561550
3178.67455078,0.04510029
3180.60335815,0.04499614
3182.53216553,0.04483456
3184.46097290,0.04444946
3186.38978027,0.04419287
3188.31858765,0.04389166
3190.24739502,0.04368426
3192.17620239,0.04336816
3194.10500977,0.04315489
3196.03381714,0.04289684
3197.96262451,0.04261349
3199.89143188,0.04241074
3201.82023926,0.04212116
3203.74904663,0.04195175
3205.67785400,0.04179167
3207.60666138,0.04167711
3209.53546875,0.04125938
3211.46427612,0.04101947
3213.39308350,0.04093489
3215.32189087,0.04063933
3217.25069824,0.04063421
3219.17950562,0.04026903
3221.10831299,0.04006032
3223.03712036,0.04007386
3224.96592773,0.03979184
3226.89473511,0.03973823
3228.82354248,0.03955688
3230.75234985,0.03933433
3232.68115723,0.03919402
3234.60996460,0.03901823
3236.53877197,0.03895677
3238.46757935,0.03884181
3240.39638672,0.03874149
3242.32519409,0.03868812
3244.25400146,0.03841270
3246.18280884,0.03833605
3248.11161621,0.03838314
3250.04042358,0.03813250
3251.96923096,0.03812248
3253.89803833,0.03798056
3255.82684570,0.03776655
3257.75565308,0.03779993
3259.68446045,0.03771908
3261.61326782,0.03766286
3263.54207520,0.03758948
3265.47088257,0.03756025
3267.39968994,0.03741411
3269.32849731,0.03726105
3271.25730469,0.03718166
3273.18611206,0.03714932
3275.11491943,0.03709208
3277.04372681,0.03691117
3278.97253418,0.03697592
3280.90134155,0.03687175
3282.83014893,0.03678774
3284.75895630,0.03677099
3286.68776367,0.03663442
3288.61657104,0.03656518
3290.54537842,0.03644755
3292.47418579,0.03638166
3294.40299316,0.03625534
3296.33180054,0.03633702
3298.26060791,0.03618947
3300.18941528,0.03609663
3302.11822266,0.03622068
3304.04703003,0.03599960
3305.97583740,0.03600284
3307.90464478,0.03585824
3309.83345215,0.03575834
3311.76225952,0.03572934
3313.69106689,0.03568002
3315.61987427,0.03566387
3317.54868164,0.03546022
3319.47748901,0.03553593
3321.40629639,0.03541312
3323.33510376,0.03538119
3325.26391113,0.03535080
3327.19271851,0.03512412
3329.12152588,0.03518843
3331.05033325,0.03518748
3332.97914062,0.03508528
3334.90794800,0.03492102
3336.83675537,0.03489521
3338.76556274,0.03479802
3340.69437012,0.03475571
3342.62317749,0.03479883
3344.55198486,0.03463767
3346.48079224,0.03455483
3348.40959961,0.03448803
3350.33840698,0.03446169
3352.26721436,0.03447204
3354.19602173,0.03444721
3356.12482910,0.03427294
3358.05363647,0.03426231
3359.98244385,0.03423688
3361.91125122,0.03415588
3363.84005859,0.03407384
3365.76886597,0.03389037
3367.69767334,0.03404577
3369.62648071,0.03391112
3371.55528809,0.03402368
3373.48409546,0.03404771
3375.41290283,0.03383101
3377.34171020,0.03395602
3379.27051758,0.03373275
3381.19932495,0.03387465
3383.12813232,0.03374729
3385.05693970,0.03365906
3386.98574707,0.03376578
3388.91455444,0.03368778
3390.84336182,0.03372851
3392.77216919,0.03340312
3394.70097656,0.03371160
3396.62978394,0.03367024
3398.55859131,0.03350822
3400.48739868,0.03366052
3402.41620605,0.03353671
3404.34501343,0.03377972
3406.27382080,0.03370166
3408.20262817,0.03375073
3410.13143555,0.03375562
3412.06024292,0.03382241
3413.98905029,0.03388169
3415.91785767,0.03382881
3417.84666504,0.03398195
3419.77547241,0.03368392
3421.70427979,0.03377016
3423.63308716,0.03393704
3425.56189453,0.03405307
3427.49070190,0.03405743
3429.41950928,0.03406344
3431.34831665,0.03406785
3433.27712402,0.03392565
3435.20593140,0.03422790
3437.13473877,0.03403299
3439.06354614,0.03426243
3440.99235352,0.03434163
3442.92116089,0.03415567
3444.84996826,0.03436980
3446.77877563,0.03397062
3448.70758301,0.03429761
3450.63639038,0.03460750
3452.56519775,0.03448939
3454.49400513,0.03460748
3456.42281250,0.03475563
3458.35161987,0.03480890
3460.28042725,0.03460695
3462.20923462,0.03472669
3464.13804199,0.03488750
3466.06684937,0.03494366
3467.99565674,0.03488476
3469.92446411,0.03509816
3471.85327148,0.03512297
3473.78207886,0.03504282
3475.71088623,0.03527278
3477.63969360,0.03533234
3479.56850098,0.03549180
3481.49730835,0.03516839
3483.42611572,0.03535113
3485.35492310,0.03566414
3487.28373047,0.03546214
3489.21253784,0.03565211
3491.14134521,0.03586348
3493.07015259,0.03606445
3494.99895996,0.03590036
3496.92776733,0.03593426
3498.85657471,0.03613984
3500.78538208,0.03628644
3502.71418945,0.03582849
3504.64299683,0.03580026
3506.57180420,0.03677355
3508.50061157,0.03628913
3510.42941895,0.03619263
3512.35822632,0.03663005
3514.28703369,0.03678221
3516.21584106,0.03705359
3518.14464844,0.03691066
3520.07345581,0.03724495
3522.00226318,0.03694175
3523.93107056,0.03656230
3525.85987793,0.03679085
3527.78868530,0.03681829
3529.71749268,0.03692883
3531.64630005,0.03741772
3533.57510742,0.03784425
3535.50391479,0.03751946
3537.43272217,0.03751985
3539.36152954,0.03793687
3541.29033691,0.03801909
3543.21914429,0.03781345
3545.14795166,0.03728905
3547.07675903,0.03684989
3549.00556641,0.03797165
3550.93437378,0.03840941
3552.86318115,0.03753218
3554.79198853,0.03838073
3556.72079590,0.03859548
3558.64960327,0.03859789
3560.57841064,0.03849197
3562.50721802,0.03824916
3564.43602539,0.03867915
3566.36483276,0.03633822
3568.29364014,0.03567058
3570.22244751,0.03839414
3572.15125488,0.03942256
3574.08006226,0.03908154
3576.00886963,0.03923435
3577.93767700,0.03928031
3579.86648437,0.03920113
3581.79529175,0.03943118
3583.72409912,0.03963298
3585.65290649,0.03886962
3587.58171387,0.03611358
3589.51052124,0.03709265
3591.43932861,0.04006406
3593.36813599,0.03914230
3595.29694336,0.03856654
3597.22575073,0.03920459
3599.15455811,0.03973614
3601.08336548,0.03937785
3603.01217285,0.03976306
3604.94098022,0.04061880
3606.86978760,0.03927943
3608.79859497,0.03730199
3610.72740234,0.03814804
3612.65620972,0.03907244
3614.58501709,0.03799860
3616.51382446,0.04056135
3618.44263184,0.03794714
3620.37143921,0.03663992
3622.30024658,0.04113605
3624.22905395,0.04013640
3626.15786133,0.04188524
3628.08666870,0.03616822
3630.01547607,0.03307068
3631.94428345,0.04098850
3633.87309082,0.04017791
3635.80189819,0.04084784
3637.73070557,0.04171645
3639.65951294,0.04118019
3641.58832031,0.04164413
3643.51712769,0.04121665
3645.44593506,0.04174029
3647.37474243,0.03785045
3649.30354980,0.03504014
3651.23235718,0.03552413
3653.16116455,0.04163447
3655.08997192,0.04123118
3657.01877930,0.03727711
3658.94758667,0.04255185
3660.87639404,0.04184343
3662.80520142,0.04253761
3664.73400879,0.04239765
3666.66281616,0.04209027
3668.59162354,0.04114409
3670.52043091,0.03396705
3672.44923828,0.04074848
3674.37804565,0.03915575
3676.30685303,0.03279701
3678.23566040,0.04075932
3680.16446777,0.04171207
3682.09327515,0.04173833
3684.02208252,0.04295359
3685.95088989,0.04232859
3687.87969727,0.03845986
3689.80850464,0.03541484
3691.73731201,0.04016806
3693.66611938,0.04135941
3695.59492676,0.04220189
3697.52373413,0.04228704
3699.45254150,0.04197364
3701.38134888,0.04106687
3703.31015625,0.03949925
3705.23896362,0.04312343
3707.16777100,0.04119865
3709.09657837,0.04028387
3711.02538574,0.03815915
3712.95419312,0.03583506
3714.88300049,0.04161288
3716.81180786,0.04109333
3718.74061523,0.04142148
3720.66942261,0.04062949
3722.59822998,0.03924518
3724.52703735,0.04065093
3726.45584473,0.03785418
3728.38465210,0.04084008
3730.31345947,0.04043376
3732.24226685,0.03730877
3734.17107422,0.03652880
3736.09988159,0.03483916
3738.02868896,0.03663553
3739.95749634,0.03946169
3741.88630371,0.04136672
3743.81511108,0.03263094
3745.74391846,0.03082428
3747.67272583,0.03938565
3749.60153320,0.03418391
3751.53034058,0.03162441
3753.45914795,0.03602653
3755.38795532,0.03863511
3757.31676270,0.04005681
3759.24557007,0.03731068
3761.17437744,0.03848650
3763.10318481,0.04068371
3765.03199219,0.03828572
3766.96079956,0.03886494
3768.88960693,0.03843264
3770.81841431,0.03693081
3772.74722168,0.03972862
3774.67602905,0.03976787
3776.60483643,0.03963420
3778.53364380,0.03868396
3780.46245117,0.03730277
3782.39125854,0.03953331
3784.32006592,0.03884421
3786.24887329,0.03863889
3788.17768066,0.03924404
3790.10648804,0.03903759
3792.03529541,0.03883895
3793.96410278,0.03943980
3795.89291016,0.03728693
3797.82171753,0.03674728
3799.75052490,0.03863210
3801.67933228,0.03115248
3803.60813965,0.03589704
3805.53694702,0.03889704
3807.46575439,0.03211304
3809.39456177,0.03836875
3811.32336914,0.03781309
3813.25217651,0.03892578
3815.18098389,0.03537184
3817.10979126,0.03123411
3819.03859863,0.03878034
3820.96740601,0.03193703
3822.89621338,0.03345182
3824.82502075,0.03857896
3826.75382812,0.03504970
3828.68263550,0.03762303
3830.61144287,0.03632490
3832.54025024,0.03510623
3834.46905762,0.03584155
3836.39786499,0.03421784
3838.32667236,0.03109878
3840.25547974,0.03347422
3842.18428711,0.03592788
3844.11309448,0.03448936
3846.04190186,0.03701531
3847.97070923,0.03634556
3849.89951660,0.03650599
3851.82832397,0.03306000
3853.75713135,0.02518513
3855.68593872,0.02947779
3857.61474609,0.03655357
3859.54355347,0.03554446
3861.47236084,0.03517598
3863.40116821,0.03463387
3865.32997559,0.03222067
3867.25878296,0.03565949
3869.18759033,0.03282814
3871.11639770,0.03053217
3873.04520508,0.03577036
3874.97401245,0.03308827
3876.90281982,0.03543002
3878.83162720,0.03605885
3880.76043457,0.03140732
3882.68924194,0.03557080
3884.61804932,0.03346426
3886.54685669,0.03091906
3888.47566406,0.03556791
3890.40447144,0.03389617
3892.33327881,0.03184427
3894.26208618,0.03465812
3896.19089355,0.03535514
3898.11970093,0.03375071
3900.04850830,0.03197377
3901.97731567,0.03170324
3903.90612305,0.03142831
3905.83493042,0.03180683
3907.76373779,0.03466934
3909.69254517,0.03453230
3911.62135254,0.03426108
3913.55015991,0.03481507
3915.47896728,0.03357014
3917.40777466,0.03289273
3919.33658203,0.03260420
3921.26538940,0.03368983
3923.19419678,0.03357844
3925.12300415,0.03291825
3927.05181152,0.03345712
3928.98061890,0.03368113
3930.90942627,0.03308782
3932.83823364,0.03205869
3934.76704102,0.03326900
3936.69584839,0.03356783
3938.62465576,0.03325950
3940.55346313,0.03351833
3942.48227051,0.03231924
3944.41107788,0.03266218
3946.33988525,0.03322189
3948.26869263,0.03236105
3950.19750000,0.03237446
3952.12630737,0.03290454
3954.05511475,0.03275626
3955.98392212,0.03268513
3957.91272949,0.03268414
3959.84153687,0.03271600
3961.77034424,0.03242621
3963.69915161,0.03219405
3965.62795898,0.03271161
3967.55676636,0.03236877
3969.48557373,0.03230914
3971.41438110,0.03226777
3973.34318848,0.03202379
3975.27199585,0.03204775
3977.20080322,0.03179704
3979.12961060,0.03208515
3981.05841797,0.03180411
3982.98722534,0.03183071
3984.91603271,0.03185815
3986.84484009,0.03171013
3988.77364746,0.03179926
3990.70245483,0.03144748
3992.63126221,0.03158669
3994.56006958,0.03138928
3996.48887695,0.03144969
3998.41768433,0.03147800
4000.34649170,0.03133813
4002.27529907,0.03129975
4004.20410645,0.03110786
4006.13291382,0.03126285
4008.06172119,0.03096397
4009.99052856,0.03101606
4011.91933594,0.03090549
4013.84814331,0.03083078
4015.77695068,0.03089383
4017.70575806,0.03070192
4019.63456543,0.03077427
4021.56337280,0.03049886
4023.49218018,0.03057795
4025.42098755,0.03044135
4027.34979492,0.03038998
4029.27860229,0.03033617
4031.20740967,0.03016136
4033.13621704,0.03030603
4035.06502441,0.03015014
4036.99383179,0.03022481
4038.92263916,0.02998530
4040.85144653,0.03000597
4042.78025391,0.02995998
4044.70906128,0.02978645
4046.63786865,0.02981805
4048.56667603,0.02958873
4050.49548340,0.02969371
4052.42429077,0.02958318
4054.35309814,0.02961538
4056.28190552,0.02939209
4058.21071289,0.02934134
4060.13952026,0.02939717
4062.06832764,0.02923416
4063.99713501,0.02942201
4065.92594238,0.02912353
4067.85474976,0.02916715
4069.78355713,0.02902755
4071.71236450,0.02896672
4073.64117187,0.02898020
4075.56997925,0.02881652
4077.49878662,0.02896585
4079.42759399,0.02857414
4081.35640137,0.02863253
4083.28520874,0.02859271
4085.21401611,0.02855381
4087.14282349,0.02852504
4089.07163086,0.02829955
4091.00043823,0.02840583
4092.92924561,0.02821705
4094.85805298,0.02829043
4096.78686035,0.02813183
4098.71566772,0.02812870
4100.64447510,0.02809713
4102.57328247,0.02795828
4104.50208984,0.02801597
4106.43089722,0.02771273
4108.35970459,0.02776480
4110.28851196,0.02762145
4112.21731934,0.02764275
4114.14612671,0.02762193
4116.07493408,0.02751852
4118.00374145,0.02757890
4119.93254883,0.02731420
4121.86135620,0.02739941
4123.79016357,0.02732182
4125.71897095,0.02727183
4127.64777832,0.02723656
4129.57658569,0.02713462
4131.50539307,0.02707346
4133.43420044,0.02700584
4135.36300781,0.02704215
4137.29181519,0.02685514
4139.22062256,0.02691566
4141.14942993,0.02684178
4143.07823730,0.02677005
4145.00704468,0.02672848
4146.93585205,0.02663760
4148.86465942,0.02659363
4150.79346680,0.02642078
4152.72227417,0.02646891
4154.65108154,0.02635102
4156.57988892,0.02632609
4158.50869629,0.02622767
4160.43750366,0.02619601
4162.36631103,0.02619150
4164.29511841,0.02607980
4166.22392578,0.02613566
4168.15273315,0.02590115
4170.08154053,0.02595425
4172.01034790,0.02594703
4173.93915527,0.02586383
4175.86796265,0.02572859
4177.79677002,0.02564183
4179.72557739,0.02573546
4181.65438477,0.02551996
4183.58319214,0.02558662
4185.51199951,0.02545535
4187.44080688,0.02548648
4189.36961426,0.02544329
4191.29842163,0.02521429
4193.22722900,0.02537496
4195.15603638,0.02519262
4197.08484375,0.02509311
4199.01365112,0.02503090
4200.94245850,0.02501023
4202.87126587,0.02493079
4204.80007324,0.02496186
4206.72888062,0.02500558
4208.65768799,0.02479782
4210.58649536,0.02481087
4212.51530273,0.02467445
4214.44411011,0.02471966
4216.37291748,0.02459486
4218.30172485,0.02453756
4220.23053223,0.02451578
4222.15933960,0.02432025
4224.08814697,0.02446430
4226.01695435,0.02428239
4227.94576172,0.02426911
4229.87456909,0.02418134
4231.80337646,0.02411853
4233.73218384,0.02419528
4235.66099121,0.02402359
4237.58979858,0.02404847
4239.51860596,0.02397329
4241.44741333,0.02401442
4243.37622070,0.02391025
4245.30502808,0.02379573
4247.23383545,0.02383117
4249.16264282,0.02374356
4251.09145020,0.02364095
4253.02025757,0.02360938
4254.94906494,0.02367790
4256.87787231,0.02353684
4258.80667969,0.02353162
4260.73548706,0.02339591
4262.66429443,0.02332693
4264.59310181,0.02337095
4266.52190918,0.02324151
4268.45071655,0.02323000
4270.37952393,0.02311439
4272.30833130,0.02307146
4274.23713867,0.02295529
4276.16594604,0.02300337
4278.09475342,0.02293301
4280.02356079,0.02283011
4281.95236816,0.02289212
4283.88117554,0.02274540
4285.80998291,0.02281821
4287.73879028,0.02269306
4289.66759766,0.02263113
4291.59640503,0.02250817
4293.52521240,0.02247232
4295.45401978,0.02253733
4297.38282715,0.02239056
4299.31163452,0.02248328
4301.24044189,0.02224149
4303.16924927,0.02229319
4305.09805664,0.02221310
4307.02686401,0.02205879
4308.95567139,0.02225509
4310.88447876,0.02204552
4312.81328613,0.02204597
4314.74209351,0.02195996
4316.67090088,0.02188125
4318.59970825,0.02180750
4320.52851562,0.02176344
4322.45732300,0.02178443
4324.38613037,0.02169112
4326.31493774,0.02175349
4328.24374512,0.02157695
4330.17255249,0.02159539
4332.10135986,0.02152658
4334.03016724,0.02141939
4335.95897461,0.02145783
4337.88778198,0.02136208
4339.81658936,0.02135697
4341.74539673,0.02129092
4343.67420410,0.02132614
4345.60301147,0.02122074
4347.53181885,0.02117393
4349.46062622,0.02111233
4351.38943359,0.02105328
4353.31824097,0.02105784
4355.24704834,0.02088221
4357.17585571,0.02082560
4359.10466309,0.02075697
4361.03347046,0.02088559
4362.96227783,0.02080305
4364.89108520,0.02072788
4366.81989258,0.02071274
4368.74869995,0.02053305
4370.67750732,0.02058885
4372.60631470,0.02054033
4374.53512207,0.02057314
4376.46392944,0.02039728
4378.39273682,0.02038529
4380.32154419,0.02043614
4382.25035156,0.02030313
4384.17915894,0.02034324
4386.10796631,0.02016105
4388.03677368,0.02017672
4389.96558105,0.02009482
4391.89438843,0.02010811
4393.82319580,0.02006670
4395.75200317,0.01985484
4397.68081055,0.01992707
4399.60961792,0.01984679
4401.53842529,0.01985788
4403.46723267,0.01975361
4405.39604004,0.01981705
4407.32484741,0.01977981
4409.25365478,0.01956353
4411.18246216,0.01962462
4413.11126953,0.01948996
4415.04007690,0.01950748
4416.96888428,0.01951296
4418.89769165,0.01941456
4420.82649902,0.01934829
4422.75530640,0.01929479
4424.68411377,0.01925450
4426.61292114,0.01932177
4428.54172852,0.01926100
4430.47053589,0.01907819
4432.39934326,0.01926680
4434.32815063,0.01910725
4436.25695801,0.01902913
4438.18576538,0.01902957
4440.11457275,0.01889660
4442.04338013,0.01888064
4443.97218750,0.01867355
4445.90099487,0.01880778
4447.82980225,0.01879754
4449.75860962,0.01870522
4451.68741699,0.01863771
4453.61622437,0.01862104
4455.54503174,0.01863142
4457.47383911,0.01843846
4459.40264648,0.01855554
4461.33145386,0.01840657
4463.26026123,0.01838424
4465.18906860,0.01836924
4467.11787598,0.01824645
4469.04668335,0.01835308
4470.97549072,0.01819815
4472.90429810,0.01816588
4474.83310547,0.01807622
4476.76191284,0.01805420
4478.69072021,0.01804980
4480.61952759,0.01804797
4482.54833496,0.01801106
4484.47714233,0.01784950
4486.40594971,0.01792779
4488.33475708,0.01783619
4490.26356445,0.01779650
4492.19237183,0.01775080
4494.12117920,0.01770376
4496.04998657,0.01762143
4497.97879395,0.01760646
4499.90760132,0.01766847
4501.83640869,0.01744102
4503.76521606,0.01749959
4505.69402344,0.01746599
4507.62283081,0.01748119
4509.55163818,0.01745280
4511.48044556,0.01730907
4513.40925293,0.01741327
4515.33806030,0.01724948
4517.26686768,0.01724859
4519.19567505,0.01721555
4521.12448242,0.01716440
4523.05328979,0.01718272
4524.98209717,0.01708219
4526.91090454,0.01705762
4528.83971191,0.01700527
4530.76851929,0.01702915
4532.69732666,0.01688066
4534.62613403,0.01683776
4536.55494141,0.01687517
4538.48374878,0.01678002
4540.41255615,0.01673031
4542.34136353,0.01674715
4544.27017090,0.01677293
4546.19897827,0.01669301
4548.12778564,0.01667188
4550.05659302,0.01654802
4551.98540039,0.01655210
4553.91420776,0.01648508
4555.84301514,0.01640189
4557.77182251,0.01646444
4559.70062988,0.01630687
4561.62943726,0.01633660
4563.55824463,0.01627639
4565.48705200,0.01620266
4567.41585937,0.01618267
4569.34466675,0.01616142
4571.27347412,0.01621791
4573.20228149,0.01605946
4575.13108887,0.01598573
4577.05989624,0.01594899
4578.98870361,0.01599911
4580.91751099,0.01594869
4582.84631836,0.01585044
4584.77512573,0.01585054
4586.70393311,0.01576807
4588.63274048,0.01579049
4590.56154785,0.01572040
4592.49035522,0.01565530
4594.41916260,0.01559147
4596.34796997,0.01558688
4598.27677734,0.01558034
4600.20558472,0.01551397
4602.13439209,0.01555458
4604.06319946,0.01546289
4605.99200684,0.01537179
4607.92081421,0.01538811
4609.84962158,0.01542965
4611.77842895,0.01525830
4613.70723633,0.01520566
4615.63604370,0.01524745
4617.56485107,0.01511489
4619.49365845,0.01509603
4621.42246582,0.01503481
4623.35127319,0.01509061
4625.28008057,0.01500638
4627.20888794,0.01492719
4629.13769531,0.01496246
4631.06650269,0.01485287
4632.99531006,0.01486287
4634.92411743,0.01481608
4636.85292480,0.01484806
4638.78173218,0.01477332
4640.71053955,0.01473436
4642.63934692,0.01475221
4644.56815430,0.01463883
4646.49696167,0.01468199
4648.42576904,0.01456899
4650.35457642,0.01460736
4652.28338379,0.01468169
4654.21219116,0.01449820
4656.14099853,0.01445180
4658.06980591,0.01445108
4659.99861328,0.01436572
4661.92742065,0.01432538
4663.85622803,0.01425675
4665.78503540,0.01420181
4667.71384277,0.01425960
4669.64265015,0.01418138
4671.57145752,0.01419952
4673.50026489,0.01415243
4675.42907227,0.01406622
4677.35787964,0.01405105
4679.28668701,0.01396802
4681.21549438,0.01406176
4683.14430176,0.01393596
4685.07310913,0.01391090
4687.00191650,0.01392305
4688.93072388,0.01386950
4690.85953125,0.01390581
4692.78833862,0.01380936
4694.71714600,0.01384905
4696.64595337,0.01369844
4698.57476074,0.01373198
4700.50356812,0.01373440
4702.43237549,0.01360536
4704.36118286,0.01365796
4706.28999023,0.01350823
4708.21879761,0.01357156
4710.14760498,0.01356434
4712.07641235,0.01348279
4714.00521973,0.01337218
4715.93402710,0.01340884
4717.86283447,0.01351408
4719.79164185,0.01333115
4721.72044922,0.01341431
4723.64925659,0.01328702
4725.57806396,0.01318219
4727.50687134,0.01319630
4729.43567871,0.01317819
4731.36448608,0.01328159
4733.29329346,0.01315533
4735.22210083,0.01321120
4737.15090820,0.01318561
4739.07971558,0.01303540
4741.00852295,0.01300275
4742.93733032,0.01301413
4744.86613770,0.01301380
4746.79494507,0.01294722
4748.72375244,0.01291046
4750.65255981,0.01277709
4752.58136719,0.01281999
4754.51017456,0.01284080
4756.43898193,0.01276771
4758.36778931,0.01276328
4760.29659668,0.01277407
4762.22540405,0.01276641
4764.15421143,0.01262378
4766.08301880,0.01261645
4768.01182617,0.01262135
4769.94063354,0.01254736
4771.86944092,0.01248583
4773.79824829,0.01254626
4775.72705566,0.01251843
4777.65586304,0.01242940
4779.58467041,0.01245720
4781.51347778,0.01232824
4783.44228516,0.01237414
4785.37109253,0.01235467
4787.29989990,0.01229747
4789.22870728,0.01226733
4791.15751465,0.01213718
4793.08632202,0.01220459
4795.01512939,0.01216345
4796.94393677,0.01220060
4798.87274414,0.01216892
4800.80155151,0.01203424
4802.73035889,0.01201689
4804.65916626,0.01201788
4806.58797363,0.01202305
4808.51678101,0.01192835
4810.44558838,0.01192793
4812.37439575,0.01186435
4814.30320312,0.01191212
4816.23201050,0.01193704
4818.16081787,0.01185712
4820.08962524,0.01186748
4822.01843262,0.01168350
4823.94723999,0.01164396
4825.87604736,0.01171632
4827.80485474,0.01174198
4829.73366211,0.01167430
4831.66246948,0.01160934
4833.59127686,0.01155800
4835.52008423,0.01149127
4837.44889160,0.01156011
4839.37769897,0.01148283
4841.30650635,0.01152021
4843.23531372,0.01147422
4845.16412109,0.01138674
4847.09292847,0.01147305
4849.02173584,0.01138293
4850.95054321,0.01135578
4852.87935059,0.01131985
4854.80815796,0.01131413
4856.73696533,0.01128004
4858.66577270,0.01121145
4860.59458008,0.01124647
4862.52338745,0.01120655
4864.45219482,0.01120040
4866.38100220,0.01116880
4868.30980957,0.01106850
4870.23861694,0.01107529
4872.16742432,0.01109289
4874.09623169,0.01091881
4876.02503906,0.01094921
4877.95384644,0.01098542
4879.88265381,0.01085608
4881.81146118,0.01089890
4883.74026855,0.01077101
4885.66907593,0.01077426
4887.59788330,0.01085384
4889.52669067,0.01078215
4891.45549805,0.01073739
4893.38430542,0.01068199
4895.31311279,0.01075283
4897.24192017,0.01066904
4899.17072754,0.01057557
4901.09953491,0.01064432
4903.02834228,0.01065047
4904.95714966,0.01057584
4906.88595703,0.01053386
4908.81476440,0.01054101
4910.74357178,0.01048182
4912.67237915,0.01045979
4914.60118652,0.01044126
4916.52999390,0.01042713
4918.45880127,0.01034703
4920.38760864,0.01025365
4922.31641602,0.01027774
4924.24522339,0.01035772
4926.17403076,0.01032269
4928.10283813,0.01021351
4930.03164551,0.01030951
4931.96045288,0.01025616
4933.88926025,0.01019347
4935.81806763,0.01023321
4937.74687500,0.01012514
4939.67568237,0.01007267
4941.60448975,0.01006484
4943.53329712,0.01001011
4945.46210449,0.00992005
4947.39091187,0.01000087
4949.31971924,0.00997595
4951.24852661,0.00997408
4953.17733398,0.01000042
4955.10614136,0.00981760
4957.03494873,0.00987907
4958.96375610,0.00985072
4960.89256348,0.00984678
4962.82137085,0.00983635
4964.75017822,0.00969191
4966.67898560,0.00970500
4968.60779297,0.00967507
4970.53660034,0.00971557
4972.46540771,0.00965301
4974.39421509,0.00962827
4976.32302246,0.00961470
4978.25182983,0.00954273
4980.18063721,0.00952824
4982.10944458,0.00942823
4984.03825195,0.00952154
4985.96705933,0.00954693
4987.89586670,0.00949392
4989.82467407,0.00947883
4991.75348145,0.00941890
4993.68228882,0.00939910
4995.61109619,0.00939875
4997.53990356,0.00937216
4999.46871094,0.00926179
5001.39751831,0.00931325
5003.32632568,0.00932134
5005.25513306,0.00925527
5007.18394043,0.00922800
5009.11274780,0.00922153
5011.04155518,0.00922099
5012.97036255,0.00914847
5014.89916992,0.00918441
5016.82797729,0.00906381
5018.75678467,0.00903456
5020.68559204,0.00910329
5022.61439941,0.00902908
5024.54320679,0.00899993
5026.47201416,0.00892843
5028.40082153,0.00895487
5030.32962891,0.00887745
5032.25843628,0.00887133
5034.18724365,0.00892294
5036.11605103,0.00884371
5038.04485840,0.00891532
5039.97366577,0.00888476
5041.90247314,0.00883141
5043.83128052,0.00881492
5045.76008789,0.00881305
5047.68889526,0.00878443
5049.61770264,0.00863709
5051.54651001,0.00866111
5053.47531738,0.00870456
5055.40412476,0.00857619
5057.33293213,0.00852900
5059.26173950,0.00857330
5061.19054687,0.00856624
5063.11935425,0.00858295
5065.04816162,0.00857209
5066.97696899,0.00859556
5068.90577637,0.00852275
5070.83458374,0.00843299
5072.76339111,0.00850718
5074.69219849,0.00836099
5076.62100586,0.00834667
5078.54981323,0.00843550
5080.47862061,0.00836308
5082.40742798,0.00833894
5084.33623535,0.00826307
5086.26504272,0.00829444
5088.19385010,0.00830262
5090.12265747,0.00829068
5092.05146484,0.00834158
5093.98027222,0.00825758
5095.90907959,0.00817844
5097.83788696,0.00813372
5099.76669434,0.00812342
5101.69550171,0.00818938
5103.62430908,0.00815772
5105.55311645,0.00809088
5107.48192383,0.00811684
5109.41073120,0.00805461
5111.33953857,0.00807508
5113.26834595,0.00805238
5115.19715332,0.00792460
5117.12596069,0.00795569
5119.05476807,0.00792546
5120.98357544,0.00796650
5122.91238281,0.00795742
5124.84119019,0.00788862
5126.76999756,0.00788226
5128.69880493,0.00785378
5130.62761230,0.00788914
5132.55641968,0.00778850
5134.48522705,0.00784193
5136.41403442,0.00783118
5138.34284180,0.00763301
5140.27164917,0.00766796
5142.20045654,0.00765746
5144.12926392,0.00768586
5146.05807129,0.00772437
5147.98687866,0.00763085
5149.91568603,0.00761209
5151.84449341,0.00765283
5153.77330078,0.00760670
5155.70210815,0.00753716
5157.63091553,0.00755548
5159.55972290,0.00753666
5161.48853027,0.00753036
5163.41733765,0.00751782
5165.34614502,0.00745749
5167.27495239,0.00746608
5169.20375977,0.00743493
5171.13256714,0.00735564
5173.06137451,0.00743692
5174.99018188,0.00743868
5176.91898926,0.00731637
5178.84779663,0.00733749
5180.77660400,0.00727740
5182.70541138,0.00725867
5184.63421875,0.00728306
5186.56302612,0.00723402
5188.49183350,0.00725473
5190.42064087,0.00721769
5192.34944824,0.00721059
5194.27825562,0.00722108
5196.20706299,0.00715966
5198.13587036,0.00708745
5200.06467773,0.00711261
5201.99348511,0.00717978
5203.92229248,0.00711331
5205.85109985,0.00690873
5207.77990723,0.00686204
5209.70871460,0.00702971
5211.63752197,0.00698715
5213.56632935,0.00701846
5215.49513672,0.00704295
5217.42394409,0.00694311
5219.35275146,0.00694218
5221.28155884,0.00690664
5223.21036621,0.00701350
5225.13917358,0.00688185
5227.06798096,0.00680548
5228.99678833,0.00695611
5230.92559570,0.00684581
5232.85440308,0.00676318
5234.78321045,0.00679561
5236.71201782,0.00688771
5238.64082520,0.00678371
5240.56963257,0.00679709
5242.49843994,0.00678114
5244.42724731,0.00658367
5246.35605469,0.00672717
5248.28486206,0.00659970
5250.21366943,0.00651292
5252.14247681,0.00671321
5254.07128418,0.00663618
5256.00009155,0.00655099
5257.92889893,0.00663236
5259.85770630,0.00663082
5261.78651367,0.00647336
5263.71532104,0.00643640
5265.64412842,0.00646112
5267.57293579,0.00653561
5269.50174316,0.00651993
5271.43055054,0.00651482
5273.35935791,0.00659271
5275.28816528,0.00646802
5277.21697266,0.00648834
5279.14578003,0.00640578
5281.07458740,0.00638061
5283.00339478,0.00647966
5284.93220215,0.00632013
5286.86100952,0.00643381
5288.78981689,0.00643773
5290.71862427,0.00629446
5292.64743164,0.00637150
5294.57623901,0.00631681
5296.50504639,0.00631477
5298.43385376,0.00634322
5300.36266113,0.00628557
5302.29146851,0.00628029
5304.22027588,0.00629370
5306.14908325,0.00623666
5308.07789062,0.00612764
5310.00669800,0.00619719
5311.93550537,0.00620251
5313.86431274,0.00611704
5315.79312012,0.00618282
5317.72192749,0.00611008
5319.65073486,0.00610300
5321.57954224,0.00612724
5323.50834961,0.00610849
5325.43715698,0.00614857
5327.36596436,0.00594123
5329.29477173,0.00596975
5331.22357910,0.00605560
5333.15238647,0.00588251
5335.08119385,0.00594000
5337.01000122,0.00588256
5338.93880859,0.00568204
5340.86761597,0.00586360
5342.79642334,0.00593515
5344.72523071,0.00562481
5346.65403809,0.00576431
5348.58284546,0.00593365
5350.51165283,0.00581050
5352.44046020,0.00577704
5354.36926758,0.00564572
5356.29807495,0.00578521
5358.22688232,0.00583474
5360.15568970,0.00575944
5362.08449707,0.00577323
5364.01330444,0.00568369
5365.94211182,0.00574900
5367.87091919,0.00573767
5369.79972656,0.00581257
5371.72853394,0.00573685
5373.65734131,0.00562023
5375.58614868,0.00563833
5377.51495605,0.00551197
5379.44376343,0.00567926
5381.37257080,0.00563832
5383.30137817,0.00549864
5385.23018555,0.00551508
5387.15899292,0.00546220
5389.08780029,0.00558962
5391.01660767,0.00560486
5392.94541504,0.00546683
5394.87422241,0.00535006
5396.80302978,0.00542371
5398.73183716,0.00546347
5400.66064453,0.00545904
5402.58945190,0.00552925
5404.51825928,0.00544374
5406.44706665,0.00548298
5408.37587402,0.00541797
5410.30468140,0.00529749
5412.23348877,0.00528171
5414.16229614,0.00514232
5416.09110352,0.00524263
5418.01991089,0.00538623
5419.94871826,0.00532951
5421.87752563,0.00532820
5423.80633301,0.00523949
5425.73514038,0.00519813
5427.66394775,0.00522641
5429.59275513,0.00505601
5431.52156250,0.00519306
5433.45036987,0.00529518
5435.37917725,0.00504845
5437.30798462,0.00516896
5439.23679199,0.00518457
5441.16559936,0.00501765
5443.09440674,0.00510894
5445.02321411,0.00507265
5446.95202148,0.00497681
5448.88082886,0.00506317
5450.80963623,0.00509713
5452.73844360,0.00507945
5454.66725098,0.00511802
5456.59605835,0.00505960
5458.52486572,0.00506031
5460.45367310,0.00502860
5462.38248047,0.00493963
5464.31128784,0.00498306
5466.24009521,0.00497999
5468.16890259,0.00493533
5470.09770996,0.00487554
5472.02651733,0.00497511
5473.95532471,0.00499890
5475.88413208,0.00486388
5477.81293945,0.00491934
5479.74174683,0.00490597
5481.67055420,0.00487188
5483.59936157,0.00490236
5485.52816895,0.00492494
5487.45697632,0.00487228
5489.38578369,0.00482908
5491.31459106,0.00486969
5493.24339844,0.00473746
5495.17220581,0.00477143
5497.10101318,0.00481102
5499.02982056,0.00471371
5500.95862793,0.00478738
5502.88743530,0.00469997
5504.81624268,0.00474407
5506.74505005,0.00484142
5508.67385742,0.00468685
5510.60266479,0.00476053
5512.53147217,0.00479818
5514.46027954,0.00471528
5516.38908691,0.00468424
5518.31789429,0.00460419
5520.24670166,0.00463535
5522.17550903,0.00465382
5524.10431641,0.00468813
5526.03312378,0.00464553
5527.96193115,0.00453361
5529.89073853,0.00459318
5531.81954590,0.00456517
5533.74835327,0.00453268
5535.67716064,0.00453577
5537.60596802,0.00449743
5539.53477539,0.00452186
5541.46358276,0.00459271
5543.39239014,0.00456910
5545.32119751,0.00443814
5547.25000488,0.00450918
5549.17881226,0.00450782
5551.10761963,0.00442790
5553.03642700,0.00446727
5554.96523437,0.00440373
5556.89404175,0.00443643
5558.82284912,0.00447782
5560.75165649,0.00439220
5562.68046387,0.00438467
5564.60927124,0.00443506
5566.53807861,0.00434623
5568.46688599,0.00427929
5570.39569336,0.00436218
5572.32450073,0.00436388
5574.25330811,0.00434804
5576.18211548,0.00432991
5578.11092285,0.00432626
5580.03973022,0.00431295
5581.96853760,0.00430314
5583.89734497,0.00431970
5585.82615234,0.00426355
5587.75495972,0.00429278
5589.68376709,0.00425024
5591.61257446,0.00420268
5593.54138184,0.00426419
5595.47018921,0.00417911
5597.39899658,0.00412088
5599.32780395,0.00416207
5601.25661133,0.00416275
5603.18541870,0.00419301
5605.11422607,0.00417893
5607.04303345,0.00414099
5608.97184082,0.00421403
5610.90064819,0.00413205
5612.82945557,0.00408352
5614.75826294,0.00415143
5616.68707031,0.00406482
5618.61587769,0.00406511
5620.54468506,0.00405558
5622.47349243,0.00402502
5624.40229980,0.00407453
5626.33110718,0.00406428
5628.25991455,0.00396283
5630.18872192,0.00396843
5632.11752930,0.00405130
5634.04633667,0.00397722
5635.97514404,0.00400332
5637.90395142,0.00397029
5639.83275879,0.00394876
5641.76156616,0.00396687
5643.69037353,0.00389932
5645.61918091,0.00396553
5647.54798828,0.00388814
5649.47679565,0.00392757
5651.40560303,0.00395808
5653.33441040,0.00388163
5655.26321777,0.00390427
5657.19202515,0.00382038
5659.12083252,0.00386662
5661.04963989,0.00387234
5662.97844727,0.00382815
5664.90725464,0.00377295
5666.83606201,0.00379232
5668.76486938,0.00385248
5670.69367676,0.00376993
5672.62248413,0.00383229
5674.55129150,0.00374663
5676.48009888,0.00368283
5678.40890625,0.00374321
5680.33771362,0.00372487
5682.26652100,0.00375520
5684.19532837,0.00372939
5686.12413574,0.00373400
5688.05294311,0.00371249
5689.98175049,0.00371491
5691.91055786,0.00369792
5693.83936523,0.00364664
5695.76817261,0.00364548
5697.69697998,0.00363474
5699.62578735,0.00359477
5701.55459473,0.00356272
5703.48340210,0.00365953
5705.41220947,0.00357585
5707.34101685,0.00355186
5709.26982422,0.00360533
5711.19863159,0.00350789
5713.12743896,0.00355717
5715.05624634,0.00354729
5716.98505371,0.00352848
5718.91386108,0.00350065
5720.84266846,0.00352594
5722.77147583,0.00354338
5724.70028320,0.00344255
5726.62909058,0.00352745
5728.55789795,0.00351064
5730.48670532,0.00343885
5732.41551270,0.00344100
5734.34432007,0.00348134
5736.27312744,0.00350862
5738.20193481,0.00340891
5740.13074219,0.00345354
5742.05954956,0.00347658
5743.98835693,0.00342147
5745.91716431,0.00343909
5747.84597168,0.00338428
5749.77477905,0.00336093
5751.70358643,0.00340758
5753.63239380,0.00333871
5755.56120117,0.00333193
5757.49000854,0.00336791
5759.41881592,0.00330950
5761.34762329,0.00338577
5763.27643066,0.00332414
5765.20523804,0.00324275
5767.13404541,0.00333550
5769.06285278,0.00329481
5770.99166016,0.00328153
5772.92046753,0.00326380
5774.84927490,0.00325522
5776.77808228,0.00328247
5778.70688965,0.00326297
5780.63569702,0.00324480
5782.56450439,0.00317691
5784.49331177,0.00319059
5786.42211914,0.00319823
5788.35092651,0.00315846
5790.27973389,0.00315893
5792.20854126,0.00316363
5794.13734863,0.00317839
5796.06615601,0.00313433
5797.99496338,0.00313097
5799.92377075,0.00313705
5801.85257812,0.00307972
5803.78138550,0.00304034
5805.71019287,0.00300394
5807.63900024,0.00306595
5809.56780762,0.00308603
5811.49661499,0.00301507
5813.42542236,0.00304809
5815.35422974,0.00302822
5817.28303711,0.00300328
5819.21184448,0.00304842
5821.14065186,0.00303756
5823.06945923,0.00300952
5824.99826660,0.00301821
5826.92707397,0.00301746
5828.85588135,0.00295805
5830.78468872,0.00301064
5832.71349609,0.00297792
5834.64230347,0.00287946
5836.57111084,0.00297595
5838.49991821,0.00294413
5840.42872559,0.00290397
5842.35753296,0.00292465
5844.28634033,0.00290617
5846.21514770,0.00291765
5848.14395508,0.00290688
5850.07276245,0.00295533
5852.00156982,0.00291723
5853.93037720,0.00288873
5855.85918457,0.00291437
5857.78799194,0.00285182
5859.71679932,0.00285229
5861.64560669,0.00286962
5863.57441406,0.00288707
5865.50322144,0.00288199
5867.43202881,0.00279717
5869.36083618,0.00279410
5871.28964355,0.00281588
5873.21845093,0.00276193
5875.14725830,0.00282643
5877.07606567,0.00285038
5879.00487305,0.00277397
5880.93368042,0.00280275
5882.86248779,0.00278565
5884.79129517,0.00273421
5886.72010254,0.00270229
5888.64890991,0.00273102
5890.57771728,0.00272888
5892.50652466,0.00269439
5894.43533203,0.00272695
5896.36413940,0.00269173
5898.29294678,0.00270433
5900.22175415,0.00267034
5902.15056152,0.00265328
5904.07936890,0.00266194
5906.00817627,0.00265476
5907.93698364,0.00272458
5909.86579102,0.00263856
5911.79459839,0.00266790
5913.72340576,0.00265813
5915.65221313,0.00255993
5917.58102051,0.00265579
5919.50982788,0.00259793
5921.43863525,0.00255147
5923.36744263,0.00264214
5925.29625000,0.00260934
5927.22505737,0.00252036
5929.15386475,0.00258061
5931.08267212,0.00257034
5933.01147949,0.00251550
5934.94028686,0.00260301
5936.86909424,0.00253419
5938.79790161,0.00250541
5940.72670898,0.00258134
5942.65551636,0.00256619
5944.58432373,0.00252080
5946.51313110,0.00246655
5948.44193848,0.00247197
5950.37074585,0.00251572
5952.29955322,0.00252807
5954.22836060,0.00252253
5956.15716797,0.00254729
5958.08597534,0.00249406
5960.01478271,0.00246456
5961.94359009,0.00247024
5963.87239746,0.00241040
5965.80120483,0.00237993
5967.73001221,0.00238315
5969.65881958,0.00246887
5971.58762695,0.00248164
5973.51643433,0.00244816
5975.44524170,0.00239411
5977.37404907,0.00234391
5979.30285645,0.00240159
5981.23166382,0.00242682
5983.16047119,0.00238835
5985.08927856,0.00230073
5987.01808594,0.00236745
5988.94689331,0.00234719
5990.87570068,0.00231545
5992.80450806,0.00242587
5994.73331543,0.00232116
5996.66212280,0.00232704
5998.59093018,0.00235504
6000.51973755,0.00231328
