399.26312622,0.00013084
401.19193359,0.00024051
403.12074097,0.00046696
405.04954834,0.00038933
406.97835571,0.00068468
408.90716309,0.00013643
410.83597046,-0.00026909
412.76477783,0.00088894
414.69358521,0.00038967
416.62239258,0.00029354
418.55119995,0.00100217
420.48000732,0.00050633
422.40881470,0.00066700
424.33762207,0.00047474
426.26642944,0.00063609
428.19523682,0.00123031
430.12404419,0.00062398
432.05285156,0.00061006
433.98165894,0.00077034
435.91046631,0.00037377
437.83927368,0.00071644
439.76808105,0.00108194
441.69688843,0.00060638
443.62569580,0.00044729
445.55450317,0.00045251
447.48331055,0.00043385
449.41211792,0.00072599
451.34092529,0.00049853
453.26973267,0.00047369
455.19854004,0.00064629
457.12734741,0.00038037
459.05615479,0.00036340
460.98496216,0.00044049
462.91376953,0.00019883
464.84257690,0.00014851
466.77138428,0.00029274
468.70019165,0.00018878
470.62899902,0.00043805
472.55780640,0.00046780
474.48661377,-0.00000172
476.41542114,0.00007576
478.34422852,0.00047250
480.27303589,0.00045954
482.20184326,-0.00000272
484.13065063,-0.00005065
486.05945801,0.00012160
487.98826538,0.00026904
489.91707275,0.00031258
491.84588013,0.00015166
493.77468750,0.00014034
495.70349487,0.00022262
497.63230225,0.00046752
499.56110962,0.00008449
501.48991699,0.00006079
503.41872437,0.00055152
505.34753174,-0.00011552
507.27633911,0.00031232
509.20514648,0.00054562
511.13395386,-0.00018153
513.06276123,0.00011534
514.99156860,0.00031475
516.92037598,0.00041138
518.84918335,0.00025397
520.77799072,0.00009396
522.70679810,0.00015805
524.63560547,0.00018076
526.56441284,0.00029029
528.49322021,0.00024369
530.42202759,0.00028093
532.35083496,-0.00000356
534.27964233,-0.00005898
536.20844971,0.00027571
538.13725708,0.00009382
540.06606445,0.00004607
541.99487183,0.00023006
543.92367920,0.00023473
545.85248657,0.00015721
547.78129395,0.00001197
549.71010132,0.00012050
551.63890869,0.00035173
553.56771606,0.00030700
555.49652344,0.00020739
557.42533081,-0.00000403
559.35413818,-0.00009659
561.28294556,0.00025383
563.21175293,0.00035269
565.14056030,0.00009963
567.06936768,-0.00005391
568.99817505,0.00011831
570.92698242,0.00054518
572.85578979,0.00044065
574.78459717,-0.00006529
576.71340454,0.00015177
578.64221191,0.00037773
580.57101929,-0.00011345
582.49982666,-0.00006191
584.42863403,0.00037951
586.35744141,0.00033439
588.28624878,0.00017112
590.21505615,0.00033316
592.14386353,0.00032255
594.07267090,0.00010320
596.00147827,0.00028270
597.93028564,0.00019273
599.85909302,0.00018990
601.78790039,0.00038361
603.71670776,-0.00000201
605.64551514,-0.00018901
607.57432251,0.00007336
609.50312988,0.00057080
611.43193726,0.00019779
613.36074463,-0.00004922
615.28955200,0.00030897
617.21835938,-0.00019145
619.14716675,-0.00003725
621.07597412,0.00011409
623.00478149,0.00005213
624.93358887,0.00001671
626.86239624,-0.00024984
628.79120361,0.00009834
630.72001099,0.00017945
632.64881836,0.00053535
634.57762573,0.00054057
636.50643311,0.00041022
638.43524048,0.00086561
640.36404785,0.00065263
642.29285522,0.00079860
644.22166260,0.00092890
646.15046997,0.00085946
648.07927734,0.00108177
650.00808472,0.00099809
651.93689209,0.00114361
653.86569946,0.00091893
655.79450684,0.00095301
657.72331421,0.00152416
659.65212158,0.00131013
661.58092896,0.00143863
663.50973633,0.00172110
665.43854370,0.00151456
667.36735107,0.00143647
669.29615845,0.00149076
671.22496582,0.00180540
673.15377319,0.00149753
675.08258057,0.00151371
677.01138794,0.00220872
678.94019531,0.00182643
680.86900269,0.00175012
682.79781006,0.00194195
684.72661743,0.00185336
686.65542480,0.00238429
688.58423218,0.00215697
690.51303955,0.00175221
692.44184692,0.00220748
694.37065430,0.00236913
696.29946167,0.00257867
698.22826904,0.00299139
700.15707642,0.00304528
702.08588379,0.00318296
704.01469116,0.00305461
705.94349854,0.00250325
707.87230591,0.00210701
709.80111328,0.00173005
711.72992065,0.00136804
713.65872803,0.00092474
715.58753540,0.00070782
717.51634277,0.00067027
719.44515015,0.00038366
721.37395752,0.00030850
723.30276489,0.00024830
725.23157227,0.00031310
727.16037964,0.00024601
729.08918701,0.00007309
731.01799438,0.00041340
732.94680176,0.00030063
734.87560913,0.00029616
736.80441650,0.00034878
738.73322388,0.00019593
740.66203125,0.00034737
742.59083862,0.00010936
744.51964600,0.00034532
746.44845337,0.00037186
748.37726074,0.00017672
750.30606812,0.00060246
752.23487549,0.00034723
754.16368286,0.00021408
756.09249023,0.00044527
758.02129761,0.00037421
759.95010498,0.00039789
761.87891235,0.00047704
763.80771973,0.00045532
765.73652710,0.00032617
767.66533447,0.00056579
769.59414185,0.00054529
771.52294922,0.00026474
773.45175659,0.00054204
775.38056396,0.00047944
777.30937134,0.00029259
779.23817871,0.00046554
781.16698608,0.00062908
783.09579346,0.00057513
785.02460083,0.00042275
786.95340820,0.00058789
788.88221558,0.00033029
790.81102295,0.00003691
792.73983032,0.00041169
794.66863770,0.00047755
796.59744507,0.00045998
798.52625244,0.00063789
800.45505981,0.00068749
802.38386719,0.00070859
804.31267456,0.00048032
806.24148193,0.00029089
808.17028931,0.00042164
810.09909668,0.00059187
812.02790405,0.00049817
813.95671143,0.00035550
815.88551880,0.00039616
817.81432617,0.00021263
819.74313354,0.00019059
821.67194092,0.00031418
823.60074829,0.00041508
825.52955566,0.00065043
827.45836304,0.00037494
829.38717041,0.00042772
831.31597778,0.00070403
833.24478516,0.00048178
835.17359253,0.00075115
837.10239990,0.00096549
839.03120728,0.00080468
840.96001465,0.00064194
842.88882202,0.00077548
844.81762939,0.00103214
846.74643677,0.00065079
848.67524414,0.00044263
850.60405151,0.00062643
852.53285889,0.00076477
854.46166626,0.00060956
856.39047363,0.00042396
858.31928101,0.00052179
860.24808838,0.00058123
862.17689575,0.00077990
864.10570313,0.00060342
866.03451050,0.00058869
867.96331787,0.00064779
869.89212524,0.00023963
871.82093262,0.00035545
873.74973999,0.00036797
875.67854736,0.00052118
877.60735474,0.00059892
879.53616211,0.00036198
881.46496948,0.00080816
883.39377686,0.00060575
885.32258423,0.00044763
887.25139160,0.00062324
889.18019897,0.00018634
891.10900635,0.00058454
893.03781372,0.00066244
894.96662109,0.00027928
896.89542847,0.00052450
898.82423584,0.00053719
900.75304321,0.00070869
902.68185059,0.00053817
904.61065796,0.00028887
906.53946533,0.00058054
908.46827271,0.00044918
910.39708008,0.00054636
912.32588745,0.00057918
914.25469482,0.00047713
916.18350220,0.00091936
918.11230957,0.00075307
920.04111694,0.00058237
921.96992432,0.00082173
923.89873169,0.00084661
925.82753906,0.00105129
927.75634644,0.00100695
929.68515381,0.00084932
931.61396118,0.00108648
933.54276855,0.00133028
935.47157593,0.00114350
937.40038330,0.00102327
939.32919067,0.00128012
941.25799805,0.00122298
943.18680542,0.00113277
945.11561279,0.00124701
947.04442017,0.00144026
948.97322754,0.00145004
950.90203491,0.00118025
952.83084229,0.00121150
954.75964966,0.00119759
956.68845703,0.00115417
958.61726440,0.00135238
960.54607178,0.00134539
962.47487915,0.00127748
964.40368652,0.00124374
966.33249390,0.00128835
968.26130127,0.00150961
970.19010864,0.00147307
972.11891602,0.00151931
974.04772339,0.00167246
975.97653076,0.00165993
977.90533813,0.00189794
979.83414551,0.00172767
981.76295288,0.00175191
983.69176025,0.00228013
985.62056763,0.00257269
987.54937500,0.00289319
989.47818237,0.00279007
991.40698975,0.00314579
993.33579712,0.00354360
995.26460449,0.00357178
997.19341187,0.00408751
999.12221924,0.00421845
1001.05102661,0.00456535
1002.97983398,0.00501535
1004.90864136,0.00530974
1006.83744873,0.00544294
1008.76625610,0.00577525
1010.69506348,0.00647315
1012.62387085,0.00617792
1014.55267822,0.00670243
1016.48148560,0.00735560
1018.41029297,0.00711683
1020.33910034,0.00760506
1022.26790771,0.00805897
1024.19671509,0.00834197
1026.12552246,0.00828230
1028.05432983,0.00870730
1029.98313721,0.00929549
1031.91194458,0.00916538
1033.84075195,0.00938849
1035.76955933,0.00950838
1037.69836670,0.00974103
1039.62717407,0.00971670
1041.55598145,0.00942501
1043.48478882,0.00944826
1045.41359619,0.00935385
1047.34240356,0.00939378
1049.27121094,0.00916829
1051.20001831,0.00884791
1053.12882568,0.00857135
1055.05763306,0.00853554
1056.98644043,0.00847928
1058.91524780,0.00795773
1060.84405518,0.00793539
1062.77286255,0.00774009
1064.70166992,0.00738503
1066.63047729,0.00725846
1068.55928467,0.00686858
1070.48809204,0.00681424
1072.41689941,0.00664951
1074.34570679,0.00610493
1076.27451416,0.00577242
1078.20332153,0.00544954
1080.13212891,0.00515911
1082.06093628,0.00514577
1083.98974365,0.00492099
1085.91855103,0.00465910
1087.84735840,0.00474220
1089.77616577,0.00451797
1091.70497314,0.00424821
1093.63378052,0.00411234
1095.56258789,0.00383042
1097.49139526,0.00382469
1099.42020264,0.00377382
1101.34901001,0.00344151
1103.27781738,0.00348411
1105.20662476,0.00370914
1107.13543213,0.00357626
1109.06423950,0.00354263
1110.99304687,0.00355965
1112.92185425,0.00333668
1114.85066162,0.00319736
1116.77946899,0.00330993
1118.70827637,0.00356742
1120.63708374,0.00342891
1122.56589111,0.00326709
1124.49469849,0.00340108
1126.42350586,0.00345040
1128.35231323,0.00356515
1130.28112061,0.00343676
1132.20992798,0.00338471
1134.13873535,0.00373206
1136.06754272,0.00384483
1137.99635010,0.00398472
1139.92515747,0.00432819
1141.85396484,0.00445186
1143.78277222,0.00475121
1145.71157959,0.00516038
1147.64038696,0.00514480
1149.56919434,0.00542908
1151.49800171,0.00582026
1153.42680908,0.00596353
1155.35561646,0.00633049
1157.28442383,0.00646524
1159.21323120,0.00671266
1161.14203857,0.00706805
1163.07084595,0.00710562
1164.99965332,0.00735160
1166.92846069,0.00762864
1168.85726807,0.00795713
1170.78607544,0.00828264
1172.71488281,0.00835812
1174.64369019,0.00869491
1176.57249756,0.00905483
1178.50130493,0.00922010
1180.43011230,0.00964758
1182.35891968,0.01001281
1184.28772705,0.01029697
1186.21653442,0.01085984
1188.14534180,0.01133815
1190.07414917,0.01168087
1192.00295654,0.01220842
1193.93176392,0.01285427
1195.86057129,0.01336372
1197.78937866,0.01404095
1199.71818604,0.01469765
1201.64699341,0.01519607
1203.57580078,0.01594987
1205.50460815,0.01631112
1207.43341553,0.01678129
1209.36222290,0.01750657
1211.29103027,0.01798396
1213.21983765,0.01856162
1215.14864502,0.01874546
1217.07745239,0.01932993
1219.00625977,0.01978910
1220.93506714,0.01962425
1222.86387451,0.02014808
1224.79268188,0.02031431
1226.72148926,0.02032883
1228.65029663,0.02061114
1230.57910400,0.02051434
1232.50791138,0.02055626
1234.43671875,0.02072806
1236.36552612,0.02071688
1238.29433350,0.02049712
1240.22314087,0.02062499
1242.15194824,0.02061383
1244.08075562,0.02026837
1246.00956299,0.02032023
1247.93837036,0.02014866
1249.86717773,0.01991222
1251.79598511,0.01986895
1253.72479248,0.01967124
1255.65359985,0.01944248
1257.58240723,0.01922106
1259.51121460,0.01902428
1261.44002197,0.01873815
1263.36882935,0.01830897
1265.29763672,0.01802861
1267.22644409,0.01802394
1269.15525146,0.01781486
1271.08405884,0.01747517
1273.01286621,0.01715826
1274.94167358,0.01689654
1276.87048096,0.01671218
1278.79928833,0.01616850
1280.72809570,0.01594559
1282.65690308,0.01591581
1284.58571045,0.01549011
1286.51451782,0.01521100
1288.44332520,0.01495138
1290.37213257,0.01462810
1292.30093994,0.01457737
1294.22974731,0.01471631
1296.15855469,0.01444541
1298.08736206,0.01425297
1300.01616943,0.01440794
1301.94497681,0.01436041
1303.87378418,0.01454441
1305.80259155,0.01470710
1307.73139893,0.01493999
1309.66020630,0.01521772
1311.58901367,0.01525456
1313.51782104,0.01567700
1315.44662842,0.01606472
1317.37543579,0.01628027
1319.30424316,0.01667355
1321.23305054,0.01716794
1323.16185791,0.01759646
1325.09066528,0.01803564
1327.01947266,0.01859818
1328.94828003,0.01908297
1330.87708740,0.01959931
1332.80589478,0.02002680
1334.73470215,0.02038388
1336.66350952,0.02051076
1338.59231689,0.02039464
1340.52112427,0.02062381
1342.44993164,0.02120659
1344.37873901,0.02161273
1346.30754639,0.02148671
1348.23635376,0.02130838
1350.16516113,0.02119089
1352.09396851,0.02112806
1354.02277588,0.02111258
1355.95158325,0.02084588
1357.88039062,0.02066667
1359.80919800,0.02045924
1361.73800537,0.01954765
1363.66681274,0.01918430
1365.59562012,0.02019575
1367.52442749,0.01993366
1369.45323486,0.01951491
1371.38204224,0.01976504
1373.31084961,0.01869870
1375.23965698,0.01886435
1377.16846436,0.01945010
1379.09727173,0.01922677
1381.02607910,0.01939798
1382.95488647,0.01926073
1384.88369385,0.01910994
1386.81250122,0.01848941
1388.74130859,0.01873851
1390.67011597,0.02000172
1392.59892334,0.01945728
1394.52773071,0.01850104
1396.45653809,0.01930303
1398.38534546,0.01918440
1400.31415283,0.01911869
1402.24296021,0.02047298
1404.17176758,0.01945123
1406.10057495,0.01970756
1408.02938232,0.02069224
1409.95818970,0.01982242
1411.88699707,0.01999177
1413.81580444,0.01935380
1415.74461182,0.01945109
1417.67341919,0.01783707
1419.60222656,0.01622250
1421.53103394,0.01847897
1423.45984131,0.01803087
1425.38864868,0.01721426
1427.31745605,0.01749170
1429.24626343,0.01641208
1431.17507080,0.01582656
1433.10387817,0.01599682
1435.03268555,0.01477076
1436.96149292,0.01290962
1438.89030029,0.01429164
1440.81910767,0.01449342
1442.74791504,0.01352828
1444.67672241,0.01387002
1446.60552979,0.01300852
1448.53433716,0.01342047
1450.46314453,0.01376281
1452.39195190,0.01399386
1454.32075928,0.01441049
1456.24956665,0.01219546
1458.17837402,0.01280533
1460.10718140,0.01639971
1462.03598877,0.01712154
1463.96479614,0.01714966
1465.89360352,0.01774903
1467.82241089,0.01992071
1469.75121826,0.02161875
1471.68002563,0.01939109
1473.60883301,0.02039911
1475.53764038,0.02309567
1477.46644775,0.02462066
1479.39525513,0.02685770
1481.32406250,0.02719666
1483.25286987,0.02888905
1485.18167725,0.02947438
1487.11048462,0.02923452
1489.03929199,0.02923878
1490.96809937,0.02918042
1492.89690674,0.03381139
1494.82571411,0.03277929
1496.75452148,0.02979247
1498.68332886,0.03333832
1500.61213623,0.03412292
1502.54094360,0.03693677
1504.46975098,0.03455963
1506.39855835,0.02573734
1508.32736572,0.03144822
1510.25617310,0.03609338
1512.18498047,0.03501710
1514.11378784,0.03777704
1516.04259521,0.03426214
1517.97140259,0.03579270
1519.90020996,0.03436512
1521.82901733,0.03002575
1523.75782471,0.03627948
1525.68663208,0.03554809
1527.61543945,0.03572319
1529.54424683,0.03911291
1531.47305420,0.03743170
1533.40186157,0.03457452
1535.33066895,0.03658909
1537.25947632,0.03877287
1539.18828369,0.02818829
1541.11709106,0.02980779
1543.04589844,0.03511874
1544.97470581,0.03373554
1546.90351318,0.03946759
1548.83232056,0.03667758
1550.76112793,0.03809962
1552.68993530,0.03758657
1554.61874268,0.03447440
1556.54755005,0.03677650
1558.47635742,0.02625860
1560.40516479,0.02860422
1562.33397217,0.03934205
1564.26277954,0.03730979
1566.19158691,0.03831192
1568.12039429,0.03761980
1570.04920166,0.03389163
1571.97800903,0.03871350
1573.90681641,0.03891290
1575.83562378,0.03110143
1577.76443115,0.03519543
1579.69323853,0.03985944
1581.62204590,0.03786307
1583.55085327,0.03841425
1585.47966064,0.03798340
1587.40846802,0.03814294
1589.33727539,0.03765450
1591.26608276,0.03772711
1593.19489014,0.03761046
1595.12369751,0.03721964
1597.05250488,0.03772392
1598.98131226,0.03740320
1600.91011963,0.03769850
1602.83892700,0.03705854
1604.76773437,0.03768091
1606.69654175,0.03692771
1608.62534912,0.03686912
1610.55415649,0.03694589
1612.48296387,0.03726570
1614.41177124,0.03762110
1616.34057861,0.03093741
1618.26938599,0.03378397
1620.19819336,0.03887897
1622.12700073,0.03483686
1624.05580811,0.03519718
1625.98461548,0.03698211
1627.91342285,0.03712261
1629.84223022,0.03703780
1631.77103760,0.03969220
1633.69984497,0.03659850
1635.62865234,0.03111904
1637.55745972,0.03628547
1639.48626709,0.03973971
1641.41507446,0.03938245
1643.34388184,0.04021396
1645.27268921,0.03662617
1647.20149658,0.03291526
1649.13030396,0.04073237
1651.05911133,0.03848916
1652.98791870,0.02561706
1654.91672607,0.03487983
1656.84553345,0.04300030
1658.77434082,0.04146679
1660.70314819,0.04279553
1662.63195557,0.03917137
1664.56076294,0.04154105
1666.48957031,0.04448166
1668.41837769,0.03914342
1670.34718506,0.03825004
1672.27599243,0.04324908
1674.20479980,0.04017037
1676.13360718,0.03876888
1678.06241455,0.04432001
1679.99122192,0.04297611
1681.92002930,0.04254094
1683.84883667,0.03489056
1685.77764404,0.03489260
1687.70645142,0.04651155
1689.63525879,0.04066863
1691.56406616,0.04487557
1693.49287354,0.04501321
1695.42168091,0.03359152
1697.35048828,0.04122436
1699.27929565,0.03621625
1701.20810303,0.03325562
1703.13691040,0.04402809
1705.06571777,0.04018599
1706.99452515,0.04091597
1708.92333252,0.04401206
1710.85213989,0.04215894
1712.78094727,0.04267628
1714.70975464,0.03964519
1716.63856201,0.03591219
1718.56736938,0.03525254
1720.49617676,0.04137174
1722.42498413,0.04262026
1724.35379150,0.03988630
1726.28259888,0.04308818
1728.21140625,0.03958544
1730.14021362,0.04000562
1732.06902100,0.03860907
1733.99782837,0.02997836
1735.92663574,0.03702377
1737.85544312,0.04036073
1739.78425049,0.03603207
1741.71305786,0.03897002
1743.64186523,0.03951292
1745.57067261,0.03947717
1747.49947998,0.03989507
1749.42828735,0.03812747
1751.35709473,0.03636584
1753.28590210,0.04028725
1755.21470947,0.04192196
1757.14351685,0.03845303
1759.07232422,0.04197725
1761.00113159,0.03948148
1762.92993896,0.03817204
1764.85874634,0.04313192
1766.78755371,0.03908915
1768.71636108,0.03945762
1770.64516846,0.03914988
1772.57397583,0.03535620
1774.50278320,0.03914059
1776.43159058,0.04105970
1778.36039795,0.04046693
1780.28920532,0.04009938
1782.21801270,0.04023083
1784.14682007,0.04014270
1786.07562744,0.03946014
1788.00443481,0.04137070
1789.93324219,0.04020480
1791.86204956,0.03654459
1793.79085693,0.03814650
1795.71966431,0.04052544
1797.64847168,0.04001752
1799.57727905,0.03949881
1801.50608643,0.03874207
1803.43489380,0.03995324
1805.36370117,0.04071189
1807.29250854,0.04013145
1809.22131592,0.04031209
1811.15012329,0.03925888
1813.07893066,0.04015363
1815.00773804,0.04026021
1816.93654541,0.03989962
1818.86535278,0.04018272
1820.79416016,0.04010641
1822.72296753,0.04060490
1824.65177490,0.03795206
1826.58058228,0.03925180
1828.50938965,0.03920898
1830.43819702,0.03688181
1832.36700439,0.04016117
1834.29581177,0.03981350
1836.22461914,0.03952649
1838.15342651,0.03938736
1840.08223389,0.03955900
1842.01104126,0.03960754
1843.93984863,0.03549701
1845.86865601,0.03758521
1847.79746338,0.03942350
1849.72627075,0.03873724
1851.65507812,0.03967355
1853.58388550,0.03875905
1855.51269287,0.03924636
1857.44150024,0.03887498
1859.37030762,0.03861308
1861.29911499,0.03899350
1863.22792236,0.03853647
1865.15672974,0.03885102
1867.08553711,0.03757411
1869.01434448,0.03617965
1870.94315186,0.03745225
1872.87195923,0.03866598
1874.80076660,0.03806028
1876.72957397,0.03832974
1878.65838135,0.03820304
1880.58718872,0.03780843
1882.51599609,0.03805156
1884.44480347,0.03738967
1886.37361084,0.03796105
1888.30241821,0.03725123
1890.23122559,0.03649717
1892.16003296,0.03770721
1894.08884033,0.03707232
1896.01764771,0.03698768
1897.94645508,0.03745621
1899.87526245,0.03724285
1901.80406982,0.03720915
1903.73287720,0.03693454
1905.66168457,0.03726302
1907.59049194,0.03676410
1909.51929932,0.03639193
1911.44810669,0.03667495
1913.37691406,0.03672960
1915.30572144,0.03704523
1917.23452881,0.03541521
1919.16333618,0.03550387
1921.09214355,0.03667541
1923.02095093,0.03547253
1924.94975830,0.03624409
1926.87856567,0.03640829
1928.80737305,0.03608626
1930.73618042,0.03651109
1932.66498779,0.03592220
1934.59379517,0.03630311
1936.52260254,0.03587908
1938.45140991,0.03618256
1940.38021729,0.03613036
1942.30902466,0.03482528
1944.23783203,0.03558140
1946.16663940,0.03588066
1948.09544678,0.03583724
1950.02425415,0.03585782
1951.95306152,0.03570907
1953.88186890,0.03573103
1955.81067627,0.03549484
1957.73948364,0.03568730
1959.66829102,0.03548443
1961.59709839,0.03527209
1963.52590576,0.03547993
1965.45471313,0.03534034
1967.38352051,0.03481321
1969.31232788,0.03523347
1971.24113525,0.03553297
1973.16994263,0.03512392
1975.09875000,0.03544239
1977.02755737,0.03506592
1978.95636475,0.03495861
1980.88517212,0.03505551
1982.81397949,0.03488350
1984.74278687,0.03503606
1986.67159424,0.03467241
1988.60040161,0.03469152
1990.52920898,0.03432053
1992.45801636,0.03410935
1994.38682373,0.03448788
1996.31563110,0.03449994
1998.24443848,0.03449911
2000.17324585,0.03426362
2002.10205322,0.03429406
2004.03086060,0.03421202
2005.95966797,0.03400569
2007.88847534,0.03395933
2009.81728271,0.03386742
2011.74609009,0.03382846
2013.67489746,0.03374789
2015.60370483,0.03355203
2017.53251221,0.03325622
2019.46131958,0.03342810
2021.39012695,0.03340596
2023.31893433,0.03324614
2025.24774170,0.03326485
2027.17654907,0.03311216
2029.10535645,0.03306941
2031.03416382,0.03299527
2032.96297119,0.03295063
2034.89177856,0.03269858
2036.82058594,0.03266168
2038.74939331,0.03266203
2040.67820068,0.03241855
2042.60700806,0.03241768
2044.53581543,0.03231762
2046.46462280,0.03229128
2048.39343018,0.03219603
2050.32223755,0.03219130
2052.25104492,0.03217810
2054.17985229,0.03199988
2056.10865967,0.03198005
2058.03746704,0.03180884
2059.96627441,0.03180268
2061.89508179,0.03183788
2063.82388916,0.03159267
2065.75269653,0.03145048
2067.68150391,0.03159663
2069.61031128,0.03155055
2071.53911865,0.03137607
2073.46792603,0.03126901
2075.39673340,0.03120155
2077.32554077,0.03133924
2079.25434814,0.03113781
2081.18315552,0.03110722
2083.11196289,0.03109911
2085.04077026,0.03083508
2086.96957764,0.03091794
2088.89838501,0.03082734
2090.82719238,0.03069711
2092.75599976,0.03067350
2094.68480713,0.03068699
2096.61361450,0.03056559
2098.54242187,0.03046566
2100.47122925,0.03049941
2102.40003662,0.03037378
2104.32884399,0.03042417
2106.25765137,0.03030505
2108.18645874,0.03013999
2110.11526611,0.03006158
2112.04407349,0.03002818
2113.97288086,0.03007674
2115.90168823,0.02994460
2117.83049561,0.02987559
2119.75930298,0.02990039
2121.68811035,0.02995250
2123.61691772,0.02962078
2125.54572510,0.02956150
2127.47453247,0.02978938
2129.40333984,0.02959724
2131.33214722,0.02966222
2133.26095459,0.02964453
2135.18976196,0.02959701
2137.11856934,0.02953490
2139.04737671,0.02930311
2140.97618408,0.02934816
2142.90499146,0.02935778
2144.83379883,0.02930230
2146.76260620,0.02923706
2148.69141357,0.02922490
2150.62022095,0.02913870
2152.54902832,0.02909598
2154.47783569,0.02914291
2156.40664307,0.02897529
2158.33545044,0.02896436
2160.26425781,0.02899728
2162.19306519,0.02889138
2164.12187256,0.02880930
2166.05067993,0.02871795
2167.97948730,0.02870113
2169.90829468,0.02871563
2171.83710205,0.02861029
2173.76590942,0.02863305
2175.69471680,0.02869405
2177.62352417,0.02851715
2179.55233154,0.02843766
2181.48113892,0.02843738
2183.40994629,0.02846279
2185.33875366,0.02846486
2187.26756104,0.02840523
2189.19636841,0.02832678
2191.12517578,0.02824467
2193.05398315,0.02834111
2194.98279053,0.02828744
2196.91159790,0.02814615
2198.84040527,0.02813366
2200.76921265,0.02821394
2202.69802002,0.02817177
2204.62682739,0.02793028
2206.55563477,0.02790675
2208.48444214,0.02791736
2210.41324951,0.02784438
2212.34205688,0.02774324
2214.27086426,0.02773553
2216.19967163,0.02768408
2218.12847900,0.02765174
2220.05728638,0.02780137
2221.98609375,0.02767550
2223.91490112,0.02768742
2225.84370850,0.02757404
2227.77251587,0.02743211
2229.70132324,0.02761012
2231.63013062,0.02733411
2233.55893799,0.02722371
2235.48774536,0.02728669
2237.41655273,0.02714417
2239.34536011,0.02717934
2241.27416748,0.02721917
2243.20297485,0.02714734
2245.13178223,0.02699487
2247.06058960,0.02692674
2248.98939697,0.02684110
2250.91820435,0.02673583
2252.84701172,0.02683609
2254.77581909,0.02692350
2256.70462646,0.02667442
2258.63343384,0.02650037
2260.56224121,0.02667383
2262.49104858,0.02662473
2264.41985596,0.02651672
2266.34866333,0.02653630
2268.27747070,0.02651501
2270.20627808,0.02643891
2272.13508545,0.02631640
2274.06389282,0.02633572
2275.99270020,0.02628759
2277.92150757,0.02622813
2279.85031494,0.02620045
2281.77912231,0.02618767
2283.70792969,0.02624375
2285.63673706,0.02602990
2287.56554443,0.02591669
2289.49435181,0.02591732
2291.42315918,0.02575433
2293.35196655,0.02571542
2295.28077393,0.02563626
2297.20958130,0.02554480
2299.13838867,0.02547206
2301.06719604,0.02536307
2302.99600342,0.02531628
2304.92481079,0.02516927
2306.85361816,0.02493015
2308.78242554,0.02465312
2310.71123291,0.02449801
2312.64004028,0.02432033
2314.56884766,0.02396049
2316.49765503,0.02358904
2318.42646240,0.02323974
2320.35526978,0.02304481
2322.28407715,0.02264802
2324.21288452,0.02231206
2326.14169189,0.02224018
2328.07049927,0.02175030
2329.99930664,0.02135021
2331.92811401,0.02129248
2333.85692139,0.02114031
2335.78572876,0.02099600
2337.71453613,0.02105533
2339.64334351,0.02102435
2341.57215088,0.02103306
2343.50095825,0.02139533
2345.42976562,0.02161173
2347.35857300,0.02260556
2349.28738037,0.02356099
2351.21618774,0.02253959
2353.14499512,0.02135348
2355.07380249,0.02059804
2357.00260986,0.01985320
2358.93141724,0.01964260
2360.86022461,0.01932545
2362.78903198,0.01920991
2364.71783936,0.01939917
2366.64664673,0.01953670
2368.57545410,0.02009983
2370.50426147,0.02060822
2372.43306885,0.02105908
2374.36187622,0.02180475
2376.29068359,0.02229717
2378.21949097,0.02281316
2380.14829834,0.02340580
2382.07710571,0.02361862
2384.00591309,0.02368442
2385.93472046,0.02374401
2387.86352783,0.02382184
2389.79233521,0.02391206
2391.72114258,0.02381730
2393.64994995,0.02370259
2395.57875732,0.02376931
2397.50756470,0.02361514
2399.43637207,0.02354765
2401.36517944,0.02364923
2403.29398682,0.02343769
2405.22279419,0.02349409
2407.15160156,0.02352576
2409.08040894,0.02341506
2411.00921631,0.02341124
2412.93802368,0.02323763
2414.86683105,0.02335390
2416.79563843,0.02330529
2418.72444580,0.02313155
2420.65325317,0.02323306
2422.58206055,0.02318977
2424.51086792,0.02319267
2426.43967529,0.02313803
2428.36848267,0.02309645
2430.29729004,0.02314275
2432.22609741,0.02300627
2434.15490479,0.02287436
2436.08371216,0.02288194
2438.01251953,0.02287382
2439.94132690,0.02278407
2441.87013428,0.02275424
2443.79894165,0.02276305
2445.72774902,0.02275763
2447.65655640,0.02263057
2449.58536377,0.02253136
2451.51417114,0.02255290
2453.44297852,0.02254106
2455.37178589,0.02258723
2457.30059326,0.02248628
2459.22940063,0.02234701
2461.15820801,0.02235200
2463.08701538,0.02231512
2465.01582275,0.02223408
2466.94463013,0.02218727
2468.87343750,0.02220692
2470.80224487,0.02214525
2472.73105225,0.02216842
2474.65985962,0.02221689
2476.58866699,0.02209380
2478.51747437,0.02204334
2480.44628174,0.02198219
2482.37508911,0.02190375
2484.30389648,0.02190366
2486.23270386,0.02191231
2488.16151123,0.02188987
2490.09031860,0.02178643
2492.01912598,0.02171401
2493.94793335,0.02173305
2495.87674072,0.02168791
2497.80554810,0.02154375
2499.73435547,0.02155373
2501.66316284,0.02160021
2503.59197021,0.02149502
2505.52077759,0.02147102
2507.44958496,0.02144340
2509.37839233,0.02137561
2511.30719971,0.02132141
2513.23600708,0.02128935
2515.16481445,0.02134465
2517.09362183,0.02122288
2519.02242920,0.02116368
2520.95123657,0.02125165
2522.88004395,0.02115299
2524.80885132,0.02111775
2526.73765869,0.02110306
2528.66646606,0.02107026
2530.59527344,0.02102355
2532.52408081,0.02087166
2534.45288818,0.02093143
2536.38169556,0.02095506
2538.31050293,0.02081137
2540.23931030,0.02083107
2542.16811768,0.02078277
2544.09692505,0.02073217
2546.02573242,0.02074391
2547.95453979,0.02061452
2549.88334717,0.02068485
2551.81215454,0.02064883
2553.74096191,0.02047531
2555.66976929,0.02055217
2557.59857666,0.02054761
2559.52738403,0.02059192
2561.45619141,0.02042319
2563.38499878,0.02024735
2565.31380615,0.02030745
2567.24261353,0.02020754
2569.17142090,0.02033853
2571.10022827,0.02029658
2573.02903564,0.02026840
2574.95784302,0.02033942
2576.88665039,0.02011754
2578.81545776,0.02010570
2580.74426514,0.02004215
2582.67307251,0.02002354
2584.60187988,0.01998676
2586.53068726,0.01998616
2588.45949463,0.02005840
2590.38830200,0.01983953
2592.31710937,0.01982950
2594.24591675,0.01983261
2596.17472412,0.01976216
2598.10353149,0.01970850
2600.03233887,0.01972155
2601.96114624,0.01971968
2603.88995361,0.01955813
2605.81876099,0.01954828
2607.74756836,0.01945341
2609.67637573,0.01951582
2611.60518311,0.01947850
2613.53399048,0.01938604
2615.46279785,0.01954107
2617.39160522,0.01935072
2619.32041260,0.01933210
2621.24921997,0.01938754
2623.17802734,0.01923090
2625.10683472,0.01917696
2627.03564209,0.01914903
2628.96444946,0.01921993
2630.89325684,0.01921544
2632.82206421,0.01901838
2634.75087158,0.01895106
2636.67967895,0.01906522
2638.60848633,0.01897870
2640.53729370,0.01892650
2642.46610107,0.01890727
2644.39490845,0.01890468
2646.32371582,0.01902333
2648.25252319,0.01887288
2650.18133057,0.01877612
2652.11013794,0.01866483
2654.03894531,0.01863143
2655.96775269,0.01871345
2657.89656006,0.01859936
2659.82536743,0.01858830
2661.75417480,0.01849744
2663.68298218,0.01846513
2665.61178955,0.01844922
2667.54059692,0.01844320
2669.46940430,0.01854604
2671.39821167,0.01838609
2673.32701904,0.01825135
2675.25582642,0.01824325
2677.18463379,0.01828062
2679.11344116,0.01822909
2681.04224854,0.01815191
2682.97105591,0.01814366
2684.89986328,0.01800784
2686.82867065,0.01802331
2688.75747803,0.01804238
2690.68628540,0.01798462
2692.61509277,0.01804426
2694.54390015,0.01792022
2696.47270752,0.01777173
2698.40151489,0.01777233
2700.33032227,0.01770426
2702.25912964,0.01778120
2704.18793701,0.01779892
2706.11674438,0.01764867
2708.04555176,0.01771537
2709.97435913,0.01762369
2711.90316650,0.01752817
2713.83197388,0.01760391
2715.76078125,0.01753076
2717.68958862,0.01750587
2719.61839600,0.01745855
2721.54720337,0.01744871
2723.47601074,0.01746370
2725.40481812,0.01736492
2727.33362549,0.01735647
2729.26243286,0.01729607
2731.19124023,0.01716214
2733.12004761,0.01723478
2735.04885498,0.01724987
2736.97766235,0.01707804
2738.90646973,0.01709015
2740.83527710,0.01712559
2742.76408447,0.01707036
2744.69289185,0.01697721
2746.62169922,0.01687231
2748.55050659,0.01688127
2750.47931396,0.01687884
2752.40812134,0.01687066
2754.33692871,0.01681262
2756.26573608,0.01673824
2758.19454346,0.01666952
2760.12335083,0.01662970
2762.05215820,0.01659989
2763.98096558,0.01653912
2765.90977295,0.01660196
2767.83858032,0.01648068
2769.76738770,0.01642577
2771.69619507,0.01647292
2773.62500244,0.01629394
2775.55380981,0.01633625
2777.48261719,0.01634144
2779.41142456,0.01624079
2781.34023193,0.01630015
2783.26903931,0.01621386
2785.19784668,0.01610619
2787.12665405,0.01615178
2789.05546143,0.01610475
2790.98426880,0.01601131
2792.91307617,0.01603810
2794.84188354,0.01598193
2796.77069092,0.01589637
2798.69949829,0.01587100
2800.62830566,0.01582200
2802.55711304,0.01579431
2804.48592041,0.01574289
2806.41472778,0.01572074
2808.34353516,0.01564937
2810.27234253,0.01549477
2812.20114990,0.01557027
2814.12995728,0.01566489
2816.05876465,0.01552056
2817.98757202,0.01545469
2819.91637939,0.01542324
2821.84518677,0.01535742
2823.77399414,0.01532640
2825.70280151,0.01532497
2827.63160889,0.01538976
2829.56041626,0.01533817
2831.48922363,0.01524113
2833.41803101,0.01518082
2835.34683838,0.01512295
2837.27564575,0.01501561
2839.20445312,0.01501882
2841.13326050,0.01503484
2843.06206787,0.01476873
2844.99087524,0.01470328
2846.91968262,0.01466721
2848.84848999,0.01461096
2850.77729736,0.01461787
2852.70610474,0.01449063
2854.63491211,0.01453048
2856.56371948,0.01448949
2858.49252686,0.01453030
2860.42133423,0.01454546
2862.35014160,0.01442755
2864.27894897,0.01438227
2866.20775635,0.01426328
2868.13656372,0.01431792
2870.06537109,0.01429639
2871.99417847,0.01422389
2873.92298584,0.01414825
2875.85179321,0.01425425
2877.78060059,0.01429344
2879.70940796,0.01401419
2881.63821533,0.01409812
2883.56702270,0.01399879
2885.49583008,0.01402061
2887.42463745,0.01403871
2889.35344482,0.01379892
2891.28225220,0.01399121
2893.21105957,0.01380724
2895.13986694,0.01368118
2897.06867432,0.01375829
2898.99748169,0.01369407
2900.92628906,0.01380575
2902.85509644,0.01364502
2904.78390381,0.01347882
2906.71271118,0.01348456
2908.64151855,0.01341661
2910.57032593,0.01328364
2912.49913330,0.01330215
2914.42794067,0.01327912
2916.35674805,0.01309030
2918.28555542,0.01302870
2920.21436279,0.01294685
2922.14317017,0.01299475
2924.07197754,0.01307207
2926.00078491,0.01302223
2927.92959229,0.01299007
2929.85839966,0.01298355
2931.78720703,0.01291009
2933.71601440,0.01282622
2935.64482178,0.01292146
2937.57362915,0.01285467
2939.50243652,0.01279840
2941.43124390,0.01287518
2943.36005127,0.01283090
2945.28885864,0.01272639
2947.21766602,0.01267121
2949.14647339,0.01277684
2951.07528076,0.01270549
2953.00408813,0.01260165
2954.93289551,0.01262516
2956.86170288,0.01258400
2958.79051025,0.01253325
2960.71931763,0.01240312
2962.64812500,0.01233503
2964.57693237,0.01237045
2966.50573975,0.01234856
2968.43454712,0.01225169
2970.36335449,0.01230104
2972.29216187,0.01234896
2974.22096924,0.01228334
2976.14977661,0.01233119
2978.07858398,0.01231320
2980.00739136,0.01230748
2981.93619873,0.01226578
2983.86500610,0.01219099
2985.79381348,0.01220743
2987.72262085,0.01211681
2989.65142822,0.01210335
2991.58023560,0.01215149
2993.50904297,0.01209237
2995.43785034,0.01201275
2997.36665771,0.01196492
2999.29546509,0.01194319
3001.22427246,0.01196731
3003.15307983,0.01197168
3005.08188721,0.01190327
3007.01069458,0.01184632
3008.93950195,0.01177387
3010.86830933,0.01173213
3012.79711670,0.01168330
3014.72592407,0.01163964
3016.65473145,0.01166964
3018.58353882,0.01169197
3020.51234619,0.01159827
3022.44115356,0.01143649
3024.36996094,0.01149735
3026.29876831,0.01151508
3028.22757568,0.01133900
3030.15638306,0.01130601
3032.08519043,0.01137695
3034.01399780,0.01136411
3035.94280518,0.01131594
3037.87161255,0.01131017
3039.80041992,0.01121295
3041.72922729,0.01118244
3043.65803467,0.01115887
3045.58684204,0.01104235
3047.51564941,0.01102965
3049.44445679,0.01100390
3051.37326416,0.01101215
3053.30207153,0.01097351
3055.23087891,0.01087490
3057.15968628,0.01081446
3059.08849365,0.01078643
3061.01730103,0.01084762
3062.94610840,0.01085014
3064.87491577,0.01080175
3066.80372314,0.01070523
3068.73253052,0.01074722
3070.66133789,0.01080433
3072.59014526,0.01062961
3074.51895264,0.01057593
3076.44776001,0.01056772
3078.37656738,0.01053772
3080.30537476,0.01050409
3082.23418213,0.01048242
3084.16298950,0.01051209
3086.09179687,0.01040927
3088.02060425,0.01036609
3089.94941162,0.01032541
3091.87821899,0.01029109
3093.80702637,0.01033243
3095.73583374,0.01023048
3097.66464111,0.01019894
3099.59344849,0.01017089
3101.52225586,0.01011538
3103.45106323,0.01018323
3105.37987061,0.01013307
3107.30867798,0.01002256
3109.23748535,0.00996917
3111.16629272,0.00999813
3113.09510010,0.01001505
3115.02390747,0.00991278
3116.95271484,0.00986743
3118.88152222,0.00979976
3120.81032959,0.00981247
3122.73913696,0.00988765
3124.66794434,0.00977417
3126.59675171,0.00975727
3128.52555908,0.00973992
3130.45436645,0.00960001
3132.38317383,0.00960512
3134.31198120,0.00960720
3136.24078857,0.00952980
3138.16959595,0.00953432
3140.09840332,0.00951849
3142.02721069,0.00944316
3143.95601807,0.00951840
3145.88482544,0.00951665
3147.81363281,0.00934590
3149.74244019,0.00936014
3151.67124756,0.00940997
3153.60005493,0.00933516
3155.52886230,0.00924100
3157.45766968,0.00924036
3159.38647705,0.00929714
3161.31528442,0.00923000
3163.24409180,0.00922868
3165.17289917,0.00920143
3167.10170654,0.00908989
3169.03051392,0.00920088
3170.95932129,0.00916056
3172.88812866,0.00904025
3174.81693604,0.00915020
3176.74574341,0.00908767
3178.67455078,0.00898143
3180.60335815,0.00899854
3182.53216553,0.00904037
3184.46097290,0.00905518
3186.38978027,0.00902123
3188.31858765,0.00902224
3190.24739502,0.00890856
3192.17620239,0.00891044
3194.10500977,0.00897296
3196.03381714,0.00886163
3197.96262451,0.00885446
3199.89143188,0.00889171
3201.82023926,0.00890748
3203.74904663,0.00884714
3205.67785400,0.00880660
3207.60666138,0.00879701
3209.53546875,0.00871757
3211.46427612,0.00879106
3213.39308350,0.00885977
3215.32189087,0.00886238
3217.25069824,0.00887054
3219.17950562,0.00887534
3221.10831299,0.00887064
3223.03712036,0.00881600
3224.96592773,0.00879129
3226.89473511,0.00881278
3228.82354248,0.00888074
3230.75234985,0.00888023
3232.68115723,0.00889709
3234.60996460,0.00883468
3236.53877197,0.00878291
3238.46757935,0.00892209
3240.39638672,0.00886895
3242.32519409,0.00884644
3244.25400146,0.00885992
3246.18280884,0.00884817
3248.11161621,0.00890046
3250.04042358,0.00886382
3251.96923096,0.00895439
3253.89803833,0.00895192
3255.82684570,0.00890143
3257.75565308,0.00889608
3259.68446045,0.00881155
3261.61326782,0.00885232
3263.54207520,0.00895453
3265.47088257,0.00904692
3267.39968994,0.00905089
3269.32849731,0.00905030
3271.25730469,0.00902222
3273.18611206,0.00897630
3275.11491943,0.00901267
3277.04372681,0.00903762
3278.97253418,0.00910089
3280.90134155,0.00902073
3282.83014893,0.00896478
3284.75895630,0.00902662
3286.68776367,0.00898532
3288.61657104,0.00901674
3290.54537842,0.00909195
3292.47418579,0.00911275
3294.40299316,0.00912172
3296.33180054,0.00911415
3298.26060791,0.00910931
3300.18941528,0.00918560
3302.11822266,0.00921651
3304.04703003,0.00920391
3305.97583740,0.00919725
3307.90464478,0.00912178
3309.83345215,0.00920233
3311.76225952,0.00920762
3313.69106689,0.00913626
3315.61987427,0.00926151
3317.54868164,0.00930750
3319.47748901,0.00926305
3321.40629639,0.00920914
3323.33510376,0.00922737
3325.26391113,0.00930909
3327.19271851,0.00932018
3329.12152588,0.00931688
3331.05033325,0.00930923
3332.97914062,0.00932697
3334.90794800,0.00933559
3336.83675537,0.00929971
3338.76556274,0.00930469
3340.69437012,0.00931939
3342.62317749,0.00936943
3344.55198486,0.00942319
3346.48079224,0.00937829
3348.40959961,0.00943742
3350.33840698,0.00946140
3352.26721436,0.00938226
3354.19602173,0.00945915
3356.12482910,0.00950454
3358.05363647,0.00944444
3359.98244385,0.00938883
3361.91125122,0.00946383
3363.84005859,0.00953605
3365.76886597,0.00954868
3367.69767334,0.00954812
3369.62648071,0.00949669
3371.55528809,0.00961575
3373.48409546,0.00962437
3375.41290283,0.00963760
3377.34171020,0.00969235
3379.27051758,0.00967193
3381.19932495,0.00976673
3383.12813232,0.00966370
3385.05693970,0.00974976
3386.98574707,0.00984166
3388.91455444,0.00970136
3390.84336182,0.00975304
3392.77216919,0.00981496
3394.70097656,0.00989146
3396.62978394,0.00990181
3398.55859131,0.00991695
3400.48739868,0.00994092
3402.41620605,0.00997402
3404.34501343,0.01004143
3406.27382080,0.01004848
3408.20262817,0.01006811
3410.13143555,0.01009791
3412.06024292,0.01019881
3413.98905029,0.01010686
3415.91785767,0.01015095
3417.84666504,0.01024361
3419.77547241,0.01016363
3421.70427979,0.01022189
3423.63308716,0.01017765
3425.56189453,0.01030162
3427.49070190,0.01036355
3429.41950928,0.01041393
3431.34831665,0.01043127
3433.27712402,0.01028673
3435.20593140,0.01046648
3437.13473877,0.01046058
3439.06354614,0.01045231
3440.99235352,0.01046541
3442.92116089,0.01051287
3444.84996826,0.01061566
3446.77877563,0.01038022
3448.70758301,0.01045393
3450.63639038,0.01062017
3452.56519775,0.01062699
3454.49400513,0.01065020
3456.42281250,0.01067469
3458.35161987,0.01071889
3460.28042725,0.01069142
3462.20923462,0.01064212
3464.13804199,0.01060241
3466.06684937,0.01069504
3467.99565674,0.01071570
3469.92446411,0.01080108
3471.85327148,0.01086817
3473.78207886,0.01081359
3475.71088623,0.01079159
3477.63969360,0.01076810
3479.56850098,0.01087671
3481.49730835,0.01076904
3483.42611572,0.01082619
3485.35492310,0.01092266
3487.28373047,0.01084992
3489.21253784,0.01098012
3491.14134521,0.01093641
3493.07015259,0.01099270
3494.99895996,0.01100962
3496.92776733,0.01103894
3498.85657471,0.01114394
3500.78538208,0.01098191
3502.71418945,0.01089460
3504.64299683,0.01092578
3506.57180420,0.01109637
3508.50061157,0.01109950
3510.42941895,0.01101114
3512.35822632,0.01111877
3514.28703369,0.01120880
3516.21584106,0.01116522
3518.14464844,0.01110679
3520.07345581,0.01126252
3522.00226318,0.01117329
3523.93107056,0.01095218
3525.85987793,0.01106084
3527.78868530,0.01115776
3529.71749268,0.01110378
3531.64630005,0.01120754
3533.57510742,0.01134469
3535.50391479,0.01119418
3537.43272217,0.01113743
3539.36152954,0.01124714
3541.29033691,0.01126115
3543.21914429,0.01124892
3545.14795166,0.01111612
3547.07675903,0.01092758
3549.00556641,0.01118908
3550.93437378,0.01129874
3552.86318115,0.01103690
3554.79198853,0.01127069
3556.72079590,0.01128341
3558.64960327,0.01117966
3560.57841064,0.01123517
3562.50721802,0.01111148
3564.43602539,0.01112636
3566.36483276,0.01051716
3568.29364014,0.01023495
3570.22244751,0.01109657
3572.15125488,0.01141219
3574.08006226,0.01118975
3576.00886963,0.01122676
3577.93767700,0.01123851
3579.86648437,0.01120228
3581.79529175,0.01109338
3583.72409912,0.01111558
3585.65290649,0.01095309
3587.58171387,0.01016185
3589.51052124,0.01043769
3591.43932861,0.01118658
3593.36813599,0.01082272
3595.29694336,0.01066926
3597.22575073,0.01097454
3599.15455811,0.01100644
3601.08336548,0.01087328
3603.01217285,0.01104724
3604.94098022,0.01114745
3606.86978760,0.01076256
3608.79859497,0.01017359
3610.72740234,0.01035947
3612.65620972,0.01056792
3614.58501709,0.01025162
3616.51382446,0.01094876
3618.44263184,0.01023094
3620.37143921,0.00987155
3622.30024658,0.01092263
3624.22905395,0.01076856
3626.15786133,0.01123101
3628.08666870,0.00949062
3630.01547607,0.00872191
3631.94428345,0.01076011
3633.87309082,0.01050021
3635.80189819,0.01065870
3637.73070557,0.01090110
3639.65951294,0.01076798
3641.58832031,0.01076821
3643.51712769,0.01072224
3645.44593506,0.01085184
3647.37474243,0.00971641
3649.30354980,0.00889953
3651.23235718,0.00902969
3653.16116455,0.01064351
3655.08997192,0.01041626
3657.01877930,0.00937718
3658.94758667,0.01072201
3660.87639404,0.01042620
3662.80520142,0.01055958
3664.73400879,0.01061564
3666.66281616,0.01052059
3668.59162354,0.01011823
3670.52043091,0.00834335
3672.44923828,0.00992795
3674.37804565,0.00940130
3676.30685303,0.00797070
3678.23566040,0.00984427
3680.16446777,0.00990932
3682.09327515,0.00996303
3684.02208252,0.01028317
3685.95088989,0.01000417
3687.87969727,0.00893748
3689.80850464,0.00823330
3691.73731201,0.00935343
3693.66611938,0.00950819
3695.59492676,0.00965448
3697.52373413,0.00966398
3699.45254150,0.00951618
3701.38134888,0.00930267
3703.31015625,0.00896836
3705.23896362,0.00971240
3707.16777100,0.00930069
3709.09657837,0.00912119
3711.02538574,0.00843832
3712.95419312,0.00792888
3714.88300049,0.00936935
3716.81180786,0.00908346
3718.74061523,0.00905854
3720.66942261,0.00893928
3722.59822998,0.00861292
3724.52703735,0.00890597
3726.45584473,0.00832053
3728.38465210,0.00898093
3730.31345947,0.00875223
3732.24226685,0.00804963
3734.17107422,0.00787411
3736.09988159,0.00743917
3738.02868896,0.00789219
3739.95749634,0.00848276
3741.88630371,0.00890408
3743.81511108,0.00695025
3745.74391846,0.00658547
3747.67272583,0.00849539
3749.60153320,0.00721828
3751.53034058,0.00673406
3753.45914795,0.00762621
3755.38795532,0.00813581
3757.31676270,0.00848282
3759.24557007,0.00783568
3761.17437744,0.00817011
3763.10318481,0.00849882
3765.03199219,0.00801380
3766.96079956,0.00825680
3768.88960693,0.00801722
3770.81841431,0.00769824
3772.74722168,0.00828305
3774.67602905,0.00826114
3776.60483643,0.00825685
3778.53364380,0.00809178
3780.46245117,0.00772965
3782.39125854,0.00814726
3784.32006592,0.00806174
3786.24887329,0.00794530
3788.17768066,0.00811280
3790.10648804,0.00805324
3792.03529541,0.00788832
3793.96410278,0.00816176
3795.89291016,0.00776310
3797.82171753,0.00758159
3799.75052490,0.00798935
3801.67933228,0.00635340
3803.60813965,0.00738497
3805.53694702,0.00803906
3807.46575439,0.00653232
3809.39456177,0.00781241
3811.32336914,0.00764920
3813.25217651,0.00798450
3815.18098389,0.00723049
3817.10979126,0.00630400
3819.03859863,0.00793330
3820.96740601,0.00639309
3822.89621338,0.00674832
3824.82502075,0.00779518
3826.75382812,0.00707851
3828.68263550,0.00769585
3830.61144287,0.00729243
3832.54025024,0.00709360
3834.46905762,0.00719194
3836.39786499,0.00677215
3838.32667236,0.00620813
3840.25547974,0.00676554
3842.18428711,0.00717501
3844.11309448,0.00678167
3846.04190186,0.00745974
3847.97070923,0.00718156
3849.89951660,0.00718628
3851.82832397,0.00655903
3853.75713135,0.00493147
3855.68593872,0.00592967
3857.61474609,0.00715921
3859.54355347,0.00705177
3861.47236084,0.00710422
3863.40116821,0.00679835
3865.32997559,0.00639224
3867.25878296,0.00702943
3869.18759033,0.00645147
3871.11639770,0.00607324
3873.04520508,0.00702044
3874.97401245,0.00645069
3876.90281982,0.00694511
3878.83162720,0.00703846
3880.76043457,0.00616057
3882.68924194,0.00703796
3884.61804932,0.00650757
3886.54685669,0.00605041
3888.47566406,0.00694740
3890.40447144,0.00651805
3892.33327881,0.00620751
3894.26208618,0.00672868
3896.19089355,0.00690811
3898.11970093,0.00665430
3900.04850830,0.00619641
3901.97731567,0.00616061
3903.90612305,0.00617071
3905.83493042,0.00617667
3907.76373779,0.00672230
3909.69254517,0.00678691
3911.62135254,0.00665662
3913.55015991,0.00672466
3915.47896728,0.00654673
3917.40777466,0.00638326
3919.33658203,0.00637689
3921.26538940,0.00655567
3923.19419678,0.00641955
3925.12300415,0.00633991
3927.05181152,0.00650220
3928.98061890,0.00652133
3930.90942627,0.00634956
3932.83823364,0.00611521
3934.76704102,0.00643389
3936.69584839,0.00654763
3938.62465576,0.00641031
3940.55346313,0.00651655
3942.48227051,0.00628351
3944.41107788,0.00623966
3946.33988525,0.00640216
3948.26869263,0.00624813
3950.19750000,0.00623311
3952.12630737,0.00627130
3954.05511475,0.00622861
3955.98392212,0.00628607
3957.91272949,0.00624608
3959.84153687,0.00621751
3961.77034424,0.00610577
3963.69915161,0.00613169
3965.62795898,0.00617478
3967.55676636,0.00600129
3969.48557373,0.00611623
3971.41438110,0.00601995
3973.34318848,0.00601306
3975.27199585,0.00609994
3977.20080322,0.00596082
3979.12961060,0.00605062
3981.05841797,0.00601711
3982.98722534,0.00605614
3984.91603271,0.00600908
3986.84484009,0.00595034
3988.77364746,0.00599416
3990.70245483,0.00593235
3992.63126221,0.00593814
3994.56006958,0.00584015
3996.48887695,0.00597165
3998.41768433,0.00599474
4000.34649170,0.00590933
4002.27529907,0.00591532
4004.20410645,0.00583143
4006.13291382,0.00587768
4008.06172119,0.00584404
4009.99052856,0.00580770
4011.91933594,0.00575852
4013.84814331,0.00576380
4015.77695068,0.00568755
4017.70575806,0.00565342
4019.63456543,0.00575945
4021.56337280,0.00571114
4023.49218018,0.00577937
4025.42098755,0.00568488
4027.34979492,0.00566906
4029.27860229,0.00575127
4031.20740967,0.00567062
4033.13621704,0.00568192
4035.06502441,0.00569281
4036.99383179,0.00563837
4038.92263916,0.00551992
4040.85144653,0.00563300
4042.78025391,0.00559398
4044.70906128,0.00549214
4046.63786865,0.00558728
4048.56667603,0.00556531
4050.49548340,0.00554895
4052.42429077,0.00544428
4054.35309814,0.00548794
4056.28190552,0.00548830
4058.21071289,0.00542993
4060.13952026,0.00540767
4062.06832764,0.00531970
4063.99713501,0.00542986
4065.92594238,0.00540715
4067.85474976,0.00533397
4069.78355713,0.00533102
4071.71236450,0.00536970
4073.64117187,0.00535661
4075.56997925,0.00528926
4077.49878662,0.00528348
4079.42759399,0.00526075
4081.35640137,0.00535068
4083.28520874,0.00526510
4085.21401611,0.00523008
4087.14282349,0.00524386
4089.07163086,0.00515739
4091.00043823,0.00524000
4092.92924561,0.00522705
4094.85805298,0.00519150
4096.78686035,0.00517330
4098.71566772,0.00513613
4100.64447510,0.00510501
4102.57328247,0.00514866
4104.50208984,0.00513439
4106.43089722,0.00506245
4108.35970459,0.00510974
4110.28851196,0.00501301
4112.21731934,0.00499258
4114.14612671,0.00498946
4116.07493408,0.00501546
4118.00374145,0.00510865
4119.93254883,0.00504733
4121.86135620,0.00505054
4123.79016357,0.00493970
4125.71897095,0.00487894
4127.64777832,0.00497409
4129.57658569,0.00491526
4131.50539307,0.00487087
4133.43420044,0.00489659
4135.36300781,0.00484292
4137.29181519,0.00486898
4139.22062256,0.00489335
4141.14942993,0.00482432
4143.07823730,0.00483580
4145.00704468,0.00476848
4146.93585205,0.00478243
4148.86465942,0.00476847
4150.79346680,0.00475408
4152.72227417,0.00477622
4154.65108154,0.00464617
4156.57988892,0.00475953
4158.50869629,0.00468995
4160.43750366,0.00460773
4162.36631103,0.00471956
4164.29511841,0.00465421
4166.22392578,0.00464829
4168.15273315,0.00461080
4170.08154053,0.00467062
4172.01034790,0.00466420
4173.93915527,0.00464905
4175.86796265,0.00473267
4177.79677002,0.00468084
4179.72557739,0.00460482
4181.65438477,0.00452281
4183.58319214,0.00461288
4185.51199951,0.00456916
4187.44080688,0.00452879
4189.36961426,0.00456000
4191.29842163,0.00440908
4193.22722900,0.00449899
4195.15603638,0.00449243
4197.08484375,0.00439786
4199.01365112,0.00447019
4200.94245850,0.00445355
4202.87126587,0.00450323
4204.80007324,0.00452064
4206.72888062,0.00443507
4208.65768799,0.00445751
4210.58649536,0.00442667
4212.51530273,0.00436089
4214.44411011,0.00440694
4216.37291748,0.00438997
4218.30172485,0.00430442
4220.23053223,0.00427277
4222.15933960,0.00430734
4224.08814697,0.00428829
4226.01695435,0.00424403
4227.94576172,0.00419840
4229.87456909,0.00430959
4231.80337646,0.00440369
4233.73218384,0.00416950
4235.66099121,0.00425715
4237.58979858,0.00428785
4239.51860596,0.00415535
4241.44741333,0.00429274
4243.37622070,0.00420880
4245.30502808,0.00419247
4247.23383545,0.00416619
4249.16264282,0.00416018
4251.09145020,0.00416954
4253.02025757,0.00407829
4254.94906494,0.00417282
4256.87787231,0.00408664
4258.80667969,0.00408412
4260.73548706,0.00410778
4262.66429443,0.00408125
4264.59310181,0.00412723
4266.52190918,0.00403834
4268.45071655,0.00407692
4270.37952393,0.00409792
4272.30833130,0.00403566
4274.23713867,0.00396037
4276.16594604,0.00399916
4278.09475342,0.00407440
4280.02356079,0.00401879
4281.95236816,0.00392406
4283.88117554,0.00386280
4285.80998291,0.00398612
4287.73879028,0.00394111
4289.66759766,0.00390393
4291.59640503,0.00396282
4293.52521240,0.00387855
4295.45401978,0.00392296
4297.38282715,0.00388298
4299.31163452,0.00386019
4301.24044189,0.00394734
4303.16924927,0.00386471
4305.09805664,0.00386749
4307.02686401,0.00393408
4308.95567139,0.00386044
4310.88447876,0.00387202
4312.81328613,0.00386179
4314.74209351,0.00384688
4316.67090088,0.00383789
4318.59970825,0.00373442
4320.52851562,0.00379268
4322.45732300,0.00371483
4324.38613037,0.00371935
4326.31493774,0.00383062
4328.24374512,0.00375149
4330.17255249,0.00374920
4332.10135986,0.00368914
4334.03016724,0.00371252
4335.95897461,0.00364844
4337.88778198,0.00367693
4339.81658936,0.00376242
4341.74539673,0.00362240
4343.67420410,0.00368647
4345.60301147,0.00358219
4347.53181885,0.00358251
4349.46062622,0.00371669
4351.38943359,0.00360248
4353.31824097,0.00353224
4355.24704834,0.00354702
4357.17585571,0.00360958
4359.10466309,0.00350692
4361.03347046,0.00345563
4362.96227783,0.00350833
4364.89108520,0.00359780
4366.81989258,0.00359401
4368.74869995,0.00348829
4370.67750732,0.00355612
4372.60631470,0.00354861
4374.53512207,0.00345954
4376.46392944,0.00338248
4378.39273682,0.00351763
4380.32154419,0.00345347
4382.25035156,0.00331915
4384.17915894,0.00350452
4386.10796631,0.00337567
4388.03677368,0.00337714
4389.96558105,0.00343435
4391.89438843,0.00339630
4393.82319580,0.00345147
4395.75200317,0.00340001
4397.68081055,0.00343118
4399.60961792,0.00335166
4401.53842529,0.00338097
4403.46723267,0.00338444
4405.39604004,0.00328793
4407.32484741,0.00329812
4409.25365478,0.00329809
4411.18246216,0.00338641
4413.11126953,0.00327026
4415.04007690,0.00318974
4416.96888428,0.00328862
4418.89769165,0.00334247
4420.82649902,0.00329533
4422.75530640,0.00323697
4424.68411377,0.00327891
4426.61292114,0.00320001
4428.54172852,0.00323455
4430.47053589,0.00322999
4432.39934326,0.00317929
4434.32815063,0.00323571
4436.25695801,0.00316539
4438.18576538,0.00321821
4440.11457275,0.00316180
4442.04338013,0.00309892
4443.97218750,0.00323543
4445.90099487,0.00315502
4447.82980225,0.00310468
4449.75860962,0.00317643
4451.68741699,0.00313942
4453.61622437,0.00309498
4455.54503174,0.00308192
4457.47383911,0.00308074
4459.40264648,0.00310374
4461.33145386,0.00306844
4463.26026123,0.00301905
4465.18906860,0.00309460
4467.11787598,0.00309995
4469.04668335,0.00303237
4470.97549072,0.00306950
4472.90429810,0.00305722
4474.83310547,0.00303559
4476.76191284,0.00301318
4478.69072021,0.00296112
4480.61952759,0.00298013
4482.54833496,0.00300864
4484.47714233,0.00301637
4486.40594971,0.00299119
4488.33475708,0.00299410
4490.26356445,0.00292539
4492.19237183,0.00295052
4494.12117920,0.00306719
4496.04998657,0.00296732
4497.97879395,0.00292559
4499.90760132,0.00291426
4501.83640869,0.00296881
4503.76521606,0.00292091
4505.69402344,0.00284481
4507.62283081,0.00298277
4509.55163818,0.00284233
4511.48044556,0.00288241
4513.40925293,0.00296210
4515.33806030,0.00285485
4517.26686768,0.00292590
4519.19567505,0.00284774
4521.12448242,0.00276014
4523.05328979,0.00279582
4524.98209717,0.00295453
4526.91090454,0.00284466
4528.83971191,0.00270992
4530.76851929,0.00287792
4532.69732666,0.00280926
4534.62613403,0.00280165
4536.55494141,0.00278177
4538.48374878,0.00275492
4540.41255615,0.00279073
4542.34136353,0.00271816
4544.27017090,0.00278379
4546.19897827,0.00276391
4548.12778564,0.00271725
4550.05659302,0.00277340
4551.98540039,0.00277014
4553.91420776,0.00267190
4555.84301514,0.00265527
4557.77182251,0.00268642
4559.70062988,0.00265631
4561.62943726,0.00268553
4563.55824463,0.00265149
4565.48705200,0.00262383
4567.41585937,0.00260603
4569.34466675,0.00258463
4571.27347412,0.00257324
4573.20228149,0.00257827
4575.13108887,0.00260890
4577.05989624,0.00259076
4578.98870361,0.00259393
4580.91751099,0.00259547
4582.84631836,0.00265187
4584.77512573,0.00257267
4586.70393311,0.00257956
4588.63274048,0.00262403
4590.56154785,0.00248830
4592.49035522,0.00258451
4594.41916260,0.00257471
4596.34796997,0.00253423
4598.27677734,0.00251827
4600.20558472,0.00249898
4602.13439209,0.00256152
4604.06319946,0.00250318
4605.99200684,0.00254989
4607.92081421,0.00249002
4609.84962158,0.00248832
4611.77842895,0.00247118
4613.70723633,0.00245514
4615.63604370,0.00256809
4617.56485107,0.00242571
4619.49365845,0.00248820
4621.42246582,0.00249257
4623.35127319,0.00238922
4625.28008057,0.00246702
4627.20888794,0.00244578
4629.13769531,0.00243061
4631.06650269,0.00239675
4632.99531006,0.00240310
4634.92411743,0.00237238
4636.85292480,0.00236464
4638.78173218,0.00242947
4640.71053955,0.00238966
4642.63934692,0.00230908
4644.56815430,0.00234711
4646.49696167,0.00243096
4648.42576904,0.00237424
4650.35457642,0.00236917
4652.28338379,0.00229255
4654.21219116,0.00229995
4656.14099853,0.00240340
4658.06980591,0.00233510
4659.99861328,0.00234640
4661.92742065,0.00231552
4663.85622803,0.00231167
4665.78503540,0.00231080
4667.71384277,0.00228891
4669.64265015,0.00234485
4671.57145752,0.00230140
4673.50026489,0.00224132
4675.42907227,0.00222068
4677.35787964,0.00223895
4679.28668701,0.00220336
4681.21549438,0.00228696
4683.14430176,0.00235237
4685.07310913,0.00222293
4687.00191650,0.00220853
4688.93072388,0.00219324
4690.85953125,0.00221823
4692.78833862,0.00224499
4694.71714600,0.00222924
4696.64595337,0.00226192
4698.57476074,0.00223846
4700.50356812,0.00222914
4702.43237549,0.00219660
4704.36118286,0.00217811
4706.28999023,0.00219709
4708.21879761,0.00216643
4710.14760498,0.00216046
4712.07641235,0.00222271
4714.00521973,0.00218449
4715.93402710,0.00211872
4717.86283447,0.00215741
4719.79164185,0.00206877
4721.72044922,0.00203195
4723.64925659,0.00213360
4725.57806396,0.00209900
4727.50687134,0.00205883
4729.43567871,0.00213981
4731.36448608,0.00214185
4733.29329346,0.00208653
4735.22210083,0.00211465
4737.15090820,0.00210029
4739.07971558,0.00208667
4741.00852295,0.00208757
4742.93733032,0.00210967
4744.86613770,0.00210188
4746.79494507,0.00196242
4748.72375244,0.00198051
4750.65255981,0.00206116
4752.58136719,0.00203612
4754.51017456,0.00205485
4756.43898193,0.00206436
4758.36778931,0.00202876
4760.29659668,0.00197693
4762.22540405,0.00197245
4764.15421143,0.00201833
4766.08301880,0.00198557
4768.01182617,0.00195941
4769.94063354,0.00198347
4771.86944092,0.00196455
4773.79824829,0.00202517
4775.72705566,0.00199598
4777.65586304,0.00193022
4779.58467041,0.00199002
4781.51347778,0.00194195
4783.44228516,0.00195869
4785.37109253,0.00191443
4787.29989990,0.00189702
4789.22870728,0.00202828
4791.15751465,0.00189276
4793.08632202,0.00185608
4795.01512939,0.00194451
4796.94393677,0.00188999
4798.87274414,0.00186999
4800.80155151,0.00190956
4802.73035889,0.00194806
4804.65916626,0.00184315
4806.58797363,0.00176485
4808.51678101,0.00183220
4810.44558838,0.00192431
4812.37439575,0.00191032
4814.30320312,0.00181675
4816.23201050,0.00186127
4818.16081787,0.00184637
4820.08962524,0.00181200
4822.01843262,0.00188034
4823.94723999,0.00184635
4825.87604736,0.00184652
4827.80485474,0.00182476
4829.73366211,0.00177610
4831.66246948,0.00181940
4833.59127686,0.00178054
4835.52008423,0.00182488
4837.44889160,0.00184991
4839.37769897,0.00173631
4841.30650635,0.00176865
4843.23531372,0.00173328
4845.16412109,0.00169492
4847.09292847,0.00176833
4849.02173584,0.00168109
4850.95054321,0.00168220
4852.87935059,0.00176053
4854.80815796,0.00174773
4856.73696533,0.00178073
4858.66577270,0.00174016
4860.59458008,0.00174229
4862.52338745,0.00174379
4864.45219482,0.00166251
4866.38100220,0.00167842
4868.30980957,0.00161462
4870.23861694,0.00167122
4872.16742432,0.00176842
4874.09623169,0.00173377
4876.02503906,0.00177212
4877.95384644,0.00168226
4879.88265381,0.00169391
4881.81146118,0.00171070
4883.74026855,0.00166012
4885.66907593,0.00169624
4887.59788330,0.00162218
4889.52669067,0.00168617
4891.45549805,0.00164640
4893.38430542,0.00159140
4895.31311279,0.00165760
4897.24192017,0.00157692
4899.17072754,0.00161184
4901.09953491,0.00167142
4903.02834228,0.00168360
4904.95714966,0.00159316
4906.88595703,0.00156724
4908.81476440,0.00162693
4910.74357178,0.00154681
4912.67237915,0.00156186
4914.60118652,0.00160715
4916.52999390,0.00162615
4918.45880127,0.00157694
4920.38760864,0.00159937
4922.31641602,0.00161889
4924.24522339,0.00156004
4926.17403076,0.00160162
4928.10283813,0.00151080
4930.03164551,0.00155286
4931.96045288,0.00154529
4933.88926025,0.00149813
4935.81806763,0.00162558
4937.74687500,0.00154070
4939.67568237,0.00157700
4941.60448975,0.00155029
4943.53329712,0.00144358
4945.46210449,0.00154303
4947.39091187,0.00151612
4949.31971924,0.00147869
4951.24852661,0.00149032
4953.17733398,0.00151625
4955.10614136,0.00154453
4957.03494873,0.00153800
4958.96375610,0.00151641
4960.89256348,0.00145982
4962.82137085,0.00144688
4964.75017822,0.00148723
4966.67898560,0.00151680
4968.60779297,0.00145137
4970.53660034,0.00142427
4972.46540771,0.00146914
4974.39421509,0.00142974
4976.32302246,0.00141272
4978.25182983,0.00145503
4980.18063721,0.00144644
4982.10944458,0.00140379
4984.03825195,0.00139241
4985.96705933,0.00142810
4987.89586670,0.00145729
4989.82467407,0.00146060
4991.75348145,0.00145981
4993.68228882,0.00141034
4995.61109619,0.00141153
4997.53990356,0.00145832
4999.46871094,0.00143986
5001.39751831,0.00141128
5003.32632568,0.00139995
5005.25513306,0.00146174
5007.18394043,0.00144911
5009.11274780,0.00134058
5011.04155518,0.00130526
5012.97036255,0.00135196
5014.89916992,0.00139993
5016.82797729,0.00131374
5018.75678467,0.00131174
5020.68559204,0.00135134
5022.61439941,0.00133719
5024.54320679,0.00137883
5026.47201416,0.00132250
5028.40082153,0.00135056
5030.32962891,0.00135772
5032.25843628,0.00126530
5034.18724365,0.00132456
5036.11605103,0.00134919
5038.04485840,0.00133039
5039.97366577,0.00131561
5041.90247314,0.00131581
5043.83128052,0.00133800
5045.76008789,0.00133339
5047.68889526,0.00135345
5049.61770264,0.00131230
5051.54651001,0.00132397
5053.47531738,0.00132013
5055.40412476,0.00126499
5057.33293213,0.00132646
5059.26173950,0.00129454
5061.19054687,0.00126088
5063.11935425,0.00127038
5065.04816162,0.00130832
5066.97696899,0.00133189
5068.90577637,0.00125538
5070.83458374,0.00133484
5072.76339111,0.00126993
5074.69219849,0.00119793
5076.62100586,0.00127539
5078.54981323,0.00119261
5080.47862061,0.00125638
5082.40742798,0.00130784
5084.33623535,0.00123033
5086.26504272,0.00120592
5088.19385010,0.00125065
5090.12265747,0.00122354
5092.05146484,0.00115558
5093.98027222,0.00125230
5095.90907959,0.00120076
5097.83788696,0.00121268
5099.76669434,0.00126365
5101.69550171,0.00116836
5103.62430908,0.00114303
5105.55311645,0.00114988
5107.48192383,0.00121712
5109.41073120,0.00110190
5111.33953857,0.00111705
5113.26834595,0.00123207
5115.19715332,0.00116272
5117.12596069,0.00117175
5119.05476807,0.00112290
5120.98357544,0.00113301
5122.91238281,0.00115504
5124.84119019,0.00118537
5126.76999756,0.00116415
5128.69880493,0.00111668
5130.62761230,0.00115680
5132.55641968,0.00108112
5134.48522705,0.00115693
5136.41403442,0.00117633
5138.34284180,0.00112110
5140.27164917,0.00111365
5142.20045654,0.00113575
5144.12926392,0.00114548
5146.05807129,0.00102289
5147.98687866,0.00118132
5149.91568603,0.00111058
5151.84449341,0.00099499
5153.77330078,0.00116349
5155.70210815,0.00108943
5157.63091553,0.00112537
5159.55972290,0.00109606
5161.48853027,0.00103590
5163.41733765,0.00109202
5165.34614502,0.00107890
5167.27495239,0.00114964
5169.20375977,0.00111724
5171.13256714,0.00106579
5173.06137451,0.00109595
5174.99018188,0.00107931
5176.91898926,0.00104689
5178.84779663,0.00107237
5180.77660400,0.00108984
5182.70541138,0.00102998
5184.63421875,0.00099294
5186.56302612,0.00105151
5188.49183350,0.00108005
5190.42064087,0.00103406
5192.34944824,0.00109313
5194.27825562,0.00108700
5196.20706299,0.00108565
5198.13587036,0.00110218
5200.06467773,0.00101083
5201.99348511,0.00104074
5203.92229248,0.00102685
5205.85109985,0.00102450
5207.77990723,0.00099270
5209.70871460,0.00091162
5211.63752197,0.00103124
5213.56632935,0.00100548
5215.49513672,0.00089433
5217.42394409,0.00098658
5219.35275146,0.00100892
5221.28155884,0.00096225
5223.21036621,0.00102374
5225.13917358,0.00095979
5227.06798096,0.00091117
5228.99678833,0.00098403
5230.92559570,0.00094770
5232.85440308,0.00095993
5234.78321045,0.00097138
5236.71201782,0.00094929
5238.64082520,0.00094187
5240.56963257,0.00095304
5242.49843994,0.00100082
5244.42724731,0.00100779
5246.35605469,0.00099799
5248.28486206,0.00089423
5250.21366943,0.00087650
5252.14247681,0.00096032
5254.07128418,0.00099449
5256.00009155,0.00096557
5257.92889893,0.00087230
5259.85770630,0.00093102
5261.78651367,0.00096093
5263.71532104,0.00089176
5265.64412842,0.00089473
5267.57293579,0.00087892
5269.50174316,0.00088282
5271.43055054,0.00093903
5273.35935791,0.00095920
5275.28816528,0.00094014
5277.21697266,0.00093564
5279.14578003,0.00089010
5281.07458740,0.00085254
5283.00339478,0.00089044
5284.93220215,0.00090040
5286.86100952,0.00088286
5288.78981689,0.00095601
5290.71862427,0.00094195
5292.64743164,0.00084887
5294.57623901,0.00092973
5296.50504639,0.00091209
5298.43385376,0.00090404
5300.36266113,0.00092243
5302.29146851,0.00081570
5304.22027588,0.00092077
5306.14908325,0.00097840
5308.07789062,0.00090123
5310.00669800,0.00086031
5311.93550537,0.00083372
5313.86431274,0.00085012
5315.79312012,0.00081858
5317.72192749,0.00083421
5319.65073486,0.00089800
5321.57954224,0.00086068
5323.50834961,0.00080938
5325.43715698,0.00087574
5327.36596436,0.00081191
5329.29477173,0.00079709
5331.22357910,0.00090379
5333.15238647,0.00078049
5335.08119385,0.00081577
5337.01000122,0.00083582
5338.93880859,0.00074722
5340.86761597,0.00083216
5342.79642334,0.00080393
5344.72523071,0.00077284
5346.65403809,0.00075625
5348.58284546,0.00078556
5350.51165283,0.00086885
5352.44046020,0.00083684
5354.36926758,0.00083076
5356.29807495,0.00081738
5358.22688232,0.00081308
5360.15568970,0.00087029
5362.08449707,0.00084308
5364.01330444,0.00080311
5365.94211182,0.00081357
5367.87091919,0.00077473
5369.79972656,0.00080773
5371.72853394,0.00080267
5373.65734131,0.00077174
5375.58614868,0.00081294
5377.51495605,0.00072346
5379.44376343,0.00077871
5381.37257080,0.00077506
5383.30137817,0.00067051
5385.23018555,0.00079922
5387.15899292,0.00078380
5389.08780029,0.00075122
5391.01660767,0.00076683
5392.94541504,0.00073367
5394.87422241,0.00075202
5396.80302978,0.00071503
5398.73183716,0.00071395
5400.66064453,0.00072487
5402.58945190,0.00073678
5404.51825928,0.00072239
5406.44706665,0.00068506
5408.37587402,0.00072018
5410.30468140,0.00075160
5412.23348877,0.00074142
5414.16229614,0.00070062
5416.09110352,0.00073330
5418.01991089,0.00073088
5419.94871826,0.00067189
5421.87752563,0.00072425
5423.80633301,0.00075259
5425.73514038,0.00071054
5427.66394775,0.00070306
5429.59275513,0.00074045
5431.52156250,0.00074218
5433.45036987,0.00073341
5435.37917725,0.00070221
5437.30798462,0.00066811
5439.23679199,0.00068962
5441.16559936,0.00064606
5443.09440674,0.00071613
5445.02321411,0.00073872
5446.95202148,0.00057950
5448.88082886,0.00060728
5450.80963623,0.00069423
5452.73844360,0.00075561
5454.66725098,0.00065724
5456.59605835,0.00055754
5458.52486572,0.00071013
5460.45367310,0.00068206
5462.38248047,0.00065091
5464.31128784,0.00067192
5466.24009521,0.00065623
5468.16890259,0.00068772
5470.09770996,0.00057953
5472.02651733,0.00061529
5473.95532471,0.00067967
5475.88413208,0.00065311
5477.81293945,0.00064842
5479.74174683,0.00064672
5481.67055420,0.00065573
5483.59936157,0.00056937
5485.52816895,0.00066815
5487.45697632,0.00066954
5489.38578369,0.00063427
5491.31459106,0.00073484
5493.24339844,0.00055481
5495.17220581,0.00065687
5497.10101318,0.00074882
5499.02982056,0.00053774
5500.95862793,0.00057926
5502.88743530,0.00061584
5504.81624268,0.00065907
5506.74505005,0.00067221
5508.67385742,0.00061105
5510.60266479,0.00062783
5512.53147217,0.00060415
5514.46027954,0.00062244
5516.38908691,0.00060794
5518.31789429,0.00058887
5520.24670166,0.00061207
5522.17550903,0.00056377
5524.10431641,0.00056410
5526.03312378,0.00057860
5527.96193115,0.00059856
5529.89073853,0.00062268
5531.81954590,0.00060368
5533.74835327,0.00063886
5535.67716064,0.00060781
5537.60596802,0.00061166
5539.53477539,0.00069132
5541.46358276,0.00059819
5543.39239014,0.00060647
5545.32119751,0.00070048
5547.25000488,0.00060373
5549.17881226,0.00060007
5551.10761963,0.00062608
5553.03642700,0.00052926
5554.96523437,0.00056951
5556.89404175,0.00056126
5558.82284912,0.00051244
5560.75165649,0.00060644
5562.68046387,0.00056826
5564.60927124,0.00053123
5566.53807861,0.00051608
5568.46688599,0.00050615
5570.39569336,0.00058461
5572.32450073,0.00056466
5574.25330811,0.00059512
5576.18211548,0.00056441
5578.11092285,0.00052123
5580.03973022,0.00054058
5581.96853760,0.00048651
5583.89734497,0.00054491
5585.82615234,0.00056507
5587.75495972,0.00055701
5589.68376709,0.00055729
5591.61257446,0.00057490
5593.54138184,0.00059491
5595.47018921,0.00053212
5597.39899658,0.00059012
5599.32780395,0.00059534
5601.25661133,0.00055824
5603.18541870,0.00055466
5605.11422607,0.00051949
5607.04303345,0.00053133
5608.97184082,0.00055151
5610.90064819,0.00054664
5612.82945557,0.00047112
5614.75826294,0.00048344
5616.68707031,0.00053026
5618.61587769,0.00054904
5620.54468506,0.00051909
5622.47349243,0.00044199
5624.40229980,0.00049645
5626.33110718,0.00049800
5628.25991455,0.00046890
5630.18872192,0.00049527
5632.11752930,0.00052854
5634.04633667,0.00049810
5635.97514404,0.00052252
5637.90395142,0.00057279
5639.83275879,0.00046510
5641.76156616,0.00051438
5643.69037353,0.00047290
5645.61918091,0.00046659
5647.54798828,0.00058258
5649.47679565,0.00048402
5651.40560303,0.00054925
5653.33441040,0.00055791
5655.26321777,0.00052488
5657.19202515,0.00053140
5659.12083252,0.00049527
5661.04963989,0.00056342
5662.97844727,0.00045234
5664.90725464,0.00046261
5666.83606201,0.00056995
5668.76486938,0.00047125
5670.69367676,0.00044385
5672.62248413,0.00045463
5674.55129150,0.00043774
5676.48009888,0.00050608
5678.40890625,0.00048045
5680.33771362,0.00040394
5682.26652100,0.00049935
5684.19532837,0.00048036
5686.12413574,0.00045955
5688.05294311,0.00046576
5689.98175049,0.00044558
5691.91055786,0.00049598
5693.83936523,0.00037062
5695.76817261,0.00046650
5697.69697998,0.00052885
5699.62578735,0.00038462
5701.55459473,0.00048944
5703.48340210,0.00050970
5705.41220947,0.00048994
5707.34101685,0.00045703
5709.26982422,0.00042965
5711.19863159,0.00043500
5713.12743896,0.00037749
5715.05624634,0.00044204
5716.98505371,0.00046893
5718.91386108,0.00046749
5720.84266846,0.00043762
5722.77147583,0.00045939
5724.70028320,0.00049708
5726.62909058,0.00038597
5728.55789795,0.00043972
5730.48670532,0.00047038
5732.41551270,0.00043445
5734.34432007,0.00046618
5736.27312744,0.00043164
5738.20193481,0.00049562
5740.13074219,0.00050190
5742.05954956,0.00040544
5743.98835693,0.00042829
5745.91716431,0.00043540
5747.84597168,0.00038849
5749.77477905,0.00041078
5751.70358643,0.00042975
5753.63239380,0.00039880
5755.56120117,0.00039921
5757.49000854,0.00037454
5759.41881592,0.00037859
5761.34762329,0.00044947
5763.27643066,0.00046380
5765.20523804,0.00046998
5767.13404541,0.00040059
5769.06285278,0.00035240
5770.99166016,0.00041138
5772.92046753,0.00035494
5774.84927490,0.00034958
5776.77808228,0.00038994
5778.70688965,0.00037759
5780.63569702,0.00041154
5782.56450439,0.00037682
5784.49331177,0.00037221
5786.42211914,0.00037689
5788.35092651,0.00037687
5790.27973389,0.00042053
5792.20854126,0.00037675
5794.13734863,0.00038403
5796.06615601,0.00039716
5797.99496338,0.00041717
5799.92377075,0.00042007
5801.85257812,0.00032570
5803.78138550,0.00037682
5805.71019287,0.00038986
5807.63900024,0.00034649
5809.56780762,0.00037238
5811.49661499,0.00034484
5813.42542236,0.00036860
5815.35422974,0.00036476
5817.28303711,0.00034914
5819.21184448,0.00039499
5821.14065186,0.00038397
5823.06945923,0.00036552
5824.99826660,0.00038694
5826.92707397,0.00041368
5828.85588135,0.00035845
5830.78468872,0.00030837
5832.71349609,0.00038840
5834.64230347,0.00038997
5836.57111084,0.00033853
5838.49991821,0.00037876
5840.42872559,0.00032257
5842.35753296,0.00034156
5844.28634033,0.00046157
5846.21514770,0.00036934
5848.14395508,0.00030827
5850.07276245,0.00033163
5852.00156982,0.00036804
5853.93037720,0.00040001
5855.85918457,0.00031565
5857.78799194,0.00037709
5859.71679932,0.00041410
5861.64560669,0.00033376
5863.57441406,0.00040217
5865.50322144,0.00042269
5867.43202881,0.00034435
5869.36083618,0.00030470
5871.28964355,0.00032811
5873.21845093,0.00034698
5875.14725830,0.00034688
5877.07606567,0.00035909
5879.00487305,0.00034005
5880.93368042,0.00031158
5882.86248779,0.00030765
5884.79129517,0.00035440
5886.72010254,0.00034917
5888.64890991,0.00033282
5890.57771728,0.00031018
5892.50652466,0.00028363
5894.43533203,0.00037071
5896.36413940,0.00033717
5898.29294678,0.00032025
5900.22175415,0.00034337
5902.15056152,0.00029638
5904.07936890,0.00033536
5906.00817627,0.00029025
5907.93698364,0.00031431
5909.86579102,0.00032617
5911.79459839,0.00025625
5913.72340576,0.00027710
5915.65221313,0.00025546
5917.58102051,0.00027519
5919.50982788,0.00026334
5921.43863525,0.00029772
5923.36744263,0.00027574
5925.29625000,0.00020256
5927.22505737,0.00030776
5929.15386475,0.00028022
5931.08267212,0.00029275
5933.01147949,0.00031631
5934.94028686,0.00029217
5936.86909424,0.00033248
5938.79790161,0.00028933
5940.72670898,0.00036775
5942.65551636,0.00032405
5944.58432373,0.00025863
5946.51313110,0.00034043
5948.44193848,0.00026373
5950.37074585,0.00026307
5952.29955322,0.00034749
5954.22836060,0.00038478
5956.15716797,0.00034767
5958.08597534,0.00029049
5960.01478271,0.00029695
5961.94359009,0.00025149
5963.87239746,0.00027259
5965.80120483,0.00034102
5967.73001221,0.00030694
5969.65881958,0.00028990
5971.58762695,0.00031024
5973.51643433,0.00024910
5975.44524170,0.00024250
5977.37404907,0.00028401
5979.30285645,0.00022279
5981.23166382,0.00026609
5983.16047119,0.00032349
5985.08927856,0.00027833
5987.01808594,0.00032398
5988.94689331,0.00032399
5990.87570068,0.00026554
5992.80450806,0.00028361
5994.73331543,0.00031261
5996.66212280,0.00034778
5998.59093018,0.00029306
6000.51973755,0.00019804
