399.26312622,0.00054354
401.19193359,0.00031894
403.12074097,0.00043836
405.04954834,0.00080732
406.97835571,0.00038732
408.90716309,0.00058753
410.83597046,0.00067559
412.76477783,0.00005460
414.69358521,0.00028857
416.62239258,0.00068973
418.55119995,0.00042169
420.48000732,0.00018500
422.40881470,0.00049257
424.33762207,0.00072877
426.26642944,0.00046623
428.19523682,0.00053828
430.12404419,0.00060506
432.05285156,0.00055796
433.98165894,0.00058740
435.91046631,0.00046614
437.83927368,0.00062766
439.76808105,0.00060970
441.69688843,0.00068216
443.62569580,0.00034012
445.55450317,0.00023978
447.48331055,0.00099547
449.41211792,0.00034874
451.34092529,0.00035983
453.26973267,0.00060329
455.19854004,0.00004387
457.12734741,0.00074307
459.05615479,0.00058053
460.98496216,0.00042193
462.91376953,0.00084451
464.84257690,0.00061522
466.77138428,0.00053157
468.70019165,0.00034028
470.62899902,0.00044894
472.55780640,0.00041698
474.48661377,0.00043795
476.41542114,0.00047717
478.34422852,0.00013955
480.27303589,0.00025326
482.20184326,0.00044958
484.13065063,0.00054902
486.05945801,0.00026099
487.98826538,0.00008007
489.91707275,0.00026292
491.84588013,0.00023063
493.77468750,0.00043360
495.70349487,0.00025475
497.63230225,0.00005897
499.56110962,0.00046021
501.48991699,0.00059407
503.41872437,0.00082580
505.34753174,0.00051849
507.27633911,0.00003672
509.20514648,0.00036053
511.13395386,0.00028011
513.06276123,0.00040799
514.99156860,0.00035196
516.92037598,-0.00043490
518.84918335,-0.00015328
520.77799072,0.00035608
522.70679810,0.00013687
524.63560547,0.00007879
526.56441284,0.00018382
528.49322021,0.00031758
530.42202759,0.00000813
532.35083496,-0.00030303
534.27964233,-0.00005456
536.20844971,-0.00022594
538.13725708,0.00016624
540.06606445,0.00052241
541.99487183,-0.00003027
543.92367920,0.00008289
545.85248657,0.00004477
547.78129395,0.00000121
549.71010132,0.00021009
551.63890869,0.00015476
553.56771606,0.00014200
555.49652344,-0.00008315
557.42533081,-0.00004942
559.35413818,0.00033198
561.28294556,0.00046062
563.21175293,0.00032255
565.14056030,0.00021930
567.06936768,0.00029424
568.99817505,0.00034113
570.92698242,0.00020587
572.85578979,0.00016195
574.78459717,0.00009689
576.71340454,0.00005931
578.64221191,0.00004555
580.57101929,-0.00003162
582.49982666,0.00026616
584.42863403,0.00032456
586.35744141,0.00019055
588.28624878,0.00014343
590.21505615,0.00004946
592.14386353,0.00028694
594.07267090,0.00015705
596.00147827,0.00007500
597.93028564,0.00008142
599.85909302,-0.00011078
601.78790039,0.00018569
603.71670776,0.00009987
605.64551514,0.00008242
607.57432251,0.00030764
609.50312988,0.00024793
611.43193726,0.00043618
613.36074463,0.00014005
615.28955200,-0.00001249
617.21835938,0.00019366
619.14716675,0.00019519
621.07597412,-0.00000804
623.00478149,-0.00022014
624.93358887,0.00005494
626.86239624,0.00023899
628.79120361,0.00021025
630.72001099,0.00045741
632.64881836,0.00078544
634.57762573,0.00056416
636.50643311,0.00061166
638.43524048,0.00079424
640.36404785,0.00071687
642.29285522,0.00099457
644.22166260,0.00105394
646.15046997,0.00108854
648.07927734,0.00103436
650.00808472,0.00111038
651.93689209,0.00127044
653.86569946,0.00117208
655.79450684,0.00137407
657.72331421,0.00140301
659.65212158,0.00150937
661.58092896,0.00151943
663.50973633,0.00164229
665.43854370,0.00191405
667.36735107,0.00158441
669.29615845,0.00159706
671.22496582,0.00186527
673.15377319,0.00209470
675.08258057,0.00196502
677.01138794,0.00168942
678.94019531,0.00193025
680.86900269,0.00196442
682.79781006,0.00184661
684.72661743,0.00185755
686.65542480,0.00222112
688.58423218,0.00261353
690.51303955,0.00245444
692.44184692,0.00239155
694.37065430,0.00267345
696.29946167,0.00285615
698.22826904,0.00333204
700.15707642,0.00379152
702.08588379,0.00340921
704.01469116,0.00315047
705.94349854,0.00294844
707.87230591,0.00242368
709.80111328,0.00193147
711.72992065,0.00140801
713.65872803,0.00092463
715.58753540,0.00055435
717.51634277,0.00049253
719.44515015,0.00000281
721.37395752,0.00008192
723.30276489,0.00039953
725.23157227,-0.00016954
727.16037964,0.00007719
729.08918701,0.00016917
731.01799438,0.00007491
732.94680176,0.00014384
734.87560913,-0.00008987
736.80441650,-0.00011445
738.73322388,-0.00026773
740.66203125,0.00022943
742.59083862,0.00027620
744.51964600,-0.00005924
746.44845337,0.00028800
748.37726074,0.00007082
750.30606812,0.00005222
752.23487549,0.00041521
754.16368286,0.00041376
756.09249023,0.00027361
758.02129761,0.00014723
759.95010498,0.00010350
761.87891235,-0.00002127
763.80771973,0.00011987
765.73652710,0.00039823
767.66533447,0.00032156
769.59414185,0.00019129
771.52294922,0.00023538
773.45175659,0.00032758
775.38056396,0.00030704
777.30937134,0.00026345
779.23817871,0.00028643
781.16698608,0.00019768
783.09579346,0.00034623
785.02460083,0.00034632
786.95340820,0.00018503
788.88221558,0.00049851
790.81102295,0.00043016
792.73983032,0.00032378
794.66863770,0.00040510
796.59744507,0.00039134
798.52625244,0.00068249
800.45505981,0.00070627
802.38386719,0.00065023
804.31267456,0.00064041
806.24148193,0.00045670
808.17028931,0.00038546
810.09909668,0.00058118
812.02790405,0.00056736
813.95671143,0.00023572
815.88551880,0.00029018
817.81432617,0.00030738
819.74313354,0.00027104
821.67194092,0.00020303
823.60074829,0.00020908
825.52955566,0.00055120
827.45836304,0.00056512
829.38717041,0.00061281
831.31597778,0.00080486
833.24478516,0.00086273
835.17359253,0.00089214
837.10239990,0.00110612
839.03120728,0.00103575
840.96001465,0.00080324
842.88882202,0.00118112
844.81762939,0.00103501
846.74643677,0.00059364
848.67524414,0.00074612
850.60405151,0.00090127
852.53285889,0.00059637
854.46166626,0.00055913
856.39047363,0.00070963
858.31928101,0.00028670
860.24808838,0.00059568
862.17689575,0.00060091
864.10570313,0.00015817
866.03451050,0.00038413
867.96331787,0.00015304
869.89212524,0.00014713
871.82093262,0.00021784
873.74973999,0.00029459
875.67854736,0.00057336
877.60735474,0.00038398
879.53616211,0.00038295
881.46496948,0.00043640
883.39377686,0.00026103
885.32258423,0.00012681
887.25139160,0.00021346
889.18019897,0.00023416
891.10900635,0.00001069
893.03781372,0.00009724
894.96662109,0.00036751
896.89542847,0.00046432
898.82423584,0.00027480
900.75304321,0.00024513
902.68185059,0.00050231
904.61065796,0.00038020
906.53946533,0.00038137
908.46827271,0.00049046
910.39708008,0.00038488
912.32588745,0.00063936
914.25469482,0.00053897
916.18350220,0.00046939
918.11230957,0.00081647
920.04111694,0.00063702
921.96992432,0.00080970
923.89873169,0.00096710
925.82753906,0.00087059
927.75634644,0.00093308
929.68515381,0.00078996
931.61396118,0.00112133
933.54276855,0.00126804
935.47157593,0.00134842
937.40038330,0.00149656
939.32919067,0.00147132
941.25799805,0.00175678
943.18680542,0.00149161
945.11561279,0.00144799
947.04442017,0.00171559
948.97322754,0.00147953
950.90203491,0.00139189
952.83084229,0.00151360
954.75964966,0.00142955
956.68845703,0.00129243
958.61726440,0.00168835
960.54607178,0.00180623
962.47487915,0.00151722
964.40368652,0.00143339
966.33249390,0.00145297
968.26130127,0.00152053
970.19010864,0.00152129
972.11891602,0.00172022
974.04772339,0.00179207
975.97653076,0.00190121
977.90533813,0.00206915
979.83414551,0.00225678
981.76295288,0.00268429
983.69176025,0.00261432
985.62056763,0.00262549
987.54937500,0.00300774
989.47818237,0.00334612
991.40698975,0.00374612
993.33579712,0.00413707
995.26460449,0.00458447
997.19341187,0.00495753
999.12221924,0.00513581
1001.05102661,0.00546366
1002.97983398,0.00605539
1004.90864136,0.00637428
1006.83744873,0.00683004
1008.76625610,0.00729411
1010.69506348,0.00746457
1012.62387085,0.00796704
1014.55267822,0.00838950
1016.48148560,0.00873486
1018.41029297,0.00898026
1020.33910034,0.00940855
1022.26790771,0.00985480
1024.19671509,0.00992246
1026.12552246,0.01052873
1028.05432983,0.01075669
1029.98313721,0.01081778
1031.91194458,0.01146450
1033.84075195,0.01145146
1035.76955933,0.01148342
1037.69836670,0.01205961
1039.62717407,0.01212534
1041.55598145,0.01181884
1043.48478882,0.01156817
1045.41359619,0.01154566
1047.34240356,0.01157115
1049.27121094,0.01111376
1051.20001831,0.01087789
1053.12882568,0.01092327
1055.05763306,0.01054483
1056.98644043,0.00994512
1058.91524780,0.00963623
1060.84405518,0.00979103
1062.77286255,0.00950391
1064.70166992,0.00911112
1066.63047729,0.00879107
1068.55928467,0.00819864
1070.48809204,0.00796121
1072.41689941,0.00750585
1074.34570679,0.00705054
1076.27451416,0.00686783
1078.20332153,0.00657618
1080.13212891,0.00615765
1082.06093628,0.00576535
1083.98974365,0.00567004
1085.91855103,0.00530135
1087.84735840,0.00506101
1089.77616577,0.00496054
1091.70497314,0.00462840
1093.63378052,0.00442603
1095.56258789,0.00429512
1097.49139526,0.00431644
1099.42020264,0.00396925
1101.34901001,0.00367066
1103.27781738,0.00381658
1105.20662476,0.00370152
1107.13543213,0.00370274
1109.06423950,0.00383024
1110.99304687,0.00370314
1112.92185425,0.00362075
1114.85066162,0.00357539
1116.77946899,0.00345475
1118.70827637,0.00344679
1120.63708374,0.00349764
1122.56589111,0.00356818
1124.49469849,0.00360681
1126.42350586,0.00370702
1128.35231323,0.00381100
1130.28112061,0.00372032
1132.20992798,0.00400499
1134.13873535,0.00428089
1136.06754272,0.00418047
1137.99635010,0.00434848
1139.92515747,0.00467744
1141.85396484,0.00497332
1143.78277222,0.00513460
1145.71157959,0.00549702
1147.64038696,0.00605399
1149.56919434,0.00614027
1151.49800171,0.00634059
1153.42680908,0.00669964
1155.35561646,0.00684125
1157.28442383,0.00729682
1159.21323120,0.00758272
1161.14203857,0.00772053
1163.07084595,0.00805092
1164.99965332,0.00832064
1166.92846069,0.00888157
1168.85726807,0.00893740
1170.78607544,0.00895629
1172.71488281,0.00977662
1174.64369019,0.01008023
1176.57249756,0.01021142
1178.50130493,0.01053809
1180.43011230,0.01086539
1182.35891968,0.01138863
1184.28772705,0.01172139
1186.21653442,0.01228509
1188.14534180,0.01314331
1190.07414917,0.01375793
1192.00295654,0.01406781
1193.93176392,0.01455838
1195.86057129,0.01547051
1197.78937866,0.01608245
1199.71818604,0.01663477
1201.64699341,0.01753472
1203.57580078,0.01810489
1205.50460815,0.01865816
1207.43341553,0.01953238
1209.36222290,0.02019680
1211.29103027,0.02062925
1213.21983765,0.02114859
1215.14864502,0.02179054
1217.07745239,0.02210713
1219.00625977,0.02239470
1220.93506714,0.02273962
1222.86387451,0.02292137
1224.79268188,0.02328453
1226.72148926,0.02347990
1228.65029663,0.02360032
1230.57910400,0.02343051
1232.50791138,0.02349039
1234.43671875,0.02387939
1236.36552612,0.02350238
1238.29433350,0.02354535
1240.22314087,0.02362335
1242.15194824,0.02331088
1244.08075562,0.02330964
1246.00956299,0.02321034
1247.93837036,0.02308433
1249.86717773,0.02268476
1251.79598511,0.02265617
1253.72479248,0.02261842
1255.65359985,0.02200645
1257.58240723,0.02173773
1259.51121460,0.02154230
1261.44002197,0.02117739
1263.36882935,0.02083271
1265.29763672,0.02058755
1267.22644409,0.02024310
1269.15525146,0.02000155
1271.08405884,0.01971474
1273.01286621,0.01922187
1274.94167358,0.01893274
1276.87048096,0.01862601
1278.79928833,0.01831364
1280.72809570,0.01787321
1282.65690308,0.01760840
1284.58571045,0.01731928
1286.51451782,0.01695275
1288.44332520,0.01681478
1290.37213257,0.01642486
1292.30093994,0.01633864
1294.22974731,0.01614600
1296.15855469,0.01589854
1298.08736206,0.01610575
1300.01616943,0.01611152
1301.94497681,0.01612891
1303.87378418,0.01632451
1305.80259155,0.01650867
1307.73139893,0.01648036
1309.66020630,0.01673900
1311.58901367,0.01713255
1313.51782104,0.01738817
1315.44662842,0.01785952
1317.37543579,0.01810702
1319.30424316,0.01860672
1321.23305054,0.01926623
1323.16185791,0.01970192
1325.09066528,0.02041631
1327.01947266,0.02101455
1328.94828003,0.02128937
1330.87708740,0.02186059
1332.80589478,0.02256215
1334.73470215,0.02296566
1336.66350952,0.02315052
1338.59231689,0.02285678
1340.52112427,0.02326190
1342.44993164,0.02417782
1344.37873901,0.02403042
1346.30754639,0.02408901
1348.23635376,0.02425001
1350.16516113,0.02401494
1352.09396851,0.02393108
1354.02277588,0.02354994
1355.95158325,0.02326185
1357.88039062,0.02315602
1359.80919800,0.02277733
1361.73800537,0.02174867
1363.66681274,0.02159639
1365.59562012,0.02250706
1367.52442749,0.02187355
1369.45323486,0.02173566
1371.38204224,0.02196182
1373.31084961,0.02090024
1375.23965698,0.02115371
1377.16846436,0.02162198
1379.09727173,0.02153940
1381.02607910,0.02131355
1382.95488647,0.02115724
1384.88369385,0.02132594
1386.81250122,0.02038680
1388.74130859,0.02067624
1390.67011597,0.02231539
1392.59892334,0.02175464
1394.52773071,0.02054665
1396.45653809,0.02156405
1398.38534546,0.02155745
1400.31415283,0.02133347
1402.24296021,0.02288999
1404.17176758,0.02163455
1406.10057495,0.02158474
1408.02938232,0.02253450
1409.95818970,0.02191858
1411.88699707,0.02219259
1413.81580444,0.02123641
1415.74461182,0.02176218
1417.67341919,0.01972078
1419.60222656,0.01762966
1421.53103394,0.02038006
1423.45984131,0.01964991
1425.38864868,0.01901525
1427.31745605,0.01918778
1429.24626343,0.01784329
1431.17507080,0.01743111
1433.10387817,0.01724117
1435.03268555,0.01596515
1436.96149292,0.01388304
1438.89030029,0.01555239
1440.81910767,0.01591411
1442.74791504,0.01463529
1444.67672241,0.01535241
1446.60552979,0.01412386
1448.53433716,0.01437988
1450.46314453,0.01485570
1452.39195190,0.01492114
1454.32075928,0.01557651
1456.24956665,0.01301568
1458.17837402,0.01355576
1460.10718140,0.01789066
1462.03598877,0.01884056
1463.96479614,0.01872024
1465.89360352,0.01963087
1467.82241089,0.02217555
1469.75121826,0.02364438
1471.68002563,0.02127654
1473.60883301,0.02247215
1475.53764038,0.02523035
1477.46644775,0.02713288
1479.39525513,0.02977979
1481.32406250,0.03013318
1483.25286987,0.03206500
1485.18167725,0.03270475
1487.11048462,0.03226774
1489.03929199,0.03216102
1490.96809937,0.03235340
1492.89690674,0.03783630
1494.82571411,0.03647787
1496.75452148,0.03288471
1498.68332886,0.03711766
1500.61213623,0.03803808
1502.54094360,0.04090491
1504.46975098,0.03832950
1506.39855835,0.02845958
1508.32736572,0.03470245
1510.25617310,0.04014927
1512.18498047,0.03897204
1514.11378784,0.04193992
1516.04259521,0.03803265
1517.97140259,0.03951740
1519.90020996,0.03800152
1521.82901733,0.03315314
1523.75782471,0.04012276
1525.68663208,0.03947018
1527.61543945,0.03936116
1529.54424683,0.04327558
1531.47305420,0.04152826
1533.40186157,0.03819199
1535.33066895,0.04051799
1537.25947632,0.04287025
1539.18828369,0.03101523
1541.11709106,0.03260396
1543.04589844,0.03865099
1544.97470581,0.03728995
1546.90351318,0.04367169
1548.83232056,0.04068124
1550.76112793,0.04188855
1552.68993530,0.04133711
1554.61874268,0.03790389
1556.54755005,0.04031960
1558.47635742,0.02869458
1560.40516479,0.03118276
1562.33397217,0.04335038
1564.26277954,0.04100005
1566.19158691,0.04203539
1568.12039429,0.04135855
1570.04920166,0.03693818
1571.97800903,0.04227221
1573.90681641,0.04251121
1575.83562378,0.03413332
1577.76443115,0.03860701
1579.69323853,0.04318580
1581.62204590,0.04124715
1583.55085327,0.04222838
1585.47966064,0.04143409
1587.40846802,0.04170250
1589.33727539,0.04142392
1591.26608276,0.04123370
1593.19489014,0.04115637
1595.12369751,0.04076235
1597.05250488,0.04116424
1598.98131226,0.04083552
1600.91011963,0.04109538
1602.83892700,0.04036585
1604.76773437,0.04094228
1606.69654175,0.04038678
1608.62534912,0.04047673
1610.55415649,0.04022888
1612.48296387,0.04064777
1614.41177124,0.04108913
1616.34057861,0.03379610
1618.26938599,0.03714021
1620.19819336,0.04262139
1622.12700073,0.03796285
1624.05580811,0.03856529
1625.98461548,0.04067572
1627.91342285,0.04064283
1629.84223022,0.04061601
1631.77103760,0.04375292
1633.69984497,0.04031068
1635.62865234,0.03398627
1637.55745972,0.03996452
1639.48626709,0.04395138
1641.41507446,0.04321995
1643.34388184,0.04466252
1645.27268921,0.04080756
1647.20149658,0.03639290
1649.13030396,0.04548031
1651.05911133,0.04300573
1652.98791870,0.02855043
1654.91672607,0.03913018
1656.84553345,0.04850323
1658.77434082,0.04701175
1660.70314819,0.04853123
1662.63195557,0.04446274
1664.56076294,0.04733845
1666.48957031,0.05079982
1668.41837769,0.04478934
1670.34718506,0.04402824
1672.27599243,0.04968349
1674.20479980,0.04607178
1676.13360718,0.04489189
1678.06241455,0.05132528
1679.99122192,0.04952585
1681.92002930,0.04920498
1683.84883667,0.04040181
1685.77764404,0.04049984
1687.70645142,0.05450838
1689.63525879,0.04757616
1691.56406616,0.05241804
1693.49287354,0.05314758
1695.42168091,0.03970378
1697.35048828,0.04844901
1699.27929565,0.04259891
1701.20810303,0.03904101
1703.13691040,0.05207492
1705.06571777,0.04768767
1706.99452515,0.04826924
1708.92333252,0.05192953
1710.85213989,0.04975769
1712.78094727,0.05069114
1714.70975464,0.04733648
1716.63856201,0.04250205
1718.56736938,0.04175286
1720.49617676,0.04929284
1722.42498413,0.05060161
1724.35379150,0.04719605
1726.28259888,0.05111400
1728.21140625,0.04680944
1730.14021362,0.04721639
1732.06902100,0.04592168
1733.99782837,0.03553858
1735.92663574,0.04371171
1737.85544312,0.04775032
1739.78425049,0.04258912
1741.71305786,0.04609513
1743.64186523,0.04665865
1745.57067261,0.04661863
1747.49947998,0.04695749
1749.42828735,0.04483936
1751.35709473,0.04300583
1753.28590210,0.04742108
1755.21470947,0.04907010
1757.14351685,0.04508908
1759.07232422,0.04918188
1761.00113159,0.04611596
1762.92993896,0.04479910
1764.85874634,0.05056822
1766.78755371,0.04563203
1768.71636108,0.04597653
1770.64516846,0.04556654
1772.57397583,0.04110476
1774.50278320,0.04546903
1776.43159058,0.04794250
1778.36039795,0.04705075
1780.28920532,0.04650816
1782.21801270,0.04677971
1784.14682007,0.04640990
1786.07562744,0.04570746
1788.00443481,0.04784276
1789.93324219,0.04636439
1791.86204956,0.04219509
1793.79085693,0.04404422
1795.71966431,0.04685151
1797.64847168,0.04607448
1799.57727905,0.04534253
1801.50608643,0.04454322
1803.43489380,0.04596645
1805.36370117,0.04676641
1807.29250854,0.04610205
1809.22131592,0.04607312
1811.15012329,0.04486592
1813.07893066,0.04629860
1815.00773804,0.04621808
1816.93654541,0.04574188
1818.86535278,0.04603774
1820.79416016,0.04570458
1822.72296753,0.04637158
1824.65177490,0.04333917
1826.58058228,0.04469540
1828.50938965,0.04470890
1830.43819702,0.04223005
1832.36700439,0.04563754
1834.29581177,0.04521237
1836.22461914,0.04524988
1838.15342651,0.04484541
1840.08223389,0.04498227
1842.01104126,0.04504491
1843.93984863,0.04022557
1845.86865601,0.04270358
1847.79746338,0.04475711
1849.72627075,0.04388352
1851.65507812,0.04509941
1853.58388550,0.04407718
1855.51269287,0.04458325
1857.44150024,0.04429184
1859.37030762,0.04385221
1861.29911499,0.04419519
1863.22792236,0.04366241
1865.15672974,0.04396769
1867.08553711,0.04245329
1869.01434448,0.04077262
1870.94315186,0.04241866
1872.87195923,0.04368635
1874.80076660,0.04300710
1876.72957397,0.04335046
1878.65838135,0.04295261
1880.58718872,0.04269674
1882.51599609,0.04294460
1884.44480347,0.04226799
1886.37361084,0.04280586
1888.30241821,0.04162546
1890.23122559,0.04118115
1892.16003296,0.04260777
1894.08884033,0.04178982
1896.01764771,0.04182094
1897.94645508,0.04205348
1899.87526245,0.04176313
1901.80406982,0.04192485
1903.73287720,0.04158361
1905.66168457,0.04188804
1907.59049194,0.04140484
1909.51929932,0.04082759
1911.44810669,0.04112867
1913.37691406,0.04131874
1915.30572144,0.04143561
1917.23452881,0.03972260
1919.16333618,0.03981801
1921.09214355,0.04110003
1923.02095093,0.03988319
1924.94975830,0.04049101
1926.87856567,0.04087377
1928.80737305,0.04051550
1930.73618042,0.04080718
1932.66498779,0.04024728
1934.59379517,0.04062001
1936.52260254,0.04020567
1938.45140991,0.04037765
1940.38021729,0.04039854
1942.30902466,0.03895052
1944.23783203,0.03949113
1946.16663940,0.03992183
1948.09544678,0.03993644
1950.02425415,0.04006718
1951.95306152,0.03989225
1953.88186890,0.03981655
1955.81067627,0.03967316
1957.73948364,0.03991259
1959.66829102,0.03951236
1961.59709839,0.03942886
1963.52590576,0.03982624
1965.45471313,0.03943940
1967.38352051,0.03909740
1969.31232788,0.03928247
1971.24113525,0.03933645
1973.16994263,0.03926921
1975.09875000,0.03925904
1977.02755737,0.03893638
1978.95636475,0.03914326
1980.88517212,0.03902706
1982.81397949,0.03871349
1984.74278687,0.03895923
1986.67159424,0.03867444
1988.60040161,0.03853346
1990.52920898,0.03809209
1992.45801636,0.03776348
1994.38682373,0.03830130
1996.31563110,0.03839744
1998.24443848,0.03815742
2000.17324585,0.03804781
2002.10205322,0.03798862
2004.03086060,0.03795184
2005.95966797,0.03780979
2007.88847534,0.03759331
2009.81728271,0.03765429
2011.74609009,0.03755923
2013.67489746,0.03744774
2015.60370483,0.03726663
2017.53251221,0.03690886
2019.46131958,0.03725375
2021.39012695,0.03712321
2023.31893433,0.03674166
2025.24774170,0.03680553
2027.17654907,0.03669702
2029.10535645,0.03674954
2031.03416382,0.03666441
2032.96297119,0.03655402
2034.89177856,0.03640119
2036.82058594,0.03622742
2038.74939331,0.03624561
2040.67820068,0.03608727
2042.60700806,0.03590717
2044.53581543,0.03590507
2046.46462280,0.03593657
2048.39343018,0.03584760
2050.32223755,0.03578637
2052.25104492,0.03565839
2054.17985229,0.03551058
2056.10865967,0.03539699
2058.03746704,0.03535166
2059.96627441,0.03528862
2061.89508179,0.03515319
2063.82388916,0.03508627
2065.75269653,0.03485200
2067.68150391,0.03494790
2069.61031128,0.03493076
2071.53911865,0.03477299
2073.46792603,0.03482988
2075.39673340,0.03455421
2077.32554077,0.03459527
2079.25434814,0.03451946
2081.18315552,0.03440385
2083.11196289,0.03451744
2085.04077026,0.03431848
2086.96957764,0.03430231
2088.89838501,0.03415378
2090.82719238,0.03390673
2092.75599976,0.03391135
2094.68480713,0.03393402
2096.61361450,0.03382508
2098.54242187,0.03381087
2100.47122925,0.03387921
2102.40003662,0.03368839
2104.32884399,0.03360960
2106.25765137,0.03357127
2108.18645874,0.03346216
2110.11526611,0.03346337
2112.04407349,0.03339111
2113.97288086,0.03320865
2115.90168823,0.03320096
2117.83049561,0.03318494
2119.75930298,0.03305241
2121.68811035,0.03313571
2123.61691772,0.03302465
2125.54572510,0.03290196
2127.47453247,0.03294859
2129.40333984,0.03293895
2131.33214722,0.03288852
2133.26095459,0.03271068
2135.18976196,0.03264064
2137.11856934,0.03255260
2139.04737671,0.03257922
2140.97618408,0.03256911
2142.90499146,0.03242600
2144.83379883,0.03249398
2146.76260620,0.03246868
2148.69141357,0.03232504
2150.62022095,0.03223372
2152.54902832,0.03231930
2154.47783569,0.03224187
2156.40664307,0.03206246
2158.33545044,0.03202862
2160.26425781,0.03188703
2162.19306519,0.03195789
2164.12187256,0.03210830
2166.05067993,0.03208721
2167.97948730,0.03203925
2169.90829468,0.03195503
2171.83710205,0.03182060
2173.76590942,0.03168649
2175.69471680,0.03162803
2177.62352417,0.03173777
2179.55233154,0.03171703
2181.48113892,0.03153201
2183.40994629,0.03158721
2185.33875366,0.03147052
2187.26756104,0.03146905
2189.19636841,0.03144273
2191.12517578,0.03123605
2193.05398315,0.03145033
2194.98279053,0.03129631
2196.91159790,0.03111710
2198.84040527,0.03112121
2200.76921265,0.03111165
2202.69802002,0.03126941
2204.62682739,0.03099743
2206.55563477,0.03082295
2208.48444214,0.03090537
2210.41324951,0.03093911
2212.34205688,0.03083986
2214.27086426,0.03067501
2216.19967163,0.03073981
2218.12847900,0.03073864
2220.05728638,0.03062998
2221.98609375,0.03057347
2223.91490112,0.03057374
2225.84370850,0.03047048
2227.77251587,0.03041279
2229.70132324,0.03033493
2231.63013062,0.03027742
2233.55893799,0.03036192
2235.48774536,0.03021837
2237.41655273,0.03019172
2239.34536011,0.03015843
2241.27416748,0.03006813
2243.20297485,0.03002142
2245.13178223,0.02984772
2247.06058960,0.02981446
2248.98939697,0.02976180
2250.91820435,0.02972564
2252.84701172,0.02966780
2254.77581909,0.02957797
2256.70462646,0.02948202
2258.63343384,0.02942139
2260.56224121,0.02953306
2262.49104858,0.02951469
2264.41985596,0.02946526
2266.34866333,0.02943550
2268.27747070,0.02934256
2270.20627808,0.02921418
2272.13508545,0.02928097
2274.06389282,0.02934117
2275.99270020,0.02908890
2277.92150757,0.02899983
2279.85031494,0.02901657
2281.77912231,0.02903689
2283.70792969,0.02892711
2285.63673706,0.02873893
2287.56554443,0.02870586
2289.49435181,0.02866107
2291.42315918,0.02867763
2293.35196655,0.02858929
2295.28077393,0.02845424
2297.20958130,0.02833731
2299.13838867,0.02820102
2301.06719604,0.02805354
2302.99600342,0.02787977
2304.92481079,0.02779723
2306.85361816,0.02762718
2308.78242554,0.02746401
2310.71123291,0.02715477
2312.64004028,0.02673894
2314.56884766,0.02650441
2316.49765503,0.02626821
2318.42646240,0.02592806
2320.35526978,0.02540575
2322.28407715,0.02504791
2324.21288452,0.02470337
2326.14169189,0.02422128
2328.07049927,0.02401305
2329.99930664,0.02372792
2331.92811401,0.02353726
2333.85692139,0.02355172
2335.78572876,0.02334117
2337.71453613,0.02328179
2339.64334351,0.02319320
2341.57215088,0.02329719
2343.50095825,0.02381774
2345.42976562,0.02411228
2347.35857300,0.02531082
2349.28738037,0.02624663
2351.21618774,0.02498565
2353.14499512,0.02368497
2355.07380249,0.02283594
2357.00260986,0.02192691
2358.93141724,0.02159997
2360.86022461,0.02144268
2362.78903198,0.02127534
2364.71783936,0.02133784
2366.64664673,0.02174526
2368.57545410,0.02229954
2370.50426147,0.02284731
2372.43306885,0.02335716
2374.36187622,0.02404978
2376.29068359,0.02487617
2378.21949097,0.02534352
2380.14829834,0.02577213
2382.07710571,0.02612367
2384.00591309,0.02622328
2385.93472046,0.02628666
2387.86352783,0.02625321
2389.79233521,0.02622253
2391.72114258,0.02620323
2393.64994995,0.02616132
2395.57875732,0.02613883
2397.50756470,0.02613938
2399.43637207,0.02612792
2401.36517944,0.02603953
2403.29398682,0.02590567
2405.22279419,0.02592307
2407.15160156,0.02594093
2409.08040894,0.02582163
2411.00921631,0.02584256
2412.93802368,0.02579552
2414.86683105,0.02574601
2416.79563843,0.02575400
2418.72444580,0.02559948
2420.65325317,0.02558185
2422.58206055,0.02553831
2424.51086792,0.02539666
2426.43967529,0.02541611
2428.36848267,0.02533841
2430.29729004,0.02520756
2432.22609741,0.02525605
2434.15490479,0.02528746
2436.08371216,0.02523490
2438.01251953,0.02510847
2439.94132690,0.02503678
2441.87013428,0.02506179
2443.79894165,0.02507123
2445.72774902,0.02512676
2447.65655640,0.02497129
2449.58536377,0.02485398
2451.51417114,0.02485087
2453.44297852,0.02477709
2455.37178589,0.02485221
2457.30059326,0.02475999
2459.22940063,0.02469317
2461.15820801,0.02458179
2463.08701538,0.02451125
2465.01582275,0.02469670
2466.94463013,0.02440768
2468.87343750,0.02424042
2470.80224487,0.02445932
2472.73105225,0.02445432
2474.65985962,0.02435027
2476.58866699,0.02425593
2478.51747437,0.02425565
2480.44628174,0.02424255
2482.37508911,0.02421832
2484.30389648,0.02423994
2486.23270386,0.02408223
2488.16151123,0.02390689
2490.09031860,0.02399234
2492.01912598,0.02399494
2493.94793335,0.02390480
2495.87674072,0.02386122
2497.80554810,0.02371825
2499.73435547,0.02377458
2501.66316284,0.02378735
2503.59197021,0.02368135
2505.52077759,0.02371625
2507.44958496,0.02364061
2509.37839233,0.02355608
2511.30719971,0.02354801
2513.23600708,0.02347493
2515.16481445,0.02336488
2517.09362183,0.02336329
2519.02242920,0.02334850
2520.95123657,0.02329604
2522.88004395,0.02327061
2524.80885132,0.02322653
2526.73765869,0.02317560
2528.66646606,0.02300621
2530.59527344,0.02302927
2532.52408081,0.02310916
2534.45288818,0.02301462
2536.38169556,0.02295695
2538.31050293,0.02288281
2540.23931030,0.02285997
2542.16811768,0.02275370
2544.09692505,0.02272548
2546.02573242,0.02276996
2547.95453979,0.02265646
2549.88334717,0.02263596
2551.81215454,0.02265580
2553.74096191,0.02259724
2555.66976929,0.02246571
2557.59857666,0.02243746
2559.52738403,0.02244877
2561.45619141,0.02237382
2563.38499878,0.02236575
2565.31380615,0.02233653
2567.24261353,0.02227573
2569.17142090,0.02221289
2571.10022827,0.02222151
2573.02903564,0.02225063
2574.95784302,0.02214110
2576.88665039,0.02206697
2578.81545776,0.02208370
2580.74426514,0.02202899
2582.67307251,0.02199439
2584.60187988,0.02194552
2586.53068726,0.02175968
2588.45949463,0.02175529
2590.38830200,0.02184021
2592.31710937,0.02173594
2594.24591675,0.02170777
2596.17472412,0.02176150
2598.10353149,0.02155378
2600.03233887,0.02145581
2601.96114624,0.02159064
2603.88995361,0.02141989
2605.81876099,0.02142885
2607.74756836,0.02148679
2609.67637573,0.02131366
2611.60518311,0.02139978
2613.53399048,0.02127589
2615.46279785,0.02112704
2617.39160522,0.02126112
2619.32041260,0.02122730
2621.24921997,0.02109944
2623.17802734,0.02106639
2625.10683472,0.02104085
2627.03564209,0.02100501
2628.96444946,0.02104185
2630.89325684,0.02096616
2632.82206421,0.02088401
2634.75087158,0.02084617
2636.67967895,0.02080535
2638.60848633,0.02085916
2640.53729370,0.02072209
2642.46610107,0.02057736
2644.39490845,0.02068624
2646.32371582,0.02066797
2648.25252319,0.02054053
2650.18133057,0.02054355
2652.11013794,0.02042843
2654.03894531,0.02051177
2655.96775269,0.02055717
2657.89656006,0.02018086
2659.82536743,0.02025706
2661.75417480,0.02026765
2663.68298218,0.02010241
2665.61178955,0.02027921
2667.54059692,0.02018289
2669.46940430,0.02013955
2671.39821167,0.02014591
2673.32701904,0.01999227
2675.25582642,0.02002753
2677.18463379,0.01999124
2679.11344116,0.01984220
2681.04224854,0.01986507
2682.97105591,0.01981339
2684.89986328,0.01973392
2686.82867065,0.01984602
2688.75747803,0.01970598
2690.68628540,0.01957854
2692.61509277,0.01963498
2694.54390015,0.01955695
2696.47270752,0.01948521
2698.40151489,0.01953297
2700.33032227,0.01957908
2702.25912964,0.01939393
2704.18793701,0.01937661
2706.11674438,0.01940048
2708.04555176,0.01927274
2709.97435913,0.01926380
2711.90316650,0.01917691
2713.83197388,0.01916701
2715.76078125,0.01914242
2717.68958862,0.01914040
2719.61839600,0.01911075
2721.54720337,0.01900513
2723.47601074,0.01905858
2725.40481812,0.01886530
2727.33362549,0.01874784
2729.26243286,0.01887411
2731.19124023,0.01877048
2733.12004761,0.01865137
2735.04885498,0.01872447
2736.97766235,0.01868232
2738.90646973,0.01851017
2740.83527710,0.01850636
2742.76408447,0.01853324
2744.69289185,0.01855007
2746.62169922,0.01853909
2748.55050659,0.01845023
2750.47931396,0.01832085
2752.40812134,0.01823068
2754.33692871,0.01830129
2756.26573608,0.01834564
2758.19454346,0.01827720
2760.12335083,0.01816159
2762.05215820,0.01809894
2763.98096558,0.01805243
2765.90977295,0.01808336
2767.83858032,0.01804933
2769.76738770,0.01792875
2771.69619507,0.01796608
2773.62500244,0.01778048
2775.55380981,0.01774307
2777.48261719,0.01784912
2779.41142456,0.01774769
2781.34023193,0.01780290
2783.26903931,0.01766970
2785.19784668,0.01757492
2787.12665405,0.01762445
2789.05546143,0.01747833
2790.98426880,0.01744690
2792.91307617,0.01743196
2794.84188354,0.01731382
2796.77069092,0.01726039
2798.69949829,0.01724396
2800.62830566,0.01719185
2802.55711304,0.01719061
2804.48592041,0.01719597
2806.41472778,0.01709993
2808.34353516,0.01698545
2810.27234253,0.01694700
2812.20114990,0.01695770
2814.12995728,0.01691977
2816.05876465,0.01678007
2817.98757202,0.01671701
2819.91637939,0.01683275
2821.84518677,0.01670809
2823.77399414,0.01658086
2825.70280151,0.01666033
2827.63160889,0.01660115
2829.56041626,0.01657767
2831.48922363,0.01650530
2833.41803101,0.01647122
2835.34683838,0.01645985
2837.27564575,0.01627501
2839.20445312,0.01618676
2841.13326050,0.01620502
2843.06206787,0.01621888
2844.99087524,0.01610206
2846.91968262,0.01599161
2848.84848999,0.01592994
2850.77729736,0.01584146
2852.70610474,0.01581732
2854.63491211,0.01577773
2856.56371948,0.01572089
2858.49252686,0.01573633
2860.42133423,0.01577972
2862.35014160,0.01563258
2864.27894897,0.01557169
2866.20775635,0.01557362
2868.13656372,0.01545708
2870.06537109,0.01549232
2871.99417847,0.01545621
2873.92298584,0.01540285
2875.85179321,0.01534967
2877.78060059,0.01528491
2879.70940796,0.01533394
2881.63821533,0.01528949
2883.56702270,0.01519499
2885.49583008,0.01510802
2887.42463745,0.01504069
2889.35344482,0.01500063
2891.28225220,0.01508760
2893.21105957,0.01505739
2895.13986694,0.01493891
2897.06867432,0.01497156
2898.99748169,0.01483770
2900.92628906,0.01482260
2902.85509644,0.01482164
2904.78390381,0.01469079
2906.71271118,0.01462132
2908.64151855,0.01451755
2910.57032593,0.01460927
2912.49913330,0.01447834
2914.42794067,0.01424447
2916.35674805,0.01426071
2918.28555542,0.01408903
2920.21436279,0.01408427
2922.14317017,0.01416852
2924.07197754,0.01403361
2926.00078491,0.01408422
2927.92959229,0.01412554
2929.85839966,0.01405283
2931.78720703,0.01399724
2933.71601440,0.01392821
2935.64482178,0.01401487
2937.57362915,0.01403460
2939.50243652,0.01389165
2941.43124390,0.01379510
2943.36005127,0.01387102
2945.28885864,0.01393107
2947.21766602,0.01370692
2949.14647339,0.01371441
2951.07528076,0.01381473
2953.00408813,0.01365604
2954.93289551,0.01366792
2956.86170288,0.01365497
2958.79051025,0.01348467
2960.71931763,0.01339654
2962.64812500,0.01332849
2964.57693237,0.01328002
2966.50573975,0.01334450
2968.43454712,0.01341430
2970.36335449,0.01338275
2972.29216187,0.01331645
2974.22096924,0.01329014
2976.14977661,0.01323640
2978.07858398,0.01319766
2980.00739136,0.01323839
2981.93619873,0.01311697
2983.86500610,0.01311848
2985.79381348,0.01320432
2987.72262085,0.01310177
2989.65142822,0.01310540
2991.58023560,0.01298721
2993.50904297,0.01288190
2995.43785034,0.01289839
2997.36665771,0.01296457
2999.29546509,0.01303302
3001.22427246,0.01281305
3003.15307983,0.01276637
3005.08188721,0.01280145
3007.01069458,0.01270725
3008.93950195,0.01268223
3010.86830933,0.01259525
3012.79711670,0.01258422
3014.72592407,0.01259693
3016.65473145,0.01252603
3018.58353882,0.01250870
3020.51234619,0.01246966
3022.44115356,0.01237250
3024.36996094,0.01248253
3026.29876831,0.01243237
3028.22757568,0.01219424
3030.15638306,0.01218997
3032.08519043,0.01208360
3034.01399780,0.01211207
3035.94280518,0.01213474
3037.87161255,0.01209407
3039.80041992,0.01216186
3041.72922729,0.01193878
3043.65803467,0.01196271
3045.58684204,0.01202495
3047.51564941,0.01190259
3049.44445679,0.01179933
3051.37326416,0.01158611
3053.30207153,0.01171778
3055.23087891,0.01177319
3057.15968628,0.01166164
3059.08849365,0.01168156
3061.01730103,0.01160192
3062.94610840,0.01157166
3064.87491577,0.01148122
3066.80372314,0.01146496
3068.73253052,0.01152739
3070.66133789,0.01144629
3072.59014526,0.01141779
3074.51895264,0.01141788
3076.44776001,0.01136627
3078.37656738,0.01124000
3080.30537476,0.01116194
3082.23418213,0.01116180
3084.16298950,0.01114581
3086.09179687,0.01112330
3088.02060425,0.01108273
3089.94941162,0.01112157
3091.87821899,0.01113581
3093.80702637,0.01104732
3095.73583374,0.01098058
3097.66464111,0.01103472
3099.59344849,0.01094960
3101.52225586,0.01075980
3103.45106323,0.01088467
3105.37987061,0.01087074
3107.30867798,0.01079851
3109.23748535,0.01076277
3111.16629272,0.01059356
3113.09510010,0.01074727
3115.02390747,0.01071881
3116.95271484,0.01056053
3118.88152222,0.01060049
3120.81032959,0.01052019
3122.73913696,0.01046383
3124.66794434,0.01049738
3126.59675171,0.01049488
3128.52555908,0.01032839
3130.45436645,0.01037437
3132.38317383,0.01040179
3134.31198120,0.01028375
3136.24078857,0.01029268
3138.16959595,0.01018815
3140.09840332,0.01025941
3142.02721069,0.01016857
3143.95601807,0.01008801
3145.88482544,0.01018686
3147.81363281,0.01006051
3149.74244019,0.01004204
3151.67124756,0.00990841
3153.60005493,0.00993451
3155.52886230,0.00999986
3157.45766968,0.00994162
3159.38647705,0.01012568
3161.31528442,0.00998072
3163.24409180,0.00977484
3165.17289917,0.00984947
3167.10170654,0.00984975
3169.03051392,0.00978259
3170.95932129,0.00977052
3172.88812866,0.00973216
3174.81693604,0.00968993
3176.74574341,0.00972085
3178.67455078,0.00970546
3180.60335815,0.00968746
3182.53216553,0.00968180
3184.46097290,0.00961861
3186.38978027,0.00951008
3188.31858765,0.00961743
3190.24739502,0.00964560
3192.17620239,0.00950728
3194.10500977,0.00962129
3196.03381714,0.00959735
3197.96262451,0.00947026
3199.89143188,0.00942103
3201.82023926,0.00948023
3203.74904663,0.00952575
3205.67785400,0.00949068
3207.60666138,0.00955295
3209.53546875,0.00948276
3211.46427612,0.00953031
3213.39308350,0.00952146
3215.32189087,0.00940279
3217.25069824,0.00942123
3219.17950562,0.00940512
3221.10831299,0.00946004
3223.03712036,0.00949403
3224.96592773,0.00946968
3226.89473511,0.00942104
3228.82354248,0.00950711
3230.75234985,0.00950786
3232.68115723,0.00951401
3234.60996460,0.00960878
3236.53877197,0.00944832
3238.46757935,0.00946401
3240.39638672,0.00949095
3242.32519409,0.00950699
3244.25400146,0.00951934
3246.18280884,0.00951730
3248.11161621,0.00960983
3250.04042358,0.00955581
3251.96923096,0.00962841
3253.89803833,0.00961968
3255.82684570,0.00965728
3257.75565308,0.00966106
3259.68446045,0.00961386
3261.61326782,0.00963034
3263.54207520,0.00957113
3265.47088257,0.00981431
3267.39968994,0.00971414
3269.32849731,0.00958531
3271.25730469,0.00972328
3273.18611206,0.00970650
3275.11491943,0.00969439
3277.04372681,0.00966438
3278.97253418,0.00975965
3280.90134155,0.00960728
3282.83014893,0.00966051
3284.75895630,0.00988294
3286.68776367,0.00981486
3288.61657104,0.00980578
3290.54537842,0.00978618
3292.47418579,0.00987456
3294.40299316,0.00980466
3296.33180054,0.00981252
3298.26060791,0.00993592
3300.18941528,0.00997355
3302.11822266,0.01001390
3304.04703003,0.00992866
3305.97583740,0.00998906
3307.90464478,0.00996539
3309.83345215,0.00992845
3311.76225952,0.00985080
3313.69106689,0.00984617
3315.61987427,0.00997522
3317.54868164,0.00992821
3319.47748901,0.01003709
3321.40629639,0.01010124
3323.33510376,0.01015888
3325.26391113,0.01008505
3327.19271851,0.00997409
3329.12152588,0.01008817
3331.05033325,0.01005900
3332.97914062,0.01012410
3334.90794800,0.01012896
3336.83675537,0.01003190
3338.76556274,0.01012590
3340.69437012,0.01022621
3342.62317749,0.01018389
3344.55198486,0.01018805
3346.48079224,0.01024219
3348.40959961,0.01024007
3350.33840698,0.01028373
3352.26721436,0.01028669
3354.19602173,0.01032263
3356.12482910,0.01029497
3358.05363647,0.01034070
3359.98244385,0.01039562
3361.91125122,0.01030782
3363.84005859,0.01030476
3365.76886597,0.01033003
3367.69767334,0.01049775
3369.62648071,0.01049283
3371.55528809,0.01047191
3373.48409546,0.01050733
3375.41290283,0.01042197
3377.34171020,0.01051257
3379.27051758,0.01059835
3381.19932495,0.01070299
3383.12813232,0.01067226
3385.05693970,0.01069207
3386.98574707,0.01076082
3388.91455444,0.01075988
3390.84336182,0.01086731
3392.77216919,0.01082530
3394.70097656,0.01087348
3396.62978394,0.01091059
3398.55859131,0.01094337
3400.48739868,0.01102023
3402.41620605,0.01104415
3404.34501343,0.01107493
3406.27382080,0.01105270
3408.20262817,0.01112511
3410.13143555,0.01117531
3412.06024292,0.01125469
3413.98905029,0.01122095
3415.91785767,0.01123189
3417.84666504,0.01133440
3419.77547241,0.01132214
3421.70427979,0.01131844
3423.63308716,0.01137583
3425.56189453,0.01156738
3427.49070190,0.01146872
3429.41950928,0.01150167
3431.34831665,0.01156029
3433.27712402,0.01156773
3435.20593140,0.01172349
3437.13473877,0.01158037
3439.06354614,0.01175530
3440.99235352,0.01170448
3442.92116089,0.01172700
3444.84996826,0.01192934
3446.77877563,0.01166160
3448.70758301,0.01182810
3450.63639038,0.01192776
3452.56519775,0.01197570
3454.49400513,0.01212096
3456.42281250,0.01207979
3458.35161987,0.01214945
3460.28042725,0.01218033
3462.20923462,0.01219445
3464.13804199,0.01219302
3466.06684937,0.01222489
3467.99565674,0.01219898
3469.92446411,0.01226612
3471.85327148,0.01235119
3473.78207886,0.01235877
3475.71088623,0.01242722
3477.63969360,0.01249237
3479.56850098,0.01248615
3481.49730835,0.01236443
3483.42611572,0.01250663
3485.35492310,0.01260508
3487.28373047,0.01260322
3489.21253784,0.01259947
3491.14134521,0.01271119
3493.07015259,0.01288546
3494.99895996,0.01271761
3496.92776733,0.01280345
3498.85657471,0.01287227
3500.78538208,0.01287785
3502.71418945,0.01276759
3504.64299683,0.01278542
3506.57180420,0.01313272
3508.50061157,0.01288856
3510.42941895,0.01286823
3512.35822632,0.01305508
3514.28703369,0.01313715
3516.21584106,0.01316657
3518.14464844,0.01315988
3520.07345581,0.01342930
3522.00226318,0.01322531
3523.93107056,0.01305538
3525.85987793,0.01316294
3527.78868530,0.01319255
3529.71749268,0.01321669
3531.64630005,0.01338076
3533.57510742,0.01357752
3535.50391479,0.01338730
3537.43272217,0.01340507
3539.36152954,0.01353291
3541.29033691,0.01355598
3543.21914429,0.01361466
3545.14795166,0.01337382
3547.07675903,0.01317805
3549.00556641,0.01360581
3550.93437378,0.01364235
3552.86318115,0.01331040
3554.79198853,0.01373934
3556.72079590,0.01381358
3558.64960327,0.01378393
3560.57841064,0.01370602
3562.50721802,0.01360706
3564.43602539,0.01385632
3566.36483276,0.01298300
3568.29364014,0.01272601
3570.22244751,0.01362439
3572.15125488,0.01386754
3574.08006226,0.01386991
3576.00886963,0.01387377
3577.93767700,0.01380242
3579.86648437,0.01389307
3581.79529175,0.01394277
3583.72409912,0.01399144
3585.65290649,0.01372268
3587.58171387,0.01268371
3589.51052124,0.01309739
3591.43932861,0.01420029
3593.36813599,0.01378564
3595.29694336,0.01355905
3597.22575073,0.01379796
3599.15455811,0.01395052
3601.08336548,0.01389408
3603.01217285,0.01400862
3604.94098022,0.01420696
3606.86978760,0.01375003
3608.79859497,0.01306549
3610.72740234,0.01340775
3612.65620972,0.01369313
3614.58501709,0.01330823
3616.51382446,0.01424724
3618.44263184,0.01323601
3620.37143921,0.01276827
3622.30024658,0.01428346
3624.22905395,0.01397462
3626.15786133,0.01464054
3628.08666870,0.01249225
3630.01547607,0.01149139
3631.94428345,0.01430492
3633.87309082,0.01400525
3635.80189819,0.01429354
3637.73070557,0.01453449
3639.65951294,0.01434354
3641.58832031,0.01446365
3643.51712769,0.01431668
3645.44593506,0.01458467
3647.37474243,0.01316365
3649.30354980,0.01213671
3651.23235718,0.01240542
3653.16116455,0.01453512
3655.08997192,0.01432843
3657.01877930,0.01305117
3658.94758667,0.01485766
3660.87639404,0.01455108
3662.80520142,0.01480483
3664.73400879,0.01471125
3666.66281616,0.01466047
3668.59162354,0.01420284
3670.52043091,0.01177387
3672.44923828,0.01428404
3674.37804565,0.01349079
3676.30685303,0.01127701
3678.23566040,0.01402992
3680.16446777,0.01433896
3682.09327515,0.01434571
3684.02208252,0.01459239
3685.95088989,0.01443582
3687.87969727,0.01307331
3689.80850464,0.01203909
3691.73731201,0.01365576
3693.66611938,0.01391377
3695.59492676,0.01426414
3697.52373413,0.01423043
3699.45254150,0.01405431
3701.38134888,0.01367550
3703.31015625,0.01310799
3705.23896362,0.01434532
3707.16777100,0.01360624
3709.09657837,0.01323903
3711.02538574,0.01244752
3712.95419312,0.01177008
3714.88300049,0.01361696
3716.81180786,0.01321971
3718.74061523,0.01334107
3720.66942261,0.01307327
3722.59822998,0.01259238
3724.52703735,0.01295896
3726.45584473,0.01207431
3728.38465210,0.01304020
3730.31345947,0.01276529
3732.24226685,0.01180530
3734.17107422,0.01148085
3736.09988159,0.01085415
3738.02868896,0.01150287
3739.95749634,0.01232633
3741.88630371,0.01279528
3743.81511108,0.01000844
3745.74391846,0.00952289
3747.67272583,0.01215656
3749.60153320,0.01038200
3751.53034058,0.00973211
3753.45914795,0.01102399
3755.38795532,0.01165152
3757.31676270,0.01220446
3759.24557007,0.01120573
3761.17437744,0.01159565
3763.10318481,0.01231417
3765.03199219,0.01141383
3766.96079956,0.01163523
3768.88960693,0.01142615
3770.81841431,0.01101564
3772.74722168,0.01181218
3774.67602905,0.01173369
3776.60483643,0.01173300
3778.53364380,0.01128654
3780.46245117,0.01094557
3782.39125854,0.01164691
3784.32006592,0.01125764
3786.24887329,0.01112674
3788.17768066,0.01140966
3790.10648804,0.01132087
3792.03529541,0.01114635
3793.96410278,0.01138918
3795.89291016,0.01073620
3797.82171753,0.01059149
3799.75052490,0.01098544
3801.67933228,0.00877924
3803.60813965,0.01026075
3805.53694702,0.01094775
3807.46575439,0.00909977
3809.39456177,0.01092480
3811.32336914,0.01068003
3813.25217651,0.01097448
3815.18098389,0.00990930
3817.10979126,0.00886849
3819.03859863,0.01088733
3820.96740601,0.00880624
3822.89621338,0.00933392
3824.82502075,0.01080460
3826.75382812,0.00974986
3828.68263550,0.01045973
3830.61144287,0.01000197
3832.54025024,0.00954966
3834.46905762,0.00983965
3836.39786499,0.00935840
3838.32667236,0.00848694
3840.25547974,0.00917756
3842.18428711,0.00982866
3844.11309448,0.00939073
3846.04190186,0.00999697
3847.97070923,0.00986169
3849.89951660,0.00988448
3851.82832397,0.00894503
3853.75713135,0.00680511
3855.68593872,0.00794307
3857.61474609,0.00989197
3859.54355347,0.00959179
3861.47236084,0.00952868
3863.40116821,0.00926491
3865.32997559,0.00860770
3867.25878296,0.00957771
3869.18759033,0.00867457
3871.11639770,0.00814221
3873.04520508,0.00951844
3874.97401245,0.00872131
3876.90281982,0.00940422
3878.83162720,0.00949102
3880.76043457,0.00818298
3882.68924194,0.00930723
3884.61804932,0.00880670
3886.54685669,0.00816628
3888.47566406,0.00932815
3890.40447144,0.00884651
3892.33327881,0.00834177
3894.26208618,0.00904395
3896.19089355,0.00922778
3898.11970093,0.00883449
3900.04850830,0.00830279
3901.97731567,0.00820695
3903.90612305,0.00811170
3905.83493042,0.00818251
3907.76373779,0.00895440
3909.69254517,0.00895753
3911.62135254,0.00880935
3913.55015991,0.00894080
3915.47896728,0.00867296
3917.40777466,0.00835147
3919.33658203,0.00834637
3921.26538940,0.00871788
3923.19419678,0.00854142
3925.12300415,0.00838383
3927.05181152,0.00853320
3928.98061890,0.00859666
3930.90942627,0.00847281
3932.83823364,0.00812489
3934.76704102,0.00838067
3936.69584839,0.00848394
3938.62465576,0.00839718
3940.55346313,0.00841244
3942.48227051,0.00815936
3944.41107788,0.00816636
3946.33988525,0.00823226
3948.26869263,0.00820606
3950.19750000,0.00816379
3952.12630737,0.00819561
3954.05511475,0.00822859
3955.98392212,0.00812274
3957.91272949,0.00807775
3959.84153687,0.00808901
3961.77034424,0.00803833
3963.69915161,0.00804046
3965.62795898,0.00811153
3967.55676636,0.00796667
3969.48557373,0.00792706
3971.41438110,0.00799990
3973.34318848,0.00791789
3975.27199585,0.00785165
3977.20080322,0.00788377
3979.12961060,0.00788311
3981.05841797,0.00781783
3982.98722534,0.00780355
3984.91603271,0.00773085
3986.84484009,0.00779564
3988.77364746,0.00772649
3990.70245483,0.00763544
3992.63126221,0.00774395
3994.56006958,0.00775002
3996.48887695,0.00772633
3998.41768433,0.00755580
4000.34649170,0.00768064
4002.27529907,0.00762447
4004.20410645,0.00751049
4006.13291382,0.00769066
4008.06172119,0.00748934
4009.99052856,0.00754906
4011.91933594,0.00748610
4013.84814331,0.00738381
4015.77695068,0.00751103
4017.70575806,0.00742534
4019.63456543,0.00745232
4021.56337280,0.00743950
4023.49218018,0.00744359
4025.42098755,0.00732592
4027.34979492,0.00733196
4029.27860229,0.00734129
4031.20740967,0.00718914
4033.13621704,0.00723945
4035.06502441,0.00716524
4036.99383179,0.00717522
4038.92263916,0.00718675
4040.85144653,0.00717226
4042.78025391,0.00712797
4044.70906128,0.00708328
4046.63786865,0.00715594
4048.56667603,0.00709638
4050.49548340,0.00713279
4052.42429077,0.00710001
4054.35309814,0.00701253
4056.28190552,0.00692815
4058.21071289,0.00697136
4060.13952026,0.00704897
4062.06832764,0.00690478
4063.99713501,0.00692462
4065.92594238,0.00687883
4067.85474976,0.00683026
4069.78355713,0.00682623
4071.71236450,0.00677816
4073.64117187,0.00678354
4075.56997925,0.00674111
4077.49878662,0.00676829
4079.42759399,0.00672980
4081.35640137,0.00669527
4083.28520874,0.00673586
4085.21401611,0.00672160
4087.14282349,0.00659673
4089.07163086,0.00666982
4091.00043823,0.00674983
4092.92924561,0.00656016
4094.85805298,0.00660071
4096.78686035,0.00654212
4098.71566772,0.00651588
4100.64447510,0.00662157
4102.57328247,0.00650857
4104.50208984,0.00649303
4106.43089722,0.00645114
4108.35970459,0.00641906
4110.28851196,0.00644632
4112.21731934,0.00644597
4114.14612671,0.00645510
4116.07493408,0.00639198
4118.00374145,0.00628745
4119.93254883,0.00630062
4121.86135620,0.00633320
4123.79016357,0.00628819
4125.71897095,0.00635214
4127.64777832,0.00627899
4129.57658569,0.00627989
4131.50539307,0.00631711
4133.43420044,0.00614947
4135.36300781,0.00622166
4137.29181519,0.00625002
4139.22062256,0.00617356
4141.14942993,0.00615949
4143.07823730,0.00611902
4145.00704468,0.00614557
4146.93585205,0.00611562
4148.86465942,0.00603127
4150.79346680,0.00606752
4152.72227417,0.00608083
4154.65108154,0.00597061
4156.57988892,0.00600243
4158.50869629,0.00595328
4160.43750366,0.00585484
4162.36631103,0.00594138
4164.29511841,0.00594367
4166.22392578,0.00588582
4168.15273315,0.00583726
4170.08154053,0.00588205
4172.01034790,0.00588433
4173.93915527,0.00579702
4175.86796265,0.00581431
4177.79677002,0.00584996
4179.72557739,0.00585490
4181.65438477,0.00583416
4183.58319214,0.00581976
4185.51199951,0.00576813
4187.44080688,0.00572507
4189.36961426,0.00568776
4191.29842163,0.00568475
4193.22722900,0.00566278
4195.15603638,0.00557360
4197.08484375,0.00564553
4199.01365112,0.00564189
4200.94245850,0.00555250
4202.87126587,0.00553857
4204.80007324,0.00552840
4206.72888062,0.00550617
4208.65768799,0.00550463
4210.58649536,0.00557034
4212.51530273,0.00550454
4214.44411011,0.00548011
4216.37291748,0.00551199
4218.30172485,0.00545653
4220.23053223,0.00544123
4222.15933960,0.00540367
4224.08814697,0.00529484
4226.01695435,0.00526390
4227.94576172,0.00543982
4229.87456909,0.00536275
4231.80337646,0.00521267
4233.73218384,0.00534622
4235.66099121,0.00536936
4237.58979858,0.00533664
4239.51860596,0.00528478
4241.44741333,0.00524656
4243.37622070,0.00518707
4245.30502808,0.00518121
4247.23383545,0.00523331
4249.16264282,0.00510510
4251.09145020,0.00515022
4253.02025757,0.00518672
4254.94906494,0.00510566
4256.87787231,0.00514598
4258.80667969,0.00509935
4260.73548706,0.00505124
4262.66429443,0.00505165
4264.59310181,0.00506823
4266.52190918,0.00504997
4268.45071655,0.00504367
4270.37952393,0.00510929
4272.30833130,0.00504275
4274.23713867,0.00496413
4276.16594604,0.00494072
4278.09475342,0.00491411
4280.02356079,0.00497604
4281.95236816,0.00494377
4283.88117554,0.00482206
4285.80998291,0.00489054
4287.73879028,0.00493899
4289.66759766,0.00484572
4291.59640503,0.00488501
4293.52521240,0.00492043
4295.45401978,0.00484309
4297.38282715,0.00481815
4299.31163452,0.00481610
4301.24044189,0.00480551
4303.16924927,0.00479922
4305.09805664,0.00477309
4307.02686401,0.00474526
4308.95567139,0.00474013
4310.88447876,0.00467990
4312.81328613,0.00470992
4314.74209351,0.00483358
4316.67090088,0.00469916
4318.59970825,0.00464558
4320.52851562,0.00472609
4322.45732300,0.00463470
4324.38613037,0.00466668
4326.31493774,0.00461852
4328.24374512,0.00453814
4330.17255249,0.00464026
4332.10135986,0.00459528
4334.03016724,0.00457600
4335.95897461,0.00459754
4337.88778198,0.00453743
4339.81658936,0.00455314
4341.74539673,0.00455666
4343.67420410,0.00452143
4345.60301147,0.00451959
4347.53181885,0.00449520
4349.46062622,0.00441554
4351.38943359,0.00442144
4353.31824097,0.00447753
4355.24704834,0.00441741
4357.17585571,0.00439670
4359.10466309,0.00439738
4361.03347046,0.00434870
4362.96227783,0.00441024
4364.89108520,0.00436460
4366.81989258,0.00427297
4368.74869995,0.00439432
4370.67750732,0.00447159
4372.60631470,0.00440311
4374.53512207,0.00430994
4376.46392944,0.00430245
4378.39273682,0.00424347
4380.32154419,0.00425274
4382.25035156,0.00438054
4384.17915894,0.00428563
4386.10796631,0.00428885
4388.03677368,0.00427022
4389.96558105,0.00413113
4391.89438843,0.00417698
4393.82319580,0.00419654
4395.75200317,0.00417809
4397.68081055,0.00414126
4399.60961792,0.00417727
4401.53842529,0.00413894
4403.46723267,0.00412199
4405.39604004,0.00421266
4407.32484741,0.00404557
4409.25365478,0.00401869
4411.18246216,0.00406196
4413.11126953,0.00400118
4415.04007690,0.00409115
4416.96888428,0.00410366
4418.89769165,0.00403366
4420.82649902,0.00408130
4422.75530640,0.00407232
4424.68411377,0.00392700
4426.61292114,0.00398640
4428.54172852,0.00398905
4430.47053589,0.00388767
4432.39934326,0.00392260
4434.32815063,0.00391490
4436.25695801,0.00400226
4438.18576538,0.00401192
4440.11457275,0.00392883
4442.04338013,0.00390280
4443.97218750,0.00390860
4445.90099487,0.00389311
4447.82980225,0.00380826
4449.75860962,0.00389127
4451.68741699,0.00391652
4453.61622437,0.00384161
4455.54503174,0.00380676
4457.47383911,0.00380242
4459.40264648,0.00382491
4461.33145386,0.00380637
4463.26026123,0.00387880
4465.18906860,0.00381586
4467.11787598,0.00371266
4469.04668335,0.00372251
4470.97549072,0.00372095
4472.90429810,0.00376394
4474.83310547,0.00371570
4476.76191284,0.00372279
4478.69072021,0.00373509
4480.61952759,0.00364908
4482.54833496,0.00368085
4484.47714233,0.00366918
4486.40594971,0.00358657
4488.33475708,0.00365045
4490.26356445,0.00369456
4492.19237183,0.00356137
4494.12117920,0.00350778
4496.04998657,0.00361349
4497.97879395,0.00363615
4499.90760132,0.00352887
4501.83640869,0.00356017
4503.76521606,0.00361370
4505.69402344,0.00346843
4507.62283081,0.00347150
4509.55163818,0.00353655
4511.48044556,0.00346168
4513.40925293,0.00349293
4515.33806030,0.00350548
4517.26686768,0.00346503
4519.19567505,0.00350514
4521.12448242,0.00349454
4523.05328979,0.00347090
4524.98209717,0.00341421
4526.91090454,0.00341723
4528.83971191,0.00347446
4530.76851929,0.00343092
4532.69732666,0.00354095
4534.62613403,0.00346971
4536.55494141,0.00333982
4538.48374878,0.00345317
4540.41255615,0.00332070
4542.34136353,0.00334788
4544.27017090,0.00343931
4546.19897827,0.00327945
4548.12778564,0.00328824
4550.05659302,0.00328150
4551.98540039,0.00323443
4553.91420776,0.00333164
4555.84301514,0.00336145
4557.77182251,0.00325876
4559.70062988,0.00324521
4561.62943726,0.00322674
4563.55824463,0.00321347
4565.48705200,0.00326946
4567.41585937,0.00323654
4569.34466675,0.00320215
4571.27347412,0.00317086
4573.20228149,0.00322304
4575.13108887,0.00321224
4577.05989624,0.00318544
4578.98870361,0.00323565
4580.91751099,0.00312242
4582.84631836,0.00312257
4584.77512573,0.00316518
4586.70393311,0.00311678
4588.63274048,0.00307227
4590.56154785,0.00307752
4592.49035522,0.00308785
4594.41916260,0.00297558
4596.34796997,0.00303887
4598.27677734,0.00315535
4600.20558472,0.00309491
4602.13439209,0.00304922
4604.06319946,0.00309018
4605.99200684,0.00306422
4607.92081421,0.00301669
4609.84962158,0.00303384
4611.77842895,0.00300599
4613.70723633,0.00305730
4615.63604370,0.00306649
4617.56485107,0.00299148
4619.49365845,0.00293234
4621.42246582,0.00297351
4623.35127319,0.00300621
4625.28008057,0.00294077
4627.20888794,0.00302513
4629.13769531,0.00292434
4631.06650269,0.00287018
4632.99531006,0.00295513
4634.92411743,0.00287502
4636.85292480,0.00289615
4638.78173218,0.00283761
4640.71053955,0.00279543
4642.63934692,0.00280864
4644.56815430,0.00283831
4646.49696167,0.00285586
4648.42576904,0.00280143
4650.35457642,0.00287621
4652.28338379,0.00284328
4654.21219116,0.00277265
4656.14099853,0.00275835
4658.06980591,0.00280496
4659.99861328,0.00289182
4661.92742065,0.00286531
4663.85622803,0.00279814
4665.78503540,0.00273237
4667.71384277,0.00274058
4669.64265015,0.00271822
4671.57145752,0.00274310
4673.50026489,0.00271580
4675.42907227,0.00266768
4677.35787964,0.00276213
4679.28668701,0.00269473
4681.21549438,0.00265451
4683.14430176,0.00266303
4685.07310913,0.00264078
4687.00191650,0.00267511
4688.93072388,0.00272849
4690.85953125,0.00273933
4692.78833862,0.00261569
4694.71714600,0.00264738
4696.64595337,0.00270127
4698.57476074,0.00260155
4700.50356812,0.00262552
4702.43237549,0.00266991
4704.36118286,0.00257311
4706.28999023,0.00257175
4708.21879761,0.00263971
4710.14760498,0.00252924
4712.07641235,0.00250653
4714.00521973,0.00262257
4715.93402710,0.00263642
4717.86283447,0.00258516
4719.79164185,0.00260135
4721.72044922,0.00259911
4723.64925659,0.00257475
4725.57806396,0.00260705
4727.50687134,0.00254359
4729.43567871,0.00253795
4731.36448608,0.00251781
4733.29329346,0.00246603
4735.22210083,0.00247183
4737.15090820,0.00245526
4739.07971558,0.00256570
4741.00852295,0.00251190
4742.93733032,0.00243395
4744.86613770,0.00247775
4746.79494507,0.00246668
4748.72375244,0.00252140
4750.65255981,0.00244175
4752.58136719,0.00237958
4754.51017456,0.00241070
4756.43898193,0.00239163
4758.36778931,0.00235979
4760.29659668,0.00234568
4762.22540405,0.00241364
4764.15421143,0.00237572
4766.08301880,0.00232811
4768.01182617,0.00235083
4769.94063354,0.00235136
4771.86944092,0.00240355
4773.79824829,0.00241460
4775.72705566,0.00240585
4777.65586304,0.00240917
4779.58467041,0.00241344
4781.51347778,0.00243834
4783.44228516,0.00235790
4785.37109253,0.00231455
4787.29989990,0.00234569
4789.22870728,0.00230959
4791.15751465,0.00237068
4793.08632202,0.00231306
4795.01512939,0.00220531
4796.94393677,0.00233005
4798.87274414,0.00228471
4800.80155151,0.00222718
4802.73035889,0.00231038
4804.65916626,0.00225776
4806.58797363,0.00225044
4808.51678101,0.00227799
4810.44558838,0.00222793
4812.37439575,0.00226056
4814.30320312,0.00229759
4816.23201050,0.00223584
4818.16081787,0.00222652
4820.08962524,0.00220516
4822.01843262,0.00218068
4823.94723999,0.00219520
4825.87604736,0.00215595
4827.80485474,0.00216077
4829.73366211,0.00216023
4831.66246948,0.00215586
4833.59127686,0.00213239
4835.52008423,0.00211688
4837.44889160,0.00216104
4839.37769897,0.00211983
4841.30650635,0.00212751
4843.23531372,0.00213890
4845.16412109,0.00208752
4847.09292847,0.00207079
4849.02173584,0.00208136
4850.95054321,0.00212166
4852.87935059,0.00207476
4854.80815796,0.00207420
4856.73696533,0.00213256
4858.66577270,0.00213083
4860.59458008,0.00215795
4862.52338745,0.00212179
4864.45219482,0.00205524
4866.38100220,0.00201791
4868.30980957,0.00204225
4870.23861694,0.00209925
4872.16742432,0.00204915
4874.09623169,0.00203277
4876.02503906,0.00199688
4877.95384644,0.00196810
4879.88265381,0.00199329
4881.81146118,0.00191050
4883.74026855,0.00195757
4885.66907593,0.00202208
4887.59788330,0.00197575
4889.52669067,0.00194842
4891.45549805,0.00194446
4893.38430542,0.00200743
4895.31311279,0.00195362
4897.24192017,0.00198049
4899.17072754,0.00201880
4901.09953491,0.00191786
4903.02834228,0.00196167
4904.95714966,0.00194768
4906.88595703,0.00196005
4908.81476440,0.00199686
4910.74357178,0.00194274
4912.67237915,0.00195600
4914.60118652,0.00192323
4916.52999390,0.00188425
4918.45880127,0.00190383
4920.38760864,0.00192948
4922.31641602,0.00184997
4924.24522339,0.00182768
4926.17403076,0.00191540
4928.10283813,0.00187892
4930.03164551,0.00183924
4931.96045288,0.00181911
4933.88926025,0.00184289
4935.81806763,0.00187304
4937.74687500,0.00182437
4939.67568237,0.00184179
4941.60448975,0.00189581
4943.53329712,0.00184789
4945.46210449,0.00178399
4947.39091187,0.00187197
4949.31971924,0.00187090
4951.24852661,0.00176680
4953.17733398,0.00180586
4955.10614136,0.00178973
4957.03494873,0.00169943
4958.96375610,0.00175307
4960.89256348,0.00182854
4962.82137085,0.00177941
4964.75017822,0.00172310
4966.67898560,0.00172026
4968.60779297,0.00176159
4970.53660034,0.00178268
4972.46540771,0.00175397
4974.39421509,0.00170856
4976.32302246,0.00171651
4978.25182983,0.00175616
4980.18063721,0.00167219
4982.10944458,0.00166788
4984.03825195,0.00168255
4985.96705933,0.00164034
4987.89586670,0.00169573
4989.82467407,0.00166011
4991.75348145,0.00165826
4993.68228882,0.00169100
4995.61109619,0.00169094
4997.53990356,0.00174007
4999.46871094,0.00167037
5001.39751831,0.00160110
5003.32632568,0.00167389
5005.25513306,0.00172530
5007.18394043,0.00168720
5009.11274780,0.00164988
5011.04155518,0.00159146
5012.97036255,0.00157703
5014.89916992,0.00162595
5016.82797729,0.00160751
5018.75678467,0.00160980
5020.68559204,0.00169540
5022.61439941,0.00167532
5024.54320679,0.00155092
5026.47201416,0.00160747
5028.40082153,0.00161177
5030.32962891,0.00156138
5032.25843628,0.00163641
5034.18724365,0.00158718
5036.11605103,0.00161564
5038.04485840,0.00163138
5039.97366577,0.00153787
5041.90247314,0.00154874
5043.83128052,0.00159267
5045.76008789,0.00158401
5047.68889526,0.00153639
5049.61770264,0.00157022
5051.54651001,0.00154931
5053.47531738,0.00155601
5055.40412476,0.00156379
5057.33293213,0.00152220
5059.26173950,0.00156083
5061.19054687,0.00152456
5063.11935425,0.00153611
5065.04816162,0.00146455
5066.97696899,0.00145357
5068.90577637,0.00151256
5070.83458374,0.00140766
5072.76339111,0.00147396
5074.69219849,0.00145150
5076.62100586,0.00144188
5078.54981323,0.00153969
5080.47862061,0.00147788
5082.40742798,0.00147825
5084.33623535,0.00146073
5086.26504272,0.00147051
5088.19385010,0.00147521
5090.12265747,0.00144482
5092.05146484,0.00150000
5093.98027222,0.00144322
5095.90907959,0.00141969
5097.83788696,0.00148892
5099.76669434,0.00142509
5101.69550171,0.00140568
5103.62430908,0.00146780
5105.55311645,0.00141455
5107.48192383,0.00142093
5109.41073120,0.00144888
5111.33953857,0.00141277
5113.26834595,0.00142273
5115.19715332,0.00136188
5117.12596069,0.00139889
5119.05476807,0.00146865
5120.98357544,0.00136634
5122.91238281,0.00136159
5124.84119019,0.00140611
5126.76999756,0.00137456
5128.69880493,0.00137913
5130.62761230,0.00140268
5132.55641968,0.00135151
5134.48522705,0.00131809
5136.41403442,0.00137890
5138.34284180,0.00133721
5140.27164917,0.00130775
5142.20045654,0.00134871
5144.12926392,0.00129362
5146.05807129,0.00133468
5147.98687866,0.00137762
5149.91568603,0.00132162
5151.84449341,0.00132652
5153.77330078,0.00133907
5155.70210815,0.00136052
5157.63091553,0.00131688
5159.55972290,0.00127631
5161.48853027,0.00132595
5163.41733765,0.00129659
5165.34614502,0.00129205
5167.27495239,0.00133764
5169.20375977,0.00126605
5171.13256714,0.00120678
5173.06137451,0.00128024
5174.99018188,0.00133640
5176.91898926,0.00135650
5178.84779663,0.00137998
5180.77660400,0.00132388
5182.70541138,0.00127298
5184.63421875,0.00127781
5186.56302612,0.00126345
5188.49183350,0.00125252
5190.42064087,0.00125298
5192.34944824,0.00123076
5194.27825562,0.00121516
5196.20706299,0.00122038
5198.13587036,0.00126374
5200.06467773,0.00125482
5201.99348511,0.00115423
5203.92229248,0.00119915
5205.85109985,0.00126955
5207.77990723,0.00122299
5209.70871460,0.00123611
5211.63752197,0.00124668
5213.56632935,0.00119759
5215.49513672,0.00115979
5217.42394409,0.00117808
5219.35275146,0.00117714
5221.28155884,0.00115067
5223.21036621,0.00119934
5225.13917358,0.00119935
5227.06798096,0.00117267
5228.99678833,0.00123320
5230.92559570,0.00117993
5232.85440308,0.00111152
5234.78321045,0.00119838
5236.71201782,0.00116625
5238.64082520,0.00112949
5240.56963257,0.00118412
5242.49843994,0.00117168
5244.42724731,0.00116438
5246.35605469,0.00112851
5248.28486206,0.00110084
5250.21366943,0.00112038
5252.14247681,0.00113141
5254.07128418,0.00106937
5256.00009155,0.00108178
5257.92889893,0.00110631
5259.85770630,0.00103286
5261.78651367,0.00112347
5263.71532104,0.00108932
5265.64412842,0.00102717
5267.57293579,0.00112071
5269.50174316,0.00113253
5271.43055054,0.00113520
5273.35935791,0.00112328
5275.28816528,0.00113647
5277.21697266,0.00103990
5279.14578003,0.00103242
5281.07458740,0.00109655
5283.00339478,0.00108953
5284.93220215,0.00115900
5286.86100952,0.00111015
5288.78981689,0.00112329
5290.71862427,0.00107516
5292.64743164,0.00108689
5294.57623901,0.00110446
5296.50504639,0.00099767
5298.43385376,0.00112510
5300.36266113,0.00107895
5302.29146851,0.00106684
5304.22027588,0.00104697
5306.14908325,0.00096914
5308.07789062,0.00103037
5310.00669800,0.00099887
5311.93550537,0.00109902
5313.86431274,0.00101286
5315.79312012,0.00096696
5317.72192749,0.00106193
5319.65073486,0.00102147
5321.57954224,0.00099708
5323.50834961,0.00093868
5325.43715698,0.00104958
5327.36596436,0.00104468
5329.29477173,0.00100563
5331.22357910,0.00104058
5333.15238647,0.00100082
5335.08119385,0.00105002
5337.01000122,0.00100399
5338.93880859,0.00095566
5340.86761597,0.00095731
5342.79642334,0.00097698
5344.72523071,0.00094625
5346.65403809,0.00096040
5348.58284546,0.00099675
5350.51165283,0.00094947
5352.44046020,0.00098511
5354.36926758,0.00093182
5356.29807495,0.00097570
5358.22688232,0.00098625
5360.15568970,0.00093229
5362.08449707,0.00100480
5364.01330444,0.00096819
5365.94211182,0.00099153
5367.87091919,0.00094777
5369.79972656,0.00089689
5371.72853394,0.00096319
5373.65734131,0.00094935
5375.58614868,0.00091319
5377.51495605,0.00092262
5379.44376343,0.00094776
5381.37257080,0.00093765
5383.30137817,0.00092463
5385.23018555,0.00086563
5387.15899292,0.00092968
5389.08780029,0.00092597
5391.01660767,0.00082410
5392.94541504,0.00089904
5394.87422241,0.00090912
5396.80302978,0.00090092
5398.73183716,0.00085594
5400.66064453,0.00090652
5402.58945190,0.00095885
5404.51825928,0.00085462
5406.44706665,0.00087468
5408.37587402,0.00087551
5410.30468140,0.00091000
5412.23348877,0.00087510
5414.16229614,0.00085799
5416.09110352,0.00096474
5418.01991089,0.00090605
5419.94871826,0.00088067
5421.87752563,0.00089714
5423.80633301,0.00088098
5425.73514038,0.00082995
5427.66394775,0.00080692
5429.59275513,0.00083130
5431.52156250,0.00083006
5433.45036987,0.00087631
5435.37917725,0.00084842
5437.30798462,0.00083476
5439.23679199,0.00088814
5441.16559936,0.00087838
5443.09440674,0.00081497
5445.02321411,0.00079190
5446.95202148,0.00081892
5448.88082886,0.00077748
5450.80963623,0.00076092
5452.73844360,0.00081489
5454.66725098,0.00085971
5456.59605835,0.00083181
5458.52486572,0.00084933
5460.45367310,0.00089122
5462.38248047,0.00079565
5464.31128784,0.00078129
5466.24009521,0.00081806
5468.16890259,0.00083844
5470.09770996,0.00086652
5472.02651733,0.00083401
5473.95532471,0.00082584
5475.88413208,0.00076523
5477.81293945,0.00078814
5479.74174683,0.00088381
5481.67055420,0.00084622
5483.59936157,0.00083371
5485.52816895,0.00079961
5487.45697632,0.00081137
5489.38578369,0.00082534
5491.31459106,0.00071090
5493.24339844,0.00073574
5495.17220581,0.00075625
5497.10101318,0.00078747
5499.02982056,0.00082546
5500.95862793,0.00072701
5502.88743530,0.00077341
5504.81624268,0.00074798
5506.74505005,0.00068029
5508.67385742,0.00077291
5510.60266479,0.00080154
5512.53147217,0.00076195
5514.46027954,0.00070055
5516.38908691,0.00075250
5518.31789429,0.00079059
5520.24670166,0.00071430
5522.17550903,0.00070057
5524.10431641,0.00072236
5526.03312378,0.00076504
5527.96193115,0.00077904
5529.89073853,0.00074784
5531.81954590,0.00077342
5533.74835327,0.00081040
5535.67716064,0.00070623
5537.60596802,0.00067334
5539.53477539,0.00073270
5541.46358276,0.00068998
5543.39239014,0.00076106
5545.32119751,0.00080060
5547.25000488,0.00076722
5549.17881226,0.00075854
5551.10761963,0.00071386
5553.03642700,0.00076423
5554.96523437,0.00070811
5556.89404175,0.00066180
5558.82284912,0.00076658
5560.75165649,0.00072314
5562.68046387,0.00068973
5564.60927124,0.00075895
5566.53807861,0.00071691
5568.46688599,0.00065705
5570.39569336,0.00066577
5572.32450073,0.00066409
5574.25330811,0.00069965
5576.18211548,0.00070922
5578.11092285,0.00065697
5580.03973022,0.00064589
5581.96853760,0.00063804
5583.89734497,0.00063481
5585.82615234,0.00066834
5587.75495972,0.00069342
5589.68376709,0.00066106
5591.61257446,0.00061965
5593.54138184,0.00063028
5595.47018921,0.00065937
5597.39899658,0.00071481
5599.32780395,0.00072078
5601.25661133,0.00065513
5603.18541870,0.00067136
5605.11422607,0.00065329
5607.04303345,0.00058985
5608.97184082,0.00065117
5610.90064819,0.00066769
5612.82945557,0.00065329
5614.75826294,0.00066657
5616.68707031,0.00064533
5618.61587769,0.00063207
5620.54468506,0.00059495
5622.47349243,0.00061409
5624.40229980,0.00060449
5626.33110718,0.00057864
5628.25991455,0.00064863
5630.18872192,0.00064720
5632.11752930,0.00059211
5634.04633667,0.00059767
5635.97514404,0.00068507
5637.90395142,0.00065828
5639.83275879,0.00055924
5641.76156616,0.00061595
5643.69037353,0.00062878
5645.61918091,0.00058473
5647.54798828,0.00059920
5649.47679565,0.00060673
5651.40560303,0.00061347
5653.33441040,0.00063731
5655.26321777,0.00064562
5657.19202515,0.00060859
5659.12083252,0.00055791
5661.04963989,0.00058628
5662.97844727,0.00061039
5664.90725464,0.00056143
5666.83606201,0.00061439
5668.76486938,0.00059272
5670.69367676,0.00053053
5672.62248413,0.00058127
5674.55129150,0.00051052
5676.48009888,0.00054099
5678.40890625,0.00063260
5680.33771362,0.00058891
5682.26652100,0.00056877
5684.19532837,0.00055161
5686.12413574,0.00061133
5688.05294311,0.00062748
5689.98175049,0.00051556
5691.91055786,0.00050155
5693.83936523,0.00053389
5695.76817261,0.00051027
5697.69697998,0.00055541
5699.62578735,0.00063067
5701.55459473,0.00057416
5703.48340210,0.00052388
5705.41220947,0.00055599
5707.34101685,0.00057517
5709.26982422,0.00058783
5711.19863159,0.00056192
5713.12743896,0.00057552
5715.05624634,0.00060587
5716.98505371,0.00054929
5718.91386108,0.00056049
5720.84266846,0.00050959
5722.77147583,0.00044199
5724.70028320,0.00053591
5726.62909058,0.00052442
5728.55789795,0.00055728
5730.48670532,0.00060236
5732.41551270,0.00053205
5734.34432007,0.00054030
5736.27312744,0.00048773
5738.20193481,0.00051365
5740.13074219,0.00058387
5742.05954956,0.00052128
5743.98835693,0.00051588
5745.91716431,0.00051537
5747.84597168,0.00046336
5749.77477905,0.00049770
5751.70358643,0.00055479
5753.63239380,0.00051419
5755.56120117,0.00053248
5757.49000854,0.00053299
5759.41881592,0.00050809
5761.34762329,0.00056402
5763.27643066,0.00055890
5765.20523804,0.00053400
5767.13404541,0.00047730
5769.06285278,0.00046450
5770.99166016,0.00046202
5772.92046753,0.00043680
5774.84927490,0.00046015
5776.77808228,0.00042649
5778.70688965,0.00045055
5780.63569702,0.00045543
5782.56450439,0.00045419
5784.49331177,0.00049673
5786.42211914,0.00048534
5788.35092651,0.00051652
5790.27973389,0.00051453
5792.20854126,0.00048348
5794.13734863,0.00048649
5796.06615601,0.00050451
5797.99496338,0.00048625
5799.92377075,0.00047772
5801.85257812,0.00051245
5803.78138550,0.00046803
5805.71019287,0.00043571
5807.63900024,0.00045734
5809.56780762,0.00045038
5811.49661499,0.00043682
5813.42542236,0.00046167
5815.35422974,0.00046310
5817.28303711,0.00049038
5819.21184448,0.00057142
5821.14065186,0.00053419
5823.06945923,0.00043500
5824.99826660,0.00038641
5826.92707397,0.00042569
5828.85588135,0.00048475
5830.78468872,0.00048783
5832.71349609,0.00045969
5834.64230347,0.00043342
5836.57111084,0.00040928
5838.49991821,0.00039101
5840.42872559,0.00049756
5842.35753296,0.00052582
5844.28634033,0.00043241
5846.21514770,0.00041677
5848.14395508,0.00042505
5850.07276245,0.00040218
5852.00156982,0.00037604
5853.93037720,0.00045898
5855.85918457,0.00043135
5857.78799194,0.00037707
5859.71679932,0.00046403
5861.64560669,0.00042816
5863.57441406,0.00039879
5865.50322144,0.00042024
5867.43202881,0.00041351
5869.36083618,0.00038689
5871.28964355,0.00041123
5873.21845093,0.00045915
5875.14725830,0.00042938
5877.07606567,0.00043863
5879.00487305,0.00038614
5880.93368042,0.00036546
5882.86248779,0.00043906
5884.79129517,0.00042635
5886.72010254,0.00041690
5888.64890991,0.00044503
5890.57771728,0.00044494
5892.50652466,0.00044771
5894.43533203,0.00040856
5896.36413940,0.00034421
5898.29294678,0.00045335
5900.22175415,0.00043340
5902.15056152,0.00032416
5904.07936890,0.00043482
5906.00817627,0.00040311
5907.93698364,0.00035063
5909.86579102,0.00035892
5911.79459839,0.00034151
5913.72340576,0.00043356
5915.65221313,0.00045572
5917.58102051,0.00038624
5919.50982788,0.00033870
5921.43863525,0.00036694
5923.36744263,0.00036312
5925.29625000,0.00034869
5927.22505737,0.00038841
5929.15386475,0.00037930
5931.08267212,0.00038244
5933.01147949,0.00035909
5934.94028686,0.00035209
5936.86909424,0.00038864
5938.79790161,0.00038636
5940.72670898,0.00037605
5942.65551636,0.00037050
5944.58432373,0.00040143
5946.51313110,0.00042443
5948.44193848,0.00039173
5950.37074585,0.00032993
5952.29955322,0.00034904
5954.22836060,0.00039444
5956.15716797,0.00034590
5958.08597534,0.00035859
5960.01478271,0.00036498
5961.94359009,0.00030375
5963.87239746,0.00031251
5965.80120483,0.00030144
5967.73001221,0.00028495
5969.65881958,0.00031037
5971.58762695,0.00030557
5973.51643433,0.00033029
5975.44524170,0.00034426
5977.37404907,0.00031380
5979.30285645,0.00034520
5981.23166382,0.00037020
5983.16047119,0.00037418
5985.08927856,0.00039580
5987.01808594,0.00033732
5988.94689331,0.00032812
5990.87570068,0.00036065
5992.80450806,0.00031905
5994.73331543,0.00035222
5996.66212280,0.00033188
5998.59093018,0.00029634
6000.51973755,0.00033989
