399.26312622,0.00093813
401.19193359,0.00058989
403.12074097,0.00027676
405.04954834,0.00064002
406.97835571,0.00048877
408.90716309,0.00044448
410.83597046,0.00147165
412.76477783,0.00116230
414.69358521,0.00099348
416.62239258,0.00134184
418.55119995,0.00091370
420.48000732,0.00101761
422.40881470,0.00121628
424.33762207,0.00093759
426.26642944,0.00107175
428.19523682,0.00141642
430.12404419,0.00108039
432.05285156,0.00086304
433.98165894,0.00087184
435.91046631,0.00130093
437.83927368,0.00175128
439.76808105,0.00116814
441.69688843,0.00100759
443.62569580,0.00114538
445.55450317,0.00161774
447.48331055,0.00154041
449.41211792,0.00067887
451.34092529,0.00100271
453.26973267,0.00084963
455.19854004,0.00076822
457.12734741,0.00124519
459.05615479,0.00077452
460.98496216,0.00070878
462.91376953,0.00109876
464.84257690,0.00072466
466.77138428,0.00062822
468.70019165,0.00093541
470.62899902,0.00078414
472.55780640,0.00111219
474.48661377,0.00079648
476.41542114,0.00062058
478.34422852,0.00052260
480.27303589,0.00006406
482.20184326,0.00086208
484.13065063,0.00068111
486.05945801,0.00067981
487.98826538,0.00045429
489.91707275,0.00011193
491.84588013,0.00084605
493.77468750,0.00054113
495.70349487,0.00074761
497.63230225,0.00082712
499.56110962,0.00055012
501.48991699,0.00048747
503.41872437,0.00061914
505.34753174,0.00073957
507.27633911,0.00043069
509.20514648,0.00094221
511.13395386,0.00074751
513.06276123,0.00014194
514.99156860,0.00038931
516.92037598,0.00074019
518.84918335,0.00071989
520.77799072,0.00086734
522.70679810,0.00096730
524.63560547,0.00052389
526.56441284,0.00072408
528.49322021,0.00045345
530.42202759,0.00030165
532.35083496,0.00055351
534.27964233,0.00047143
536.20844971,0.00074728
538.13725708,0.00060399
540.06606445,0.00089109
541.99487183,0.00072498
543.92367920,0.00035814
545.85248657,0.00061441
547.78129395,0.00035362
549.71010132,0.00042493
551.63890869,0.00015680
553.56771606,0.00001559
555.49652344,0.00034567
557.42533081,0.00035715
559.35413818,0.00052409
561.28294556,0.00059194
563.21175293,0.00040160
565.14056030,0.00018703
567.06936768,0.00053873
568.99817505,0.00066903
570.92698242,0.00054988
572.85578979,0.00075518
574.78459717,0.00061113
576.71340454,0.00049344
578.64221191,0.00027412
580.57101929,0.00022394
582.49982666,0.00059094
584.42863403,0.00057413
586.35744141,0.00043548
588.28624878,0.00025315
590.21505615,-0.00000105
592.14386353,0.00038800
594.07267090,0.00067543
596.00147827,0.00044473
597.93028564,0.00032593
599.85909302,0.00024739
601.78790039,0.00082255
603.71670776,0.00055068
605.64551514,-0.00019135
607.57432251,0.00053432
609.50312988,0.00062160
611.43193726,0.00041003
613.36074463,0.00045600
615.28955200,0.00038547
617.21835938,0.00035171
619.14716675,0.00023137
621.07597412,0.00029392
623.00478149,0.00008096
624.93358887,0.00017900
626.86239624,0.00027613
628.79120361,0.00028469
630.72001099,0.00050262
632.64881836,0.00077936
634.57762573,0.00102545
636.50643311,0.00111886
638.43524048,0.00120798
640.36404785,0.00130223
642.29285522,0.00181276
644.22166260,0.00172549
646.15046997,0.00168871
648.07927734,0.00202129
650.00808472,0.00155207
651.93689209,0.00174666
653.86569946,0.00257140
655.79450684,0.00253037
657.72331421,0.00233220
659.65212158,0.00261056
661.58092896,0.00249418
663.50973633,0.00285329
665.43854370,0.00302114
667.36735107,0.00243432
669.29615845,0.00292794
671.22496582,0.00347048
673.15377319,0.00373035
675.08258057,0.00361842
677.01138794,0.00361096
678.94019531,0.00395599
680.86900269,0.00395578
682.79781006,0.00422652
684.72661743,0.00374665
686.65542480,0.00363835
688.58423218,0.00381323
690.51303955,0.00390680
692.44184692,0.00442739
694.37065430,0.00434641
696.29946167,0.00546962
698.22826904,0.00643015
700.15707642,0.00633985
702.08588379,0.00639914
704.01469116,0.00599572
705.94349854,0.00541258
707.87230591,0.00466117
709.80111328,0.00382956
711.72992065,0.00256195
713.65872803,0.00167163
715.58753540,0.00085617
717.51634277,0.00023925
719.44515015,0.00058800
721.37395752,0.00036926
723.30276489,0.00035026
725.23157227,0.00021037
727.16037964,0.00003244
729.08918701,0.00043304
731.01799438,0.00010306
732.94680176,-0.00007144
734.87560913,0.00021798
736.80441650,0.00019203
738.73322388,0.00037115
740.66203125,0.00033770
742.59083862,0.00004776
744.51964600,0.00014016
746.44845337,0.00031063
748.37726074,0.00049564
750.30606812,0.00053265
752.23487549,0.00051344
754.16368286,0.00026122
756.09249023,0.00014227
758.02129761,0.00038285
759.95010498,0.00042523
761.87891235,0.00036003
763.80771973,0.00023048
765.73652710,0.00023349
767.66533447,0.00041952
769.59414185,0.00042932
771.52294922,0.00038731
773.45175659,0.00035955
775.38056396,0.00026042
777.30937134,0.00047314
779.23817871,0.00040917
781.16698608,0.00028805
783.09579346,0.00053544
785.02460083,0.00066107
786.95340820,0.00075544
788.88221558,0.00038728
790.81102295,0.00040792
792.73983032,0.00068599
794.66863770,0.00064334
796.59744507,0.00058943
798.52625244,0.00080604
800.45505981,0.00143037
802.38386719,0.00110174
804.31267456,0.00090041
806.24148193,0.00088169
808.17028931,0.00048177
810.09909668,0.00074740
812.02790405,0.00040049
813.95671143,0.00028569
815.88551880,0.00053419
817.81432617,0.00030586
819.74313354,0.00030083
821.67194092,0.00025482
823.60074829,0.00057668
825.52955566,0.00060507
827.45836304,0.00079616
829.38717041,0.00138074
831.31597778,0.00127391
833.24478516,0.00171510
835.17359253,0.00203102
837.10239990,0.00203560
839.03120728,0.00233313
840.96001465,0.00203133
842.88882202,0.00193632
844.81762939,0.00158418
846.74643677,0.00114147
848.67524414,0.00149463
850.60405151,0.00136341
852.53285889,0.00113933
854.46166626,0.00111991
856.39047363,0.00088741
858.31928101,0.00090075
860.24808838,0.00058373
862.17689575,0.00026421
864.10570313,0.00054502
866.03451050,0.00054624
867.96331787,0.00062702
869.89212524,0.00072570
871.82093262,0.00040271
873.74973999,0.00041623
875.67854736,0.00051374
877.60735474,0.00044971
879.53616211,0.00047485
881.46496948,0.00058952
883.39377686,0.00054481
885.32258423,0.00031073
887.25139160,0.00033610
889.18019897,0.00062109
891.10900635,0.00057048
893.03781372,0.00032686
894.96662109,0.00047884
896.89542847,0.00023526
898.82423584,0.00029820
900.75304321,0.00072348
902.68185059,0.00054021
904.61065796,0.00075966
906.53946533,0.00057005
908.46827271,0.00063576
910.39708008,0.00106733
912.32588745,0.00075828
914.25469482,0.00104149
916.18350220,0.00127850
918.11230957,0.00143647
920.04111694,0.00158123
921.96992432,0.00184479
923.89873169,0.00205658
925.82753906,0.00185485
927.75634644,0.00247864
929.68515381,0.00248238
931.61396118,0.00253148
933.54276855,0.00292114
935.47157593,0.00294436
937.40038330,0.00339391
939.32919067,0.00318693
941.25799805,0.00359004
943.18680542,0.00395361
945.11561279,0.00350643
947.04442017,0.00352660
948.97322754,0.00352104
950.90203491,0.00365436
952.83084229,0.00354719
954.75964966,0.00357133
956.68845703,0.00348915
958.61726440,0.00343698
960.54607178,0.00380803
962.47487915,0.00345123
964.40368652,0.00358583
966.33249390,0.00397233
968.26130127,0.00392150
970.19010864,0.00424852
972.11891602,0.00453485
974.04772339,0.00481459
975.97653076,0.00500012
977.90533813,0.00546876
979.83414551,0.00625874
981.76295288,0.00656799
983.69176025,0.00723432
985.62056763,0.00804703
987.54937500,0.00867215
989.47818237,0.00995243
991.40698975,0.01116192
993.33579712,0.01231148
995.26460449,0.01336186
997.19341187,0.01423783
999.12221924,0.01566483
1001.05102661,0.01674550
1002.97983398,0.01786326
1004.90864136,0.01943196
1006.83744873,0.02058974
1008.76625610,0.02170946
1010.69506348,0.02303074
1012.62387085,0.02442643
1014.55267822,0.02563566
1016.48148560,0.02666163
1018.41029297,0.02805778
1020.33910034,0.02941530
1022.26790771,0.03053347
1024.19671509,0.03198066
1026.12552246,0.03320418
1028.05432983,0.03429512
1029.98313721,0.03527733
1031.91194458,0.03604840
1033.84075195,0.03695939
1035.76955933,0.03717986
1037.69836670,0.03764144
1039.62717407,0.03803009
1041.55598145,0.03780659
1043.48478882,0.03773374
1045.41359619,0.03710293
1047.34240356,0.03672832
1049.27121094,0.03615933
1051.20001831,0.03558196
1053.12882568,0.03513595
1055.05763306,0.03410303
1056.98644043,0.03359760
1058.91524780,0.03266234
1060.84405518,0.03176887
1062.77286255,0.03089459
1064.70166992,0.02949902
1066.63047729,0.02860983
1068.55928467,0.02744303
1070.48809204,0.02623290
1072.41689941,0.02490847
1074.34570679,0.02357588
1076.27451416,0.02291955
1078.20332153,0.02201032
1080.13212891,0.02071282
1082.06093628,0.01976238
1083.98974365,0.01879321
1085.91855103,0.01776889
1087.84735840,0.01716331
1089.77616577,0.01638755
1091.70497314,0.01562349
1093.63378052,0.01470432
1095.56258789,0.01408236
1097.49139526,0.01397406
1099.42020264,0.01323265
1101.34901001,0.01295160
1103.27781738,0.01305282
1105.20662476,0.01260518
1107.13543213,0.01205979
1109.06423950,0.01186695
1110.99304687,0.01179316
1112.92185425,0.01154693
1114.85066162,0.01164931
1116.77946899,0.01175437
1118.70827637,0.01154753
1120.63708374,0.01141563
1122.56589111,0.01184106
1124.49469849,0.01204937
1126.42350586,0.01194500
1128.35231323,0.01238077
1130.28112061,0.01262753
1132.20992798,0.01292025
1134.13873535,0.01335701
1136.06754272,0.01399218
1137.99635010,0.01491246
1139.92515747,0.01557162
1141.85396484,0.01635700
1143.78277222,0.01751821
1145.71157959,0.01880737
1147.64038696,0.01988268
1149.56919434,0.02105727
1151.49800171,0.02203915
1153.42680908,0.02300857
1155.35561646,0.02411771
1157.28442383,0.02492543
1159.21323120,0.02601647
1161.14203857,0.02711876
1163.07084595,0.02815195
1164.99965332,0.02894914
1166.92846069,0.02997661
1168.85726807,0.03129824
1170.78607544,0.03242033
1172.71488281,0.03369213
1174.64369019,0.03473214
1176.57249756,0.03636441
1178.50130493,0.03772752
1180.43011230,0.03875348
1182.35891968,0.04066285
1184.28772705,0.04243619
1186.21653442,0.04435363
1188.14534180,0.04630540
1190.07414917,0.04836936
1192.00295654,0.05070098
1193.93176392,0.05303194
1195.86057129,0.05548079
1197.78937866,0.05798300
1199.71818604,0.06061297
1201.64699341,0.06283566
1203.57580078,0.06549890
1205.50460815,0.06837073
1207.43341553,0.07054059
1209.36222290,0.07285321
1211.29103027,0.07529061
1213.21983765,0.07745290
1215.14864502,0.07934339
1217.07745239,0.08103630
1219.00625977,0.08242368
1220.93506714,0.08378427
1222.86387451,0.08467123
1224.79268188,0.08525915
1226.72148926,0.08617227
1228.65029663,0.08648844
1230.57910400,0.08690649
1232.50791138,0.08732741
1234.43671875,0.08721408
1236.36552612,0.08732165
1238.29433350,0.08701023
1240.22314087,0.08668704
1242.15194824,0.08644479
1244.08075562,0.08577687
1246.00956299,0.08563828
1247.93837036,0.08532616
1249.86717773,0.08444838
1251.79598511,0.08377290
1253.72479248,0.08284974
1255.65359985,0.08191451
1257.58240723,0.08089755
1259.51121460,0.07941307
1261.44002197,0.07828750
1263.36882935,0.07738230
1265.29763672,0.07615746
1267.22644409,0.07526936
1269.15525146,0.07447240
1271.08405884,0.07321373
1273.01286621,0.07192364
1274.94167358,0.07048766
1276.87048096,0.06919191
1278.79928833,0.06773559
1280.72809570,0.06635072
1282.65690308,0.06539726
1284.58571045,0.06393704
1286.51451782,0.06281014
1288.44332520,0.06165703
1290.37213257,0.06075510
1292.30093994,0.06038912
1294.22974731,0.05963326
1296.15855469,0.05938297
1298.08736206,0.05924390
1300.01616943,0.05945504
1301.94497681,0.05969755
1303.87378418,0.06010757
1305.80259155,0.06080509
1307.73139893,0.06113345
1309.66020630,0.06244504
1311.58901367,0.06344315
1313.51782104,0.06456867
1315.44662842,0.06636421
1317.37543579,0.06758298
1319.30424316,0.06924959
1321.23305054,0.07151864
1323.16185791,0.07387888
1325.09066528,0.07573049
1327.01947266,0.07796132
1328.94828003,0.08014128
1330.87708740,0.08195722
1332.80589478,0.08403780
1334.73470215,0.08544248
1336.66350952,0.08640745
1338.59231689,0.08576128
1340.52112427,0.08672117
1342.44993164,0.09030153
1344.37873901,0.09061736
1346.30754639,0.09039891
1348.23635376,0.09058718
1350.16516113,0.08942971
1352.09396851,0.08961795
1354.02277588,0.08863197
1355.95158325,0.08739808
1357.88039062,0.08736651
1359.80919800,0.08574761
1361.73800537,0.08223383
1363.66681274,0.08114623
1365.59562012,0.08445002
1367.52442749,0.08291812
1369.45323486,0.08174997
1371.38204224,0.08312254
1373.31084961,0.07875684
1375.23965698,0.07913971
1377.16846436,0.08150680
1379.09727173,0.08081517
1381.02607910,0.08084552
1382.95488647,0.08068576
1384.88369385,0.08064318
1386.81250122,0.07703026
1388.74130859,0.07823917
1390.67011597,0.08455882
1392.59892334,0.08210124
1394.52773071,0.07734100
1396.45653809,0.08095039
1398.38534546,0.08077814
1400.31415283,0.08035793
1402.24296021,0.08640574
1404.17176758,0.08184543
1406.10057495,0.08227588
1408.02938232,0.08557703
1409.95818970,0.08232659
1411.88699707,0.08406744
1413.81580444,0.08099957
1415.74461182,0.08221389
1417.67341919,0.07477759
1419.60222656,0.06685649
1421.53103394,0.07661458
1423.45984131,0.07406040
1425.38864868,0.07174661
1427.31745605,0.07286750
1429.24626343,0.06733847
1431.17507080,0.06537247
1433.10387817,0.06615100
1435.03268555,0.06054539
1436.96149292,0.05140612
1438.89030029,0.05811321
1440.81910767,0.05933846
1442.74791504,0.05485494
1444.67672241,0.05772188
1446.60552979,0.05293591
1448.53433716,0.05367614
1450.46314453,0.05551035
1452.39195190,0.05652788
1454.32075928,0.05858809
1456.24956665,0.04858078
1458.17837402,0.05075089
1460.10718140,0.06713235
1462.03598877,0.07150747
1463.96479614,0.07104154
1465.89360352,0.07408829
1467.82241089,0.08426584
1469.75121826,0.09045526
1471.68002563,0.08106883
1473.60883301,0.08524763
1475.53764038,0.09691869
1477.46644775,0.10420445
1479.39525513,0.11415635
1481.32406250,0.11592306
1483.25286987,0.12307149
1485.18167725,0.12695432
1487.11048462,0.12514058
1489.03929199,0.12470344
1490.96809937,0.12571824
1492.89690674,0.14523798
1494.82571411,0.14194223
1496.75452148,0.12841135
1498.68332886,0.14438397
1500.61213623,0.14877413
1502.54094360,0.15912893
1504.46975098,0.15061361
1506.39855835,0.11111338
1508.32736572,0.13456917
1510.25617310,0.15712702
1512.18498047,0.15190575
1514.11378784,0.16401067
1516.04259521,0.14864698
1517.97140259,0.15461116
1519.90020996,0.14918363
1521.82901733,0.13011722
1523.75782471,0.15741876
1525.68663208,0.15435684
1527.61543945,0.15401274
1529.54424683,0.16905889
1531.47305420,0.16252026
1533.40186157,0.14934595
1535.33066895,0.15763640
1537.25947632,0.16788858
1539.18828369,0.12153544
1541.11709106,0.12677658
1543.04589844,0.15058003
1544.97470581,0.14455134
1546.90351318,0.16922465
1548.83232056,0.15802152
1550.76112793,0.16252530
1552.68993530,0.16100800
1554.61874268,0.14668596
1556.54755005,0.15585181
1558.47635742,0.11126932
1560.40516479,0.11932160
1562.33397217,0.16679591
1564.26277954,0.15755883
1566.19158691,0.16128750
1568.12039429,0.15911791
1570.04920166,0.14091673
1571.97800903,0.16128552
1573.90681641,0.16226767
1575.83562378,0.12913558
1577.76443115,0.14470607
1579.69323853,0.16193700
1581.62204590,0.15434867
1583.55085327,0.15731987
1585.47966064,0.15418996
1587.40846802,0.15407375
1589.33727539,0.15204385
1591.26608276,0.15073985
1593.19489014,0.14974886
1595.12369751,0.14721757
1597.05250488,0.14784445
1598.98131226,0.14571272
1600.91011963,0.14534003
1602.83892700,0.14162457
1604.76773437,0.14260885
1606.69654175,0.13934276
1608.62534912,0.13759246
1610.55415649,0.13595378
1612.48296387,0.13568409
1614.41177124,0.13612294
1616.34057861,0.11099300
1618.26938599,0.11915369
1620.19819336,0.13678291
1622.12700073,0.12108955
1624.05580811,0.12099104
1625.98461548,0.12580715
1627.91342285,0.12484469
1629.84223022,0.12372133
1631.77103760,0.13151395
1633.69984497,0.12158927
1635.62865234,0.10131034
1637.55745972,0.11736715
1639.48626709,0.12931290
1641.41507446,0.12698776
1643.34388184,0.13072300
1645.27268921,0.11909269
1647.20149658,0.10586455
1649.13030396,0.13208117
1651.05911133,0.12592450
1652.98791870,0.08291090
1654.91672607,0.11270705
1656.84553345,0.14133221
1658.77434082,0.13677827
1660.70314819,0.14168704
1662.63195557,0.13050789
1664.56076294,0.13866746
1666.48957031,0.14995371
1668.41837769,0.13325299
1670.34718506,0.13092430
1672.27599243,0.14888148
1674.20479980,0.13921125
1676.13360718,0.13498449
1678.06241455,0.15585861
1679.99122192,0.15199265
1681.92002930,0.15164745
1683.84883667,0.12524992
1685.77764404,0.12498311
1687.70645142,0.17119339
1689.63525879,0.15066803
1691.56406616,0.16591136
1693.49287354,0.17043881
1695.42168091,0.12661889
1697.35048828,0.15637508
1699.27929565,0.13916761
1701.20810303,0.12667158
1703.13691040,0.17189524
1705.06571777,0.15884192
1706.99452515,0.16134882
1708.92333252,0.17543735
1710.85213989,0.16951904
1712.78094727,0.17346382
1714.70975464,0.16205117
1716.63856201,0.14654030
1718.56736938,0.14482996
1720.49617676,0.17149319
1722.42498413,0.17820796
1724.35379150,0.16668107
1726.28259888,0.18105480
1728.21140625,0.16835812
1730.14021362,0.17031735
1732.06902100,0.16605392
1733.99782837,0.12843111
1735.92663574,0.15842783
1737.85544312,0.17539768
1739.78425049,0.15691620
1741.71305786,0.17067689
1743.64186523,0.17374125
1745.57067261,0.17398351
1747.49947998,0.17580497
1749.42828735,0.16870157
1751.35709473,0.16208658
1753.28590210,0.17908405
1755.21470947,0.18730123
1757.14351685,0.17151022
1759.07232422,0.18815872
1761.00113159,0.17770362
1762.92993896,0.17159995
1764.85874634,0.19564311
1766.78755371,0.17689922
1768.71636108,0.17884044
1770.64516846,0.17772433
1772.57397583,0.16028591
1774.50278320,0.17856972
1776.43159058,0.18818773
1778.36039795,0.18577945
1780.28920532,0.18373820
1782.21801270,0.18535212
1784.14682007,0.18505773
1786.07562744,0.18153752
1788.00443481,0.19076826
1789.93324219,0.18613398
1791.86204956,0.16912583
1793.79085693,0.17596419
1795.71966431,0.18858330
1797.64847168,0.18617100
1799.57727905,0.18342033
1801.50608643,0.18048584
1803.43489380,0.18611000
1805.36370117,0.19021188
1807.29250854,0.18770215
1809.22131592,0.18847629
1811.15012329,0.18343213
1813.07893066,0.18897423
1815.00773804,0.18983623
1816.93654541,0.18756653
1818.86535278,0.18934152
1820.79416016,0.18844169
1822.72296753,0.19113332
1824.65177490,0.17912245
1826.58058228,0.18524893
1828.50938965,0.18547764
1830.43819702,0.17447555
1832.36700439,0.18940464
1834.29581177,0.18803816
1836.22461914,0.18786216
1838.15342651,0.18708649
1840.08223389,0.18816784
1842.01104126,0.18844092
1843.93984863,0.16791394
1845.86865601,0.17847924
1847.79746338,0.18781440
1849.72627075,0.18385375
1851.65507812,0.18907529
1853.58388550,0.18560569
1855.51269287,0.18728781
1857.44150024,0.18606967
1859.37030762,0.18501250
1861.29911499,0.18613029
1863.22792236,0.18399407
1865.15672974,0.18581700
1867.08553711,0.17988816
1869.01434448,0.17257819
1870.94315186,0.17903656
1872.87195923,0.18549380
1874.80076660,0.18253386
1876.72957397,0.18363771
1878.65838135,0.18295734
1880.58718872,0.18182130
1882.51599609,0.18319377
1884.44480347,0.18028080
1886.37361084,0.18283701
1888.30241821,0.17885274
1890.23122559,0.17539024
1892.16003296,0.18154141
1894.08884033,0.17908406
1896.01764771,0.17818867
1897.94645508,0.18008429
1899.87526245,0.17921889
1901.80406982,0.17951259
1903.73287720,0.17836940
1905.66168457,0.17885253
1907.59049194,0.17727055
1909.51929932,0.17615426
1911.44810669,0.17691344
1913.37691406,0.17711771
1915.30572144,0.17844850
1917.23452881,0.17092320
1919.16333618,0.17094269
1921.09214355,0.17703563
1923.02095093,0.17169905
1924.94975830,0.17494608
1926.87856567,0.17665091
1928.80737305,0.17432944
1930.73618042,0.17620848
1932.66498779,0.17390293
1934.59379517,0.17535347
1936.52260254,0.17400073
1938.45140991,0.17445228
1940.38021729,0.17429700
1942.30902466,0.16895773
1944.23783203,0.17203569
1946.16663940,0.17338517
1948.09544678,0.17286605
1950.02425415,0.17338121
1951.95306152,0.17275308
1953.88186890,0.17294060
1955.81067627,0.17201892
1957.73948364,0.17253879
1959.66829102,0.17210995
1961.59709839,0.17148086
1963.52590576,0.17198205
1965.45471313,0.17091921
1967.38352051,0.16905880
1969.31232788,0.17030448
1971.24113525,0.17132950
1973.16994263,0.17000803
1975.09875000,0.17058763
1977.02755737,0.16968492
1978.95636475,0.16963136
1980.88517212,0.16952941
1982.81397949,0.16876033
1984.74278687,0.16928059
1986.67159424,0.16770679
1988.60040161,0.16786879
1990.52920898,0.16631334
1992.45801636,0.16432928
1994.38682373,0.16651377
1996.31563110,0.16675183
1998.24443848,0.16578789
2000.17324585,0.16582119
2002.10205322,0.16547456
2004.03086060,0.16502501
2005.95966797,0.16449976
2007.88847534,0.16371921
2009.81728271,0.16356125
2011.74609009,0.16319215
2013.67489746,0.16299304
2015.60370483,0.16195215
2017.53251221,0.16035892
2019.46131958,0.16115525
2021.39012695,0.16094166
2023.31893433,0.16041800
2025.24774170,0.16021259
2027.17654907,0.15954995
2029.10535645,0.15958491
2031.03416382,0.15872002
2032.96297119,0.15842396
2034.89177856,0.15803573
2036.82058594,0.15753247
2038.74939331,0.15726191
2040.67820068,0.15630625
2042.60700806,0.15611336
2044.53581543,0.15604164
2046.46462280,0.15546867
2048.39343018,0.15494519
2050.32223755,0.15480858
2052.25104492,0.15429589
2054.17985229,0.15387361
2056.10865967,0.15366240
2058.03746704,0.15308654
2059.96627441,0.15279211
2061.89508179,0.15251477
2063.82388916,0.15181321
2065.75269653,0.15114415
2067.68150391,0.15141255
2069.61031128,0.15105072
2071.53911865,0.15058333
2073.46792603,0.15038845
2075.39673340,0.14973779
2077.32554077,0.14970824
2079.25434814,0.14922842
2081.18315552,0.14913744
2083.11196289,0.14884296
2085.04077026,0.14824316
2086.96957764,0.14817944
2088.89838501,0.14747894
2090.82719238,0.14721768
2092.75599976,0.14716321
2094.68480713,0.14688012
2096.61361450,0.14631185
2098.54242187,0.14603946
2100.47122925,0.14585492
2102.40003662,0.14542130
2104.32884399,0.14535907
2106.25765137,0.14488038
2108.18645874,0.14472204
2110.11526611,0.14455146
2112.04407349,0.14415921
2113.97288086,0.14396828
2115.90168823,0.14383009
2117.83049561,0.14353830
2119.75930298,0.14316106
2121.68811035,0.14319807
2123.61691772,0.14282563
2125.54572510,0.14273150
2127.47453247,0.14251274
2129.40333984,0.14216150
2131.33214722,0.14208345
2133.26095459,0.14173836
2135.18976196,0.14165604
2137.11856934,0.14133129
2139.04737671,0.14126317
2140.97618408,0.14102668
2142.90499146,0.14094606
2144.83379883,0.14097463
2146.76260620,0.14048578
2148.69141357,0.14050394
2150.62022095,0.14023638
2152.54902832,0.14002949
2154.47783569,0.13986199
2156.40664307,0.13971925
2158.33545044,0.13961503
2160.26425781,0.13931766
2162.19306519,0.13921776
2164.12187256,0.13899589
2166.05067993,0.13908139
2167.97948730,0.13879275
2169.90829468,0.13861035
2171.83710205,0.13865131
2173.76590942,0.13841161
2175.69471680,0.13836697
2177.62352417,0.13819896
2179.55233154,0.13803852
2181.48113892,0.13781492
2183.40994629,0.13781880
2185.33875366,0.13764164
2187.26756104,0.13758855
2189.19636841,0.13748029
2191.12517578,0.13712877
2193.05398315,0.13722071
2194.98279053,0.13693556
2196.91159790,0.13688365
2198.84040527,0.13667902
2200.76921265,0.13657781
2202.69802002,0.13663650
2204.62682739,0.13621703
2206.55563477,0.13626474
2208.48444214,0.13605359
2210.41324951,0.13590619
2212.34205688,0.13587725
2214.27086426,0.13564922
2216.19967163,0.13556007
2218.12847900,0.13546178
2220.05728638,0.13524869
2221.98609375,0.13508904
2223.91490112,0.13506800
2225.84370850,0.13473918
2227.77251587,0.13474178
2229.70132324,0.13454373
2231.63013062,0.13426028
2233.55893799,0.13406113
2235.48774536,0.13380848
2237.41655273,0.13392651
2239.34536011,0.13348812
2241.27416748,0.13348170
2243.20297485,0.13338903
2245.13178223,0.13304459
2247.06058960,0.13309345
2248.98939697,0.13276318
2250.91820435,0.13262329
2252.84701172,0.13238190
2254.77581909,0.13230610
2256.70462646,0.13217151
2258.63343384,0.13190669
2260.56224121,0.13183650
2262.49104858,0.13159031
2264.41985596,0.13149297
2266.34866333,0.13132913
2268.27747070,0.13117409
2270.20627808,0.13091990
2272.13508545,0.13079260
2274.06389282,0.13084589
2275.99270020,0.13081647
2277.92150757,0.13063425
2279.85031494,0.13049935
2281.77912231,0.13053150
2283.70792969,0.13022068
2285.63673706,0.13000576
2287.56554443,0.12971866
2289.49435181,0.12959012
2291.42315918,0.12933287
2293.35196655,0.12874776
2295.28077393,0.12846650
2297.20958130,0.12804165
2299.13838867,0.12770587
2301.06719604,0.12719563
2302.99600342,0.12665904
2304.92481079,0.12593803
2306.85361816,0.12523533
2308.78242554,0.12454617
2310.71123291,0.12331822
2312.64004028,0.12222019
2314.56884766,0.12083745
2316.49765503,0.11951998
2318.42646240,0.11787617
2320.35526978,0.11624851
2322.28407715,0.11468396
2324.21288452,0.11291271
2326.14169189,0.11194211
2328.07049927,0.11049281
2329.99930664,0.10914919
2331.92811401,0.10822257
2333.85692139,0.10770082
2335.78572876,0.10724026
2337.71453613,0.10697598
2339.64334351,0.10726742
2341.57215088,0.10732622
2343.50095825,0.10905935
2345.42976562,0.11114752
2347.35857300,0.11580214
2349.28738037,0.11993095
2351.21618774,0.11558887
2353.14499512,0.10955197
2355.07380249,0.10546777
2357.00260986,0.10210603
2358.93141724,0.10010408
2360.86022461,0.09898733
2362.78903198,0.09894316
2364.71783936,0.09932476
2366.64664673,0.10089833
2368.57545410,0.10293739
2370.50426147,0.10547916
2372.43306885,0.10860481
2374.36187622,0.11165103
2376.29068359,0.11477665
2378.21949097,0.11726329
2380.14829834,0.11942632
2382.07710571,0.12079845
2384.00591309,0.12160064
2385.93472046,0.12198864
2387.86352783,0.12205044
2389.79233521,0.12208079
2391.72114258,0.12183136
2393.64994995,0.12172382
2395.57875732,0.12135409
2397.50756470,0.12128501
2399.43637207,0.12119393
2401.36517944,0.12096258
2403.29398682,0.12097773
2405.22279419,0.12070372
2407.15160156,0.12064677
2409.08040894,0.12049048
2411.00921631,0.12032530
2412.93802368,0.12017910
2414.86683105,0.11995988
2416.79563843,0.11979323
2418.72444580,0.11955148
2420.65325317,0.11952867
2422.58206055,0.11941084
2424.51086792,0.11925203
2426.43967529,0.11894776
2428.36848267,0.11877467
2430.29729004,0.11883222
2432.22609741,0.11849347
2434.15490479,0.11832231
2436.08371216,0.11836171
2438.01251953,0.11813529
2439.94132690,0.11793359
2441.87013428,0.11775991
2443.79894165,0.11751619
2445.72774902,0.11740522
2447.65655640,0.11725809
2449.58536377,0.11709350
2451.51417114,0.11694257
2453.44297852,0.11685845
2455.37178589,0.11669004
2457.30059326,0.11643769
2459.22940063,0.11649377
2461.15820801,0.11622304
2463.08701538,0.11593474
2465.01582275,0.11587717
2466.94463013,0.11569706
2468.87343750,0.11558937
2470.80224487,0.11537594
2472.73105225,0.11517407
2474.65985962,0.11495004
2476.58866699,0.11485334
2478.51747437,0.11471590
2480.44628174,0.11459668
2482.37508911,0.11445995
2484.30389648,0.11419882
2486.23270386,0.11416815
2488.16151123,0.11388539
2490.09031860,0.11381282
2492.01912598,0.11363864
2493.94793335,0.11330557
2495.87674072,0.11323650
2497.80554810,0.11305664
2499.73435547,0.11301640
2501.66316284,0.11277197
2503.59197021,0.11274669
2505.52077759,0.11253104
2507.44958496,0.11227584
2509.37839233,0.11233556
2511.30719971,0.11198200
2513.23600708,0.11197537
2515.16481445,0.11175202
2517.09362183,0.11152010
2519.02242920,0.11154591
2520.95123657,0.11126772
2522.88004395,0.11107945
2524.80885132,0.11090454
2526.73765869,0.11083598
2528.66646606,0.11059447
2530.59527344,0.11047879
2532.52408081,0.11039525
2534.45288818,0.11015384
2536.38169556,0.11006407
2538.31050293,0.10986075
2540.23931030,0.10971364
2542.16811768,0.10954758
2544.09692505,0.10942479
2546.02573242,0.10923686
2547.95453979,0.10906684
2549.88334717,0.10892442
2551.81215454,0.10875836
2553.74096191,0.10862610
2555.66976929,0.10833121
2557.59857666,0.10831553
2559.52738403,0.10808431
2561.45619141,0.10784955
2563.38499878,0.10778496
2565.31380615,0.10751946
2567.24261353,0.10741813
2569.17142090,0.10713872
2571.10022827,0.10712291
2573.02903564,0.10711218
2574.95784302,0.10679638
2576.88665039,0.10666588
2578.81545776,0.10644084
2580.74426514,0.10629374
2582.67307251,0.10632981
2584.60187988,0.10618736
2586.53068726,0.10574034
2588.45949463,0.10559067
2590.38830200,0.10552620
2592.31710937,0.10526662
2594.24591675,0.10518862
2596.17472412,0.10498896
2598.10353149,0.10485510
2600.03233887,0.10462127
2601.96114624,0.10433421
2603.88995361,0.10432502
2605.81876099,0.10415520
2607.74756836,0.10391159
2609.67637573,0.10372305
2611.60518311,0.10366629
2613.53399048,0.10355422
2615.46279785,0.10322250
2617.39160522,0.10307522
2619.32041260,0.10296047
2621.24921997,0.10269558
2623.17802734,0.10252561
2625.10683472,0.10249074
2627.03564209,0.10239130
2628.96444946,0.10211721
2630.89325684,0.10187702
2632.82206421,0.10170949
2634.75087158,0.10153964
2636.67967895,0.10135484
2638.60848633,0.10116376
2640.53729370,0.10109081
2642.46610107,0.10091680
2644.39490845,0.10070686
2646.32371582,0.10055616
2648.25252319,0.10031258
2650.18133057,0.10014540
2652.11013794,0.09998427
2654.03894531,0.09989689
2655.96775269,0.09977056
2657.89656006,0.09948511
2659.82536743,0.09931964
2661.75417480,0.09919095
2663.68298218,0.09890278
2665.61178955,0.09862157
2667.54059692,0.09858280
2669.46940430,0.09843279
2671.39821167,0.09821856
2673.32701904,0.09807511
2675.25582642,0.09786902
2677.18463379,0.09771527
2679.11344116,0.09747083
2681.04224854,0.09728599
2682.97105591,0.09710677
2684.89986328,0.09689845
2686.82867065,0.09675168
2688.75747803,0.09655504
2690.68628540,0.09637278
2692.61509277,0.09624471
2694.54390015,0.09611626
2696.47270752,0.09581923
2698.40151489,0.09560803
2700.33032227,0.09532380
2702.25912964,0.09514292
2704.18793701,0.09511968
2706.11674438,0.09473772
2708.04555176,0.09465101
2709.97435913,0.09459434
2711.90316650,0.09432197
2713.83197388,0.09420498
2715.76078125,0.09403661
2717.68958862,0.09383518
2719.61839600,0.09355193
2721.54720337,0.09334058
2723.47601074,0.09316635
2725.40481812,0.09296730
2727.33362549,0.09272674
2729.26243286,0.09254648
2731.19124023,0.09241416
2733.12004761,0.09220539
2735.04885498,0.09208056
2736.97766235,0.09180538
2738.90646973,0.09161916
2740.83527710,0.09144937
2742.76408447,0.09115329
2744.69289185,0.09106262
2746.62169922,0.09091602
2748.55050659,0.09057013
2750.47931396,0.09031480
2752.40812134,0.09024677
2754.33692871,0.09002259
2756.26573608,0.08985172
2758.19454346,0.08962151
2760.12335083,0.08937748
2762.05215820,0.08930294
2763.98096558,0.08899842
2765.90977295,0.08889674
2767.83858032,0.08863043
2769.76738770,0.08827809
2771.69619507,0.08817764
2773.62500244,0.08787891
2775.55380981,0.08769393
2777.48261719,0.08742628
2779.41142456,0.08716796
2781.34023193,0.08703689
2783.26903931,0.08683652
2785.19784668,0.08663409
2787.12665405,0.08633089
2789.05546143,0.08615139
2790.98426880,0.08596417
2792.91307617,0.08563991
2794.84188354,0.08547316
2796.77069092,0.08523642
2798.69949829,0.08489686
2800.62830566,0.08481925
2802.55711304,0.08451976
2804.48592041,0.08422594
2806.41472778,0.08413684
2808.34353516,0.08375039
2810.27234253,0.08358900
2812.20114990,0.08334274
2814.12995728,0.08303852
2816.05876465,0.08293855
2817.98757202,0.08262185
2819.91637939,0.08243722
2821.84518677,0.08224832
2823.77399414,0.08190591
2825.70280151,0.08162294
2827.63160889,0.08145710
2829.56041626,0.08112352
2831.48922363,0.08082327
2833.41803101,0.08069810
2835.34683838,0.08030345
2837.27564575,0.08005884
2839.20445312,0.07978773
2841.13326050,0.07937748
2843.06206787,0.07906112
2844.99087524,0.07854512
2846.91968262,0.07796960
2848.84848999,0.07748392
2850.77729736,0.07711536
2852.70610474,0.07697363
2854.63491211,0.07691053
2856.56371948,0.07655233
2858.49252686,0.07629128
2860.42133423,0.07613787
2862.35014160,0.07597151
2864.27894897,0.07592458
2866.20775635,0.07557658
2868.13656372,0.07532637
2870.06537109,0.07511505
2871.99417847,0.07485557
2873.92298584,0.07464841
2875.85179321,0.07436051
2877.78060059,0.07419442
2879.70940796,0.07392196
2881.63821533,0.07376003
2883.56702270,0.07351264
2885.49583008,0.07316829
2887.42463745,0.07303016
2889.35344482,0.07280343
2891.28225220,0.07244383
2893.21105957,0.07208341
2895.13986694,0.07185922
2897.06867432,0.07150161
2898.99748169,0.07124682
2900.92628906,0.07095515
2902.85509644,0.07054825
2904.78390381,0.07033447
2906.71271118,0.06997219
2908.64151855,0.06963429
2910.57032593,0.06915043
2912.49913330,0.06869987
2914.42794067,0.06827854
2916.35674805,0.06781057
2918.28555542,0.06761469
2920.21436279,0.06722093
2922.14317017,0.06686465
2924.07197754,0.06658789
2926.00078491,0.06642960
2927.92959229,0.06629403
2929.85839966,0.06598604
2931.78720703,0.06589934
2933.71601440,0.06565903
2935.64482178,0.06539397
2937.57362915,0.06526504
2939.50243652,0.06512231
2941.43124390,0.06495441
2943.36005127,0.06467125
2945.28885864,0.06447915
2947.21766602,0.06425720
2949.14647339,0.06393390
2951.07528076,0.06355160
2953.00408813,0.06320685
2954.93289551,0.06296006
2956.86170288,0.06258314
2958.79051025,0.06213306
2960.71931763,0.06191939
2962.64812500,0.06172110
2964.57693237,0.06133601
2966.50573975,0.06102793
2968.43454712,0.06076867
2970.36335449,0.06074481
2972.29216187,0.06070478
2974.22096924,0.06040534
2976.14977661,0.06030338
2978.07858398,0.06011991
2980.00739136,0.05978388
2981.93619873,0.05960594
2983.86500610,0.05941831
2985.79381348,0.05914813
2987.72262085,0.05887846
2989.65142822,0.05858525
2991.58023560,0.05829628
2993.50904297,0.05801020
2995.43785034,0.05774318
2997.36665771,0.05744044
2999.29546509,0.05705050
3001.22427246,0.05677234
3003.15307983,0.05642764
3005.08188721,0.05607897
3007.01069458,0.05586748
3008.93950195,0.05562231
3010.86830933,0.05522078
3012.79711670,0.05468704
3014.72592407,0.05433955
3016.65473145,0.05405064
3018.58353882,0.05385361
3020.51234619,0.05353569
3022.44115356,0.05317602
3024.36996094,0.05295724
3026.29876831,0.05246378
3028.22757568,0.05214962
3030.15638306,0.05173601
3032.08519043,0.05134916
3034.01399780,0.05116629
3035.94280518,0.05077845
3037.87161255,0.05056475
3039.80041992,0.05013384
3041.72922729,0.04975542
3043.65803467,0.04953583
3045.58684204,0.04919467
3047.51564941,0.04890180
3049.44445679,0.04843844
3051.37326416,0.04806972
3053.30207153,0.04786702
3055.23087891,0.04755598
3057.15968628,0.04710332
3059.08849365,0.04691251
3061.01730103,0.04656760
3062.94610840,0.04605551
3064.87491577,0.04582211
3066.80372314,0.04537489
3068.73253052,0.04514961
3070.66133789,0.04493683
3072.59014526,0.04456856
3074.51895264,0.04432493
3076.44776001,0.04395937
3078.37656738,0.04355132
3080.30537476,0.04313529
3082.23418213,0.04294087
3084.16298950,0.04260629
3086.09179687,0.04224856
3088.02060425,0.04194044
3089.94941162,0.04158757
3091.87821899,0.04139513
3093.80702637,0.04101167
3095.73583374,0.04071955
3097.66464111,0.04033937
3099.59344849,0.03999618
3101.52225586,0.03980684
3103.45106323,0.03952467
3105.37987061,0.03922286
3107.30867798,0.03866890
3109.23748535,0.03836127
3111.16629272,0.03812292
3113.09510010,0.03767941
3115.02390747,0.03732374
3116.95271484,0.03709486
3118.88152222,0.03675615
3120.81032959,0.03632438
3122.73913696,0.03614665
3124.66794434,0.03587209
3126.59675171,0.03563412
3128.52555908,0.03531875
3130.45436645,0.03505158
3132.38317383,0.03482589
3134.31198120,0.03441527
3136.24078857,0.03426948
3138.16959595,0.03383324
3140.09840332,0.03351517
3142.02721069,0.03335511
3143.95601807,0.03302237
3145.88482544,0.03278904
3147.81363281,0.03246941
3149.74244019,0.03225472
3151.67124756,0.03183028
3153.60005493,0.03169592
3155.52886230,0.03155924
3157.45766968,0.03106960
3159.38647705,0.03093835
3161.31528442,0.03065788
3163.24409180,0.03038814
3165.17289917,0.03015687
3167.10170654,0.02990039
3169.03051392,0.02974072
3170.95932129,0.02953492
3172.88812866,0.02933000
3174.81693604,0.02899149
3176.74574341,0.02876963
3178.67455078,0.02858486
3180.60335815,0.02841825
3182.53216553,0.02827159
3184.46097290,0.02808085
3186.38978027,0.02793908
3188.31858765,0.02770648
3190.24739502,0.02746017
3192.17620239,0.02732581
3194.10500977,0.02723582
3196.03381714,0.02699255
3197.96262451,0.02681985
3199.89143188,0.02669075
3201.82023926,0.02652949
3203.74904663,0.02646001
3205.67785400,0.02638405
3207.60666138,0.02618068
3209.53546875,0.02593825
3211.46427612,0.02603791
3213.39308350,0.02588352
3215.32189087,0.02566957
3217.25069824,0.02565267
3219.17950562,0.02543650
3221.10831299,0.02550698
3223.03712036,0.02540572
3224.96592773,0.02523866
3226.89473511,0.02527227
3228.82354248,0.02514113
3230.75234985,0.02501517
3232.68115723,0.02494076
3234.60996460,0.02496464
3236.53877197,0.02495336
3238.46757935,0.02490852
3240.39638672,0.02482832
3242.32519409,0.02480741
3244.25400146,0.02469660
3246.18280884,0.02460682
3248.11161621,0.02472651
3250.04042358,0.02468038
3251.96923096,0.02469711
3253.89803833,0.02466287
3255.82684570,0.02462303
3257.75565308,0.02458832
3259.68446045,0.02448749
3261.61326782,0.02451222
3263.54207520,0.02450405
3265.47088257,0.02452460
3267.39968994,0.02448509
3269.32849731,0.02449739
3271.25730469,0.02441547
3273.18611206,0.02439232
3275.11491943,0.02435137
3277.04372681,0.02420533
3278.97253418,0.02437371
3280.90134155,0.02437569
3282.83014893,0.02441019
3284.75895630,0.02440299
3286.68776367,0.02439388
3288.61657104,0.02438489
3290.54537842,0.02423500
3292.47418579,0.02433376
3294.40299316,0.02420207
3296.33180054,0.02423231
3298.26060791,0.02431952
3300.18941528,0.02428984
3302.11822266,0.02430887
3304.04703003,0.02420661
3305.97583740,0.02418169
3307.90464478,0.02405693
3309.83345215,0.02413377
3311.76225952,0.02416575
3313.69106689,0.02420297
3315.61987427,0.02419668
3317.54868164,0.02412463
3319.47748901,0.02419981
3321.40629639,0.02412440
3323.33510376,0.02421415
3325.26391113,0.02405772
3327.19271851,0.02408794
3329.12152588,0.02408951
3331.05033325,0.02398081
3332.97914062,0.02417429
3334.90794800,0.02396748
3336.83675537,0.02405078
3338.76556274,0.02400643
3340.69437012,0.02397549
3342.62317749,0.02410206
3344.55198486,0.02398245
3346.48079224,0.02414040
3348.40959961,0.02408066
3350.33840698,0.02402135
3352.26721436,0.02400097
3354.19602173,0.02406886
3356.12482910,0.02405797
3358.05363647,0.02399250
3359.98244385,0.02411356
3361.91125122,0.02402710
3363.84005859,0.02400886
3365.76886597,0.02401346
3367.69767334,0.02419356
3369.62648071,0.02411594
3371.55528809,0.02407123
3373.48409546,0.02422371
3375.41290283,0.02414809
3377.34171020,0.02425998
3379.27051758,0.02417531
3381.19932495,0.02432329
3383.12813232,0.02442222
3385.05693970,0.02437462
3386.98574707,0.02450662
3388.91455444,0.02455111
3390.84336182,0.02454579
3392.77216919,0.02441613
3394.70097656,0.02464505
3396.62978394,0.02465411
3398.55859131,0.02466861
3400.48739868,0.02481801
3402.41620605,0.02489380
3404.34501343,0.02502890
3406.27382080,0.02486010
3408.20262817,0.02504776
3410.13143555,0.02519466
3412.06024292,0.02533021
3413.98905029,0.02531625
3415.91785767,0.02527850
3417.84666504,0.02552236
3419.77547241,0.02544297
3421.70427979,0.02556974
3423.63308716,0.02559438
3425.56189453,0.02579201
3427.49070190,0.02592301
3429.41950928,0.02587140
3431.34831665,0.02602463
3433.27712402,0.02605916
3435.20593140,0.02621125
3437.13473877,0.02618940
3439.06354614,0.02643096
3440.99235352,0.02642485
3442.92116089,0.02652739
3444.84996826,0.02677643
3446.77877563,0.02640061
3448.70758301,0.02668564
3450.63639038,0.02701465
3452.56519775,0.02706194
3454.49400513,0.02718445
3456.42281250,0.02723528
3458.35161987,0.02723808
3460.28042725,0.02735216
3462.20923462,0.02751393
3464.13804199,0.02758371
3466.06684937,0.02780072
3467.99565674,0.02763330
3469.92446411,0.02785188
3471.85327148,0.02818354
3473.78207886,0.02816230
3475.71088623,0.02820203
3477.63969360,0.02840265
3479.56850098,0.02864058
3481.49730835,0.02830629
3483.42611572,0.02869893
3485.35492310,0.02895251
3487.28373047,0.02889239
3489.21253784,0.02912518
3491.14134521,0.02905460
3493.07015259,0.02940292
3494.99895996,0.02938396
3496.92776733,0.02948811
3498.85657471,0.02968385
3500.78538208,0.02969997
3502.71418945,0.02953688
3504.64299683,0.02960141
3506.57180420,0.03036148
3508.50061157,0.03007352
3510.42941895,0.03008684
3512.35822632,0.03051341
3514.28703369,0.03071565
3516.21584106,0.03089415
3518.14464844,0.03073940
3520.07345581,0.03109166
3522.00226318,0.03099364
3523.93107056,0.03081749
3525.85987793,0.03100424
3527.78868530,0.03112693
3529.71749268,0.03129055
3531.64630005,0.03171557
3533.57510742,0.03213845
3535.50391479,0.03188333
3537.43272217,0.03191508
3539.36152954,0.03233512
3541.29033691,0.03256051
3543.21914429,0.03231169
3545.14795166,0.03178709
3547.07675903,0.03162127
3549.00556641,0.03272308
3550.93437378,0.03316634
3552.86318115,0.03241387
3554.79198853,0.03319076
3556.72079590,0.03346666
3558.64960327,0.03346491
3560.57841064,0.03342070
3562.50721802,0.03330027
3564.43602539,0.03366267
3566.36483276,0.03161536
3568.29364014,0.03107597
3570.22244751,0.03349692
3572.15125488,0.03453880
3574.08006226,0.03427852
3576.00886963,0.03439784
3577.93767700,0.03458987
3579.86648437,0.03462303
3581.79529175,0.03479925
3583.72409912,0.03491347
3585.65290649,0.03433844
3587.58171387,0.03203481
3589.51052124,0.03290804
3591.43932861,0.03562470
3593.36813599,0.03482903
3595.29694336,0.03436558
3597.22575073,0.03503506
3599.15455811,0.03545771
3601.08336548,0.03531092
3603.01217285,0.03572843
3604.94098022,0.03642764
3606.86978760,0.03539449
3608.79859497,0.03353446
3610.72740234,0.03435571
3612.65620972,0.03528374
3614.58501709,0.03431178
3616.51382446,0.03679503
3618.44263184,0.03428261
3620.37143921,0.03319134
3622.30024658,0.03741311
3624.22905395,0.03654149
3626.15786133,0.03826930
3628.08666870,0.03291822
3630.01547607,0.03022563
3631.94428345,0.03759233
3633.87309082,0.03685828
3635.80189819,0.03756873
3637.73070557,0.03836067
3639.65951294,0.03794023
3641.58832031,0.03843663
3643.51712769,0.03815848
3645.44593506,0.03864067
3647.37474243,0.03511292
3649.30354980,0.03264273
3651.23235718,0.03299916
3653.16116455,0.03886771
3655.08997192,0.03866687
3657.01877930,0.03492831
3658.94758667,0.04005438
3660.87639404,0.03946112
3662.80520142,0.04004123
3664.73400879,0.04005397
3666.66281616,0.03980178
3668.59162354,0.03903052
3670.52043091,0.03237276
3672.44923828,0.03873578
3674.37804565,0.03731275
3676.30685303,0.03125770
3678.23566040,0.03889020
3680.16446777,0.03995033
3682.09327515,0.04004151
3684.02208252,0.04128106
3685.95088989,0.04066087
3687.87969727,0.03687800
3689.80850464,0.03407550
3691.73731201,0.03882589
3693.66611938,0.03986811
3695.59492676,0.04078703
3697.52373413,0.04088023
3699.45254150,0.04043110
3701.38134888,0.03964972
3703.31015625,0.03814688
3705.23896362,0.04185724
3707.16777100,0.03997186
3709.09657837,0.03908706
3711.02538574,0.03703422
3712.95419312,0.03463083
3714.88300049,0.04045041
3716.81180786,0.03987795
3718.74061523,0.04020321
3720.66942261,0.03943448
3722.59822998,0.03810546
3724.52703735,0.03958856
3726.45584473,0.03672709
3728.38465210,0.03970705
3730.31345947,0.03922836
3732.24226685,0.03629281
3734.17107422,0.03551445
3736.09988159,0.03372062
3738.02868896,0.03573049
3739.95749634,0.03843417
3741.88630371,0.04029255
3743.81511108,0.03167649
3745.74391846,0.02980567
3747.67272583,0.03828644
3749.60153320,0.03323391
3751.53034058,0.03069446
3753.45914795,0.03491805
3755.38795532,0.03756998
3757.31676270,0.03889325
3759.24557007,0.03621782
3761.17437744,0.03745287
3763.10318481,0.03950200
3765.03199219,0.03720289
3766.96079956,0.03784602
3768.88960693,0.03744229
3770.81841431,0.03582170
3772.74722168,0.03852625
3774.67602905,0.03863655
3776.60483643,0.03858520
3778.53364380,0.03765702
3780.46245117,0.03625494
3782.39125854,0.03856048
3784.32006592,0.03762806
3786.24887329,0.03731101
3788.17768066,0.03812037
3790.10648804,0.03800125
3792.03529541,0.03780799
3793.96410278,0.03827511
3795.89291016,0.03614922
3797.82171753,0.03559373
3799.75052490,0.03750059
3801.67933228,0.03013386
3803.60813965,0.03479553
3805.53694702,0.03787686
3807.46575439,0.03112831
3809.39456177,0.03733639
3811.32336914,0.03668991
3813.25217651,0.03772061
3815.18098389,0.03429125
3817.10979126,0.03020044
3819.03859863,0.03779547
3820.96740601,0.03096633
3822.89621338,0.03237294
3824.82502075,0.03749377
3826.75382812,0.03411140
3828.68263550,0.03660931
3830.61144287,0.03513736
3832.54025024,0.03407086
3834.46905762,0.03475109
3836.39786499,0.03309324
3838.32667236,0.03014857
3840.25547974,0.03240313
3842.18428711,0.03481873
3844.11309448,0.03340015
3846.04190186,0.03584266
3847.97070923,0.03521769
3849.89951660,0.03540435
3851.82832397,0.03207780
3853.75713135,0.02445557
3855.68593872,0.02854776
3857.61474609,0.03535789
3859.54355347,0.03450675
3861.47236084,0.03408972
3863.40116821,0.03349157
3865.32997559,0.03111075
3867.25878296,0.03451950
3869.18759033,0.03185204
3871.11639770,0.02954145
3873.04520508,0.03459075
3874.97401245,0.03186645
3876.90281982,0.03432861
3878.83162720,0.03495409
3880.76043457,0.03022225
3882.68924194,0.03445127
3884.61804932,0.03232293
3886.54685669,0.02975624
3888.47566406,0.03436441
3890.40447144,0.03273085
3892.33327881,0.03084222
3894.26208618,0.03358561
3896.19089355,0.03409616
3898.11970093,0.03254458
3900.04850830,0.03086089
3901.97731567,0.03046227
3903.90612305,0.03030899
3905.83493042,0.03075725
3907.76373779,0.03346044
3909.69254517,0.03332777
3911.62135254,0.03295276
3913.55015991,0.03357766
3915.47896728,0.03243612
3917.40777466,0.03168958
3919.33658203,0.03144487
3921.26538940,0.03250704
3923.19419678,0.03236316
3925.12300415,0.03166780
3927.05181152,0.03222136
3928.98061890,0.03248622
3930.90942627,0.03183911
3932.83823364,0.03087122
3934.76704102,0.03214364
3936.69584839,0.03235117
3938.62465576,0.03203527
3940.55346313,0.03235646
3942.48227051,0.03112663
3944.41107788,0.03137204
3946.33988525,0.03189246
3948.26869263,0.03115834
3950.19750000,0.03112605
3952.12630737,0.03164603
3954.05511475,0.03167675
3955.98392212,0.03156517
3957.91272949,0.03149789
3959.84153687,0.03141744
3961.77034424,0.03119721
3963.69915161,0.03105318
3965.62795898,0.03138393
3967.55676636,0.03110947
3969.48557373,0.03112759
3971.41438110,0.03104785
3973.34318848,0.03078129
3975.27199585,0.03082279
3977.20080322,0.03062843
3979.12961060,0.03084591
3981.05841797,0.03051988
3982.98722534,0.03055822
3984.91603271,0.03062591
3986.84484009,0.03046264
3988.77364746,0.03051843
3990.70245483,0.03017187
3992.63126221,0.03036865
3994.56006958,0.03019657
3996.48887695,0.03013606
3998.41768433,0.03015875
4000.34649170,0.03003930
4002.27529907,0.02996050
4004.20410645,0.02977821
4006.13291382,0.03000222
4008.06172119,0.02967172
4009.99052856,0.02972007
4011.91933594,0.02973476
4013.84814331,0.02953014
4015.77695068,0.02956847
4017.70575806,0.02939333
4019.63456543,0.02938009
4021.56337280,0.02922576
4023.49218018,0.02931025
4025.42098755,0.02914369
4027.34979492,0.02915693
4029.27860229,0.02913542
4031.20740967,0.02895507
4033.13621704,0.02904528
4035.06502441,0.02875310
4036.99383179,0.02885885
4038.92263916,0.02875810
4040.85144653,0.02874217
4042.78025391,0.02869952
4044.70906128,0.02844046
4046.63786865,0.02852569
4048.56667603,0.02840847
4050.49548340,0.02833397
4052.42429077,0.02808269
4054.35309814,0.02826278
4056.28190552,0.02828605
4058.21071289,0.02804596
4060.13952026,0.02807641
4062.06832764,0.02789409
4063.99713501,0.02790465
4065.92594238,0.02789957
4067.85474976,0.02789677
4069.78355713,0.02765913
4071.71236450,0.02768439
4073.64117187,0.02763098
4075.56997925,0.02742928
4077.49878662,0.02758501
4079.42759399,0.02738285
4081.35640137,0.02743329
4083.28520874,0.02733208
4085.21401611,0.02727610
4087.14282349,0.02726806
4089.07163086,0.02712070
4091.00043823,0.02719749
4092.92924561,0.02702638
4094.85805298,0.02704831
4096.78686035,0.02701268
4098.71566772,0.02695201
4100.64447510,0.02682078
4102.57328247,0.02676796
4104.50208984,0.02664304
4106.43089722,0.02642113
4108.35970459,0.02656741
4110.28851196,0.02644915
4112.21731934,0.02645507
4114.14612671,0.02634528
4116.07493408,0.02631064
4118.00374145,0.02625006
4119.93254883,0.02610648
4121.86135620,0.02621511
4123.79016357,0.02607476
4125.71897095,0.02614687
4127.64777832,0.02590783
4129.57658569,0.02588770
4131.50539307,0.02586428
4133.43420044,0.02565247
4135.36300781,0.02577737
4137.29181519,0.02561225
4139.22062256,0.02575874
4141.14942993,0.02556864
4143.07823730,0.02540721
4145.00704468,0.02544653
4146.93585205,0.02529779
4148.86465942,0.02537268
4150.79346680,0.02527612
4152.72227417,0.02521783
4154.65108154,0.02504779
4156.57988892,0.02511861
4158.50869629,0.02504830
4160.43750366,0.02488902
4162.36631103,0.02492347
4164.29511841,0.02477133
4166.22392578,0.02481336
4168.15273315,0.02474641
4170.08154053,0.02473089
4172.01034790,0.02455073
4173.93915527,0.02449469
4175.86796265,0.02451279
4177.79677002,0.02437257
4179.72557739,0.02442728
4181.65438477,0.02430007
4183.58319214,0.02432388
4185.51199951,0.02423470
4187.44080688,0.02418617
4189.36961426,0.02412477
4191.29842163,0.02406829
4193.22722900,0.02411091
4195.15603638,0.02396464
4197.08484375,0.02394643
4199.01365112,0.02376495
4200.94245850,0.02384276
4202.87126587,0.02368657
4204.80007324,0.02358128
4206.72888062,0.02367249
4208.65768799,0.02343970
4210.58649536,0.02363886
4212.51530273,0.02354618
4214.44411011,0.02340766
4216.37291748,0.02332491
4218.30172485,0.02326065
4220.23053223,0.02328616
4222.15933960,0.02313017
4224.08814697,0.02313217
4226.01695435,0.02301142
4227.94576172,0.02306818
4229.87456909,0.02292235
4231.80337646,0.02283020
4233.73218384,0.02282466
4235.66099121,0.02273011
4237.58979858,0.02282425
4239.51860596,0.02262293
4241.44741333,0.02268796
4243.37622070,0.02260902
4245.30502808,0.02250768
4247.23383545,0.02252140
4249.16264282,0.02243799
4251.09145020,0.02247239
4253.02025757,0.02225109
4254.94906494,0.02229125
4256.87787231,0.02225086
4258.80667969,0.02212140
4260.73548706,0.02211308
4262.66429443,0.02208285
4264.59310181,0.02202618
4266.52190918,0.02195124
4268.45071655,0.02201251
4270.37952393,0.02176442
4272.30833130,0.02170242
4274.23713867,0.02177577
4276.16594604,0.02173803
4278.09475342,0.02161031
4280.02356079,0.02152357
4281.95236816,0.02163820
4283.88117554,0.02148450
4285.80998291,0.02147804
4287.73879028,0.02141080
4289.66759766,0.02128424
4291.59640503,0.02128588
4293.52521240,0.02130425
4295.45401978,0.02119770
4297.38282715,0.02097472
4299.31163452,0.02110512
4301.24044189,0.02101851
4303.16924927,0.02098171
4305.09805664,0.02098203
4307.02686401,0.02089095
4308.95567139,0.02089952
4310.88447876,0.02077338
4312.81328613,0.02076001
4314.74209351,0.02061362
4316.67090088,0.02065913
4318.59970825,0.02062134
4320.52851562,0.02050430
4322.45732300,0.02056130
4324.38613037,0.02042242
4326.31493774,0.02038429
4328.24374512,0.02032023
4330.17255249,0.02040337
4332.10135986,0.02034084
4334.03016724,0.02013681
4335.95897461,0.02013909
4337.88778198,0.02014951
4339.81658936,0.02008811
4341.74539673,0.01994284
4343.67420410,0.02002497
4345.60301147,0.01996448
4347.53181885,0.01986174
4349.46062622,0.01982950
4351.38943359,0.01975634
4353.31824097,0.01976028
4355.24704834,0.01974686
4357.17585571,0.01976623
4359.10466309,0.01957563
4361.03347046,0.01952009
4362.96227783,0.01954979
4364.89108520,0.01951076
4366.81989258,0.01948478
4368.74869995,0.01935653
4370.67750732,0.01930291
4372.60631470,0.01930604
4374.53512207,0.01929764
4376.46392944,0.01911203
4378.39273682,0.01907403
4380.32154419,0.01907155
4382.25035156,0.01908236
4384.17915894,0.01907399
4386.10796631,0.01883778
4388.03677368,0.01886114
4389.96558105,0.01883915
4391.89438843,0.01878380
4393.82319580,0.01876186
4395.75200317,0.01878292
4397.68081055,0.01871740
4399.60961792,0.01849840
4401.53842529,0.01851982
4403.46723267,0.01855201
4405.39604004,0.01859169
4407.32484741,0.01843809
4409.25365478,0.01842697
4411.18246216,0.01843531
4413.11126953,0.01828571
4415.04007690,0.01830269
4416.96888428,0.01823059
4418.89769165,0.01824641
4420.82649902,0.01808365
4422.75530640,0.01812971
4424.68411377,0.01810439
4426.61292114,0.01793501
4428.54172852,0.01802142
4430.47053589,0.01785219
4432.39934326,0.01792224
4434.32815063,0.01787016
4436.25695801,0.01778107
4438.18576538,0.01771371
4440.11457275,0.01766980
4442.04338013,0.01776739
4443.97218750,0.01750856
4445.90099487,0.01755641
4447.82980225,0.01749598
4449.75860962,0.01738025
4451.68741699,0.01744603
4453.61622437,0.01742805
4455.54503174,0.01742266
4457.47383911,0.01730711
4459.40264648,0.01732735
4461.33145386,0.01715377
4463.26026123,0.01710923
4465.18906860,0.01714128
4467.11787598,0.01713446
4469.04668335,0.01716119
4470.97549072,0.01699342
4472.90429810,0.01703738
4474.83310547,0.01697864
4476.76191284,0.01687724
4478.69072021,0.01681458
4480.61952759,0.01681571
4482.54833496,0.01673669
4484.47714233,0.01663702
4486.40594971,0.01668934
4488.33475708,0.01652259
4490.26356445,0.01659972
4492.19237183,0.01653998
4494.12117920,0.01645098
4496.04998657,0.01650723
4497.97879395,0.01640415
4499.90760132,0.01648011
4501.83640869,0.01637447
4503.76521606,0.01627279
4505.69402344,0.01626562
4507.62283081,0.01620069
4509.55163818,0.01612775
4511.48044556,0.01612773
4513.40925293,0.01605679
4515.33806030,0.01594910
4517.26686768,0.01606236
4519.19567505,0.01597225
4521.12448242,0.01593779
4523.05328979,0.01589596
4524.98209717,0.01578712
4526.91090454,0.01575771
4528.83971191,0.01574700
4530.76851929,0.01581619
4532.69732666,0.01570234
4534.62613403,0.01569198
4536.55494141,0.01564695
4538.48374878,0.01560626
4540.41255615,0.01553175
4542.34136353,0.01547888
4544.27017090,0.01559997
4546.19897827,0.01538892
4548.12778564,0.01531502
4550.05659302,0.01531987
4551.98540039,0.01526248
4553.91420776,0.01523138
4555.84301514,0.01516468
4557.77182251,0.01518869
4559.70062988,0.01515877
4561.62943726,0.01515583
4563.55824463,0.01503235
4565.48705200,0.01496502
4567.41585937,0.01495021
4569.34466675,0.01496514
4571.27347412,0.01492594
4573.20228149,0.01478099
4575.13108887,0.01484194
4577.05989624,0.01482329
4578.98870361,0.01480364
4580.91751099,0.01469861
4582.84631836,0.01468440
4584.77512573,0.01468011
4586.70393311,0.01447468
4588.63274048,0.01454797
4590.56154785,0.01454314
4592.49035522,0.01444820
4594.41916260,0.01437416
4596.34796997,0.01432123
4598.27677734,0.01435809
4600.20558472,0.01432704
4602.13439209,0.01427569
4604.06319946,0.01428907
4605.99200684,0.01423566
4607.92081421,0.01407473
4609.84962158,0.01419445
4611.77842895,0.01416797
4613.70723633,0.01400101
4615.63604370,0.01400645
4617.56485107,0.01398608
4619.49365845,0.01396336
4621.42246582,0.01387452
4623.35127319,0.01391801
4625.28008057,0.01384269
4627.20888794,0.01377627
4629.13769531,0.01374448
4631.06650269,0.01367353
4632.99531006,0.01377303
4634.92411743,0.01365227
4636.85292480,0.01359546
4638.78173218,0.01359507
4640.71053955,0.01355582
4642.63934692,0.01354814
4644.56815430,0.01349716
4646.49696167,0.01343061
4648.42576904,0.01339343
4650.35457642,0.01342195
4652.28338379,0.01330801
4654.21219116,0.01336270
4656.14099853,0.01326868
4658.06980591,0.01320230
4659.99861328,0.01329785
4661.92742065,0.01314077
4663.85622803,0.01316557
4665.78503540,0.01308208
4667.71384277,0.01308066
4669.64265015,0.01308898
4671.57145752,0.01299465
4673.50026489,0.01300902
4675.42907227,0.01291154
4677.35787964,0.01297097
4679.28668701,0.01287718
4681.21549438,0.01282085
4683.14430176,0.01280649
4685.07310913,0.01274735
4687.00191650,0.01282628
4688.93072388,0.01270022
4690.85953125,0.01268753
4692.78833862,0.01269578
4694.71714600,0.01259726
4696.64595337,0.01255734
4698.57476074,0.01258782
4700.50356812,0.01256304
4702.43237549,0.01243697
4704.36118286,0.01247247
4706.28999023,0.01247762
4708.21879761,0.01241279
4710.14760498,0.01242545
4712.07641235,0.01244161
4714.00521973,0.01236322
4715.93402710,0.01232367
4717.86283447,0.01226971
4719.79164185,0.01220172
4721.72044922,0.01224692
4723.64925659,0.01217523
4725.57806396,0.01212128
4727.50687134,0.01207635
4729.43567871,0.01205782
4731.36448608,0.01205651
4733.29329346,0.01197612
4735.22210083,0.01197023
4737.15090820,0.01196125
4739.07971558,0.01193996
4741.00852295,0.01189604
4742.93733032,0.01189476
4744.86613770,0.01183459
4746.79494507,0.01182433
4748.72375244,0.01186266
4750.65255981,0.01173505
4752.58136719,0.01165602
4754.51017456,0.01166586
4756.43898193,0.01174347
4758.36778931,0.01164683
4760.29659668,0.01157571
4762.22540405,0.01159817
4764.15421143,0.01151171
4766.08301880,0.01149442
4768.01182617,0.01144412
4769.94063354,0.01142612
4771.86944092,0.01138485
4773.79824829,0.01143128
4775.72705566,0.01143593
4777.65586304,0.01133510
4779.58467041,0.01132555
4781.51347778,0.01125692
4783.44228516,0.01124853
4785.37109253,0.01116553
4787.29989990,0.01117086
4789.22870728,0.01115383
4791.15751465,0.01104117
4793.08632202,0.01109733
4795.01512939,0.01113126
4796.94393677,0.01112349
4798.87274414,0.01098691
4800.80155151,0.01093546
4802.73035889,0.01091573
4804.65916626,0.01090313
4806.58797363,0.01086689
4808.51678101,0.01081791
4810.44558838,0.01089863
4812.37439575,0.01076127
4814.30320312,0.01076075
4816.23201050,0.01077221
4818.16081787,0.01071190
4820.08962524,0.01068504
4822.01843262,0.01060363
4823.94723999,0.01066663
4825.87604736,0.01059395
4827.80485474,0.01061407
4829.73366211,0.01061838
4831.66246948,0.01058596
4833.59127686,0.01057146
4835.52008423,0.01043212
4837.44889160,0.01046723
4839.37769897,0.01043420
4841.30650635,0.01036078
4843.23531372,0.01034591
4845.16412109,0.01036405
4847.09292847,0.01030184
4849.02173584,0.01027250
4850.95054321,0.01031782
4852.87935059,0.01025300
4854.80815796,0.01027896
4856.73696533,0.01015910
4858.66577270,0.01012695
4860.59458008,0.01016282
4862.52338745,0.01007982
4864.45219482,0.01013731
4866.38100220,0.01011578
4868.30980957,0.00999898
4870.23861694,0.00995669
4872.16742432,0.00998494
4874.09623169,0.00990850
4876.02503906,0.00989333
4877.95384644,0.00983045
4879.88265381,0.00983326
4881.81146118,0.00990452
4883.74026855,0.00975174
4885.66907593,0.00979513
4887.59788330,0.00972760
4889.52669067,0.00965344
4891.45549805,0.00962716
4893.38430542,0.00964220
4895.31311279,0.00972692
4897.24192017,0.00954824
4899.17072754,0.00966696
4901.09953491,0.00960821
4903.02834228,0.00947116
4904.95714966,0.00954330
4906.88595703,0.00949686
4908.81476440,0.00958406
4910.74357178,0.00948553
4912.67237915,0.00947598
4914.60118652,0.00946161
4916.52999390,0.00929339
4918.45880127,0.00928585
4920.38760864,0.00930970
4922.31641602,0.00928675
4924.24522339,0.00921870
4926.17403076,0.00926856
4928.10283813,0.00920420
4930.03164551,0.00915822
4931.96045288,0.00922676
4933.88926025,0.00916614
4935.81806763,0.00911847
4937.74687500,0.00916794
4939.67568237,0.00910536
4941.60448975,0.00898101
4943.53329712,0.00907024
4945.46210449,0.00898397
4947.39091187,0.00896060
4949.31971924,0.00900733
4951.24852661,0.00886351
4953.17733398,0.00886753
4955.10614136,0.00882056
4957.03494873,0.00881466
4958.96375610,0.00880708
4960.89256348,0.00883538
4962.82137085,0.00879261
4964.75017822,0.00867046
4966.67898560,0.00874433
4968.60779297,0.00863687
4970.53660034,0.00867617
4972.46540771,0.00874622
4974.39421509,0.00859717
4976.32302246,0.00854344
4978.25182983,0.00849173
4980.18063721,0.00851167
4982.10944458,0.00852978
4984.03825195,0.00849074
4985.96705933,0.00843304
4987.89586670,0.00842220
4989.82467407,0.00841489
4991.75348145,0.00842313
4993.68228882,0.00849104
4995.61109619,0.00838302
4997.53990356,0.00828727
4999.46871094,0.00833626
5001.39751831,0.00832634
5003.32632568,0.00823722
5005.25513306,0.00820597
5007.18394043,0.00820794
5009.11274780,0.00818294
5011.04155518,0.00821931
5012.97036255,0.00818706
5014.89916992,0.00804252
5016.82797729,0.00803953
5018.75678467,0.00807200
5020.68559204,0.00803793
5022.61439941,0.00807017
5024.54320679,0.00797237
5026.47201416,0.00796353
5028.40082153,0.00800580
5030.32962891,0.00793541
5032.25843628,0.00798834
5034.18724365,0.00787274
5036.11605103,0.00782467
5038.04485840,0.00788772
5039.97366577,0.00786138
5041.90247314,0.00783685
5043.83128052,0.00775797
5045.76008789,0.00781971
5047.68889526,0.00778810
5049.61770264,0.00768910
5051.54651001,0.00767495
5053.47531738,0.00766780
5055.40412476,0.00769775
5057.33293213,0.00768329
5059.26173950,0.00764387
5061.19054687,0.00758505
5063.11935425,0.00758198
5065.04816162,0.00755911
5066.97696899,0.00754619
5068.90577637,0.00748211
5070.83458374,0.00746391
5072.76339111,0.00753217
5074.69219849,0.00746957
5076.62100586,0.00746981
5078.54981323,0.00740304
5080.47862061,0.00739588
5082.40742798,0.00738760
5084.33623535,0.00738900
5086.26504272,0.00743744
5088.19385010,0.00728754
5090.12265747,0.00734511
5092.05146484,0.00727625
5093.98027222,0.00723741
5095.90907959,0.00730732
5097.83788696,0.00716790
5099.76669434,0.00724652
5101.69550171,0.00721352
5103.62430908,0.00713384
5105.55311645,0.00713719
5107.48192383,0.00710758
5109.41073120,0.00712584
5111.33953857,0.00706196
5113.26834595,0.00704716
5115.19715332,0.00706942
5117.12596069,0.00703075
5119.05476807,0.00696395
5120.98357544,0.00698561
5122.91238281,0.00697687
5124.84119019,0.00692577
5126.76999756,0.00692083
5128.69880493,0.00691464
5130.62761230,0.00690862
5132.55641968,0.00683785
5134.48522705,0.00683526
5136.41403442,0.00682873
5138.34284180,0.00681677
5140.27164917,0.00679236
5142.20045654,0.00673955
5144.12926392,0.00673669
5146.05807129,0.00668070
5147.98687866,0.00667137
5149.91568603,0.00665040
5151.84449341,0.00667261
5153.77330078,0.00671413
5155.70210815,0.00667142
5157.63091553,0.00660348
5159.55972290,0.00659606
5161.48853027,0.00664632
5163.41733765,0.00657134
5165.34614502,0.00653998
5167.27495239,0.00652763
5169.20375977,0.00655913
5171.13256714,0.00651857
5173.06137451,0.00642496
5174.99018188,0.00650400
5176.91898926,0.00645212
5178.84779663,0.00642833
5180.77660400,0.00640900
5182.70541138,0.00639090
5184.63421875,0.00635216
5186.56302612,0.00628015
5188.49183350,0.00637262
5190.42064087,0.00632483
5192.34944824,0.00633777
5194.27825562,0.00632478
5196.20706299,0.00620441
5198.13587036,0.00620319
5200.06467773,0.00620865
5201.99348511,0.00625187
5203.92229248,0.00623897
5205.85109985,0.00613678
5207.77990723,0.00601832
5209.70871460,0.00609244
5211.63752197,0.00618551
5213.56632935,0.00616861
5215.49513672,0.00615496
5217.42394409,0.00606753
5219.35275146,0.00601913
5221.28155884,0.00605762
5223.21036621,0.00609295
5225.13917358,0.00590333
5227.06798096,0.00587658
5228.99678833,0.00598762
5230.92559570,0.00598573
5232.85440308,0.00603051
5234.78321045,0.00590085
5236.71201782,0.00590995
5238.64082520,0.00589704
5240.56963257,0.00588678
5242.49843994,0.00590097
5244.42724731,0.00578988
5246.35605469,0.00589683
5248.28486206,0.00570969
5250.21366943,0.00569587
5252.14247681,0.00591889
5254.07128418,0.00575410
5256.00009155,0.00567324
5257.92889893,0.00575256
5259.85770630,0.00582709
5261.78651367,0.00567263
5263.71532104,0.00557236
5265.64412842,0.00568358
5267.57293579,0.00569952
5269.50174316,0.00567998
5271.43055054,0.00565971
5273.35935791,0.00569451
5275.28816528,0.00570988
5277.21697266,0.00568131
5279.14578003,0.00557995
5281.07458740,0.00558761
5283.00339478,0.00565679
5284.93220215,0.00554338
5286.86100952,0.00554144
5288.78981689,0.00549543
5290.71862427,0.00544045
5292.64743164,0.00555103
5294.57623901,0.00553414
5296.50504639,0.00545525
5298.43385376,0.00542264
5300.36266113,0.00543768
5302.29146851,0.00546188
5304.22027588,0.00549459
5306.14908325,0.00545294
5308.07789062,0.00529819
5310.00669800,0.00537813
5311.93550537,0.00544554
5313.86431274,0.00528472
5315.79312012,0.00530983
5317.72192749,0.00536197
5319.65073486,0.00530151
5321.57954224,0.00528583
5323.50834961,0.00529982
5325.43715698,0.00527948
5327.36596436,0.00514289
5329.29477173,0.00509977
5331.22357910,0.00521526
5333.15238647,0.00520748
5335.08119385,0.00516306
5337.01000122,0.00515072
5338.93880859,0.00493201
5340.86761597,0.00503141
5342.79642334,0.00520960
5344.72523071,0.00491944
5346.65403809,0.00503676
5348.58284546,0.00517284
5350.51165283,0.00508316
5352.44046020,0.00500736
5354.36926758,0.00481177
5356.29807495,0.00504024
5358.22688232,0.00508919
5360.15568970,0.00500733
5362.08449707,0.00504115
5364.01330444,0.00490803
5365.94211182,0.00495789
5367.87091919,0.00498700
5369.79972656,0.00499850
5371.72853394,0.00491815
5373.65734131,0.00493920
5375.58614868,0.00490766
5377.51495605,0.00475529
5379.44376343,0.00491955
5381.37257080,0.00484009
5383.30137817,0.00476712
5385.23018555,0.00478962
5387.15899292,0.00474652
5389.08780029,0.00484985
5391.01660767,0.00481698
5392.94541504,0.00468242
5394.87422241,0.00460847
5396.80302978,0.00474794
5398.73183716,0.00479749
5400.66064453,0.00474265
5402.58945190,0.00476285
5404.51825928,0.00472386
5406.44706665,0.00468816
5408.37587402,0.00465217
5410.30468140,0.00466317
5412.23348877,0.00454431
5414.16229614,0.00448521
5416.09110352,0.00456351
5418.01991089,0.00459045
5419.94871826,0.00464459
5421.87752563,0.00460805
5423.80633301,0.00455041
5425.73514038,0.00458201
5427.66394775,0.00459028
5429.59275513,0.00438568
5431.52156250,0.00440436
5433.45036987,0.00454385
5435.37917725,0.00440513
5437.30798462,0.00446391
5439.23679199,0.00444809
5441.16559936,0.00436811
5443.09440674,0.00444424
5445.02321411,0.00438840
5446.95202148,0.00433259
5448.88082886,0.00430781
5450.80963623,0.00430470
5452.73844360,0.00438693
5454.66725098,0.00439646
5456.59605835,0.00430753
5458.52486572,0.00433934
5460.45367310,0.00426121
5462.38248047,0.00420012
5464.31128784,0.00430726
5466.24009521,0.00427316
5468.16890259,0.00427543
5470.09770996,0.00422870
5472.02651733,0.00431982
5473.95532471,0.00437102
5475.88413208,0.00411709
5477.81293945,0.00415702
5479.74174683,0.00419643
5481.67055420,0.00410889
5483.59936157,0.00416179
5485.52816895,0.00418441
5487.45697632,0.00416010
5489.38578369,0.00412497
5491.31459106,0.00411719
5493.24339844,0.00406828
5495.17220581,0.00406578
5497.10101318,0.00416454
5499.02982056,0.00413364
5500.95862793,0.00407230
5502.88743530,0.00409726
5504.81624268,0.00405981
5506.74505005,0.00406128
5508.67385742,0.00401084
5510.60266479,0.00396361
5512.53147217,0.00407598
5514.46027954,0.00404446
5516.38908691,0.00398536
5518.31789429,0.00396844
5520.24670166,0.00398246
5522.17550903,0.00399523
5524.10431641,0.00397301
5526.03312378,0.00401815
5527.96193115,0.00389316
5529.89073853,0.00386413
5531.81954590,0.00390527
5533.74835327,0.00385042
5535.67716064,0.00385531
5537.60596802,0.00380822
5539.53477539,0.00385502
5541.46358276,0.00383538
5543.39239014,0.00380267
5545.32119751,0.00385658
5547.25000488,0.00385028
5549.17881226,0.00386462
5551.10761963,0.00378033
5553.03642700,0.00371515
5554.96523437,0.00374132
5556.89404175,0.00379427
5558.82284912,0.00376092
5560.75165649,0.00371702
5562.68046387,0.00378078
5564.60927124,0.00371458
5566.53807861,0.00373082
5568.46688599,0.00375014
5570.39569336,0.00365622
5572.32450073,0.00370844
5574.25330811,0.00369709
5576.18211548,0.00366481
5578.11092285,0.00367488
5580.03973022,0.00364530
5581.96853760,0.00366453
5583.89734497,0.00361882
5585.82615234,0.00357693
5587.75495972,0.00360280
5589.68376709,0.00355166
5591.61257446,0.00353286
5593.54138184,0.00360788
5595.47018921,0.00359247
5597.39899658,0.00359147
5599.32780395,0.00363501
5601.25661133,0.00350321
5603.18541870,0.00345623
5605.11422607,0.00352355
5607.04303345,0.00356321
5608.97184082,0.00359631
5610.90064819,0.00350048
5612.82945557,0.00350401
5614.75826294,0.00350191
5616.68707031,0.00343740
5618.61587769,0.00344861
5620.54468506,0.00341230
5622.47349243,0.00342698
5624.40229980,0.00341519
5626.33110718,0.00340585
5628.25991455,0.00336457
5630.18872192,0.00339146
5632.11752930,0.00345740
5634.04633667,0.00338007
5635.97514404,0.00340012
5637.90395142,0.00332727
5639.83275879,0.00333558
5641.76156616,0.00333908
5643.69037353,0.00326627
5645.61918091,0.00339145
5647.54798828,0.00331296
5649.47679565,0.00326906
5651.40560303,0.00331351
5653.33441040,0.00326891
5655.26321777,0.00319685
5657.19202515,0.00320151
5659.12083252,0.00328242
5661.04963989,0.00319023
5662.97844727,0.00319196
5664.90725464,0.00318608
5666.83606201,0.00321860
5668.76486938,0.00321718
5670.69367676,0.00313341
5672.62248413,0.00320848
5674.55129150,0.00310057
5676.48009888,0.00314246
5678.40890625,0.00318900
5680.33771362,0.00312774
5682.26652100,0.00322110
5684.19532837,0.00316567
5686.12413574,0.00316623
5688.05294311,0.00311155
5689.98175049,0.00306720
5691.91055786,0.00315458
5693.83936523,0.00306153
5695.76817261,0.00303450
5697.69697998,0.00312414
5699.62578735,0.00309258
5701.55459473,0.00304019
5703.48340210,0.00295577
5705.41220947,0.00292396
5707.34101685,0.00306694
5709.26982422,0.00300869
5711.19863159,0.00292985
5713.12743896,0.00295526
5715.05624634,0.00294844
5716.98505371,0.00302303
5718.91386108,0.00294074
5720.84266846,0.00289315
5722.77147583,0.00291064
5724.70028320,0.00290132
5726.62909058,0.00290725
5728.55789795,0.00287774
5730.48670532,0.00291473
5732.41551270,0.00285066
5734.34432007,0.00285962
5736.27312744,0.00286162
5738.20193481,0.00278811
5740.13074219,0.00287981
5742.05954956,0.00288121
5743.98835693,0.00281873
5745.91716431,0.00283094
5747.84597168,0.00283440
5749.77477905,0.00276689
5751.70358643,0.00272383
5753.63239380,0.00273253
5755.56120117,0.00274726
5757.49000854,0.00277384
5759.41881592,0.00276248
5761.34762329,0.00279561
5763.27643066,0.00282962
5765.20523804,0.00279744
5767.13404541,0.00275239
5769.06285278,0.00275999
5770.99166016,0.00275268
5772.92046753,0.00274590
5774.84927490,0.00273860
5776.77808228,0.00266504
5778.70688965,0.00273174
5780.63569702,0.00273071
5782.56450439,0.00262011
5784.49331177,0.00263638
5786.42211914,0.00264739
5788.35092651,0.00262712
5790.27973389,0.00262497
5792.20854126,0.00262740
5794.13734863,0.00261943
5796.06615601,0.00264355
5797.99496338,0.00260933
5799.92377075,0.00258605
5801.85257812,0.00258693
5803.78138550,0.00255967
5805.71019287,0.00260540
5807.63900024,0.00255600
5809.56780762,0.00254758
5811.49661499,0.00257479
5813.42542236,0.00256138
5815.35422974,0.00263738
5817.28303711,0.00259975
5819.21184448,0.00250231
5821.14065186,0.00255099
5823.06945923,0.00258116
5824.99826660,0.00245937
5826.92707397,0.00242246
5828.85588135,0.00242798
5830.78468872,0.00245134
5832.71349609,0.00248072
5834.64230347,0.00243283
5836.57111084,0.00243998
5838.49991821,0.00236598
5840.42872559,0.00241350
5842.35753296,0.00242241
5844.28634033,0.00234905
5846.21514770,0.00243997
5848.14395508,0.00238695
5850.07276245,0.00241640
5852.00156982,0.00236564
5853.93037720,0.00230626
5855.85918457,0.00245265
5857.78799194,0.00236256
5859.71679932,0.00229023
5861.64560669,0.00231523
5863.57441406,0.00232985
5865.50322144,0.00232945
5867.43202881,0.00229854
5869.36083618,0.00236958
5871.28964355,0.00232392
5873.21845093,0.00224720
5875.14725830,0.00234499
5877.07606567,0.00231527
5879.00487305,0.00224120
5880.93368042,0.00229041
5882.86248779,0.00223918
5884.79129517,0.00223155
5886.72010254,0.00223571
5888.64890991,0.00220375
5890.57771728,0.00226289
5892.50652466,0.00229340
5894.43533203,0.00232004
5896.36413940,0.00223908
5898.29294678,0.00218769
5900.22175415,0.00224901
5902.15056152,0.00221829
5904.07936890,0.00217908
5906.00817627,0.00215199
5907.93698364,0.00211366
5909.86579102,0.00212664
5911.79459839,0.00217103
5913.72340576,0.00212845
5915.65221313,0.00213457
5917.58102051,0.00213718
5919.50982788,0.00207577
5921.43863525,0.00210385
5923.36744263,0.00206258
5925.29625000,0.00206278
5927.22505737,0.00210288
5929.15386475,0.00209140
5931.08267212,0.00212104
5933.01147949,0.00212412
5934.94028686,0.00209246
5936.86909424,0.00205929
5938.79790161,0.00205835
5940.72670898,0.00207204
5942.65551636,0.00206629
5944.58432373,0.00199393
5946.51313110,0.00200962
5948.44193848,0.00202694
5950.37074585,0.00199844
5952.29955322,0.00206138
5954.22836060,0.00202888
5956.15716797,0.00206192
5958.08597534,0.00202152
5960.01478271,0.00195093
5961.94359009,0.00204853
5963.87239746,0.00202046
5965.80120483,0.00200472
5967.73001221,0.00200971
5969.65881958,0.00197389
5971.58762695,0.00191061
5973.51643433,0.00194096
5975.44524170,0.00200784
5977.37404907,0.00191256
5979.30285645,0.00191580
5981.23166382,0.00193770
5983.16047119,0.00190707
5985.08927856,0.00190662
5987.01808594,0.00188318
5988.94689331,0.00187340
5990.87570068,0.00192529
5992.80450806,0.00190796
5994.73331543,0.00185399
5996.66212280,0.00191652
5998.59093018,0.00188605
6000.51973755,0.00189987
