399.26312622,-0.00016167
401.19193359,-0.00003832
403.12074097,0.00016407
405.04954834,0.00030259
406.97835571,0.00018599
408.90716309,0.00018713
410.83597046,0.00057551
412.76477783,0.00057338
414.69358521,0.00035481
416.62239258,0.00088019
418.55119995,0.00046752
420.48000732,0.00023708
422.40881470,0.00056141
424.33762207,-0.00010550
426.26642944,0.00042849
428.19523682,0.00057196
430.12404419,0.00022370
432.05285156,0.00078190
433.98165894,0.00041171
435.91046631,0.00034014
437.83927368,0.00055459
439.76808105,0.00051917
441.69688843,0.00033372
443.62569580,0.00019268
445.55450317,0.00047327
447.48331055,0.00013551
449.41211792,0.00006345
451.34092529,0.00022276
453.26973267,0.00031772
455.19854004,0.00057964
457.12734741,0.00040982
459.05615479,0.00039620
460.98496216,0.00033747
462.91376953,-0.00010369
464.84257690,0.00000678
466.77138428,0.00036436
468.70019165,0.00005389
470.62899902,0.00032269
472.55780640,0.00051604
474.48661377,-0.00006402
476.41542114,-0.00016791
478.34422852,0.00021038
480.27303589,0.00053067
482.20184326,0.00015567
484.13065063,-0.00012039
486.05945801,-0.00007415
487.98826538,0.00008673
489.91707275,0.00009534
491.84588013,0.00009714
493.77468750,0.00027313
495.70349487,-0.00008885
497.63230225,-0.00001011
499.56110962,0.00006330
501.48991699,-0.00005147
503.41872437,0.00009641
505.34753174,-0.00004048
507.27633911,0.00016876
509.20514648,-0.00001673
511.13395386,-0.00010629
513.06276123,0.00066713
514.99156860,0.00058808
516.92037598,0.00001847
518.84918335,0.00001504
520.77799072,0.00017839
522.70679810,0.00013608
524.63560547,-0.00003504
526.56441284,-0.00001757
528.49322021,0.00022383
530.42202759,0.00039351
532.35083496,-0.00015277
534.27964233,-0.00001139
536.20844971,0.00007988
538.13725708,0.00009447
540.06606445,0.00041120
541.99487183,0.00028690
543.92367920,0.00026999
545.85248657,-0.00021063
547.78129395,0.00002313
549.71010132,0.00068410
551.63890869,0.00060651
553.56771606,0.00022280
555.49652344,-0.00003467
557.42533081,0.00008119
559.35413818,0.00014125
561.28294556,0.00020485
563.21175293,0.00011672
565.14056030,-0.00007517
567.06936768,-0.00023507
568.99817505,-0.00004794
570.92698242,0.00037219
572.85578979,0.00016525
574.78459717,0.00027922
576.71340454,0.00051775
578.64221191,0.00002449
580.57101929,0.00018282
582.49982666,0.00035741
584.42863403,0.00007754
586.35744141,0.00027657
588.28624878,0.00008846
590.21505615,0.00023785
592.14386353,0.00054888
594.07267090,0.00040489
596.00147827,0.00058613
597.93028564,0.00018864
599.85909302,-0.00019072
601.78790039,0.00000452
603.71670776,0.00013896
605.64551514,0.00007519
607.57432251,0.00019406
609.50312988,0.00038315
611.43193726,-0.00002395
613.36074463,0.00012548
615.28955200,0.00044067
617.21835938,0.00024212
619.14716675,0.00009211
621.07597412,0.00013815
623.00478149,0.00026179
624.93358887,0.00008072
626.86239624,0.00015219
628.79120361,0.00004643
630.72001099,0.00036255
632.64881836,0.00046595
634.57762573,0.00001321
636.50643311,0.00027233
638.43524048,0.00036563
640.36404785,0.00043859
642.29285522,0.00031926
644.22166260,0.00059849
646.15046997,0.00078276
648.07927734,0.00048098
650.00808472,0.00090549
651.93689209,0.00066818
653.86569946,0.00070200
655.79450684,0.00087332
657.72331421,0.00064364
659.65212158,0.00088763
661.58092896,0.00060228
663.50973633,0.00071039
665.43854370,0.00075804
667.36735107,0.00047996
669.29615845,0.00087559
671.22496582,0.00106258
673.15377319,0.00119508
675.08258057,0.00105464
677.01138794,0.00096997
678.94019531,0.00135092
680.86900269,0.00115297
682.79781006,0.00115794
684.72661743,0.00134137
686.65542480,0.00112135
688.58423218,0.00120370
690.51303955,0.00125661
692.44184692,0.00141304
694.37065430,0.00162292
696.29946167,0.00154804
698.22826904,0.00162410
700.15707642,0.00178215
702.08588379,0.00171110
704.01469116,0.00144647
705.94349854,0.00155169
707.87230591,0.00148126
709.80111328,0.00110481
711.72992065,0.00087271
713.65872803,0.00049891
715.58753540,0.00017785
717.51634277,-0.00002378
719.44515015,0.00026921
721.37395752,0.00028851
723.30276489,0.00012791
725.23157227,0.00036715
727.16037964,0.00020014
729.08918701,0.00026053
731.01799438,0.00031858
732.94680176,0.00015785
734.87560913,0.00009868
736.80441650,0.00036193
738.73322388,0.00044026
740.66203125,-0.00004324
742.59083862,-0.00003099
744.51964600,0.00000523
746.44845337,0.00038113
748.37726074,0.00037573
750.30606812,0.00000474
752.23487549,0.00037497
754.16368286,0.00009684
756.09249023,-0.00010134
758.02129761,0.00022286
759.95010498,0.00042120
761.87891235,0.00047606
763.80771973,0.00019519
765.73652710,0.00018016
767.66533447,0.00020382
769.59414185,0.00012442
771.52294922,0.00018044
773.45175659,0.00015563
775.38056396,0.00006921
777.30937134,-0.00013190
779.23817871,0.00012916
781.16698608,0.00065211
783.09579346,0.00049275
785.02460083,0.00048055
786.95340820,0.00042025
788.88221558,0.00018269
790.81102295,0.00043603
792.73983032,0.00021796
794.66863770,0.00017365
796.59744507,0.00030033
798.52625244,0.00030179
800.45505981,0.00061817
802.38386719,0.00045356
804.31267456,0.00041225
806.24148193,0.00051181
808.17028931,0.00043545
810.09909668,0.00028292
812.02790405,0.00026310
813.95671143,0.00038208
815.88551880,0.00022835
817.81432617,0.00025859
819.74313354,0.00012737
821.67194092,0.00031724
823.60074829,0.00051656
825.52955566,0.00033109
827.45836304,0.00054185
829.38717041,0.00035057
831.31597778,0.00031853
833.24478516,0.00052418
835.17359253,0.00050634
837.10239990,0.00068430
839.03120728,0.00060303
840.96001465,0.00046223
842.88882202,0.00050398
844.81762939,0.00044447
846.74643677,0.00054403
848.67524414,0.00055883
850.60405151,0.00040815
852.53285889,0.00073231
854.46166626,0.00047337
856.39047363,0.00018601
858.31928101,0.00064832
860.24808838,0.00061415
862.17689575,0.00046460
864.10570313,0.00042764
866.03451050,0.00048126
867.96331787,0.00035857
869.89212524,0.00041491
871.82093262,0.00051289
873.74973999,0.00040310
875.67854736,0.00045273
877.60735474,0.00010057
879.53616211,0.00034657
881.46496948,0.00037471
883.39377686,0.00025615
885.32258423,0.00052996
887.25139160,0.00013938
889.18019897,0.00029713
891.10900635,0.00045478
893.03781372,0.00024924
894.96662109,0.00034015
896.89542847,0.00041522
898.82423584,0.00033828
900.75304321,0.00041761
902.68185059,0.00047232
904.61065796,0.00010084
906.53946533,0.00045950
908.46827271,0.00070878
910.39708008,0.00047538
912.32588745,0.00055228
914.25469482,0.00045026
916.18350220,0.00037594
918.11230957,0.00033711
920.04111694,0.00049046
921.96992432,0.00063575
923.89873169,0.00055732
925.82753906,0.00052803
927.75634644,0.00064259
929.68515381,0.00063494
931.61396118,0.00080928
933.54276855,0.00097271
935.47157593,0.00054657
937.40038330,0.00076475
939.32919067,0.00091894
941.25799805,0.00090290
943.18680542,0.00090735
945.11561279,0.00059292
947.04442017,0.00088985
948.97322754,0.00057345
950.90203491,0.00050977
952.83084229,0.00093662
954.75964966,0.00078393
956.68845703,0.00088143
958.61726440,0.00096876
960.54607178,0.00097220
962.47487915,0.00082078
964.40368652,0.00090551
966.33249390,0.00083159
968.26130127,0.00057668
970.19010864,0.00077136
972.11891602,0.00098314
974.04772339,0.00118608
975.97653076,0.00109106
977.90533813,0.00111754
979.83414551,0.00107586
981.76295288,0.00111688
983.69176025,0.00119795
985.62056763,0.00112609
987.54937500,0.00166708
989.47818237,0.00181728
991.40698975,0.00200419
993.33579712,0.00218181
995.26460449,0.00197718
997.19341187,0.00237700
999.12221924,0.00270918
1001.05102661,0.00291839
1002.97983398,0.00320202
1004.90864136,0.00317269
1006.83744873,0.00316694
1008.76625610,0.00356756
1010.69506348,0.00368142
1012.62387085,0.00381202
1014.55267822,0.00408065
1016.48148560,0.00398737
1018.41029297,0.00440567
1020.33910034,0.00456668
1022.26790771,0.00461106
1024.19671509,0.00495622
1026.12552246,0.00506407
1028.05432983,0.00529092
1029.98313721,0.00544824
1031.91194458,0.00571009
1033.84075195,0.00557732
1035.76955933,0.00553267
1037.69836670,0.00576312
1039.62717407,0.00560098
1041.55598145,0.00566843
1043.48478882,0.00563837
1045.41359619,0.00572186
1047.34240356,0.00569115
1049.27121094,0.00542249
1051.20001831,0.00545896
1053.12882568,0.00534240
1055.05763306,0.00518218
1056.98644043,0.00503387
1058.91524780,0.00495247
1060.84405518,0.00490568
1062.77286255,0.00470154
1064.70166992,0.00439563
1066.63047729,0.00425972
1068.55928467,0.00417176
1070.48809204,0.00379094
1072.41689941,0.00366934
1074.34570679,0.00369114
1076.27451416,0.00362425
1078.20332153,0.00355958
1080.13212891,0.00331071
1082.06093628,0.00311456
1083.98974365,0.00304494
1085.91855103,0.00292268
1087.84735840,0.00270783
1089.77616577,0.00254994
1091.70497314,0.00256805
1093.63378052,0.00243724
1095.56258789,0.00220617
1097.49139526,0.00228791
1099.42020264,0.00220536
1101.34901001,0.00222366
1103.27781738,0.00228674
1105.20662476,0.00199409
1107.13543213,0.00211470
1109.06423950,0.00204678
1110.99304687,0.00204474
1112.92185425,0.00218033
1114.85066162,0.00193213
1116.77946899,0.00204023
1118.70827637,0.00200917
1120.63708374,0.00200454
1122.56589111,0.00206721
1124.49469849,0.00206739
1126.42350586,0.00222064
1128.35231323,0.00208276
1130.28112061,0.00208841
1132.20992798,0.00223667
1134.13873535,0.00227060
1136.06754272,0.00224299
1137.99635010,0.00240908
1139.92515747,0.00261353
1141.85396484,0.00272837
1143.78277222,0.00304792
1145.71157959,0.00310706
1147.64038696,0.00313723
1149.56919434,0.00338414
1151.49800171,0.00353297
1153.42680908,0.00364106
1155.35561646,0.00380109
1157.28442383,0.00381276
1159.21323120,0.00390765
1161.14203857,0.00415795
1163.07084595,0.00421537
1164.99965332,0.00450383
1166.92846069,0.00462819
1168.85726807,0.00471459
1170.78607544,0.00491508
1172.71488281,0.00502700
1174.64369019,0.00537162
1176.57249756,0.00536320
1178.50130493,0.00556153
1180.43011230,0.00573250
1182.35891968,0.00592112
1184.28772705,0.00638932
1186.21653442,0.00629434
1188.14534180,0.00681023
1190.07414917,0.00732436
1192.00295654,0.00733559
1193.93176392,0.00775438
1195.86057129,0.00823455
1197.78937866,0.00851727
1199.71818604,0.00862436
1201.64699341,0.00920658
1203.57580078,0.00962560
1205.50460815,0.00985464
1207.43341553,0.01028739
1209.36222290,0.01034481
1211.29103027,0.01072932
1213.21983765,0.01111657
1215.14864502,0.01115691
1217.07745239,0.01148717
1219.00625977,0.01190978
1220.93506714,0.01196284
1222.86387451,0.01194311
1224.79268188,0.01212862
1226.72148926,0.01212895
1228.65029663,0.01227972
1230.57910400,0.01245217
1232.50791138,0.01226878
1234.43671875,0.01229797
1236.36552612,0.01246164
1238.29433350,0.01224363
1240.22314087,0.01217857
1242.15194824,0.01234212
1244.08075562,0.01202501
1246.00956299,0.01199084
1247.93837036,0.01212950
1249.86717773,0.01196763
1251.79598511,0.01197420
1253.72479248,0.01171535
1255.65359985,0.01159470
1257.58240723,0.01159164
1259.51121460,0.01133574
1261.44002197,0.01116859
1263.36882935,0.01087262
1265.29763672,0.01087115
1267.22644409,0.01083577
1269.15525146,0.01043004
1271.08405884,0.01037595
1273.01286621,0.01030751
1274.94167358,0.01015476
1276.87048096,0.00998197
1278.79928833,0.00962814
1280.72809570,0.00961892
1282.65690308,0.00948034
1284.58571045,0.00900764
1286.51451782,0.00890564
1288.44332520,0.00894489
1290.37213257,0.00896015
1292.30093994,0.00887654
1294.22974731,0.00865314
1296.15855469,0.00857327
1298.08736206,0.00855878
1300.01616943,0.00872359
1301.94497681,0.00884446
1303.87378418,0.00878128
1305.80259155,0.00886691
1307.73139893,0.00902140
1309.66020630,0.00915218
1311.58901367,0.00908896
1313.51782104,0.00930850
1315.44662842,0.00976188
1317.37543579,0.00979466
1319.30424316,0.00999106
1321.23305054,0.01028653
1323.16185791,0.01058697
1325.09066528,0.01090793
1327.01947266,0.01112312
1328.94828003,0.01160986
1330.87708740,0.01174393
1332.80589478,0.01181981
1334.73470215,0.01221657
1336.66350952,0.01232269
1338.59231689,0.01219973
1340.52112427,0.01234025
1342.44993164,0.01286348
1344.37873901,0.01292349
1346.30754639,0.01289371
1348.23635376,0.01281817
1350.16516113,0.01267342
1352.09396851,0.01289050
1354.02277588,0.01247236
1355.95158325,0.01229286
1357.88039062,0.01250075
1359.80919800,0.01223797
1361.73800537,0.01159181
1363.66681274,0.01146334
1365.59562012,0.01225429
1367.52442749,0.01187091
1369.45323486,0.01167006
1371.38204224,0.01183669
1373.31084961,0.01105514
1375.23965698,0.01128945
1377.16846436,0.01168288
1379.09727173,0.01162734
1381.02607910,0.01151908
1382.95488647,0.01146115
1384.88369385,0.01142890
1386.81250122,0.01095734
1388.74130859,0.01117462
1390.67011597,0.01206666
1392.59892334,0.01192473
1394.52773071,0.01099046
1396.45653809,0.01158174
1398.38534546,0.01163818
1400.31415283,0.01133628
1402.24296021,0.01242158
1404.17176758,0.01177299
1406.10057495,0.01172448
1408.02938232,0.01222382
1409.95818970,0.01181129
1411.88699707,0.01193189
1413.81580444,0.01150113
1415.74461182,0.01159667
1417.67341919,0.01045888
1419.60222656,0.00963876
1421.53103394,0.01082286
1423.45984131,0.01059372
1425.38864868,0.01047027
1427.31745605,0.01044839
1429.24626343,0.00978113
1431.17507080,0.00937283
1433.10387817,0.00944772
1435.03268555,0.00889525
1436.96149292,0.00759596
1438.89030029,0.00828906
1440.81910767,0.00879075
1442.74791504,0.00829660
1444.67672241,0.00842984
1446.60552979,0.00800437
1448.53433716,0.00792055
1450.46314453,0.00805283
1452.39195190,0.00829612
1454.32075928,0.00863246
1456.24956665,0.00717673
1458.17837402,0.00732722
1460.10718140,0.00987518
1462.03598877,0.01025372
1463.96479614,0.01013690
1465.89360352,0.01073657
1467.82241089,0.01197664
1469.75121826,0.01281888
1471.68002563,0.01153984
1473.60883301,0.01226748
1475.53764038,0.01372715
1477.46644775,0.01473910
1479.39525513,0.01614851
1481.32406250,0.01621203
1483.25286987,0.01722018
1485.18167725,0.01759118
1487.11048462,0.01739829
1489.03929199,0.01735347
1490.96809937,0.01753926
1492.89690674,0.02018303
1494.82571411,0.01942834
1496.75452148,0.01782231
1498.68332886,0.02008664
1500.61213623,0.02064416
1502.54094360,0.02211207
1504.46975098,0.02065940
1506.39855835,0.01547323
1508.32736572,0.01881177
1510.25617310,0.02144763
1512.18498047,0.02080890
1514.11378784,0.02246631
1516.04259521,0.02033029
1517.97140259,0.02143465
1519.90020996,0.02051303
1521.82901733,0.01792853
1523.75782471,0.02178618
1525.68663208,0.02136032
1527.61543945,0.02125692
1529.54424683,0.02324048
1531.47305420,0.02243671
1533.40186157,0.02046741
1535.33066895,0.02195682
1537.25947632,0.02329595
1539.18828369,0.01677636
1541.11709106,0.01799088
1543.04589844,0.02096215
1544.97470581,0.02028585
1546.90351318,0.02365709
1548.83232056,0.02192566
1550.76112793,0.02283508
1552.68993530,0.02234400
1554.61874268,0.02059704
1556.54755005,0.02170778
1558.47635742,0.01547719
1560.40516479,0.01724020
1562.33397217,0.02362945
1564.26277954,0.02228295
1566.19158691,0.02301631
1568.12039429,0.02265633
1570.04920166,0.02017944
1571.97800903,0.02318174
1573.90681641,0.02317432
1575.83562378,0.01866838
1577.76443115,0.02124042
1579.69323853,0.02364347
1581.62204590,0.02259349
1583.55085327,0.02288582
1585.47966064,0.02267547
1587.40846802,0.02278446
1589.33727539,0.02252650
1591.26608276,0.02275497
1593.19489014,0.02242861
1595.12369751,0.02230697
1597.05250488,0.02254926
1598.98131226,0.02240368
1600.91011963,0.02280362
1602.83892700,0.02206617
1604.76773437,0.02250974
1606.69654175,0.02221838
1608.62534912,0.02214672
1610.55415649,0.02211573
1612.48296387,0.02222827
1614.41177124,0.02257129
1616.34057861,0.01837009
1618.26938599,0.02015227
1620.19819336,0.02336800
1622.12700073,0.02082571
1624.05580811,0.02121722
1625.98461548,0.02204717
1627.91342285,0.02209185
1629.84223022,0.02222543
1631.77103760,0.02355506
1633.69984497,0.02185211
1635.62865234,0.01857290
1637.55745972,0.02159087
1639.48626709,0.02366472
1641.41507446,0.02332694
1643.34388184,0.02403506
1645.27268921,0.02186140
1647.20149658,0.01967114
1649.13030396,0.02435042
1651.05911133,0.02281276
1652.98791870,0.01523712
1654.91672607,0.02075079
1656.84553345,0.02557807
1658.77434082,0.02463287
1660.70314819,0.02534205
1662.63195557,0.02330906
1664.56076294,0.02474901
1666.48957031,0.02639132
1668.41837769,0.02324076
1670.34718506,0.02287200
1672.27599243,0.02567895
1674.20479980,0.02361174
1676.13360718,0.02295378
1678.06241455,0.02625196
1679.99122192,0.02538933
1681.92002930,0.02516407
1683.84883667,0.02045891
1685.77764404,0.02075289
1687.70645142,0.02781195
1689.63525879,0.02414249
1691.56406616,0.02681530
1693.49287354,0.02674808
1695.42168091,0.01983921
1697.35048828,0.02445421
1699.27929565,0.02141925
1701.20810303,0.01965817
1703.13691040,0.02606168
1705.06571777,0.02402090
1706.99452515,0.02431408
1708.92333252,0.02593367
1710.85213989,0.02509148
1712.78094727,0.02552626
1714.70975464,0.02366365
1716.63856201,0.02118773
1718.56736938,0.02090179
1720.49617676,0.02477045
1722.42498413,0.02526327
1724.35379150,0.02359320
1726.28259888,0.02551185
1728.21140625,0.02343103
1730.14021362,0.02397815
1732.06902100,0.02307259
1733.99782837,0.01782317
1735.92663574,0.02217443
1737.85544312,0.02402309
1739.78425049,0.02156062
1741.71305786,0.02327383
1743.64186523,0.02343416
1745.57067261,0.02367819
1747.49947998,0.02375483
1749.42828735,0.02281243
1751.35709473,0.02193692
1753.28590210,0.02395540
1755.21470947,0.02502609
1757.14351685,0.02291705
1759.07232422,0.02486216
1761.00113159,0.02349731
1762.92993896,0.02285223
1764.85874634,0.02586991
1766.78755371,0.02331876
1768.71636108,0.02341882
1770.64516846,0.02332656
1772.57397583,0.02119949
1774.50278320,0.02348665
1776.43159058,0.02457421
1778.36039795,0.02408425
1780.28920532,0.02397821
1782.21801270,0.02418072
1784.14682007,0.02395442
1786.07562744,0.02355587
1788.00443481,0.02464144
1789.93324219,0.02389392
1791.86204956,0.02184863
1793.79085693,0.02279147
1795.71966431,0.02427110
1797.64847168,0.02391224
1799.57727905,0.02340483
1801.50608643,0.02303363
1803.43489380,0.02382679
1805.36370117,0.02439774
1807.29250854,0.02405907
1809.22131592,0.02385977
1811.15012329,0.02342402
1813.07893066,0.02416077
1815.00773804,0.02406400
1816.93654541,0.02387800
1818.86535278,0.02392371
1820.79416016,0.02378382
1822.72296753,0.02410460
1824.65177490,0.02259001
1826.58058228,0.02342414
1828.50938965,0.02336000
1830.43819702,0.02206978
1832.36700439,0.02389575
1834.29581177,0.02366526
1836.22461914,0.02356833
1838.15342651,0.02340949
1840.08223389,0.02365890
1842.01104126,0.02363332
1843.93984863,0.02112638
1845.86865601,0.02245064
1847.79746338,0.02349710
1849.72627075,0.02297138
1851.65507812,0.02356282
1853.58388550,0.02326322
1855.51269287,0.02341357
1857.44150024,0.02318445
1859.37030762,0.02316028
1861.29911499,0.02319673
1863.22792236,0.02292868
1865.15672974,0.02307243
1867.08553711,0.02236924
1869.01434448,0.02162186
1870.94315186,0.02237050
1872.87195923,0.02318658
1874.80076660,0.02276507
1876.72957397,0.02298380
1878.65838135,0.02282837
1880.58718872,0.02255762
1882.51599609,0.02285607
1884.44480347,0.02251842
1886.37361084,0.02281117
1888.30241821,0.02211238
1890.23122559,0.02175034
1892.16003296,0.02245855
1894.08884033,0.02206093
1896.01764771,0.02219940
1897.94645508,0.02234133
1899.87526245,0.02233638
1901.80406982,0.02222637
1903.73287720,0.02203242
1905.66168457,0.02230820
1907.59049194,0.02184943
1909.51929932,0.02181594
1911.44810669,0.02193459
1913.37691406,0.02190813
1915.30572144,0.02214116
1917.23452881,0.02114034
1919.16333618,0.02113813
1921.09214355,0.02187177
1923.02095093,0.02134923
1924.94975830,0.02159857
1926.87856567,0.02181423
1928.80737305,0.02169209
1930.73618042,0.02176904
1932.66498779,0.02153649
1934.59379517,0.02163413
1936.52260254,0.02142298
1938.45140991,0.02153515
1940.38021729,0.02151015
1942.30902466,0.02100818
1944.23783203,0.02129402
1946.16663940,0.02137597
1948.09544678,0.02142918
1950.02425415,0.02148041
1951.95306152,0.02137680
1953.88186890,0.02137548
1955.81067627,0.02122971
1957.73948364,0.02121663
1959.66829102,0.02117528
1961.59709839,0.02127995
1963.52590576,0.02125307
1965.45471313,0.02107227
1967.38352051,0.02093591
1969.31232788,0.02098147
1971.24113525,0.02114473
1973.16994263,0.02097804
1975.09875000,0.02099857
1977.02755737,0.02100041
1978.95636475,0.02092069
1980.88517212,0.02080842
1982.81397949,0.02081936
1984.74278687,0.02082306
1986.67159424,0.02052486
1988.60040161,0.02068302
1990.52920898,0.02054252
1992.45801636,0.02039276
1994.38682373,0.02069194
1996.31563110,0.02059559
1998.24443848,0.02051458
2000.17324585,0.02055517
2002.10205322,0.02048681
2004.03086060,0.02039507
2005.95966797,0.02038166
2007.88847534,0.02022533
2009.81728271,0.02021747
2011.74609009,0.02024019
2013.67489746,0.02012601
2015.60370483,0.02005415
2017.53251221,0.01972176
2019.46131958,0.01988959
2021.39012695,0.01997508
2023.31893433,0.01980492
2025.24774170,0.01998096
2027.17654907,0.01981804
2029.10535645,0.01966567
2031.03416382,0.01966584
2032.96297119,0.01965887
2034.89177856,0.01951146
2036.82058594,0.01952384
2038.74939331,0.01953576
2040.67820068,0.01933300
2042.60700806,0.01946252
2044.53581543,0.01935115
2046.46462280,0.01932363
2048.39343018,0.01928980
2050.32223755,0.01909545
2052.25104492,0.01926726
2054.17985229,0.01922706
2056.10865967,0.01908307
2058.03746704,0.01898541
2059.96627441,0.01900736
2061.89508179,0.01903245
2063.82388916,0.01886487
2065.75269653,0.01875713
2067.68150391,0.01884412
2069.61031128,0.01899652
2071.53911865,0.01877637
2073.46792603,0.01863012
2075.39673340,0.01877466
2077.32554077,0.01877103
2079.25434814,0.01857455
2081.18315552,0.01856121
2083.11196289,0.01860371
2085.04077026,0.01840534
2086.96957764,0.01847972
2088.89838501,0.01844887
2090.82719238,0.01838160
2092.75599976,0.01850097
2094.68480713,0.01834130
2096.61361450,0.01837492
2098.54242187,0.01840947
2100.47122925,0.01825925
2102.40003662,0.01815410
2104.32884399,0.01802304
2106.25765137,0.01809614
2108.18645874,0.01810920
2110.11526611,0.01804540
2112.04407349,0.01809011
2113.97288086,0.01789406
2115.90168823,0.01787724
2117.83049561,0.01803905
2119.75930298,0.01788748
2121.68811035,0.01787275
2123.61691772,0.01787216
2125.54572510,0.01784557
2127.47453247,0.01789713
2129.40333984,0.01782035
2131.33214722,0.01772327
2133.26095459,0.01754620
2135.18976196,0.01767596
2137.11856934,0.01780301
2139.04737671,0.01764623
2140.97618408,0.01754184
2142.90499146,0.01744712
2144.83379883,0.01762995
2146.76260620,0.01759498
2148.69141357,0.01737645
2150.62022095,0.01750121
2152.54902832,0.01748262
2154.47783569,0.01732212
2156.40664307,0.01734065
2158.33545044,0.01748073
2160.26425781,0.01750535
2162.19306519,0.01730748
2164.12187256,0.01712964
2166.05067993,0.01729317
2167.97948730,0.01738046
2169.90829468,0.01725207
2171.83710205,0.01727917
2173.76590942,0.01723821
2175.69471680,0.01721735
2177.62352417,0.01713673
2179.55233154,0.01708667
2181.48113892,0.01718708
2183.40994629,0.01712568
2185.33875366,0.01709222
2187.26756104,0.01699673
2189.19636841,0.01694617
2191.12517578,0.01691433
2193.05398315,0.01681616
2194.98279053,0.01690391
2196.91159790,0.01690595
2198.84040527,0.01693191
2200.76921265,0.01693660
2202.69802002,0.01679158
2204.62682739,0.01680208
2206.55563477,0.01683473
2208.48444214,0.01672601
2210.41324951,0.01665041
2212.34205688,0.01674380
2214.27086426,0.01674020
2216.19967163,0.01666699
2218.12847900,0.01671210
2220.05728638,0.01664726
2221.98609375,0.01656837
2223.91490112,0.01648692
2225.84370850,0.01646891
2227.77251587,0.01653709
2229.70132324,0.01634310
2231.63013062,0.01644349
2233.55893799,0.01660054
2235.48774536,0.01627384
2237.41655273,0.01630598
2239.34536011,0.01635452
2241.27416748,0.01619985
2243.20297485,0.01621886
2245.13178223,0.01617740
2247.06058960,0.01625078
2248.98939697,0.01617464
2250.91820435,0.01607826
2252.84701172,0.01614754
2254.77581909,0.01609886
2256.70462646,0.01607593
2258.63343384,0.01599576
2260.56224121,0.01602870
2262.49104858,0.01602447
2264.41985596,0.01591526
2266.34866333,0.01592335
2268.27747070,0.01585004
2270.20627808,0.01593392
2272.13508545,0.01592440
2274.06389282,0.01575677
2275.99270020,0.01579186
2277.92150757,0.01577061
2279.85031494,0.01577543
2281.77912231,0.01576003
2283.70792969,0.01569109
2285.63673706,0.01573369
2287.56554443,0.01561324
2289.49435181,0.01549056
2291.42315918,0.01559943
2293.35196655,0.01560510
2295.28077393,0.01543747
2297.20958130,0.01532774
2299.13838867,0.01529971
2301.06719604,0.01525828
2302.99600342,0.01513384
2304.92481079,0.01503462
2306.85361816,0.01496701
2308.78242554,0.01481114
2310.71123291,0.01469128
2312.64004028,0.01454297
2314.56884766,0.01434370
2316.49765503,0.01422400
2318.42646240,0.01405350
2320.35526978,0.01375896
2322.28407715,0.01352810
2324.21288452,0.01343769
2326.14169189,0.01325118
2328.07049927,0.01314451
2329.99930664,0.01300159
2331.92811401,0.01266846
2333.85692139,0.01263360
2335.78572876,0.01260257
2337.71453613,0.01258583
2339.64334351,0.01268423
2341.57215088,0.01270407
2343.50095825,0.01285823
2345.42976562,0.01303852
2347.35857300,0.01364182
2349.28738037,0.01413609
2351.21618774,0.01363957
2353.14499512,0.01287381
2355.07380249,0.01232811
2357.00260986,0.01194758
2358.93141724,0.01170257
2360.86022461,0.01158699
2362.78903198,0.01146247
2364.71783936,0.01159695
2366.64664673,0.01192458
2368.57545410,0.01206869
2370.50426147,0.01238754
2372.43306885,0.01274696
2374.36187622,0.01316210
2376.29068359,0.01345973
2378.21949097,0.01361910
2380.14829834,0.01409652
2382.07710571,0.01431440
2384.00591309,0.01432486
2385.93472046,0.01442464
2387.86352783,0.01436336
2389.79233521,0.01426423
2391.72114258,0.01431604
2393.64994995,0.01431839
2395.57875732,0.01422374
2397.50756470,0.01426975
2399.43637207,0.01419253
2401.36517944,0.01415619
2403.29398682,0.01416541
2405.22279419,0.01407999
2407.15160156,0.01422038
2409.08040894,0.01424250
2411.00921631,0.01410496
2412.93802368,0.01406654
2414.86683105,0.01405082
2416.79563843,0.01404094
2418.72444580,0.01402168
2420.65325317,0.01398928
2422.58206055,0.01396747
2424.51086792,0.01389189
2426.43967529,0.01386901
2428.36848267,0.01385779
2430.29729004,0.01377816
2432.22609741,0.01387786
2434.15490479,0.01373167
2436.08371216,0.01366721
2438.01251953,0.01384638
2439.94132690,0.01374225
2441.87013428,0.01379129
2443.79894165,0.01366025
2445.72774902,0.01359574
2447.65655640,0.01364053
2449.58536377,0.01349310
2451.51417114,0.01361242
2453.44297852,0.01350890
2455.37178589,0.01346896
2457.30059326,0.01353078
2459.22940063,0.01348278
2461.15820801,0.01349873
2463.08701538,0.01343051
2465.01582275,0.01349756
2466.94463013,0.01347225
2468.87343750,0.01336620
2470.80224487,0.01329752
2472.73105225,0.01338441
2474.65985962,0.01336148
2476.58866699,0.01324159
2478.51747437,0.01332067
2480.44628174,0.01315466
2482.37508911,0.01319308
2484.30389648,0.01324836
2486.23270386,0.01321429
2488.16151123,0.01319698
2490.09031860,0.01300144
2492.01912598,0.01308847
2493.94793335,0.01302741
2495.87674072,0.01305612
2497.80554810,0.01307767
2499.73435547,0.01285436
2501.66316284,0.01294112
2503.59197021,0.01298586
2505.52077759,0.01292048
2507.44958496,0.01285759
2509.37839233,0.01293127
2511.30719971,0.01288875
2513.23600708,0.01276374
2515.16481445,0.01287239
2517.09362183,0.01285518
2519.02242920,0.01276419
2520.95123657,0.01275904
2522.88004395,0.01282248
2524.80885132,0.01269930
2526.73765869,0.01265922
2528.66646606,0.01268012
2530.59527344,0.01255419
2532.52408081,0.01267502
2534.45288818,0.01266976
2536.38169556,0.01255282
2538.31050293,0.01253616
2540.23931030,0.01261324
2542.16811768,0.01260295
2544.09692505,0.01248535
2546.02573242,0.01241110
2547.95453979,0.01228322
2549.88334717,0.01243871
2551.81215454,0.01240407
2553.74096191,0.01235442
2555.66976929,0.01241354
2557.59857666,0.01224028
2559.52738403,0.01230988
2561.45619141,0.01219312
2563.38499878,0.01218795
2565.31380615,0.01230389
2567.24261353,0.01222698
2569.17142090,0.01226368
2571.10022827,0.01214813
2573.02903564,0.01211086
2574.95784302,0.01218875
2576.88665039,0.01226389
2578.81545776,0.01219476
2580.74426514,0.01212791
2582.67307251,0.01211292
2584.60187988,0.01205223
2586.53068726,0.01212711
2588.45949463,0.01199552
2590.38830200,0.01195961
2592.31710937,0.01191735
2594.24591675,0.01186697
2596.17472412,0.01190765
2598.10353149,0.01184550
2600.03233887,0.01194090
2601.96114624,0.01175532
2603.88995361,0.01181543
2605.81876099,0.01190130
2607.74756836,0.01163609
2609.67637573,0.01168370
2611.60518311,0.01170264
2613.53399048,0.01174754
2615.46279785,0.01166116
2617.39160522,0.01164446
2619.32041260,0.01169005
2621.24921997,0.01157515
2623.17802734,0.01159131
2625.10683472,0.01149390
2627.03564209,0.01157572
2628.96444946,0.01157755
2630.89325684,0.01153861
2632.82206421,0.01153212
2634.75087158,0.01139317
2636.67967895,0.01146302
2638.60848633,0.01136034
2640.53729370,0.01135522
2642.46610107,0.01138553
2644.39490845,0.01129876
2646.32371582,0.01131626
2648.25252319,0.01129308
2650.18133057,0.01129516
2652.11013794,0.01124274
2654.03894531,0.01122852
2655.96775269,0.01111397
2657.89656006,0.01115286
2659.82536743,0.01118570
2661.75417480,0.01104919
2663.68298218,0.01118595
2665.61178955,0.01119296
2667.54059692,0.01112651
2669.46940430,0.01100236
2671.39821167,0.01098312
2673.32701904,0.01096941
2675.25582642,0.01082983
2677.18463379,0.01107197
2679.11344116,0.01104357
2681.04224854,0.01081126
2682.97105591,0.01088421
2684.89986328,0.01096888
2686.82867065,0.01088656
2688.75747803,0.01080468
2690.68628540,0.01080186
2692.61509277,0.01076052
2694.54390015,0.01078180
2696.47270752,0.01071978
2698.40151489,0.01074359
2700.33032227,0.01066009
2702.25912964,0.01060804
2704.18793701,0.01073294
2706.11674438,0.01057033
2708.04555176,0.01064957
2709.97435913,0.01069396
2711.90316650,0.01064567
2713.83197388,0.01071333
2715.76078125,0.01058489
2717.68958862,0.01055118
2719.61839600,0.01053974
2721.54720337,0.01048538
2723.47601074,0.01043611
2725.40481812,0.01056070
2727.33362549,0.01054272
2729.26243286,0.01039511
2731.19124023,0.01043596
2733.12004761,0.01034872
2735.04885498,0.01027339
2736.97766235,0.01020047
2738.90646973,0.01026582
2740.83527710,0.01021287
2742.76408447,0.01016071
2744.69289185,0.01030086
2746.62169922,0.01016776
2748.55050659,0.01020559
2750.47931396,0.01019598
2752.40812134,0.01011178
2754.33692871,0.01010860
2756.26573608,0.01011835
2758.19454346,0.01010058
2760.12335083,0.00995821
2762.05215820,0.01005726
2763.98096558,0.00994822
2765.90977295,0.00990969
2767.83858032,0.00989902
2769.76738770,0.00979663
2771.69619507,0.00996195
2773.62500244,0.00985170
2775.55380981,0.00989197
2777.48261719,0.00991171
2779.41142456,0.00975188
2781.34023193,0.00971741
2783.26903931,0.00976774
2785.19784668,0.00982296
2787.12665405,0.00965612
2789.05546143,0.00973141
2790.98426880,0.00965902
2792.91307617,0.00956227
2794.84188354,0.00960303
2796.77069092,0.00944773
2798.69949829,0.00956106
2800.62830566,0.00952791
2802.55711304,0.00941987
2804.48592041,0.00946865
2806.41472778,0.00948402
2808.34353516,0.00944836
2810.27234253,0.00942233
2812.20114990,0.00947751
2814.12995728,0.00935408
2816.05876465,0.00931219
2817.98757202,0.00926455
2819.91637939,0.00918974
2821.84518677,0.00922789
2823.77399414,0.00922862
2825.70280151,0.00926709
2827.63160889,0.00919582
2829.56041626,0.00917409
2831.48922363,0.00914466
2833.41803101,0.00909330
2835.34683838,0.00911523
2837.27564575,0.00902518
2839.20445312,0.00900706
2841.13326050,0.00895045
2843.06206787,0.00887561
2844.99087524,0.00892354
2846.91968262,0.00873780
2848.84848999,0.00859316
2850.77729736,0.00873808
2852.70610474,0.00865213
2854.63491211,0.00866503
2856.56371948,0.00874824
2858.49252686,0.00853717
2860.42133423,0.00868727
2862.35014160,0.00879562
2864.27894897,0.00859731
2866.20775635,0.00858181
2868.13656372,0.00857832
2870.06537109,0.00856497
2871.99417847,0.00856309
2873.92298584,0.00852267
2875.85179321,0.00846036
2877.78060059,0.00843452
2879.70940796,0.00846068
2881.63821533,0.00852216
2883.56702270,0.00849321
2885.49583008,0.00839225
2887.42463745,0.00839441
2889.35344482,0.00835550
2891.28225220,0.00828777
2893.21105957,0.00822948
2895.13986694,0.00827592
2897.06867432,0.00822763
2898.99748169,0.00810895
2900.92628906,0.00821486
2902.85509644,0.00810691
2904.78390381,0.00809813
2906.71271118,0.00819184
2908.64151855,0.00801252
2910.57032593,0.00796533
2912.49913330,0.00787627
2914.42794067,0.00784295
2916.35674805,0.00791125
2918.28555542,0.00777950
2920.21436279,0.00775089
2922.14317017,0.00780525
2924.07197754,0.00779010
2926.00078491,0.00777558
2927.92959229,0.00772715
2929.85839966,0.00772022
2931.78720703,0.00770975
2933.71601440,0.00769582
2935.64482178,0.00773072
2937.57362915,0.00770528
2939.50243652,0.00765383
2941.43124390,0.00757729
2943.36005127,0.00762485
2945.28885864,0.00767665
2947.21766602,0.00757324
2949.14647339,0.00759218
2951.07528076,0.00751797
2953.00408813,0.00748530
2954.93289551,0.00764090
2956.86170288,0.00749987
2958.79051025,0.00739144
2960.71931763,0.00749829
2962.64812500,0.00733560
2964.57693237,0.00735250
2966.50573975,0.00748019
2968.43454712,0.00723003
2970.36335449,0.00729601
2972.29216187,0.00731682
2974.22096924,0.00725766
2976.14977661,0.00747509
2978.07858398,0.00738741
2980.00739136,0.00740824
2981.93619873,0.00733769
2983.86500610,0.00724042
2985.79381348,0.00736753
2987.72262085,0.00730058
2989.65142822,0.00728595
2991.58023560,0.00720587
2993.50904297,0.00721477
2995.43785034,0.00715927
2997.36665771,0.00712092
2999.29546509,0.00725350
3001.22427246,0.00714957
3003.15307983,0.00713210
3005.08188721,0.00708238
3007.01069458,0.00709991
3008.93950195,0.00709476
3010.86830933,0.00701641
3012.79711670,0.00704191
3014.72592407,0.00690941
3016.65473145,0.00696720
3018.58353882,0.00696175
3020.51234619,0.00691970
3022.44115356,0.00700453
3024.36996094,0.00695456
3026.29876831,0.00684317
3028.22757568,0.00672792
3030.15638306,0.00681612
3032.08519043,0.00678352
3034.01399780,0.00673886
3035.94280518,0.00681742
3037.87161255,0.00681905
3039.80041992,0.00679841
3041.72922729,0.00663693
3043.65803467,0.00662712
3045.58684204,0.00665238
3047.51564941,0.00663019
3049.44445679,0.00665880
3051.37326416,0.00659278
3053.30207153,0.00655201
3055.23087891,0.00654190
3057.15968628,0.00653080
3059.08849365,0.00645874
3061.01730103,0.00649288
3062.94610840,0.00652038
3064.87491577,0.00644174
3066.80372314,0.00645633
3068.73253052,0.00644098
3070.66133789,0.00645737
3072.59014526,0.00642750
3074.51895264,0.00637219
3076.44776001,0.00635068
3078.37656738,0.00629328
3080.30537476,0.00631734
3082.23418213,0.00625118
3084.16298950,0.00618256
3086.09179687,0.00627739
3088.02060425,0.00629710
3089.94941162,0.00621542
3091.87821899,0.00619378
3093.80702637,0.00620035
3095.73583374,0.00615914
3097.66464111,0.00611572
3099.59344849,0.00607462
3101.52225586,0.00598630
3103.45106323,0.00598413
3105.37987061,0.00605755
3107.30867798,0.00596699
3109.23748535,0.00598162
3111.16629272,0.00605837
3113.09510010,0.00595009
3115.02390747,0.00600914
3116.95271484,0.00598357
3118.88152222,0.00580247
3120.81032959,0.00587475
3122.73913696,0.00594165
3124.66794434,0.00587563
3126.59675171,0.00583027
3128.52555908,0.00586244
3130.45436645,0.00582315
3132.38317383,0.00569739
3134.31198120,0.00578145
3136.24078857,0.00581554
3138.16959595,0.00575410
3140.09840332,0.00573671
3142.02721069,0.00564209
3143.95601807,0.00569305
3145.88482544,0.00563188
3147.81363281,0.00561379
3149.74244019,0.00572884
3151.67124756,0.00551731
3153.60005493,0.00558166
3155.52886230,0.00572386
3157.45766968,0.00556347
3159.38647705,0.00555831
3161.31528442,0.00559482
3163.24409180,0.00562652
3165.17289917,0.00550831
3167.10170654,0.00533766
3169.03051392,0.00541134
3170.95932129,0.00547045
3172.88812866,0.00547883
3174.81693604,0.00547534
3176.74574341,0.00534987
3178.67455078,0.00532344
3180.60335815,0.00538902
3182.53216553,0.00535036
3184.46097290,0.00539353
3186.38978027,0.00541209
3188.31858765,0.00541109
3190.24739502,0.00542167
3192.17620239,0.00527663
3194.10500977,0.00526550
3196.03381714,0.00528306
3197.96262451,0.00523318
3199.89143188,0.00530813
3201.82023926,0.00532043
3203.74904663,0.00522476
3205.67785400,0.00524993
3207.60666138,0.00528751
3209.53546875,0.00525190
3211.46427612,0.00533109
3213.39308350,0.00529537
3215.32189087,0.00521332
3217.25069824,0.00524339
3219.17950562,0.00526703
3221.10831299,0.00529549
3223.03712036,0.00530157
3224.96592773,0.00531710
3226.89473511,0.00526476
3228.82354248,0.00529100
3230.75234985,0.00524024
3232.68115723,0.00520401
3234.60996460,0.00536768
3236.53877197,0.00527254
3238.46757935,0.00521581
3240.39638672,0.00532610
3242.32519409,0.00539740
3244.25400146,0.00531552
3246.18280884,0.00527518
3248.11161621,0.00538313
3250.04042358,0.00526422
3251.96923096,0.00529821
3253.89803833,0.00538279
3255.82684570,0.00539561
3257.75565308,0.00538079
3259.68446045,0.00527492
3261.61326782,0.00537691
3263.54207520,0.00534983
3265.47088257,0.00530180
3267.39968994,0.00531459
3269.32849731,0.00529607
3271.25730469,0.00534859
3273.18611206,0.00531316
3275.11491943,0.00532273
3277.04372681,0.00540100
3278.97253418,0.00541734
3280.90134155,0.00533767
3282.83014893,0.00537069
3284.75895630,0.00535062
3286.68776367,0.00536836
3288.61657104,0.00552454
3290.54537842,0.00542653
3292.47418579,0.00543647
3294.40299316,0.00543181
3296.33180054,0.00538807
3298.26060791,0.00556160
3300.18941528,0.00558589
3302.11822266,0.00545680
3304.04703003,0.00547346
3305.97583740,0.00554723
3307.90464478,0.00538054
3309.83345215,0.00538650
3311.76225952,0.00546838
3313.69106689,0.00546849
3315.61987427,0.00551952
3317.54868164,0.00544483
3319.47748901,0.00549609
3321.40629639,0.00545601
3323.33510376,0.00545947
3325.26391113,0.00552293
3327.19271851,0.00556189
3329.12152588,0.00566257
3331.05033325,0.00547984
3332.97914062,0.00552568
3334.90794800,0.00559170
3336.83675537,0.00558314
3338.76556274,0.00566242
3340.69437012,0.00549472
3342.62317749,0.00554922
3344.55198486,0.00555519
3346.48079224,0.00555520
3348.40959961,0.00572160
3350.33840698,0.00566221
3352.26721436,0.00568310
3354.19602173,0.00566149
3356.12482910,0.00557797
3358.05363647,0.00562869
3359.98244385,0.00570621
3361.91125122,0.00577068
3363.84005859,0.00567779
3365.76886597,0.00559070
3367.69767334,0.00564672
3369.62648071,0.00572190
3371.55528809,0.00570739
3373.48409546,0.00567343
3375.41290283,0.00578351
3377.34171020,0.00583806
3379.27051758,0.00582424
3381.19932495,0.00578131
3383.12813232,0.00570786
3385.05693970,0.00573558
3386.98574707,0.00576895
3388.91455444,0.00587913
3390.84336182,0.00583137
3392.77216919,0.00575688
3394.70097656,0.00590390
3396.62978394,0.00588079
3398.55859131,0.00589806
3400.48739868,0.00587916
3402.41620605,0.00585571
3404.34501343,0.00595215
3406.27382080,0.00590839
3408.20262817,0.00593260
3410.13143555,0.00595713
3412.06024292,0.00599647
3413.98905029,0.00598406
3415.91785767,0.00601831
3417.84666504,0.00611017
3419.77547241,0.00602301
3421.70427979,0.00605870
3423.63308716,0.00599067
3425.56189453,0.00597774
3427.49070190,0.00610796
3429.41950928,0.00607581
3431.34831665,0.00609346
3433.27712402,0.00610334
3435.20593140,0.00614388
3437.13473877,0.00611191
3439.06354614,0.00609199
3440.99235352,0.00619456
3442.92116089,0.00615764
3444.84996826,0.00611010
3446.77877563,0.00611477
3448.70758301,0.00613907
3450.63639038,0.00622056
3452.56519775,0.00626405
3454.49400513,0.00620050
3456.42281250,0.00618338
3458.35161987,0.00621876
3460.28042725,0.00626431
3462.20923462,0.00627990
3464.13804199,0.00624190
3466.06684937,0.00627984
3467.99565674,0.00626094
3469.92446411,0.00626485
3471.85327148,0.00624824
3473.78207886,0.00626996
3475.71088623,0.00630993
3477.63969360,0.00616909
3479.56850098,0.00627921
3481.49730835,0.00633788
3483.42611572,0.00630668
3485.35492310,0.00638897
3487.28373047,0.00634620
3489.21253784,0.00645347
3491.14134521,0.00646031
3493.07015259,0.00643734
3494.99895996,0.00650003
3496.92776733,0.00637217
3498.85657471,0.00636831
3500.78538208,0.00637563
3502.71418945,0.00631634
3504.64299683,0.00639293
3506.57180420,0.00643444
3508.50061157,0.00642113
3510.42941895,0.00640865
3512.35822632,0.00640806
3514.28703369,0.00644968
3516.21584106,0.00645145
3518.14464844,0.00648353
3520.07345581,0.00653016
3522.00226318,0.00641096
3523.93107056,0.00627469
3525.85987793,0.00638187
3527.78868530,0.00649760
3529.71749268,0.00644479
3531.64630005,0.00655610
3533.57510742,0.00655376
3535.50391479,0.00635702
3537.43272217,0.00641246
3539.36152954,0.00651925
3541.29033691,0.00656139
3543.21914429,0.00653467
3545.14795166,0.00635918
3547.07675903,0.00624560
3549.00556641,0.00643117
3550.93437378,0.00647303
3552.86318115,0.00636563
3554.79198853,0.00658321
3556.72079590,0.00654310
3558.64960327,0.00638876
3560.57841064,0.00638332
3562.50721802,0.00638529
3564.43602539,0.00639470
3566.36483276,0.00598960
3568.29364014,0.00594079
3570.22244751,0.00635569
3572.15125488,0.00639485
3574.08006226,0.00637530
3576.00886963,0.00642440
3577.93767700,0.00638832
3579.86648437,0.00634470
3581.79529175,0.00638093
3583.72409912,0.00647156
3585.65290649,0.00622374
3587.58171387,0.00579879
3589.51052124,0.00603365
3591.43932861,0.00643892
3593.36813599,0.00625940
3595.29694336,0.00609524
3597.22575073,0.00624034
3599.15455811,0.00628128
3601.08336548,0.00617984
3603.01217285,0.00625072
3604.94098022,0.00636842
3606.86978760,0.00619631
3608.79859497,0.00578160
3610.72740234,0.00589342
3612.65620972,0.00600498
3614.58501709,0.00585414
3616.51382446,0.00623942
3618.44263184,0.00576910
3620.37143921,0.00570278
3622.30024658,0.00631243
3624.22905395,0.00612017
3626.15786133,0.00628542
3628.08666870,0.00533206
3630.01547607,0.00508198
3631.94428345,0.00623645
3633.87309082,0.00607406
3635.80189819,0.00621153
3637.73070557,0.00629336
3639.65951294,0.00613228
3641.58832031,0.00616098
3643.51712769,0.00614649
3645.44593506,0.00616629
3647.37474243,0.00557438
3649.30354980,0.00515387
3651.23235718,0.00526316
3653.16116455,0.00614695
3655.08997192,0.00598809
3657.01877930,0.00548958
3658.94758667,0.00624858
3660.87639404,0.00605018
3662.80520142,0.00611818
3664.73400879,0.00615336
3666.66281616,0.00608494
3668.59162354,0.00575494
3670.52043091,0.00478610
3672.44923828,0.00576582
3674.37804565,0.00536298
3676.30685303,0.00457107
3678.23566040,0.00577877
3680.16446777,0.00578656
3682.09327515,0.00571326
3684.02208252,0.00584574
3685.95088989,0.00567088
3687.87969727,0.00512142
3689.80850464,0.00489227
3691.73731201,0.00550545
3693.66611938,0.00552926
3695.59492676,0.00571128
3697.52373413,0.00560437
3699.45254150,0.00551739
3701.38134888,0.00546456
3703.31015625,0.00525160
3705.23896362,0.00575602
3707.16777100,0.00539884
3709.09657837,0.00527483
3711.02538574,0.00507113
3712.95419312,0.00475373
3714.88300049,0.00547526
3716.81180786,0.00534031
3718.74061523,0.00538138
3720.66942261,0.00529302
3722.59822998,0.00503020
3724.52703735,0.00517204
3726.45584473,0.00487977
3728.38465210,0.00521827
3730.31345947,0.00509499
3732.24226685,0.00473712
3734.17107422,0.00470379
3736.09988159,0.00447357
3738.02868896,0.00463803
3739.95749634,0.00505740
3741.88630371,0.00524520
3743.81511108,0.00408311
3745.74391846,0.00395284
3747.67272583,0.00494855
3749.60153320,0.00425204
3751.53034058,0.00398155
3753.45914795,0.00446842
3755.38795532,0.00482638
3757.31676270,0.00500521
3759.24557007,0.00462335
3761.17437744,0.00482524
3763.10318481,0.00501435
3765.03199219,0.00480472
3766.96079956,0.00491772
3768.88960693,0.00466427
3770.81841431,0.00461402
3772.74722168,0.00497452
3774.67602905,0.00485743
3776.60483643,0.00483854
3778.53364380,0.00473469
3780.46245117,0.00470569
3782.39125854,0.00497241
3784.32006592,0.00480886
3786.24887329,0.00470178
3788.17768066,0.00477796
3790.10648804,0.00479207
3792.03529541,0.00473101
3793.96410278,0.00479110
3795.89291016,0.00454749
3797.82171753,0.00456434
3799.75052490,0.00459352
3801.67933228,0.00371085
3803.60813965,0.00441145
3805.53694702,0.00457857
3807.46575439,0.00387161
3809.39456177,0.00461878
3811.32336914,0.00456137
3813.25217651,0.00478852
3815.18098389,0.00422911
3817.10979126,0.00380721
3819.03859863,0.00470572
3820.96740601,0.00384488
3822.89621338,0.00407321
3824.82502075,0.00461061
3826.75382812,0.00425394
3828.68263550,0.00460073
3830.61144287,0.00425114
3832.54025024,0.00418959
3834.46905762,0.00436222
3836.39786499,0.00397732
3838.32667236,0.00371929
3840.25547974,0.00409011
3842.18428711,0.00433544
3844.11309448,0.00416113
3846.04190186,0.00441116
3847.97070923,0.00434835
3849.89951660,0.00434247
3851.82832397,0.00387828
3853.75713135,0.00290133
3855.68593872,0.00353043
3857.61474609,0.00442955
3859.54355347,0.00424527
3861.47236084,0.00416253
3863.40116821,0.00408604
3865.32997559,0.00391069
3867.25878296,0.00419498
3869.18759033,0.00387059
3871.11639770,0.00366959
3873.04520508,0.00415316
3874.97401245,0.00393557
3876.90281982,0.00421941
3878.83162720,0.00422018
3880.76043457,0.00371284
3882.68924194,0.00427732
3884.61804932,0.00395202
3886.54685669,0.00358552
3888.47566406,0.00414106
3890.40447144,0.00391561
3892.33327881,0.00383725
3894.26208618,0.00405358
3896.19089355,0.00405733
3898.11970093,0.00393859
3900.04850830,0.00362324
3901.97731567,0.00367219
3903.90612305,0.00364545
3905.83493042,0.00367239
3907.76373779,0.00395052
3909.69254517,0.00395937
3911.62135254,0.00404445
3913.55015991,0.00405182
3915.47896728,0.00394168
3917.40777466,0.00379597
3919.33658203,0.00377274
3921.26538940,0.00396185
3923.19419678,0.00387777
3925.12300415,0.00383383
3927.05181152,0.00389840
3928.98061890,0.00391025
3930.90942627,0.00386318
3932.83823364,0.00377544
3934.76704102,0.00386949
3936.69584839,0.00388302
3938.62465576,0.00381258
3940.55346313,0.00381137
3942.48227051,0.00380650
3944.41107788,0.00379724
3946.33988525,0.00373621
3948.26869263,0.00364010
3950.19750000,0.00371100
3952.12630737,0.00380925
3954.05511475,0.00376384
3955.98392212,0.00371911
3957.91272949,0.00366274
3959.84153687,0.00375767
3961.77034424,0.00372595
3963.69915161,0.00361227
3965.62795898,0.00371796
3967.55676636,0.00369398
3969.48557373,0.00363248
3971.41438110,0.00361031
3973.34318848,0.00368066
3975.27199585,0.00364804
3977.20080322,0.00355955
3979.12961060,0.00361204
3981.05841797,0.00355177
3982.98722534,0.00359949
3984.91603271,0.00364038
3986.84484009,0.00367198
3988.77364746,0.00365575
3990.70245483,0.00355574
3992.63126221,0.00359580
3994.56006958,0.00357202
3996.48887695,0.00355504
3998.41768433,0.00356384
4000.34649170,0.00362453
4002.27529907,0.00353497
4004.20410645,0.00344071
4006.13291382,0.00353647
4008.06172119,0.00348747
4009.99052856,0.00351448
4011.91933594,0.00351463
4013.84814331,0.00346364
4015.77695068,0.00345095
4017.70575806,0.00341923
4019.63456543,0.00337969
4021.56337280,0.00336490
4023.49218018,0.00345540
4025.42098755,0.00341993
4027.34979492,0.00345624
4029.27860229,0.00345261
4031.20740967,0.00343576
4033.13621704,0.00350946
4035.06502441,0.00336871
4036.99383179,0.00333156
4038.92263916,0.00334687
4040.85144653,0.00331873
4042.78025391,0.00333723
4044.70906128,0.00342373
4046.63786865,0.00347252
4048.56667603,0.00338706
4050.49548340,0.00337413
4052.42429077,0.00334913
4054.35309814,0.00331914
4056.28190552,0.00326640
4058.21071289,0.00323561
4060.13952026,0.00323682
4062.06832764,0.00324699
4063.99713501,0.00326685
4065.92594238,0.00319382
4067.85474976,0.00318760
4069.78355713,0.00319618
4071.71236450,0.00321693
4073.64117187,0.00316297
4075.56997925,0.00314199
4077.49878662,0.00322028
4079.42759399,0.00322663
4081.35640137,0.00327160
4083.28520874,0.00317032
4085.21401611,0.00311860
4087.14282349,0.00315686
4089.07163086,0.00314387
4091.00043823,0.00314687
4092.92924561,0.00312260
4094.85805298,0.00313428
4096.78686035,0.00312379
4098.71566772,0.00316081
4100.64447510,0.00308968
4102.57328247,0.00307307
4104.50208984,0.00314277
4106.43089722,0.00313111
4108.35970459,0.00313515
4110.28851196,0.00303837
4112.21731934,0.00305649
4114.14612671,0.00303066
4116.07493408,0.00304251
4118.00374145,0.00304416
4119.93254883,0.00293238
4121.86135620,0.00301051
4123.79016357,0.00300609
4125.71897095,0.00304936
4127.64777832,0.00298705
4129.57658569,0.00292018
4131.50539307,0.00292877
4133.43420044,0.00284575
4135.36300781,0.00295961
4137.29181519,0.00289898
4139.22062256,0.00289577
4141.14942993,0.00296248
4143.07823730,0.00286531
4145.00704468,0.00286145
4146.93585205,0.00287346
4148.86465942,0.00293896
4150.79346680,0.00292928
4152.72227417,0.00291878
4154.65108154,0.00289094
4156.57988892,0.00282916
4158.50869629,0.00283348
4160.43750366,0.00283437
4162.36631103,0.00289002
4164.29511841,0.00285410
4166.22392578,0.00283299
4168.15273315,0.00288423
4170.08154053,0.00285982
4172.01034790,0.00279033
4173.93915527,0.00277683
4175.86796265,0.00280018
4177.79677002,0.00280684
4179.72557739,0.00278895
4181.65438477,0.00271432
4183.58319214,0.00277407
4185.51199951,0.00278734
4187.44080688,0.00270722
4189.36961426,0.00270840
4191.29842163,0.00271627
4193.22722900,0.00278400
4195.15603638,0.00275868
4197.08484375,0.00268973
4199.01365112,0.00270296
4200.94245850,0.00271943
4202.87126587,0.00268573
4204.80007324,0.00261757
4206.72888062,0.00262137
4208.65768799,0.00269833
4210.58649536,0.00271005
4212.51530273,0.00261577
4214.44411011,0.00263028
4216.37291748,0.00264081
4218.30172485,0.00261316
4220.23053223,0.00263547
4222.15933960,0.00261657
4224.08814697,0.00258434
4226.01695435,0.00254804
4227.94576172,0.00259337
4229.87456909,0.00255271
4231.80337646,0.00252010
4233.73218384,0.00258076
4235.66099121,0.00253687
4237.58979858,0.00254372
4239.51860596,0.00253525
4241.44741333,0.00251216
4243.37622070,0.00259344
4245.30502808,0.00260708
4247.23383545,0.00254319
4249.16264282,0.00259821
4251.09145020,0.00252465
4253.02025757,0.00247386
4254.94906494,0.00260829
4256.87787231,0.00246278
4258.80667969,0.00246339
4260.73548706,0.00256582
4262.66429443,0.00248484
4264.59310181,0.00246437
4266.52190918,0.00249102
4268.45071655,0.00254298
4270.37952393,0.00247007
4272.30833130,0.00247749
4274.23713867,0.00239238
4276.16594604,0.00240006
4278.09475342,0.00250725
4280.02356079,0.00236466
4281.95236816,0.00249033
4283.88117554,0.00249169
4285.80998291,0.00240017
4287.73879028,0.00241984
4289.66759766,0.00237468
4291.59640503,0.00235990
4293.52521240,0.00226935
4295.45401978,0.00241150
4297.38282715,0.00243979
4299.31163452,0.00235646
4301.24044189,0.00233288
4303.16924927,0.00231150
4305.09805664,0.00246109
4307.02686401,0.00239326
4308.95567139,0.00233879
4310.88447876,0.00234901
4312.81328613,0.00232827
4314.74209351,0.00230803
4316.67090088,0.00226273
4318.59970825,0.00238721
4320.52851562,0.00233455
4322.45732300,0.00224573
4324.38613037,0.00227732
4326.31493774,0.00225900
4328.24374512,0.00229989
4330.17255249,0.00230458
4332.10135986,0.00227181
4334.03016724,0.00228423
4335.95897461,0.00226136
4337.88778198,0.00219108
4339.81658936,0.00221982
4341.74539673,0.00227910
4343.67420410,0.00223745
4345.60301147,0.00220295
4347.53181885,0.00227234
4349.46062622,0.00225596
4351.38943359,0.00218481
4353.31824097,0.00222570
4355.24704834,0.00219588
4357.17585571,0.00217860
4359.10466309,0.00222554
4361.03347046,0.00224566
4362.96227783,0.00213907
4364.89108520,0.00207658
4366.81989258,0.00215734
4368.74869995,0.00212015
4370.67750732,0.00213297
4372.60631470,0.00206371
4374.53512207,0.00207666
4376.46392944,0.00218131
4378.39273682,0.00207077
4380.32154419,0.00211036
4382.25035156,0.00211411
4384.17915894,0.00208698
4386.10796631,0.00209514
4388.03677368,0.00206384
4389.96558105,0.00208900
4391.89438843,0.00203443
4393.82319580,0.00204135
4395.75200317,0.00206410
4397.68081055,0.00203786
4399.60961792,0.00201702
4401.53842529,0.00205847
4403.46723267,0.00205714
4405.39604004,0.00204459
4407.32484741,0.00205075
4409.25365478,0.00193641
4411.18246216,0.00202521
4413.11126953,0.00205271
4415.04007690,0.00198096
4416.96888428,0.00196813
4418.89769165,0.00191417
4420.82649902,0.00202583
4422.75530640,0.00204525
4424.68411377,0.00199200
4426.61292114,0.00194834
4428.54172852,0.00198116
4430.47053589,0.00199078
4432.39934326,0.00192637
4434.32815063,0.00201022
4436.25695801,0.00198768
4438.18576538,0.00202880
4440.11457275,0.00195897
4442.04338013,0.00188614
4443.97218750,0.00202273
4445.90099487,0.00193069
4447.82980225,0.00190344
4449.75860962,0.00191248
4451.68741699,0.00191684
4453.61622437,0.00191855
4455.54503174,0.00188710
4457.47383911,0.00191466
4459.40264648,0.00185748
4461.33145386,0.00197839
4463.26026123,0.00194235
4465.18906860,0.00178576
4467.11787598,0.00185395
4469.04668335,0.00182799
4470.97549072,0.00185751
4472.90429810,0.00188810
4474.83310547,0.00188697
4476.76191284,0.00189947
4478.69072021,0.00179621
4480.61952759,0.00179435
4482.54833496,0.00182032
4484.47714233,0.00180662
4486.40594971,0.00183413
4488.33475708,0.00181802
4490.26356445,0.00184734
4492.19237183,0.00182950
4494.12117920,0.00176247
4496.04998657,0.00185001
4497.97879395,0.00183053
4499.90760132,0.00174569
4501.83640869,0.00178205
4503.76521606,0.00177303
4505.69402344,0.00175201
4507.62283081,0.00169427
4509.55163818,0.00166778
4511.48044556,0.00172743
4513.40925293,0.00175619
4515.33806030,0.00174545
4517.26686768,0.00174592
4519.19567505,0.00178290
4521.12448242,0.00174722
4523.05328979,0.00173769
4524.98209717,0.00173847
4526.91090454,0.00172675
4528.83971191,0.00179235
4530.76851929,0.00174141
4532.69732666,0.00170004
4534.62613403,0.00167163
4536.55494141,0.00160891
4538.48374878,0.00169751
4540.41255615,0.00175214
4542.34136353,0.00174317
4544.27017090,0.00173550
4546.19897827,0.00173134
4548.12778564,0.00169157
4550.05659302,0.00161612
4551.98540039,0.00170324
4553.91420776,0.00167100
4555.84301514,0.00153666
4557.77182251,0.00162292
4559.70062988,0.00167767
4561.62943726,0.00166987
4563.55824463,0.00163240
4565.48705200,0.00161427
4567.41585937,0.00167021
4569.34466675,0.00163002
4571.27347412,0.00160981
4573.20228149,0.00161009
4575.13108887,0.00161028
4577.05989624,0.00159458
4578.98870361,0.00155694
4580.91751099,0.00159728
4582.84631836,0.00156522
4584.77512573,0.00159361
4586.70393311,0.00163737
4588.63274048,0.00162166
4590.56154785,0.00164825
4592.49035522,0.00156475
4594.41916260,0.00158096
4596.34796997,0.00159788
4598.27677734,0.00152910
4600.20558472,0.00155348
4602.13439209,0.00153935
4604.06319946,0.00154485
4605.99200684,0.00152183
4607.92081421,0.00151156
4609.84962158,0.00153395
4611.77842895,0.00152109
4613.70723633,0.00154114
4615.63604370,0.00153441
4617.56485107,0.00157753
4619.49365845,0.00154077
4621.42246582,0.00148036
4623.35127319,0.00157211
4625.28008057,0.00155034
4627.20888794,0.00145803
4629.13769531,0.00146345
4631.06650269,0.00147074
4632.99531006,0.00149001
4634.92411743,0.00153098
4636.85292480,0.00144687
4638.78173218,0.00140283
4640.71053955,0.00144250
4642.63934692,0.00141554
4644.56815430,0.00141080
4646.49696167,0.00139339
4648.42576904,0.00148444
4650.35457642,0.00152657
4652.28338379,0.00143417
4654.21219116,0.00143207
4656.14099853,0.00140160
4658.06980591,0.00143797
4659.99861328,0.00143920
4661.92742065,0.00139733
4663.85622803,0.00142227
4665.78503540,0.00139297
4667.71384277,0.00139521
4669.64265015,0.00139193
4671.57145752,0.00144922
4673.50026489,0.00144327
4675.42907227,0.00138264
4677.35787964,0.00142530
4679.28668701,0.00139411
4681.21549438,0.00139809
4683.14430176,0.00138721
4685.07310913,0.00133816
4687.00191650,0.00138518
4688.93072388,0.00141248
4690.85953125,0.00132431
4692.78833862,0.00128070
4694.71714600,0.00138184
4696.64595337,0.00130535
4698.57476074,0.00122459
4700.50356812,0.00136744
4702.43237549,0.00139481
4704.36118286,0.00131359
4706.28999023,0.00131008
4708.21879761,0.00133464
4710.14760498,0.00134454
4712.07641235,0.00135581
4714.00521973,0.00131323
4715.93402710,0.00131490
4717.86283447,0.00136724
4719.79164185,0.00132790
4721.72044922,0.00130294
4723.64925659,0.00132282
4725.57806396,0.00132539
4727.50687134,0.00131022
4729.43567871,0.00127767
4731.36448608,0.00128461
4733.29329346,0.00132505
4735.22210083,0.00124860
4737.15090820,0.00117389
4739.07971558,0.00122450
4741.00852295,0.00125810
4742.93733032,0.00134649
4744.86613770,0.00135622
4746.79494507,0.00123463
4748.72375244,0.00123405
4750.65255981,0.00128944
4752.58136719,0.00126205
4754.51017456,0.00120804
4756.43898193,0.00123425
4758.36778931,0.00123620
4760.29659668,0.00122151
4762.22540405,0.00125239
4764.15421143,0.00126466
4766.08301880,0.00122905
4768.01182617,0.00117495
4769.94063354,0.00122420
4771.86944092,0.00119273
4773.79824829,0.00113868
4775.72705566,0.00121830
4777.65586304,0.00123035
4779.58467041,0.00121523
4781.51347778,0.00116512
4783.44228516,0.00113683
4785.37109253,0.00119367
4787.29989990,0.00116668
4789.22870728,0.00116479
4791.15751465,0.00123882
4793.08632202,0.00121469
4795.01512939,0.00117216
4796.94393677,0.00115874
4798.87274414,0.00118221
4800.80155151,0.00119524
4802.73035889,0.00110024
4804.65916626,0.00118838
4806.58797363,0.00122610
4808.51678101,0.00112962
4810.44558838,0.00124487
4812.37439575,0.00119715
4814.30320312,0.00110255
4816.23201050,0.00110082
4818.16081787,0.00102247
4820.08962524,0.00109392
4822.01843262,0.00113081
4823.94723999,0.00105213
4825.87604736,0.00113070
4827.80485474,0.00118533
4829.73366211,0.00111297
4831.66246948,0.00115790
4833.59127686,0.00110310
4835.52008423,0.00099723
4837.44889160,0.00102796
4839.37769897,0.00103921
4841.30650635,0.00110974
4843.23531372,0.00109793
4845.16412109,0.00111527
4847.09292847,0.00115447
4849.02173584,0.00111682
4850.95054321,0.00113304
4852.87935059,0.00100019
4854.80815796,0.00099487
4856.73696533,0.00114398
4858.66577270,0.00115108
4860.59458008,0.00106715
4862.52338745,0.00104393
4864.45219482,0.00109454
4866.38100220,0.00105216
4868.30980957,0.00105417
4870.23861694,0.00102993
4872.16742432,0.00101506
4874.09623169,0.00103742
4876.02503906,0.00102419
4877.95384644,0.00106430
4879.88265381,0.00100941
4881.81146118,0.00104102
4883.74026855,0.00104906
4885.66907593,0.00101127
4887.59788330,0.00106845
4889.52669067,0.00100315
4891.45549805,0.00101180
4893.38430542,0.00104824
4895.31311279,0.00105103
4897.24192017,0.00103063
4899.17072754,0.00099145
4901.09953491,0.00102494
4903.02834228,0.00092893
4904.95714966,0.00096359
4906.88595703,0.00104935
4908.81476440,0.00092126
4910.74357178,0.00099547
4912.67237915,0.00107656
4914.60118652,0.00096175
4916.52999390,0.00095368
4918.45880127,0.00098084
4920.38760864,0.00099743
4922.31641602,0.00099192
4924.24522339,0.00097220
4926.17403076,0.00096074
4928.10283813,0.00088878
4930.03164551,0.00097038
4931.96045288,0.00103871
4933.88926025,0.00091743
4935.81806763,0.00091401
4937.74687500,0.00097035
4939.67568237,0.00097349
4941.60448975,0.00100090
4943.53329712,0.00099716
4945.46210449,0.00093717
4947.39091187,0.00096618
4949.31971924,0.00100466
4951.24852661,0.00095183
4953.17733398,0.00096939
4955.10614136,0.00097132
4957.03494873,0.00090261
4958.96375610,0.00085370
4960.89256348,0.00088995
4962.82137085,0.00095135
4964.75017822,0.00092136
4966.67898560,0.00091410
4968.60779297,0.00087625
4970.53660034,0.00084748
4972.46540771,0.00089549
4974.39421509,0.00090596
4976.32302246,0.00097439
4978.25182983,0.00093330
4980.18063721,0.00082557
4982.10944458,0.00090815
4984.03825195,0.00088590
4985.96705933,0.00084456
4987.89586670,0.00093620
4989.82467407,0.00094453
4991.75348145,0.00093709
4993.68228882,0.00088537
4995.61109619,0.00085775
4997.53990356,0.00086551
4999.46871094,0.00080098
5001.39751831,0.00084081
5003.32632568,0.00091613
5005.25513306,0.00090659
5007.18394043,0.00084282
5009.11274780,0.00082967
5011.04155518,0.00089127
5012.97036255,0.00088219
5014.89916992,0.00082208
5016.82797729,0.00082847
5018.75678467,0.00088414
5020.68559204,0.00087011
5022.61439941,0.00085436
5024.54320679,0.00082508
5026.47201416,0.00078042
5028.40082153,0.00078769
5030.32962891,0.00080796
5032.25843628,0.00085814
5034.18724365,0.00084126
5036.11605103,0.00081831
5038.04485840,0.00076684
5039.97366577,0.00076366
5041.90247314,0.00086193
5043.83128052,0.00079964
5045.76008789,0.00078890
5047.68889526,0.00085626
5049.61770264,0.00083462
5051.54651001,0.00082975
5053.47531738,0.00084029
5055.40412476,0.00078666
5057.33293213,0.00080225
5059.26173950,0.00081523
5061.19054687,0.00070321
5063.11935425,0.00083044
5065.04816162,0.00085580
5066.97696899,0.00079261
5068.90577637,0.00089025
5070.83458374,0.00074995
5072.76339111,0.00074046
5074.69219849,0.00078442
5076.62100586,0.00072780
5078.54981323,0.00077493
5080.47862061,0.00078032
5082.40742798,0.00078309
5084.33623535,0.00076719
5086.26504272,0.00078748
5088.19385010,0.00073711
5090.12265747,0.00078235
5092.05146484,0.00088751
5093.98027222,0.00074271
5095.90907959,0.00072243
5097.83788696,0.00075170
5099.76669434,0.00076617
5101.69550171,0.00084128
5103.62430908,0.00075146
5105.55311645,0.00068622
5107.48192383,0.00074049
5109.41073120,0.00079828
5111.33953857,0.00076340
5113.26834595,0.00069970
5115.19715332,0.00078031
5117.12596069,0.00077412
5119.05476807,0.00068814
5120.98357544,0.00072166
5122.91238281,0.00068485
5124.84119019,0.00070426
5126.76999756,0.00074287
5128.69880493,0.00067094
5130.62761230,0.00069068
5132.55641968,0.00068095
5134.48522705,0.00067872
5136.41403442,0.00070991
5138.34284180,0.00070494
5140.27164917,0.00069158
5142.20045654,0.00068554
5144.12926392,0.00070617
5146.05807129,0.00067313
5147.98687866,0.00070458
5149.91568603,0.00070466
5151.84449341,0.00070738
5153.77330078,0.00075240
5155.70210815,0.00071788
5157.63091553,0.00073281
5159.55972290,0.00068386
5161.48853027,0.00068203
5163.41733765,0.00065532
5165.34614502,0.00057739
5167.27495239,0.00065791
5169.20375977,0.00064306
5171.13256714,0.00064189
5173.06137451,0.00070858
5174.99018188,0.00066446
5176.91898926,0.00060910
5178.84779663,0.00063303
5180.77660400,0.00072678
5182.70541138,0.00074066
5184.63421875,0.00060261
5186.56302612,0.00057883
5188.49183350,0.00069113
5190.42064087,0.00062074
5192.34944824,0.00060690
5194.27825562,0.00068012
5196.20706299,0.00059689
5198.13587036,0.00061846
5200.06467773,0.00068887
5201.99348511,0.00063086
5203.92229248,0.00060057
5205.85109985,0.00061175
5207.77990723,0.00061787
5209.70871460,0.00064795
5211.63752197,0.00065846
5213.56632935,0.00067194
5215.49513672,0.00059832
5217.42394409,0.00057075
5219.35275146,0.00069962
5221.28155884,0.00066139
5223.21036621,0.00058767
5225.13917358,0.00057081
5227.06798096,0.00062349
5228.99678833,0.00065375
5230.92559570,0.00062869
5232.85440308,0.00070834
5234.78321045,0.00058799
5236.71201782,0.00056999
5238.64082520,0.00062466
5240.56963257,0.00058408
5242.49843994,0.00065288
5244.42724731,0.00058601
5246.35605469,0.00060939
5248.28486206,0.00061665
5250.21366943,0.00059864
5252.14247681,0.00064174
5254.07128418,0.00058689
5256.00009155,0.00061912
5257.92889893,0.00060209
5259.85770630,0.00059466
5261.78651367,0.00058779
5263.71532104,0.00060199
5265.64412842,0.00064163
5267.57293579,0.00057912
5269.50174316,0.00055330
5271.43055054,0.00052789
5273.35935791,0.00060621
5275.28816528,0.00060910
5277.21697266,0.00054332
5279.14578003,0.00062201
5281.07458740,0.00058254
5283.00339478,0.00053782
5284.93220215,0.00058527
5286.86100952,0.00055848
5288.78981689,0.00058318
5290.71862427,0.00060898
5292.64743164,0.00052562
5294.57623901,0.00061268
5296.50504639,0.00063511
5298.43385376,0.00052229
5300.36266113,0.00057005
5302.29146851,0.00053831
5304.22027588,0.00053125
5306.14908325,0.00057472
5308.07789062,0.00055993
5310.00669800,0.00057353
5311.93550537,0.00060264
5313.86431274,0.00061979
5315.79312012,0.00056785
5317.72192749,0.00054006
5319.65073486,0.00047401
5321.57954224,0.00044360
5323.50834961,0.00052524
5325.43715698,0.00056481
5327.36596436,0.00049140
5329.29477173,0.00049927
5331.22357910,0.00060183
5333.15238647,0.00049065
5335.08119385,0.00048965
5337.01000122,0.00051459
5338.93880859,0.00048936
5340.86761597,0.00060241
5342.79642334,0.00051544
5344.72523071,0.00049892
5346.65403809,0.00055312
5348.58284546,0.00051061
5350.51165283,0.00052337
5352.44046020,0.00054167
5354.36926758,0.00054494
5356.29807495,0.00051064
5358.22688232,0.00049367
5360.15568970,0.00044203
5362.08449707,0.00044998
5364.01330444,0.00044748
5365.94211182,0.00044458
5367.87091919,0.00051124
5369.79972656,0.00046054
5371.72853394,0.00050328
5373.65734131,0.00051842
5375.58614868,0.00049283
5377.51495605,0.00055768
5379.44376343,0.00051087
5381.37257080,0.00047398
5383.30137817,0.00047341
5385.23018555,0.00048794
5387.15899292,0.00053400
5389.08780029,0.00052824
5391.01660767,0.00048697
5392.94541504,0.00050379
5394.87422241,0.00051230
5396.80302978,0.00040800
5398.73183716,0.00037462
5400.66064453,0.00047602
5402.58945190,0.00050660
5404.51825928,0.00044635
5406.44706665,0.00048786
5408.37587402,0.00051484
5410.30468140,0.00047616
5412.23348877,0.00047011
5414.16229614,0.00042599
5416.09110352,0.00051099
5418.01991089,0.00052366
5419.94871826,0.00034544
5421.87752563,0.00040830
5423.80633301,0.00052916
5425.73514038,0.00051588
5427.66394775,0.00048492
5429.59275513,0.00039982
5431.52156250,0.00043158
5433.45036987,0.00047204
5435.37917725,0.00042328
5437.30798462,0.00045323
5439.23679199,0.00048188
5441.16559936,0.00053217
5443.09440674,0.00051175
5445.02321411,0.00043375
5446.95202148,0.00043681
5448.88082886,0.00047768
5450.80963623,0.00051597
5452.73844360,0.00040536
5454.66725098,0.00038130
5456.59605835,0.00044587
5458.52486572,0.00042219
5460.45367310,0.00046122
5462.38248047,0.00042901
5464.31128784,0.00038049
5466.24009521,0.00042248
5468.16890259,0.00042294
5470.09770996,0.00036471
5472.02651733,0.00041183
5473.95532471,0.00045430
5475.88413208,0.00041746
5477.81293945,0.00046841
5479.74174683,0.00040227
5481.67055420,0.00040280
5483.59936157,0.00047693
5485.52816895,0.00042220
5487.45697632,0.00044117
5489.38578369,0.00044101
5491.31459106,0.00044952
5493.24339844,0.00041076
5495.17220581,0.00035227
5497.10101318,0.00040352
5499.02982056,0.00041092
5500.95862793,0.00036895
5502.88743530,0.00033452
5504.81624268,0.00038621
5506.74505005,0.00040106
5508.67385742,0.00035483
5510.60266479,0.00038384
5512.53147217,0.00042842
5514.46027954,0.00045745
5516.38908691,0.00046284
5518.31789429,0.00039304
5520.24670166,0.00035724
5522.17550903,0.00040441
5524.10431641,0.00034505
5526.03312378,0.00039027
5527.96193115,0.00044780
5529.89073853,0.00036294
5531.81954590,0.00045120
5533.74835327,0.00044556
5535.67716064,0.00036267
5537.60596802,0.00039193
5539.53477539,0.00037919
5541.46358276,0.00036129
5543.39239014,0.00039422
5545.32119751,0.00048167
5547.25000488,0.00043687
5549.17881226,0.00035058
5551.10761963,0.00038059
5553.03642700,0.00037036
5554.96523437,0.00035145
5556.89404175,0.00042524
5558.82284912,0.00041627
5560.75165649,0.00030614
5562.68046387,0.00034479
5564.60927124,0.00037597
5566.53807861,0.00037419
5568.46688599,0.00039740
5570.39569336,0.00035683
5572.32450073,0.00036627
5574.25330811,0.00031397
5576.18211548,0.00033653
5578.11092285,0.00040395
5580.03973022,0.00031948
5581.96853760,0.00035746
5583.89734497,0.00034200
5585.82615234,0.00026418
5587.75495972,0.00035548
5589.68376709,0.00038251
5591.61257446,0.00036510
5593.54138184,0.00039192
5595.47018921,0.00037879
5597.39899658,0.00034870
5599.32780395,0.00037371
5601.25661133,0.00034896
5603.18541870,0.00028116
5605.11422607,0.00038913
5607.04303345,0.00041268
5608.97184082,0.00033053
5610.90064819,0.00041716
5612.82945557,0.00045771
5614.75826294,0.00037785
5616.68707031,0.00032449
5618.61587769,0.00037720
5620.54468506,0.00039179
5622.47349243,0.00034661
5624.40229980,0.00036645
5626.33110718,0.00036585
5628.25991455,0.00040488
5630.18872192,0.00038600
5632.11752930,0.00030874
5634.04633667,0.00033947
5635.97514404,0.00034637
5637.90395142,0.00032905
5639.83275879,0.00034307
5641.76156616,0.00030655
5643.69037353,0.00025388
5645.61918091,0.00028265
5647.54798828,0.00034376
5649.47679565,0.00037361
5651.40560303,0.00030905
5653.33441040,0.00028235
5655.26321777,0.00032185
5657.19202515,0.00031631
5659.12083252,0.00037867
5661.04963989,0.00032849
5662.97844727,0.00030702
5664.90725464,0.00033624
5666.83606201,0.00030884
5668.76486938,0.00039075
5670.69367676,0.00031308
5672.62248413,0.00033075
5674.55129150,0.00032892
5676.48009888,0.00019600
5678.40890625,0.00031267
5680.33771362,0.00037689
5682.26652100,0.00039161
5684.19532837,0.00033298
5686.12413574,0.00030417
5688.05294311,0.00033750
5689.98175049,0.00025834
5691.91055786,0.00028682
5693.83936523,0.00027909
5695.76817261,0.00024436
5697.69697998,0.00026787
5699.62578735,0.00032789
5701.55459473,0.00033862
5703.48340210,0.00022894
5705.41220947,0.00020317
5707.34101685,0.00027735
5709.26982422,0.00030641
5711.19863159,0.00021067
5713.12743896,0.00026148
5715.05624634,0.00034751
5716.98505371,0.00026764
5718.91386108,0.00025742
5720.84266846,0.00029337
5722.77147583,0.00034548
5724.70028320,0.00036256
5726.62909058,0.00032299
5728.55789795,0.00027278
5730.48670532,0.00033196
5732.41551270,0.00033911
5734.34432007,0.00023494
5736.27312744,0.00030187
5738.20193481,0.00028207
5740.13074219,0.00022851
5742.05954956,0.00021972
5743.98835693,0.00024661
5745.91716431,0.00031750
5747.84597168,0.00021442
5749.77477905,0.00030696
5751.70358643,0.00036531
5753.63239380,0.00021184
5755.56120117,0.00028710
5757.49000854,0.00031293
5759.41881592,0.00026614
5761.34762329,0.00031187
5763.27643066,0.00026000
5765.20523804,0.00029821
5767.13404541,0.00037611
5769.06285278,0.00025349
5770.99166016,0.00030680
5772.92046753,0.00038742
5774.84927490,0.00027394
5776.77808228,0.00032708
5778.70688965,0.00032330
5780.63569702,0.00024445
5782.56450439,0.00025918
5784.49331177,0.00021142
5786.42211914,0.00024291
5788.35092651,0.00025968
5790.27973389,0.00020788
5792.20854126,0.00029744
5794.13734863,0.00029430
5796.06615601,0.00021676
5797.99496338,0.00024518
5799.92377075,0.00020895
5801.85257812,0.00019575
5803.78138550,0.00024064
5805.71019287,0.00032352
5807.63900024,0.00031990
5809.56780762,0.00021456
5811.49661499,0.00028087
5813.42542236,0.00028979
5815.35422974,0.00026465
5817.28303711,0.00026415
5819.21184448,0.00022417
5821.14065186,0.00030269
5823.06945923,0.00030119
5824.99826660,0.00024283
5826.92707397,0.00022481
5828.85588135,0.00025689
5830.78468872,0.00026977
5832.71349609,0.00026811
5834.64230347,0.00033575
5836.57111084,0.00027101
5838.49991821,0.00023285
5840.42872559,0.00023676
5842.35753296,0.00019713
5844.28634033,0.00025788
5846.21514770,0.00031379
5848.14395508,0.00024866
5850.07276245,0.00016316
5852.00156982,0.00023772
5853.93037720,0.00028383
5855.85918457,0.00022523
5857.78799194,0.00020174
5859.71679932,0.00022585
5861.64560669,0.00021321
5863.57441406,0.00017728
5865.50322144,0.00026544
5867.43202881,0.00028237
5869.36083618,0.00026070
5871.28964355,0.00024312
5873.21845093,0.00024157
5875.14725830,0.00026889
5877.07606567,0.00020823
5879.00487305,0.00025149
5880.93368042,0.00021483
5882.86248779,0.00023432
5884.79129517,0.00028347
5886.72010254,0.00017774
5888.64890991,0.00026001
5890.57771728,0.00023029
5892.50652466,0.00020646
5894.43533203,0.00024516
5896.36413940,0.00017636
5898.29294678,0.00021202
5900.22175415,0.00021156
5902.15056152,0.00026776
5904.07936890,0.00026369
5906.00817627,0.00019259
5907.93698364,0.00015172
5909.86579102,0.00015423
5911.79459839,0.00027392
5913.72340576,0.00020129
5915.65221313,0.00015092
5917.58102051,0.00017645
5919.50982788,0.00021836
5921.43863525,0.00029675
5923.36744263,0.00022581
5925.29625000,0.00022813
5927.22505737,0.00020330
5929.15386475,0.00020982
5931.08267212,0.00026885
5933.01147949,0.00023224
5934.94028686,0.00022083
5936.86909424,0.00018947
5938.79790161,0.00021626
5940.72670898,0.00017366
5942.65551636,0.00016721
5944.58432373,0.00021165
5946.51313110,0.00020169
5948.44193848,0.00027504
5950.37074585,0.00019458
5952.29955322,0.00018593
5954.22836060,0.00022985
5956.15716797,0.00016990
5958.08597534,0.00023237
5960.01478271,0.00022590
5961.94359009,0.00019219
5963.87239746,0.00019902
5965.80120483,0.00020974
5967.73001221,0.00021808
5969.65881958,0.00018565
5971.58762695,0.00016327
5973.51643433,0.00015669
5975.44524170,0.00021536
5977.37404907,0.00024892
5979.30285645,0.00018891
5981.23166382,0.00014992
5983.16047119,0.00021820
5985.08927856,0.00023694
5987.01808594,0.00017737
5988.94689331,0.00016702
5990.87570068,0.00015873
5992.80450806,0.00018403
5994.73331543,0.00018954
5996.66212280,0.00019800
5998.59093018,0.00015967
6000.51973755,0.00014337
