399.26312622,0.00043052
401.19193359,0.00025317
403.12074097,0.00025598
405.04954834,0.00027273
406.97835571,0.00032877
408.90716309,0.00059185
410.83597046,0.00016500
412.76477783,0.00039725
414.69358521,0.00030380
416.62239258,0.00055726
418.55119995,0.00066099
420.48000732,0.00013263
422.40881470,0.00043203
424.33762207,0.00045070
426.26642944,0.00061205
428.19523682,0.00073653
430.12404419,0.00061027
432.05285156,0.00068337
433.98165894,0.00054440
435.91046631,0.00039984
437.83927368,0.00067714
439.76808105,0.00070563
441.69688843,0.00024830
443.62569580,0.00043725
445.55450317,0.00063195
447.48331055,0.00063669
449.41211792,0.00052652
451.34092529,0.00034847
453.26973267,0.00042175
455.19854004,0.00056701
457.12734741,0.00060344
459.05615479,0.00027842
460.98496216,0.00042304
462.91376953,0.00028775
464.84257690,0.00028453
466.77138428,0.00064419
468.70019165,0.00049061
470.62899902,0.00056875
472.55780640,0.00028832
474.48661377,0.00011827
476.41542114,0.00026323
478.34422852,0.00043721
480.27303589,0.00039710
482.20184326,0.00040487
484.13065063,0.00029622
486.05945801,-0.00002351
487.98826538,0.00049102
489.91707275,-0.00012080
491.84588013,0.00003712
493.77468750,0.00081212
495.70349487,-0.00004658
497.63230225,0.00009003
499.56110962,0.00000186
501.48991699,-0.00019585
503.41872437,0.00018262
505.34753174,0.00032985
507.27633911,0.00058419
509.20514648,0.00018088
511.13395386,0.00008857
513.06276123,0.00011828
514.99156860,0.00002593
516.92037598,0.00025271
518.84918335,0.00027488
520.77799072,-0.00006318
522.70679810,-0.00012595
524.63560547,0.00029725
526.56441284,0.00004769
528.49322021,-0.00003559
530.42202759,0.00030116
532.35083496,0.00017133
534.27964233,0.00016727
536.20844971,0.00009478
538.13725708,0.00003928
540.06606445,0.00029733
541.99487183,0.00009063
543.92367920,-0.00014658
545.85248657,0.00016642
547.78129395,0.00048581
549.71010132,0.00012986
551.63890869,-0.00018448
553.56771606,0.00035971
555.49652344,0.00020668
557.42533081,0.00014369
559.35413818,0.00053827
561.28294556,0.00014818
563.21175293,-0.00002502
565.14056030,0.00014693
567.06936768,0.00025437
568.99817505,-0.00006922
570.92698242,-0.00000215
572.85578979,0.00037554
574.78459717,0.00008254
576.71340454,-0.00003034
578.64221191,0.00012775
580.57101929,0.00018961
582.49982666,0.00025633
584.42863403,0.00029597
586.35744141,0.00004887
588.28624878,-0.00000278
590.21505615,0.00019529
592.14386353,0.00010617
594.07267090,0.00012362
596.00147827,0.00001179
597.93028564,-0.00014894
599.85909302,0.00038959
601.78790039,0.00012298
603.71670776,-0.00000666
605.64551514,0.00053120
607.57432251,0.00006063
609.50312988,0.00002178
611.43193726,0.00031879
613.36074463,0.00026750
615.28955200,0.00012436
617.21835938,0.00006925
619.14716675,0.00023774
621.07597412,0.00012635
623.00478149,0.00020276
624.93358887,0.00029587
626.86239624,0.00039383
628.79120361,0.00053048
630.72001099,0.00032579
632.64881836,0.00040999
634.57762573,0.00069365
636.50643311,0.00063000
638.43524048,0.00064857
640.36404785,0.00079333
642.29285522,0.00077722
644.22166260,0.00076397
646.15046997,0.00081099
648.07927734,0.00087525
650.00808472,0.00099107
651.93689209,0.00112107
653.86569946,0.00116838
655.79450684,0.00122124
657.72331421,0.00105394
659.65212158,0.00108117
661.58092896,0.00132215
663.50973633,0.00136177
665.43854370,0.00161853
667.36735107,0.00132451
669.29615845,0.00138002
671.22496582,0.00187925
673.15377319,0.00158595
675.08258057,0.00175422
677.01138794,0.00194258
678.94019531,0.00163578
680.86900269,0.00160384
682.79781006,0.00208599
684.72661743,0.00201043
686.65542480,0.00158557
688.58423218,0.00177265
690.51303955,0.00161983
692.44184692,0.00206526
694.37065430,0.00227756
696.29946167,0.00234982
698.22826904,0.00323197
700.15707642,0.00309553
702.08588379,0.00295551
704.01469116,0.00285754
705.94349854,0.00250011
707.87230591,0.00211008
709.80111328,0.00146264
711.72992065,0.00108734
713.65872803,0.00088185
715.58753540,0.00071827
717.51634277,-0.00000088
719.44515015,0.00013430
721.37395752,0.00051393
723.30276489,0.00001391
725.23157227,0.00024136
727.16037964,0.00011972
729.08918701,0.00013485
731.01799438,0.00050566
732.94680176,0.00015266
734.87560913,0.00027559
736.80441650,0.00025143
738.73322388,0.00014455
740.66203125,0.00014715
742.59083862,0.00014274
744.51964600,0.00056873
746.44845337,0.00043518
748.37726074,0.00045115
750.30606812,0.00048940
752.23487549,0.00055087
754.16368286,0.00044201
756.09249023,0.00006980
758.02129761,0.00042928
759.95010498,0.00033669
761.87891235,0.00020458
763.80771973,0.00026525
765.73652710,0.00033068
767.66533447,0.00049069
769.59414185,0.00028445
771.52294922,0.00055187
773.45175659,0.00055430
775.38056396,0.00030291
777.30937134,0.00047529
779.23817871,0.00046438
781.16698608,0.00044953
783.09579346,0.00053319
785.02460083,0.00059669
786.95340820,0.00046663
788.88221558,0.00026662
790.81102295,0.00031631
792.73983032,0.00048169
794.66863770,0.00045643
796.59744507,0.00043428
798.52625244,0.00075305
800.45505981,0.00073935
802.38386719,0.00064872
804.31267456,0.00060854
806.24148193,0.00020845
808.17028931,0.00044800
810.09909668,0.00059571
812.02790405,0.00023332
813.95671143,0.00038333
815.88551880,0.00052317
817.81432617,0.00041016
819.74313354,0.00025373
821.67194092,0.00039790
823.60074829,0.00060221
825.52955566,0.00046056
827.45836304,0.00046662
829.38717041,0.00063662
831.31597778,0.00070873
833.24478516,0.00070268
835.17359253,0.00089520
837.10239990,0.00091364
839.03120728,0.00089483
840.96001465,0.00085851
842.88882202,0.00045603
844.81762939,0.00070451
846.74643677,0.00078141
848.67524414,0.00043219
850.60405151,0.00061668
852.53285889,0.00052326
854.46166626,0.00045322
856.39047363,0.00058814
858.31928101,0.00043621
860.24808838,0.00047494
862.17689575,0.00065139
864.10570313,0.00041363
866.03451050,0.00028930
867.96331787,0.00062832
869.89212524,0.00076373
871.82093262,0.00060506
873.74973999,0.00041299
875.67854736,0.00051072
877.60735474,0.00036621
879.53616211,0.00016684
881.46496948,0.00061416
883.39377686,0.00040911
885.32258423,0.00013015
887.25139160,0.00046030
889.18019897,0.00055967
891.10900635,0.00078329
893.03781372,0.00057714
894.96662109,0.00034625
896.89542847,0.00054354
898.82423584,0.00053807
900.75304321,0.00057562
902.68185059,0.00043100
904.61065796,0.00051275
906.53946533,0.00052419
908.46827271,0.00036779
910.39708008,0.00059473
912.32588745,0.00054741
914.25469482,0.00067856
916.18350220,0.00074240
918.11230957,0.00056765
920.04111694,0.00069256
921.96992432,0.00075044
923.89873169,0.00090746
925.82753906,0.00086183
927.75634644,0.00077607
929.68515381,0.00098648
931.61396118,0.00107013
933.54276855,0.00120047
935.47157593,0.00131802
937.40038330,0.00128937
939.32919067,0.00125983
941.25799805,0.00129817
943.18680542,0.00134995
945.11561279,0.00133844
947.04442017,0.00126032
948.97322754,0.00123976
950.90203491,0.00130028
952.83084229,0.00121589
954.75964966,0.00118057
956.68845703,0.00126470
958.61726440,0.00131830
960.54607178,0.00135208
962.47487915,0.00121401
964.40368652,0.00109846
966.33249390,0.00120608
968.26130127,0.00138716
970.19010864,0.00148368
972.11891602,0.00135797
974.04772339,0.00137768
975.97653076,0.00169484
977.90533813,0.00185801
979.83414551,0.00187228
981.76295288,0.00193610
983.69176025,0.00222659
985.62056763,0.00233264
987.54937500,0.00248455
989.47818237,0.00307439
991.40698975,0.00302689
993.33579712,0.00315145
995.26460449,0.00366347
997.19341187,0.00391084
999.12221924,0.00428521
1001.05102661,0.00433871
1002.97983398,0.00477667
1004.90864136,0.00516568
1006.83744873,0.00532795
1008.76625610,0.00567243
1010.69506348,0.00578802
1012.62387085,0.00620911
1014.55267822,0.00630806
1016.48148560,0.00673618
1018.41029297,0.00726760
1020.33910034,0.00744166
1022.26790771,0.00796085
1024.19671509,0.00806478
1026.12552246,0.00844497
1028.05432983,0.00867681
1029.98313721,0.00862690
1031.91194458,0.00901750
1033.84075195,0.00937974
1035.76955933,0.00945911
1037.69836670,0.00928566
1039.62717407,0.00951215
1041.55598145,0.00953235
1043.48478882,0.00939320
1045.41359619,0.00926861
1047.34240356,0.00916316
1049.27121094,0.00906624
1051.20001831,0.00856732
1053.12882568,0.00856791
1055.05763306,0.00840277
1056.98644043,0.00828560
1058.91524780,0.00823718
1060.84405518,0.00769816
1062.77286255,0.00756353
1064.70166992,0.00734653
1066.63047729,0.00708428
1068.55928467,0.00676190
1070.48809204,0.00655477
1072.41689941,0.00630610
1074.34570679,0.00585744
1076.27451416,0.00576879
1078.20332153,0.00533502
1080.13212891,0.00497082
1082.06093628,0.00491544
1083.98974365,0.00475241
1085.91855103,0.00453071
1087.84735840,0.00442308
1089.77616577,0.00424834
1091.70497314,0.00395705
1093.63378052,0.00400926
1095.56258789,0.00394808
1097.49139526,0.00379405
1099.42020264,0.00351518
1101.34901001,0.00349702
1103.27781738,0.00356059
1105.20662476,0.00339472
1107.13543213,0.00357868
1109.06423950,0.00327255
1110.99304687,0.00323606
1112.92185425,0.00335220
1114.85066162,0.00302649
1116.77946899,0.00329125
1118.70827637,0.00336833
1120.63708374,0.00312923
1122.56589111,0.00323328
1124.49469849,0.00350664
1126.42350586,0.00344924
1128.35231323,0.00333406
1130.28112061,0.00349318
1132.20992798,0.00362064
1134.13873535,0.00381891
1136.06754272,0.00381233
1137.99635010,0.00380800
1139.92515747,0.00400059
1141.85396484,0.00417404
1143.78277222,0.00454727
1145.71157959,0.00491601
1147.64038696,0.00494351
1149.56919434,0.00522059
1151.49800171,0.00573522
1153.42680908,0.00581524
1155.35561646,0.00611287
1157.28442383,0.00648324
1159.21323120,0.00658691
1161.14203857,0.00668943
1163.07084595,0.00700558
1164.99965332,0.00745225
1166.92846069,0.00735219
1168.85726807,0.00763240
1170.78607544,0.00801671
1172.71488281,0.00797490
1174.64369019,0.00834204
1176.57249756,0.00881633
1178.50130493,0.00913155
1180.43011230,0.00923672
1182.35891968,0.00976369
1184.28772705,0.01018569
1186.21653442,0.01045509
1188.14534180,0.01121804
1190.07414917,0.01143323
1192.00295654,0.01198959
1193.93176392,0.01275827
1195.86057129,0.01299029
1197.78937866,0.01368917
1199.71818604,0.01438455
1201.64699341,0.01489025
1203.57580078,0.01554509
1205.50460815,0.01606324
1207.43341553,0.01651990
1209.36222290,0.01722244
1211.29103027,0.01783758
1213.21983765,0.01810612
1215.14864502,0.01841359
1217.07745239,0.01884176
1219.00625977,0.01928507
1220.93506714,0.01947734
1222.86387451,0.01961831
1224.79268188,0.01998742
1226.72148926,0.02002973
1228.65029663,0.01981219
1230.57910400,0.01992802
1232.50791138,0.02014178
1234.43671875,0.02003676
1236.36552612,0.01994335
1238.29433350,0.02003550
1240.22314087,0.02004532
1242.15194824,0.01998119
1244.08075562,0.01976607
1246.00956299,0.01964309
1247.93837036,0.01974294
1249.86717773,0.01956509
1251.79598511,0.01947177
1253.72479248,0.01937217
1255.65359985,0.01893682
1257.58240723,0.01879838
1259.51121460,0.01857273
1261.44002197,0.01816562
1263.36882935,0.01801115
1265.29763672,0.01776696
1267.22644409,0.01749290
1269.15525146,0.01736505
1271.08405884,0.01702299
1273.01286621,0.01665040
1274.94167358,0.01667034
1276.87048096,0.01638017
1278.79928833,0.01580196
1280.72809570,0.01543837
1282.65690308,0.01522135
1284.58571045,0.01506421
1286.51451782,0.01474858
1288.44332520,0.01466291
1290.37213257,0.01445625
1292.30093994,0.01420611
1294.22974731,0.01422830
1296.15855469,0.01396336
1298.08736206,0.01389565
1300.01616943,0.01406969
1301.94497681,0.01421894
1303.87378418,0.01420650
1305.80259155,0.01431044
1307.73139893,0.01465022
1309.66020630,0.01479355
1311.58901367,0.01502655
1313.51782104,0.01520459
1315.44662842,0.01548790
1317.37543579,0.01581989
1319.30424316,0.01627227
1321.23305054,0.01685219
1323.16185791,0.01718252
1325.09066528,0.01780732
1327.01947266,0.01831400
1328.94828003,0.01873241
1330.87708740,0.01915331
1332.80589478,0.01943493
1334.73470215,0.01978083
1336.66350952,0.01987059
1338.59231689,0.01978794
1340.52112427,0.01992457
1342.44993164,0.02076376
1344.37873901,0.02101404
1346.30754639,0.02080901
1348.23635376,0.02091542
1350.16516113,0.02076301
1352.09396851,0.02092846
1354.02277588,0.02045023
1355.95158325,0.02012537
1357.88039062,0.02041635
1359.80919800,0.01988249
1361.73800537,0.01904659
1363.66681274,0.01891404
1365.59562012,0.01967523
1367.52442749,0.01932778
1369.45323486,0.01908750
1371.38204224,0.01928329
1373.31084961,0.01834192
1375.23965698,0.01840250
1377.16846436,0.01882185
1379.09727173,0.01888050
1381.02607910,0.01886011
1382.95488647,0.01884464
1384.88369385,0.01871078
1386.81250122,0.01792522
1388.74130859,0.01832325
1390.67011597,0.01953789
1392.59892334,0.01920415
1394.52773071,0.01802704
1396.45653809,0.01878298
1398.38534546,0.01894259
1400.31415283,0.01870213
1402.24296021,0.02006751
1404.17176758,0.01909030
1406.10057495,0.01913984
1408.02938232,0.01985425
1409.95818970,0.01926365
1411.88699707,0.01962893
1413.81580444,0.01894496
1415.74461182,0.01921105
1417.67341919,0.01755998
1419.60222656,0.01598456
1421.53103394,0.01792493
1423.45984131,0.01742691
1425.38864868,0.01703012
1427.31745605,0.01705353
1429.24626343,0.01590763
1431.17507080,0.01550554
1433.10387817,0.01549947
1435.03268555,0.01430292
1436.96149292,0.01264287
1438.89030029,0.01398956
1440.81910767,0.01417829
1442.74791504,0.01341237
1444.67672241,0.01383408
1446.60552979,0.01285410
1448.53433716,0.01300784
1450.46314453,0.01319660
1452.39195190,0.01367191
1454.32075928,0.01408419
1456.24956665,0.01171319
1458.17837402,0.01239331
1460.10718140,0.01592682
1462.03598877,0.01681635
1463.96479614,0.01685270
1465.89360352,0.01748307
1467.82241089,0.01971786
1469.75121826,0.02106402
1471.68002563,0.01896882
1473.60883301,0.01997215
1475.53764038,0.02263087
1477.46644775,0.02411081
1479.39525513,0.02619587
1481.32406250,0.02670422
1483.25286987,0.02810602
1485.18167725,0.02884486
1487.11048462,0.02862588
1489.03929199,0.02835258
1490.96809937,0.02832503
1492.89690674,0.03285223
1494.82571411,0.03213276
1496.75452148,0.02910406
1498.68332886,0.03279248
1500.61213623,0.03350242
1502.54094360,0.03589910
1504.46975098,0.03394605
1506.39855835,0.02504448
1508.32736572,0.03064889
1510.25617310,0.03547118
1512.18498047,0.03433601
1514.11378784,0.03701844
1516.04259521,0.03333487
1517.97140259,0.03473267
1519.90020996,0.03352452
1521.82901733,0.02964924
1523.75782471,0.03574031
1525.68663208,0.03477575
1527.61543945,0.03473126
1529.54424683,0.03803772
1531.47305420,0.03663576
1533.40186157,0.03381834
1535.33066895,0.03577767
1537.25947632,0.03773349
1539.18828369,0.02740435
1541.11709106,0.02910746
1543.04589844,0.03419496
1544.97470581,0.03295206
1546.90351318,0.03865890
1548.83232056,0.03592373
1550.76112793,0.03717449
1552.68993530,0.03679246
1554.61874268,0.03369441
1556.54755005,0.03571089
1558.47635742,0.02547870
1560.40516479,0.02783827
1562.33397217,0.03852977
1564.26277954,0.03643882
1566.19158691,0.03740753
1568.12039429,0.03678681
1570.04920166,0.03305689
1571.97800903,0.03782807
1573.90681641,0.03786452
1575.83562378,0.03038070
1577.76443115,0.03437093
1579.69323853,0.03838254
1581.62204590,0.03660971
1583.55085327,0.03768288
1585.47966064,0.03700453
1587.40846802,0.03714297
1589.33727539,0.03690722
1591.26608276,0.03677744
1593.19489014,0.03681813
1595.12369751,0.03627616
1597.05250488,0.03671810
1598.98131226,0.03666960
1600.91011963,0.03670549
1602.83892700,0.03599174
1604.76773437,0.03653781
1606.69654175,0.03606901
1608.62534912,0.03608200
1610.55415649,0.03584821
1612.48296387,0.03639026
1614.41177124,0.03677596
1616.34057861,0.03028501
1618.26938599,0.03325110
1620.19819336,0.03812814
1622.12700073,0.03407463
1624.05580811,0.03445112
1625.98461548,0.03611515
1627.91342285,0.03611359
1629.84223022,0.03606993
1631.77103760,0.03881563
1633.69984497,0.03591756
1635.62865234,0.03022290
1637.55745972,0.03520868
1639.48626709,0.03873520
1641.41507446,0.03812803
1643.34388184,0.03922415
1645.27268921,0.03583087
1647.20149658,0.03203697
1649.13030396,0.03975043
1651.05911133,0.03746755
1652.98791870,0.02505305
1654.91672607,0.03411150
1656.84553345,0.04201275
1658.77434082,0.04061624
1660.70314819,0.04162152
1662.63195557,0.03811297
1664.56076294,0.04061428
1666.48957031,0.04328273
1668.41837769,0.03811757
1670.34718506,0.03748830
1672.27599243,0.04213376
1674.20479980,0.03890282
1676.13360718,0.03787465
1678.06241455,0.04327459
1679.99122192,0.04163169
1681.92002930,0.04126340
1683.84883667,0.03380075
1685.77764404,0.03390282
1687.70645142,0.04539621
1689.63525879,0.03951686
1691.56406616,0.04356245
1693.49287354,0.04392603
1695.42168091,0.03278275
1697.35048828,0.03997758
1699.27929565,0.03505497
1701.20810303,0.03208797
1703.13691040,0.04274830
1705.06571777,0.03920007
1706.99452515,0.03962813
1708.92333252,0.04278792
1710.85213989,0.04113495
1712.78094727,0.04160929
1714.70975464,0.03881945
1716.63856201,0.03501529
1718.56736938,0.03431752
1720.49617676,0.04032824
1722.42498413,0.04149614
1724.35379150,0.03883865
1726.28259888,0.04187144
1728.21140625,0.03851964
1730.14021362,0.03896763
1732.06902100,0.03751595
1733.99782837,0.02928125
1735.92663574,0.03618116
1737.85544312,0.03921478
1739.78425049,0.03521290
1741.71305786,0.03817960
1743.64186523,0.03862120
1745.57067261,0.03875042
1747.49947998,0.03892239
1749.42828735,0.03704832
1751.35709473,0.03551603
1753.28590210,0.03929649
1755.21470947,0.04085604
1757.14351685,0.03744437
1759.07232422,0.04078380
1761.00113159,0.03829032
1762.92993896,0.03706942
1764.85874634,0.04204963
1766.78755371,0.03807378
1768.71636108,0.03829301
1770.64516846,0.03800345
1772.57397583,0.03433236
1774.50278320,0.03816747
1776.43159058,0.04015878
1778.36039795,0.03933259
1780.28920532,0.03906779
1782.21801270,0.03944414
1784.14682007,0.03920048
1786.07562744,0.03834283
1788.00443481,0.04008658
1789.93324219,0.03906564
1791.86204956,0.03553948
1793.79085693,0.03713544
1795.71966431,0.03958138
1797.64847168,0.03892715
1799.57727905,0.03843062
1801.50608643,0.03768869
1803.43489380,0.03882602
1805.36370117,0.03975237
1807.29250854,0.03903282
1809.22131592,0.03895374
1811.15012329,0.03807877
1813.07893066,0.03917950
1815.00773804,0.03930604
1816.93654541,0.03894651
1818.86535278,0.03921450
1820.79416016,0.03901940
1822.72296753,0.03943273
1824.65177490,0.03698906
1826.58058228,0.03825030
1828.50938965,0.03817406
1830.43819702,0.03606220
1832.36700439,0.03894489
1834.29581177,0.03865121
1836.22461914,0.03878976
1838.15342651,0.03839063
1840.08223389,0.03853303
1842.01104126,0.03848210
1843.93984863,0.03426602
1845.86865601,0.03668530
1847.79746338,0.03850292
1849.72627075,0.03756383
1851.65507812,0.03854386
1853.58388550,0.03792717
1855.51269287,0.03839412
1857.44150024,0.03787634
1859.37030762,0.03771547
1861.29911499,0.03796041
1863.22792236,0.03734893
1865.15672974,0.03784174
1867.08553711,0.03661899
1869.01434448,0.03506164
1870.94315186,0.03645958
1872.87195923,0.03774473
1874.80076660,0.03696825
1876.72957397,0.03716540
1878.65838135,0.03711013
1880.58718872,0.03699097
1882.51599609,0.03718133
1884.44480347,0.03648735
1886.37361084,0.03707585
1888.30241821,0.03613424
1890.23122559,0.03559512
1892.16003296,0.03679676
1894.08884033,0.03615974
1896.01764771,0.03624360
1897.94645508,0.03644894
1899.87526245,0.03625112
1901.80406982,0.03634277
1903.73287720,0.03604371
1905.66168457,0.03621312
1907.59049194,0.03577311
1909.51929932,0.03559348
1911.44810669,0.03566145
1913.37691406,0.03567651
1915.30572144,0.03608082
1917.23452881,0.03452157
1919.16333618,0.03455076
1921.09214355,0.03580154
1923.02095093,0.03473803
1924.94975830,0.03527438
1926.87856567,0.03554631
1928.80737305,0.03523205
1930.73618042,0.03569187
1932.66498779,0.03509380
1934.59379517,0.03526606
1936.52260254,0.03509107
1938.45140991,0.03515557
1940.38021729,0.03509635
1942.30902466,0.03404026
1944.23783203,0.03455937
1946.16663940,0.03482603
1948.09544678,0.03477750
1950.02425415,0.03509863
1951.95306152,0.03491464
1953.88186890,0.03468385
1955.81067627,0.03461021
1957.73948364,0.03466924
1959.66829102,0.03461649
1961.59709839,0.03466407
1963.52590576,0.03471553
1965.45471313,0.03444170
1967.38352051,0.03389589
1969.31232788,0.03426657
1971.24113525,0.03452390
1973.16994263,0.03416531
1975.09875000,0.03442713
1977.02755737,0.03411981
1978.95636475,0.03414915
1980.88517212,0.03419456
1982.81397949,0.03400343
1984.74278687,0.03419226
1986.67159424,0.03376277
1988.60040161,0.03383438
1990.52920898,0.03356103
1992.45801636,0.03315274
1994.38682373,0.03361027
1996.31563110,0.03361867
1998.24443848,0.03345504
2000.17324585,0.03335514
2002.10205322,0.03327443
2004.03086060,0.03333855
2005.95966797,0.03327306
2007.88847534,0.03300626
2009.81728271,0.03294628
2011.74609009,0.03306257
2013.67489746,0.03305270
2015.60370483,0.03272986
2017.53251221,0.03248584
2019.46131958,0.03266343
2021.39012695,0.03252311
2023.31893433,0.03251579
2025.24774170,0.03241133
2027.17654907,0.03215987
2029.10535645,0.03238125
2031.03416382,0.03216293
2032.96297119,0.03192026
2034.89177856,0.03202445
2036.82058594,0.03194841
2038.74939331,0.03180479
2040.67820068,0.03178556
2042.60700806,0.03164174
2044.53581543,0.03149068
2046.46462280,0.03161719
2048.39343018,0.03153566
2050.32223755,0.03137355
2052.25104492,0.03134047
2054.17985229,0.03122631
2056.10865967,0.03111834
2058.03746704,0.03115571
2059.96627441,0.03101705
2061.89508179,0.03089452
2063.82388916,0.03089013
2065.75269653,0.03078676
2067.68150391,0.03084383
2069.61031128,0.03062766
2071.53911865,0.03069939
2073.46792603,0.03075616
2075.39673340,0.03049249
2077.32554077,0.03054697
2079.25434814,0.03025032
2081.18315552,0.03018651
2083.11196289,0.03018185
2085.04077026,0.03022391
2086.96957764,0.03026741
2088.89838501,0.02989846
2090.82719238,0.02996003
2092.75599976,0.02992726
2094.68480713,0.02997432
2096.61361450,0.02989573
2098.54242187,0.02966786
2100.47122925,0.02971839
2102.40003662,0.02960562
2104.32884399,0.02965818
2106.25765137,0.02946161
2108.18645874,0.02942437
2110.11526611,0.02952184
2112.04407349,0.02931269
2113.97288086,0.02939004
2115.90168823,0.02930582
2117.83049561,0.02908834
2119.75930298,0.02911813
2121.68811035,0.02915982
2123.61691772,0.02915295
2125.54572510,0.02913412
2127.47453247,0.02899965
2129.40333984,0.02891137
2131.33214722,0.02883796
2133.26095459,0.02894058
2135.18976196,0.02900861
2137.11856934,0.02864288
2139.04737671,0.02861239
2140.97618408,0.02869631
2142.90499146,0.02868628
2144.83379883,0.02861819
2146.76260620,0.02854239
2148.69141357,0.02858256
2150.62022095,0.02841011
2152.54902832,0.02845449
2154.47783569,0.02831066
2156.40664307,0.02826132
2158.33545044,0.02842502
2160.26425781,0.02822887
2162.19306519,0.02813525
2164.12187256,0.02807207
2166.05067993,0.02811658
2167.97948730,0.02804882
2169.90829468,0.02800677
2171.83710205,0.02802422
2173.76590942,0.02797038
2175.69471680,0.02799027
2177.62352417,0.02781302
2179.55233154,0.02790241
2181.48113892,0.02789559
2183.40994629,0.02775586
2185.33875366,0.02775261
2187.26756104,0.02762897
2189.19636841,0.02763675
2191.12517578,0.02758547
2193.05398315,0.02750527
2194.98279053,0.02754635
2196.91159790,0.02749571
2198.84040527,0.02734503
2200.76921265,0.02750004
2202.69802002,0.02749035
2204.62682739,0.02724377
2206.55563477,0.02725411
2208.48444214,0.02720451
2210.41324951,0.02734372
2212.34205688,0.02731405
2214.27086426,0.02707735
2216.19967163,0.02696403
2218.12847900,0.02696794
2220.05728638,0.02700847
2221.98609375,0.02691667
2223.91490112,0.02704081
2225.84370850,0.02680830
2227.77251587,0.02669970
2229.70132324,0.02686765
2231.63013062,0.02673612
2233.55893799,0.02671427
2235.48774536,0.02653678
2237.41655273,0.02656711
2239.34536011,0.02652434
2241.27416748,0.02636806
2243.20297485,0.02648952
2245.13178223,0.02640119
2247.06058960,0.02638111
2248.98939697,0.02632922
2250.91820435,0.02621594
2252.84701172,0.02624899
2254.77581909,0.02621703
2256.70462646,0.02605455
2258.63343384,0.02603441
2260.56224121,0.02606454
2262.49104858,0.02590713
2264.41985596,0.02592471
2266.34866333,0.02596579
2268.27747070,0.02584783
2270.20627808,0.02576632
2272.13508545,0.02583669
2274.06389282,0.02583137
2275.99270020,0.02568352
2277.92150757,0.02557754
2279.85031494,0.02551879
2281.77912231,0.02558393
2283.70792969,0.02555322
2285.63673706,0.02545268
2287.56554443,0.02530576
2289.49435181,0.02533226
2291.42315918,0.02536074
2293.35196655,0.02512402
2295.28077393,0.02514584
2297.20958130,0.02507023
2299.13838867,0.02491289
2301.06719604,0.02479019
2302.99600342,0.02466344
2304.92481079,0.02453143
2306.85361816,0.02422713
2308.78242554,0.02416572
2310.71123291,0.02395897
2312.64004028,0.02372338
2314.56884766,0.02348093
2316.49765503,0.02300183
2318.42646240,0.02279282
2320.35526978,0.02244730
2322.28407715,0.02195271
2324.21288452,0.02168952
2326.14169189,0.02156401
2328.07049927,0.02124151
2329.99930664,0.02084803
2331.92811401,0.02080827
2333.85692139,0.02073163
2335.78572876,0.02050304
2337.71453613,0.02042232
2339.64334351,0.02049610
2341.57215088,0.02065283
2343.50095825,0.02088061
2345.42976562,0.02130237
2347.35857300,0.02235272
2349.28738037,0.02307430
2351.21618774,0.02212916
2353.14499512,0.02084235
2355.07380249,0.02008502
2357.00260986,0.01944274
2358.93141724,0.01910205
2360.86022461,0.01886311
2362.78903198,0.01876273
2364.71783936,0.01895140
2366.64664673,0.01921467
2368.57545410,0.01964800
2370.50426147,0.02014445
2372.43306885,0.02061953
2374.36187622,0.02122349
2376.29068359,0.02186028
2378.21949097,0.02236897
2380.14829834,0.02269959
2382.07710571,0.02312291
2384.00591309,0.02335198
2385.93472046,0.02330121
2387.86352783,0.02339727
2389.79233521,0.02325551
2391.72114258,0.02316697
2393.64994995,0.02324403
2395.57875732,0.02319294
2397.50756470,0.02315853
2399.43637207,0.02305693
2401.36517944,0.02305276
2403.29398682,0.02299248
2405.22279419,0.02295662
2407.15160156,0.02293774
2409.08040894,0.02293614
2411.00921631,0.02296763
2412.93802368,0.02276595
2414.86683105,0.02278866
2416.79563843,0.02271882
2418.72444580,0.02259911
2420.65325317,0.02267713
2422.58206055,0.02260847
2424.51086792,0.02261289
2426.43967529,0.02251596
2428.36848267,0.02244598
2430.29729004,0.02247075
2432.22609741,0.02238038
2434.15490479,0.02229909
2436.08371216,0.02235852
2438.01251953,0.02243187
2439.94132690,0.02231202
2441.87013428,0.02227555
2443.79894165,0.02219625
2445.72774902,0.02215371
2447.65655640,0.02223920
2449.58536377,0.02212519
2451.51417114,0.02207134
2453.44297852,0.02204340
2455.37178589,0.02195866
2457.30059326,0.02200348
2459.22940063,0.02199014
2461.15820801,0.02190034
2463.08701538,0.02177827
2465.01582275,0.02169774
2466.94463013,0.02179537
2468.87343750,0.02172256
2470.80224487,0.02163932
2472.73105225,0.02156129
2474.65985962,0.02148749
2476.58866699,0.02175759
2478.51747437,0.02159376
2480.44628174,0.02136979
2482.37508911,0.02148544
2484.30389648,0.02141828
2486.23270386,0.02134032
2488.16151123,0.02121785
2490.09031860,0.02124641
2492.01912598,0.02127656
2493.94793335,0.02128620
2495.87674072,0.02112206
2497.80554810,0.02095807
2499.73435547,0.02118116
2501.66316284,0.02106758
2503.59197021,0.02102917
2505.52077759,0.02107505
2507.44958496,0.02096767
2509.37839233,0.02089150
2511.30719971,0.02085668
2513.23600708,0.02101305
2515.16481445,0.02081802
2517.09362183,0.02079505
2519.02242920,0.02084278
2520.95123657,0.02068735
2522.88004395,0.02073933
2524.80885132,0.02063284
2526.73765869,0.02065688
2528.66646606,0.02059090
2530.59527344,0.02043457
2532.52408081,0.02047741
2534.45288818,0.02046860
2536.38169556,0.02046629
2538.31050293,0.02047640
2540.23931030,0.02046335
2542.16811768,0.02029796
2544.09692505,0.02030673
2546.02573242,0.02025947
2547.95453979,0.02005342
2549.88334717,0.02024740
2551.81215454,0.02029039
2553.74096191,0.02006991
2555.66976929,0.02004614
2557.59857666,0.02009149
2559.52738403,0.02008151
2561.45619141,0.02000204
2563.38499878,0.01987359
2565.31380615,0.01989111
2567.24261353,0.01990617
2569.17142090,0.01973967
2571.10022827,0.01975399
2573.02903564,0.01977003
2574.95784302,0.01968906
2576.88665039,0.01979493
2578.81545776,0.01973576
2580.74426514,0.01955996
2582.67307251,0.01962256
2584.60187988,0.01962892
2586.53068726,0.01950674
2588.45949463,0.01947148
2590.38830200,0.01943542
2592.31710937,0.01939607
2594.24591675,0.01943171
2596.17472412,0.01939297
2598.10353149,0.01925058
2600.03233887,0.01926439
2601.96114624,0.01926064
2603.88995361,0.01914589
2605.81876099,0.01918842
2607.74756836,0.01917670
2609.67637573,0.01912174
2611.60518311,0.01911100
2613.53399048,0.01898955
2615.46279785,0.01888995
2617.39160522,0.01890846
2619.32041260,0.01894443
2621.24921997,0.01890035
2623.17802734,0.01879445
2625.10683472,0.01876288
2627.03564209,0.01881304
2628.96444946,0.01880075
2630.89325684,0.01874612
2632.82206421,0.01858088
2634.75087158,0.01857098
2636.67967895,0.01867377
2638.60848633,0.01853405
2640.53729370,0.01849575
2642.46610107,0.01843640
2644.39490845,0.01842391
2646.32371582,0.01845470
2648.25252319,0.01844790
2650.18133057,0.01840875
2652.11013794,0.01814264
2654.03894531,0.01822015
2655.96775269,0.01823297
2657.89656006,0.01815765
2659.82536743,0.01817460
2661.75417480,0.01803885
2663.68298218,0.01814314
2665.61178955,0.01809797
2667.54059692,0.01807643
2669.46940430,0.01798948
2671.39821167,0.01786060
2673.32701904,0.01791860
2675.25582642,0.01784413
2677.18463379,0.01781628
2679.11344116,0.01769539
2681.04224854,0.01777635
2682.97105591,0.01771358
2684.89986328,0.01763167
2686.82867065,0.01776831
2688.75747803,0.01761568
2690.68628540,0.01767436
2692.61509277,0.01760243
2694.54390015,0.01752435
2696.47270752,0.01757618
2698.40151489,0.01747353
2700.33032227,0.01741150
2702.25912964,0.01733549
2704.18793701,0.01736556
2706.11674438,0.01730714
2708.04555176,0.01734824
2709.97435913,0.01721537
2711.90316650,0.01705465
2713.83197388,0.01724153
2715.76078125,0.01715456
2717.68958862,0.01703465
2719.61839600,0.01707721
2721.54720337,0.01713033
2723.47601074,0.01698539
2725.40481812,0.01686544
2727.33362549,0.01691889
2729.26243286,0.01686784
2731.19124023,0.01684627
2733.12004761,0.01684984
2735.04885498,0.01684874
2736.97766235,0.01672799
2738.90646973,0.01669849
2740.83527710,0.01660735
2742.76408447,0.01649838
2744.69289185,0.01664717
2746.62169922,0.01664606
2748.55050659,0.01657597
2750.47931396,0.01641922
2752.40812134,0.01635599
2754.33692871,0.01638522
2756.26573608,0.01638396
2758.19454346,0.01632691
2760.12335083,0.01627355
2762.05215820,0.01644857
2763.98096558,0.01626050
2765.90977295,0.01617723
2767.83858032,0.01626574
2769.76738770,0.01608623
2771.69619507,0.01615410
2773.62500244,0.01618100
2775.55380981,0.01603031
2777.48261719,0.01594723
2779.41142456,0.01601460
2781.34023193,0.01594407
2783.26903931,0.01576114
2785.19784668,0.01577507
2787.12665405,0.01576640
2789.05546143,0.01573720
2790.98426880,0.01572552
2792.91307617,0.01568637
2794.84188354,0.01560845
2796.77069092,0.01558631
2798.69949829,0.01551850
2800.62830566,0.01541038
2802.55711304,0.01536819
2804.48592041,0.01539639
2806.41472778,0.01546384
2808.34353516,0.01538501
2810.27234253,0.01535427
2812.20114990,0.01524049
2814.12995728,0.01519733
2816.05876465,0.01517781
2817.98757202,0.01510270
2819.91637939,0.01520220
2821.84518677,0.01499974
2823.77399414,0.01498947
2825.70280151,0.01501317
2827.63160889,0.01482391
2829.56041626,0.01486042
2831.48922363,0.01480892
2833.41803101,0.01481635
2835.34683838,0.01476376
2837.27564575,0.01471993
2839.20445312,0.01469181
2841.13326050,0.01457306
2843.06206787,0.01457649
2844.99087524,0.01451492
2846.91968262,0.01439777
2848.84848999,0.01428615
2850.77729736,0.01427571
2852.70610474,0.01422481
2854.63491211,0.01423162
2856.56371948,0.01422961
2858.49252686,0.01405301
2860.42133423,0.01410820
2862.35014160,0.01416271
2864.27894897,0.01407093
2866.20775635,0.01404494
2868.13656372,0.01404204
2870.06537109,0.01400067
2871.99417847,0.01398522
2873.92298584,0.01381699
2875.85179321,0.01376426
2877.78060059,0.01393754
2879.70940796,0.01371023
2881.63821533,0.01362642
2883.56702270,0.01370699
2885.49583008,0.01366847
2887.42463745,0.01376757
2889.35344482,0.01368442
2891.28225220,0.01356658
2893.21105957,0.01352064
2895.13986694,0.01348529
2897.06867432,0.01347948
2898.99748169,0.01348614
2900.92628906,0.01338853
2902.85509644,0.01332758
2904.78390381,0.01332174
2906.71271118,0.01316287
2908.64151855,0.01317688
2910.57032593,0.01308139
2912.49913330,0.01294188
2914.42794067,0.01291009
2916.35674805,0.01276156
2918.28555542,0.01268964
2920.21436279,0.01270657
2922.14317017,0.01281049
2924.07197754,0.01278308
2926.00078491,0.01278232
2927.92959229,0.01270444
2929.85839966,0.01259976
2931.78720703,0.01266091
2933.71601440,0.01256043
2935.64482178,0.01260848
2937.57362915,0.01256901
2939.50243652,0.01259056
2941.43124390,0.01264928
2943.36005127,0.01238713
2945.28885864,0.01243394
2947.21766602,0.01245766
2949.14647339,0.01243562
2951.07528076,0.01251342
2953.00408813,0.01230407
2954.93289551,0.01229642
2956.86170288,0.01234058
2958.79051025,0.01214696
2960.71931763,0.01224785
2962.64812500,0.01225701
2964.57693237,0.01206197
2966.50573975,0.01213429
2968.43454712,0.01216244
2970.36335449,0.01204775
2972.29216187,0.01190321
2974.22096924,0.01202961
2976.14977661,0.01212206
2978.07858398,0.01200857
2980.00739136,0.01202705
2981.93619873,0.01186703
2983.86500610,0.01195864
2985.79381348,0.01200467
2987.72262085,0.01184255
2989.65142822,0.01194146
2991.58023560,0.01185788
2993.50904297,0.01178804
2995.43785034,0.01174500
2997.36665771,0.01169430
2999.29546509,0.01170504
3001.22427246,0.01168398
3003.15307983,0.01165227
3005.08188721,0.01161790
3007.01069458,0.01163025
3008.93950195,0.01155853
3010.86830933,0.01156215
3012.79711670,0.01144449
3014.72592407,0.01133278
3016.65473145,0.01131548
3018.58353882,0.01130124
3020.51234619,0.01139018
3022.44115356,0.01125678
3024.36996094,0.01126650
3026.29876831,0.01125511
3028.22757568,0.01111576
3030.15638306,0.01110401
3032.08519043,0.01105766
3034.01399780,0.01101838
3035.94280518,0.01096495
3037.87161255,0.01106508
3039.80041992,0.01096863
3041.72922729,0.01089703
3043.65803467,0.01094970
3045.58684204,0.01085893
3047.51564941,0.01092019
3049.44445679,0.01079053
3051.37326416,0.01070875
3053.30207153,0.01073453
3055.23087891,0.01069532
3057.15968628,0.01063794
3059.08849365,0.01055527
3061.01730103,0.01065210
3062.94610840,0.01058651
3064.87491577,0.01048713
3066.80372314,0.01045886
3068.73253052,0.01046632
3070.66133789,0.01050353
3072.59014526,0.01043134
3074.51895264,0.01041448
3076.44776001,0.01035291
3078.37656738,0.01033935
3080.30537476,0.01020254
3082.23418213,0.01009847
3084.16298950,0.01033873
3086.09179687,0.01023586
3088.02060425,0.01000896
3089.94941162,0.01012319
3091.87821899,0.01010891
3093.80702637,0.01004809
3095.73583374,0.01000174
3097.66464111,0.00992365
3099.59344849,0.00993216
3101.52225586,0.00975841
3103.45106323,0.00982928
3105.37987061,0.00989208
3107.30867798,0.00968465
3109.23748535,0.00984206
3111.16629272,0.00979121
3113.09510010,0.00970132
3115.02390747,0.00978323
3116.95271484,0.00966211
3118.88152222,0.00971438
3120.81032959,0.00966992
3122.73913696,0.00951827
3124.66794434,0.00958993
3126.59675171,0.00957796
3128.52555908,0.00948505
3130.45436645,0.00953551
3132.38317383,0.00939745
3134.31198120,0.00933693
3136.24078857,0.00946974
3138.16959595,0.00935028
3140.09840332,0.00940037
3142.02721069,0.00939697
3143.95601807,0.00926637
3145.88482544,0.00928730
3147.81363281,0.00921582
3149.74244019,0.00919881
3151.67124756,0.00924101
3153.60005493,0.00922115
3155.52886230,0.00909469
3157.45766968,0.00909316
3159.38647705,0.00904898
3161.31528442,0.00894560
3163.24409180,0.00900941
3165.17289917,0.00895476
3167.10170654,0.00896488
3169.03051392,0.00899074
3170.95932129,0.00899330
3172.88812866,0.00892573
3174.81693604,0.00889806
3176.74574341,0.00894554
3178.67455078,0.00874287
3180.60335815,0.00880515
3182.53216553,0.00885194
3184.46097290,0.00876072
3186.38978027,0.00885115
3188.31858765,0.00877427
3190.24739502,0.00879238
3192.17620239,0.00879524
3194.10500977,0.00863313
3196.03381714,0.00867751
3197.96262451,0.00871556
3199.89143188,0.00863051
3201.82023926,0.00869865
3203.74904663,0.00875318
3205.67785400,0.00869731
3207.60666138,0.00856317
3209.53546875,0.00853315
3211.46427612,0.00872772
3213.39308350,0.00867617
3215.32189087,0.00858259
3217.25069824,0.00857588
3219.17950562,0.00858943
3221.10831299,0.00864203
3223.03712036,0.00861908
3224.96592773,0.00872284
3226.89473511,0.00869496
3228.82354248,0.00871233
3230.75234985,0.00869605
3232.68115723,0.00858167
3234.60996460,0.00872910
3236.53877197,0.00868253
3238.46757935,0.00860065
3240.39638672,0.00865066
3242.32519409,0.00865945
3244.25400146,0.00867322
3246.18280884,0.00869149
3248.11161621,0.00866010
3250.04042358,0.00867406
3251.96923096,0.00877128
3253.89803833,0.00868854
3255.82684570,0.00874829
3257.75565308,0.00876087
3259.68446045,0.00863368
3261.61326782,0.00871427
3263.54207520,0.00877323
3265.47088257,0.00879624
3267.39968994,0.00873914
3269.32849731,0.00877427
3271.25730469,0.00875718
3273.18611206,0.00866570
3275.11491943,0.00877405
3277.04372681,0.00879020
3278.97253418,0.00880441
3280.90134155,0.00880531
3282.83014893,0.00873249
3284.75895630,0.00883410
3286.68776367,0.00893202
3288.61657104,0.00882859
3290.54537842,0.00885252
3292.47418579,0.00892776
3294.40299316,0.00892421
3296.33180054,0.00895803
3298.26060791,0.00887311
3300.18941528,0.00897305
3302.11822266,0.00903148
3304.04703003,0.00892820
3305.97583740,0.00898656
3307.90464478,0.00901255
3309.83345215,0.00896793
3311.76225952,0.00891635
3313.69106689,0.00897156
3315.61987427,0.00893714
3317.54868164,0.00898628
3319.47748901,0.00904487
3321.40629639,0.00893980
3323.33510376,0.00903127
3325.26391113,0.00907877
3327.19271851,0.00909790
3329.12152588,0.00902074
3331.05033325,0.00905958
3332.97914062,0.00916647
3334.90794800,0.00906132
3336.83675537,0.00909920
3338.76556274,0.00904215
3340.69437012,0.00904896
3342.62317749,0.00912871
3344.55198486,0.00915615
3346.48079224,0.00918662
3348.40959961,0.00920893
3350.33840698,0.00926529
3352.26721436,0.00916237
3354.19602173,0.00918834
3356.12482910,0.00919223
3358.05363647,0.00922704
3359.98244385,0.00931653
3361.91125122,0.00931204
3363.84005859,0.00933866
3365.76886597,0.00921373
3367.69767334,0.00931239
3369.62648071,0.00941558
3371.55528809,0.00941280
3373.48409546,0.00947232
3375.41290283,0.00943340
3377.34171020,0.00946851
3379.27051758,0.00949872
3381.19932495,0.00946382
3383.12813232,0.00946394
3385.05693970,0.00964208
3386.98574707,0.00961507
3388.91455444,0.00958188
3390.84336182,0.00966262
3392.77216919,0.00955820
3394.70097656,0.00962405
3396.62978394,0.00957771
3398.55859131,0.00959220
3400.48739868,0.00968285
3402.41620605,0.00972321
3404.34501343,0.00979202
3406.27382080,0.00971983
3408.20262817,0.00974152
3410.13143555,0.00975634
3412.06024292,0.00991850
3413.98905029,0.00992788
3415.91785767,0.00990475
3417.84666504,0.00998664
3419.77547241,0.00984375
3421.70427979,0.00996794
3423.63308716,0.01001382
3425.56189453,0.00996664
3427.49070190,0.01001627
3429.41950928,0.01011210
3431.34831665,0.01009850
3433.27712402,0.00995013
3435.20593140,0.01010688
3437.13473877,0.01012762
3439.06354614,0.01010446
3440.99235352,0.01006285
3442.92116089,0.01010562
3444.84996826,0.01028903
3446.77877563,0.01014803
3448.70758301,0.01019409
3450.63639038,0.01028505
3452.56519775,0.01024948
3454.49400513,0.01030088
3456.42281250,0.01035249
3458.35161987,0.01043908
3460.28042725,0.01046322
3462.20923462,0.01037288
3464.13804199,0.01035454
3466.06684937,0.01047464
3467.99565674,0.01043144
3469.92446411,0.01045874
3471.85327148,0.01055004
3473.78207886,0.01053099
3475.71088623,0.01050611
3477.63969360,0.01043290
3479.56850098,0.01047013
3481.49730835,0.01054042
3483.42611572,0.01059515
3485.35492310,0.01054904
3487.28373047,0.01052667
3489.21253784,0.01054175
3491.14134521,0.01058969
3493.07015259,0.01070886
3494.99895996,0.01060785
3496.92776733,0.01057699
3498.85657471,0.01068123
3500.78538208,0.01073409
3502.71418945,0.01050892
3504.64299683,0.01056386
3506.57180420,0.01087720
3508.50061157,0.01064813
3510.42941895,0.01064162
3512.35822632,0.01069259
3514.28703369,0.01070407
3516.21584106,0.01078588
3518.14464844,0.01068775
3520.07345581,0.01077580
3522.00226318,0.01061740
3523.93107056,0.01052033
3525.85987793,0.01062741
3527.78868530,0.01069637
3529.71749268,0.01079226
3531.64630005,0.01074188
3533.57510742,0.01077765
3535.50391479,0.01078218
3537.43272217,0.01076163
3539.36152954,0.01086818
3541.29033691,0.01091845
3543.21914429,0.01079896
3545.14795166,0.01059330
3547.07675903,0.01045145
3549.00556641,0.01068899
3550.93437378,0.01085027
3552.86318115,0.01065605
3554.79198853,0.01081171
3556.72079590,0.01082613
3558.64960327,0.01076845
3560.57841064,0.01073052
3562.50721802,0.01066668
3564.43602539,0.01077179
3566.36483276,0.01008206
3568.29364014,0.00981500
3570.22244751,0.01056860
3572.15125488,0.01082661
3574.08006226,0.01072798
3576.00886963,0.01070322
3577.93767700,0.01070203
3579.86648437,0.01074789
3581.79529175,0.01069125
3583.72409912,0.01065933
3585.65290649,0.01036591
3587.58171387,0.00965622
3589.51052124,0.01000008
3591.43932861,0.01070491
3593.36813599,0.01040428
3595.29694336,0.01020610
3597.22575073,0.01039438
3599.15455811,0.01049688
3601.08336548,0.01039273
3603.01217285,0.01056585
3604.94098022,0.01071203
3606.86978760,0.01026874
3608.79859497,0.00972373
3610.72740234,0.00996918
3612.65620972,0.01015639
3614.58501709,0.00982185
3616.51382446,0.01040847
3618.44263184,0.00961636
3620.37143921,0.00936163
3622.30024658,0.01057058
3624.22905395,0.01023857
3626.15786133,0.01058111
3628.08666870,0.00905332
3630.01547607,0.00830827
3631.94428345,0.01038035
3633.87309082,0.01010445
3635.80189819,0.01018390
3637.73070557,0.01041021
3639.65951294,0.01022704
3641.58832031,0.01032270
3643.51712769,0.01014390
3645.44593506,0.01022703
3647.37474243,0.00932711
3649.30354980,0.00859328
3651.23235718,0.00867295
3653.16116455,0.01011332
3655.08997192,0.00998640
3657.01877930,0.00892023
3658.94758667,0.01012722
3660.87639404,0.01002547
3662.80520142,0.01004778
3664.73400879,0.01007569
3666.66281616,0.01007531
3668.59162354,0.00959923
3670.52043091,0.00790652
3672.44923828,0.00950686
3674.37804565,0.00903986
3676.30685303,0.00751466
3678.23566040,0.00926187
3680.16446777,0.00953349
3682.09327515,0.00950418
3684.02208252,0.00969196
3685.95088989,0.00949479
3687.87969727,0.00852478
3689.80850464,0.00795185
3691.73731201,0.00898617
3693.66611938,0.00909243
3695.59492676,0.00917440
3697.52373413,0.00918292
3699.45254150,0.00922158
3701.38134888,0.00892432
3703.31015625,0.00861807
3705.23896362,0.00944107
3707.16777100,0.00895835
3709.09657837,0.00875432
3711.02538574,0.00815060
3712.95419312,0.00766193
3714.88300049,0.00884859
3716.81180786,0.00869714
3718.74061523,0.00880096
3720.66942261,0.00857108
3722.59822998,0.00832023
3724.52703735,0.00857969
3726.45584473,0.00796621
3728.38465210,0.00855889
3730.31345947,0.00848456
3732.24226685,0.00781614
3734.17107422,0.00761095
3736.09988159,0.00736353
3738.02868896,0.00761796
3739.95749634,0.00819351
3741.88630371,0.00858012
3743.81511108,0.00669053
3745.74391846,0.00643618
3747.67272583,0.00810759
3749.60153320,0.00702100
3751.53034058,0.00653138
3753.45914795,0.00734929
3755.38795532,0.00788350
3757.31676270,0.00810662
3759.24557007,0.00754294
3761.17437744,0.00785606
3763.10318481,0.00825522
3765.03199219,0.00766963
3766.96079956,0.00778736
3768.88960693,0.00774160
3770.81841431,0.00746671
3772.74722168,0.00804560
3774.67602905,0.00801057
3776.60483643,0.00799440
3778.53364380,0.00787500
3780.46245117,0.00757551
3782.39125854,0.00794469
3784.32006592,0.00777963
3786.24887329,0.00766562
3788.17768066,0.00780405
3790.10648804,0.00779739
3792.03529541,0.00765775
3793.96410278,0.00782443
3795.89291016,0.00742034
3797.82171753,0.00726678
3799.75052490,0.00759290
3801.67933228,0.00608634
3803.60813965,0.00711594
3805.53694702,0.00764561
3807.46575439,0.00630036
3809.39456177,0.00761238
3811.32336914,0.00750368
3813.25217651,0.00769329
3815.18098389,0.00685219
3817.10979126,0.00613891
3819.03859863,0.00772258
3820.96740601,0.00623538
3822.89621338,0.00654718
3824.82502075,0.00758492
3826.75382812,0.00686666
3828.68263550,0.00732648
3830.61144287,0.00703029
3832.54025024,0.00686088
3834.46905762,0.00700527
3836.39786499,0.00665749
3838.32667236,0.00604395
3840.25547974,0.00650343
3842.18428711,0.00701526
3844.11309448,0.00669371
3846.04190186,0.00722684
3847.97070923,0.00710459
3849.89951660,0.00705468
3851.82832397,0.00640476
3853.75713135,0.00482629
3855.68593872,0.00570443
3857.61474609,0.00710154
3859.54355347,0.00687751
3861.47236084,0.00680549
3863.40116821,0.00663174
3865.32997559,0.00629295
3867.25878296,0.00693320
3869.18759033,0.00633096
3871.11639770,0.00588467
3873.04520508,0.00678832
3874.97401245,0.00636462
3876.90281982,0.00669113
3878.83162720,0.00675351
3880.76043457,0.00591532
3882.68924194,0.00664414
3884.61804932,0.00636660
3886.54685669,0.00588528
3888.47566406,0.00675519
3890.40447144,0.00648145
3892.33327881,0.00610344
3894.26208618,0.00658971
3896.19089355,0.00668021
3898.11970093,0.00643153
3900.04850830,0.00607021
3901.97731567,0.00607139
3903.90612305,0.00595053
3905.83493042,0.00594083
3907.76373779,0.00653681
3909.69254517,0.00653039
3911.62135254,0.00650862
3913.55015991,0.00655021
3915.47896728,0.00637257
3917.40777466,0.00619361
3919.33658203,0.00610242
3921.26538940,0.00642303
3923.19419678,0.00628263
3925.12300415,0.00616446
3927.05181152,0.00628832
3928.98061890,0.00627049
3930.90942627,0.00622079
3932.83823364,0.00602186
3934.76704102,0.00615933
3936.69584839,0.00622739
3938.62465576,0.00622673
3940.55346313,0.00623066
3942.48227051,0.00606795
3944.41107788,0.00617192
3946.33988525,0.00619194
3948.26869263,0.00597488
3950.19750000,0.00602297
3952.12630737,0.00616210
3954.05511475,0.00609991
3955.98392212,0.00616847
3957.91272949,0.00613776
3959.84153687,0.00606488
3961.77034424,0.00599644
3963.69915161,0.00597639
3965.62795898,0.00610704
3967.55676636,0.00595443
3969.48557373,0.00594256
3971.41438110,0.00591257
3973.34318848,0.00592708
3975.27199585,0.00594923
3977.20080322,0.00578815
3979.12961060,0.00586587
3981.05841797,0.00582185
3982.98722534,0.00588164
3984.91603271,0.00584234
3986.84484009,0.00582224
3988.77364746,0.00582387
3990.70245483,0.00570652
3992.63126221,0.00588960
3994.56006958,0.00575117
3996.48887695,0.00573478
3998.41768433,0.00575589
4000.34649170,0.00564096
4002.27529907,0.00574479
4004.20410645,0.00569480
4006.13291382,0.00568680
4008.06172119,0.00571359
4009.99052856,0.00573342
4011.91933594,0.00558391
4013.84814331,0.00556374
4015.77695068,0.00563615
4017.70575806,0.00558377
4019.63456543,0.00560791
4021.56337280,0.00547679
4023.49218018,0.00548508
4025.42098755,0.00551376
4027.34979492,0.00558991
4029.27860229,0.00555265
4031.20740967,0.00545140
4033.13621704,0.00559856
4035.06502441,0.00542507
4036.99383179,0.00534328
4038.92263916,0.00542210
4040.85144653,0.00543221
4042.78025391,0.00549074
4044.70906128,0.00546526
4046.63786865,0.00539645
4048.56667603,0.00535266
4050.49548340,0.00533305
4052.42429077,0.00527744
4054.35309814,0.00529920
4056.28190552,0.00523910
4058.21071289,0.00530391
4060.13952026,0.00533952
4062.06832764,0.00527490
4063.99713501,0.00534659
4065.92594238,0.00521080
4067.85474976,0.00523491
4069.78355713,0.00522441
4071.71236450,0.00518553
4073.64117187,0.00522262
4075.56997925,0.00512747
4077.49878662,0.00523802
4079.42759399,0.00514662
4081.35640137,0.00501170
4083.28520874,0.00510345
4085.21401611,0.00513024
4087.14282349,0.00506908
4089.07163086,0.00508819
4091.00043823,0.00513881
4092.92924561,0.00503828
4094.85805298,0.00501858
4096.78686035,0.00501651
4098.71566772,0.00499431
4100.64447510,0.00496717
4102.57328247,0.00496689
4104.50208984,0.00497637
4106.43089722,0.00496890
4108.35970459,0.00494979
4110.28851196,0.00490441
4112.21731934,0.00494899
4114.14612671,0.00477395
4116.07493408,0.00481451
4118.00374145,0.00498685
4119.93254883,0.00489607
4121.86135620,0.00494321
4123.79016357,0.00484512
4125.71897095,0.00475150
4127.64777832,0.00477607
4129.57658569,0.00480097
4131.50539307,0.00481810
4133.43420044,0.00480590
4135.36300781,0.00478769
4137.29181519,0.00474089
4139.22062256,0.00476857
4141.14942993,0.00465589
4143.07823730,0.00471468
4145.00704468,0.00478452
4146.93585205,0.00465064
4148.86465942,0.00462342
4150.79346680,0.00462891
4152.72227417,0.00465316
4154.65108154,0.00452210
4156.57988892,0.00454285
4158.50869629,0.00458915
4160.43750366,0.00454076
4162.36631103,0.00461527
4164.29511841,0.00462829
4166.22392578,0.00455148
4168.15273315,0.00447018
4170.08154053,0.00464393
4172.01034790,0.00452374
4173.93915527,0.00442230
4175.86796265,0.00457193
4177.79677002,0.00444761
4179.72557739,0.00448809
4181.65438477,0.00442126
4183.58319214,0.00442604
4185.51199951,0.00447718
4187.44080688,0.00436568
4189.36961426,0.00444526
4191.29842163,0.00441898
4193.22722900,0.00441459
4195.15603638,0.00442972
4197.08484375,0.00438730
4199.01365112,0.00434360
4200.94245850,0.00440326
4202.87126587,0.00439617
4204.80007324,0.00426337
4206.72888062,0.00433114
4208.65768799,0.00425158
4210.58649536,0.00426355
4212.51530273,0.00433102
4214.44411011,0.00424696
4216.37291748,0.00429999
4218.30172485,0.00427442
4220.23053223,0.00420881
4222.15933960,0.00416158
4224.08814697,0.00423680
4226.01695435,0.00423505
4227.94576172,0.00412354
4229.87456909,0.00420191
4231.80337646,0.00417686
4233.73218384,0.00419070
4235.66099121,0.00421412
4237.58979858,0.00408300
4239.51860596,0.00410730
4241.44741333,0.00408249
4243.37622070,0.00400885
4245.30502808,0.00408434
4247.23383545,0.00406165
4249.16264282,0.00401514
4251.09145020,0.00404178
4253.02025757,0.00406322
4254.94906494,0.00405007
4256.87787231,0.00402063
4258.80667969,0.00404440
4260.73548706,0.00396715
4262.66429443,0.00398017
4264.59310181,0.00401193
4266.52190918,0.00391004
4268.45071655,0.00398643
4270.37952393,0.00400462
4272.30833130,0.00393502
4274.23713867,0.00388959
4276.16594604,0.00388835
4278.09475342,0.00395784
4280.02356079,0.00392397
4281.95236816,0.00390456
4283.88117554,0.00390398
4285.80998291,0.00387277
4287.73879028,0.00376827
4289.66759766,0.00379851
4291.59640503,0.00392586
4293.52521240,0.00375988
4295.45401978,0.00373692
4297.38282715,0.00385491
4299.31163452,0.00380930
4301.24044189,0.00384452
4303.16924927,0.00383503
4305.09805664,0.00373270
4307.02686401,0.00370979
4308.95567139,0.00375842
4310.88447876,0.00378124
4312.81328613,0.00370590
4314.74209351,0.00366285
4316.67090088,0.00367876
4318.59970825,0.00367497
4320.52851562,0.00371064
4322.45732300,0.00374504
4324.38613037,0.00368815
4326.31493774,0.00361853
4328.24374512,0.00362935
4330.17255249,0.00361171
4332.10135986,0.00356902
4334.03016724,0.00358904
4335.95897461,0.00363418
4337.88778198,0.00362971
4339.81658936,0.00355232
4341.74539673,0.00359363
4343.67420410,0.00355601
4345.60301147,0.00346278
4347.53181885,0.00354172
4349.46062622,0.00354252
4351.38943359,0.00357844
4353.31824097,0.00351808
4355.24704834,0.00346883
4357.17585571,0.00358810
4359.10466309,0.00348898
4361.03347046,0.00341936
4362.96227783,0.00343308
4364.89108520,0.00340273
4366.81989258,0.00341686
4368.74869995,0.00346525
4370.67750732,0.00346522
4372.60631470,0.00340650
4374.53512207,0.00338765
4376.46392944,0.00334209
4378.39273682,0.00336855
4380.32154419,0.00341806
4382.25035156,0.00345052
4384.17915894,0.00338274
4386.10796631,0.00326232
4388.03677368,0.00332676
4389.96558105,0.00332811
4391.89438843,0.00332915
4393.82319580,0.00334422
4395.75200317,0.00329558
4397.68081055,0.00323062
4399.60961792,0.00322190
4401.53842529,0.00333928
4403.46723267,0.00326100
4405.39604004,0.00319423
4407.32484741,0.00325770
4409.25365478,0.00320119
4411.18246216,0.00315961
4413.11126953,0.00323767
4415.04007690,0.00323428
4416.96888428,0.00319803
4418.89769165,0.00328167
4420.82649902,0.00316106
4422.75530640,0.00318058
4424.68411377,0.00325231
4426.61292114,0.00302786
4428.54172852,0.00308524
4430.47053589,0.00314008
4432.39934326,0.00314137
4434.32815063,0.00324723
4436.25695801,0.00313499
4438.18576538,0.00310644
4440.11457275,0.00312925
4442.04338013,0.00310848
4443.97218750,0.00314852
4445.90099487,0.00310138
4447.82980225,0.00307555
4449.75860962,0.00304945
4451.68741699,0.00304511
4453.61622437,0.00304518
4455.54503174,0.00296150
4457.47383911,0.00305005
4459.40264648,0.00304655
4461.33145386,0.00297727
4463.26026123,0.00304403
4465.18906860,0.00297338
4467.11787598,0.00293734
4469.04668335,0.00295512
4470.97549072,0.00297576
4472.90429810,0.00296352
4474.83310547,0.00298154
4476.76191284,0.00300045
4478.69072021,0.00293503
4480.61952759,0.00299646
4482.54833496,0.00289955
4484.47714233,0.00286405
4486.40594971,0.00293978
4488.33475708,0.00292081
4490.26356445,0.00296604
4492.19237183,0.00289084
4494.12117920,0.00291387
4496.04998657,0.00292253
4497.97879395,0.00282298
4499.90760132,0.00277585
4501.83640869,0.00281088
4503.76521606,0.00286095
4505.69402344,0.00280191
4507.62283081,0.00285788
4509.55163818,0.00277384
4511.48044556,0.00276283
4513.40925293,0.00286496
4515.33806030,0.00273399
4517.26686768,0.00274189
4519.19567505,0.00282784
4521.12448242,0.00282775
4523.05328979,0.00276795
4524.98209717,0.00278263
4526.91090454,0.00278870
4528.83971191,0.00274398
4530.76851929,0.00276092
4532.69732666,0.00274874
4534.62613403,0.00274792
4536.55494141,0.00270372
4538.48374878,0.00271660
4540.41255615,0.00267941
4542.34136353,0.00263913
4544.27017090,0.00266961
4546.19897827,0.00265688
4548.12778564,0.00266736
4550.05659302,0.00261554
4551.98540039,0.00267110
4553.91420776,0.00266922
4555.84301514,0.00263356
4557.77182251,0.00265019
4559.70062988,0.00261695
4561.62943726,0.00262249
4563.55824463,0.00256844
4565.48705200,0.00262758
4567.41585937,0.00259298
4569.34466675,0.00255832
4571.27347412,0.00262235
4573.20228149,0.00257724
4575.13108887,0.00254256
4577.05989624,0.00249298
4578.98870361,0.00257324
4580.91751099,0.00255718
4582.84631836,0.00252769
4584.77512573,0.00255327
4586.70393311,0.00250034
4588.63274048,0.00252325
4590.56154785,0.00250149
4592.49035522,0.00250411
4594.41916260,0.00247066
4596.34796997,0.00250354
4598.27677734,0.00251807
4600.20558472,0.00250132
4602.13439209,0.00250297
4604.06319946,0.00241442
4605.99200684,0.00245028
4607.92081421,0.00237878
4609.84962158,0.00239914
4611.77842895,0.00240571
4613.70723633,0.00234457
4615.63604370,0.00246429
4617.56485107,0.00242134
4619.49365845,0.00238340
4621.42246582,0.00235999
4623.35127319,0.00236013
4625.28008057,0.00234913
4627.20888794,0.00241000
4629.13769531,0.00241017
4631.06650269,0.00229033
4632.99531006,0.00245517
4634.92411743,0.00233495
4636.85292480,0.00226573
4638.78173218,0.00239043
4640.71053955,0.00231704
4642.63934692,0.00235104
4644.56815430,0.00228450
4646.49696167,0.00230653
4648.42576904,0.00229597
4650.35457642,0.00220095
4652.28338379,0.00227825
4654.21219116,0.00230594
4656.14099853,0.00227729
4658.06980591,0.00226128
4659.99861328,0.00230449
4661.92742065,0.00225927
4663.85622803,0.00228864
4665.78503540,0.00230087
4667.71384277,0.00216776
4669.64265015,0.00225398
4671.57145752,0.00226281
4673.50026489,0.00218170
4675.42907227,0.00225036
4677.35787964,0.00224100
4679.28668701,0.00217970
4681.21549438,0.00216235
4683.14430176,0.00212253
4685.07310913,0.00214284
4687.00191650,0.00225780
4688.93072388,0.00224915
4690.85953125,0.00211991
4692.78833862,0.00212279
4694.71714600,0.00223221
4696.64595337,0.00220850
4698.57476074,0.00210021
4700.50356812,0.00214607
4702.43237549,0.00219924
4704.36118286,0.00207711
4706.28999023,0.00211505
4708.21879761,0.00221719
4710.14760498,0.00213002
4712.07641235,0.00211337
4714.00521973,0.00210556
4715.93402710,0.00207404
4717.86283447,0.00202349
4719.79164185,0.00200291
4721.72044922,0.00208218
4723.64925659,0.00207370
4725.57806396,0.00202473
4727.50687134,0.00201952
4729.43567871,0.00210160
4731.36448608,0.00207301
4733.29329346,0.00201825
4735.22210083,0.00203575
4737.15090820,0.00200416
4739.07971558,0.00203782
4741.00852295,0.00198693
4742.93733032,0.00201606
4744.86613770,0.00194838
4746.79494507,0.00189553
4748.72375244,0.00206819
4750.65255981,0.00196355
4752.58136719,0.00196902
4754.51017456,0.00197871
4756.43898193,0.00190478
4758.36778931,0.00200602
4760.29659668,0.00196416
4762.22540405,0.00197938
4764.15421143,0.00198369
4766.08301880,0.00189861
4768.01182617,0.00191767
4769.94063354,0.00195195
4771.86944092,0.00193663
4773.79824829,0.00190140
4775.72705566,0.00188777
4777.65586304,0.00191772
4779.58467041,0.00193623
4781.51347778,0.00188295
4783.44228516,0.00191110
4785.37109253,0.00190568
4787.29989990,0.00185456
4789.22870728,0.00187791
4791.15751465,0.00186654
4793.08632202,0.00188065
4795.01512939,0.00185675
4796.94393677,0.00178534
4798.87274414,0.00178835
4800.80155151,0.00182714
4802.73035889,0.00181036
4804.65916626,0.00182872
4806.58797363,0.00188715
4808.51678101,0.00183584
4810.44558838,0.00179598
4812.37439575,0.00183677
4814.30320312,0.00177821
4816.23201050,0.00172212
4818.16081787,0.00183744
4820.08962524,0.00179626
4822.01843262,0.00175504
4823.94723999,0.00180594
4825.87604736,0.00176581
4827.80485474,0.00177245
4829.73366211,0.00168538
4831.66246948,0.00177156
4833.59127686,0.00179053
4835.52008423,0.00168682
4837.44889160,0.00175399
4839.37769897,0.00170293
4841.30650635,0.00173605
4843.23531372,0.00168274
4845.16412109,0.00171661
4847.09292847,0.00174892
4849.02173584,0.00169093
4850.95054321,0.00183585
4852.87935059,0.00168118
4854.80815796,0.00167859
4856.73696533,0.00175920
4858.66577270,0.00168191
4860.59458008,0.00173210
4862.52338745,0.00170337
4864.45219482,0.00169766
4866.38100220,0.00163098
4868.30980957,0.00163212
4870.23861694,0.00164127
4872.16742432,0.00166811
4874.09623169,0.00169965
4876.02503906,0.00160125
4877.95384644,0.00166840
4879.88265381,0.00165932
4881.81146118,0.00160242
4883.74026855,0.00160492
4885.66907593,0.00165828
4887.59788330,0.00167976
4889.52669067,0.00159197
4891.45549805,0.00162544
4893.38430542,0.00162510
4895.31311279,0.00160734
4897.24192017,0.00156127
4899.17072754,0.00154600
4901.09953491,0.00160346
4903.02834228,0.00159652
4904.95714966,0.00158404
4906.88595703,0.00154304
4908.81476440,0.00155273
4910.74357178,0.00157294
4912.67237915,0.00157027
4914.60118652,0.00153185
4916.52999390,0.00155446
4918.45880127,0.00157826
4920.38760864,0.00155661
4922.31641602,0.00159571
4924.24522339,0.00149943
4926.17403076,0.00155470
4928.10283813,0.00159696
4930.03164551,0.00146465
4931.96045288,0.00150515
4933.88926025,0.00151104
4935.81806763,0.00149629
4937.74687500,0.00149692
4939.67568237,0.00148345
4941.60448975,0.00148456
4943.53329712,0.00144681
4945.46210449,0.00143595
4947.39091187,0.00152981
4949.31971924,0.00153090
4951.24852661,0.00140035
4953.17733398,0.00145930
4955.10614136,0.00145327
4957.03494873,0.00137997
4958.96375610,0.00145864
4960.89256348,0.00148254
4962.82137085,0.00142764
4964.75017822,0.00141996
4966.67898560,0.00149077
4968.60779297,0.00145968
4970.53660034,0.00139535
4972.46540771,0.00137416
4974.39421509,0.00142823
4976.32302246,0.00149599
4978.25182983,0.00141243
4980.18063721,0.00135023
4982.10944458,0.00139641
4984.03825195,0.00147521
4985.96705933,0.00138467
4987.89586670,0.00138731
4989.82467407,0.00150551
4991.75348145,0.00138059
4993.68228882,0.00132593
4995.61109619,0.00139375
4997.53990356,0.00139491
4999.46871094,0.00127557
5001.39751831,0.00129472
5003.32632568,0.00143835
5005.25513306,0.00137566
5007.18394043,0.00132862
5009.11274780,0.00135534
5011.04155518,0.00139594
5012.97036255,0.00134568
5014.89916992,0.00131855
5016.82797729,0.00138479
5018.75678467,0.00132769
5020.68559204,0.00134542
5022.61439941,0.00139141
5024.54320679,0.00135334
5026.47201416,0.00130143
5028.40082153,0.00129834
5030.32962891,0.00131890
5032.25843628,0.00126497
5034.18724365,0.00127097
5036.11605103,0.00128132
5038.04485840,0.00125585
5039.97366577,0.00126976
5041.90247314,0.00128653
5043.83128052,0.00130082
5045.76008789,0.00128275
5047.68889526,0.00122267
5049.61770264,0.00121785
5051.54651001,0.00123784
5053.47531738,0.00123586
5055.40412476,0.00127678
5057.33293213,0.00124804
5059.26173950,0.00124503
5061.19054687,0.00125372
5063.11935425,0.00119445
5065.04816162,0.00121420
5066.97696899,0.00121489
5068.90577637,0.00126197
5070.83458374,0.00128790
5072.76339111,0.00121253
5074.69219849,0.00118919
5076.62100586,0.00120460
5078.54981323,0.00121687
5080.47862061,0.00116622
5082.40742798,0.00116444
5084.33623535,0.00117293
5086.26504272,0.00114615
5088.19385010,0.00120305
5090.12265747,0.00121070
5092.05146484,0.00114280
5093.98027222,0.00116714
5095.90907959,0.00120045
5097.83788696,0.00115963
5099.76669434,0.00121846
5101.69550171,0.00117395
5103.62430908,0.00109263
5105.55311645,0.00118236
5107.48192383,0.00115046
5109.41073120,0.00113363
5111.33953857,0.00112516
5113.26834595,0.00109395
5115.19715332,0.00119995
5117.12596069,0.00120616
5119.05476807,0.00110091
5120.98357544,0.00108465
5122.91238281,0.00116064
5124.84119019,0.00109012
5126.76999756,0.00103027
5128.69880493,0.00114441
5130.62761230,0.00114876
5132.55641968,0.00116018
5134.48522705,0.00119062
5136.41403442,0.00111580
5138.34284180,0.00107751
5140.27164917,0.00108817
5142.20045654,0.00109794
5144.12926392,0.00106901
5146.05807129,0.00103644
5147.98687866,0.00106882
5149.91568603,0.00109339
5151.84449341,0.00104706
5153.77330078,0.00104899
5155.70210815,0.00106978
5157.63091553,0.00102829
5159.55972290,0.00105184
5161.48853027,0.00112656
5163.41733765,0.00108618
5165.34614502,0.00098390
5167.27495239,0.00106193
5169.20375977,0.00109131
5171.13256714,0.00103154
5173.06137451,0.00107464
5174.99018188,0.00097301
5176.91898926,0.00101856
5178.84779663,0.00104251
5180.77660400,0.00090894
5182.70541138,0.00108067
5184.63421875,0.00101782
5186.56302612,0.00095674
5188.49183350,0.00111196
5190.42064087,0.00098968
5192.34944824,0.00096856
5194.27825562,0.00096469
5196.20706299,0.00095097
5198.13587036,0.00102891
5200.06467773,0.00101393
5201.99348511,0.00103593
5203.92229248,0.00098472
5205.85109985,0.00089724
5207.77990723,0.00088972
5209.70871460,0.00092248
5211.63752197,0.00094236
5213.56632935,0.00097905
5215.49513672,0.00103581
5217.42394409,0.00097556
5219.35275146,0.00096327
5221.28155884,0.00100267
5223.21036621,0.00096369
5225.13917358,0.00093818
5227.06798096,0.00098840
5228.99678833,0.00096214
5230.92559570,0.00088990
5232.85440308,0.00097362
5234.78321045,0.00098008
5236.71201782,0.00096531
5238.64082520,0.00097214
5240.56963257,0.00089035
5242.49843994,0.00096184
5244.42724731,0.00103527
5246.35605469,0.00094392
5248.28486206,0.00086984
5250.21366943,0.00090235
5252.14247681,0.00090160
5254.07128418,0.00090635
5256.00009155,0.00094355
5257.92889893,0.00090601
5259.85770630,0.00090661
5261.78651367,0.00088445
5263.71532104,0.00092951
5265.64412842,0.00094722
5267.57293579,0.00084654
5269.50174316,0.00087353
5271.43055054,0.00090304
5273.35935791,0.00091870
5275.28816528,0.00087573
5277.21697266,0.00086479
5279.14578003,0.00088390
5281.07458740,0.00082589
5283.00339478,0.00089786
5284.93220215,0.00086224
5286.86100952,0.00085851
5288.78981689,0.00094504
5290.71862427,0.00085833
5292.64743164,0.00087518
5294.57623901,0.00090588
5296.50504639,0.00089318
5298.43385376,0.00091702
5300.36266113,0.00084845
5302.29146851,0.00081878
5304.22027588,0.00085603
5306.14908325,0.00083792
5308.07789062,0.00083006
5310.00669800,0.00083514
5311.93550537,0.00081784
5313.86431274,0.00085636
5315.79312012,0.00089438
5317.72192749,0.00088972
5319.65073486,0.00082638
5321.57954224,0.00079173
5323.50834961,0.00081584
5325.43715698,0.00078420
5327.36596436,0.00075645
5329.29477173,0.00071813
5331.22357910,0.00080630
5333.15238647,0.00087021
5335.08119385,0.00080073
5337.01000122,0.00082130
5338.93880859,0.00074057
5340.86761597,0.00076599
5342.79642334,0.00084189
5344.72523071,0.00075335
5346.65403809,0.00078373
5348.58284546,0.00081493
5350.51165283,0.00078100
5352.44046020,0.00076742
5354.36926758,0.00079622
5356.29807495,0.00076650
5358.22688232,0.00078980
5360.15568970,0.00085734
5362.08449707,0.00076856
5364.01330444,0.00078638
5365.94211182,0.00079534
5367.87091919,0.00078362
5369.79972656,0.00077721
5371.72853394,0.00077643
5373.65734131,0.00087741
5375.58614868,0.00077970
5377.51495605,0.00072584
5379.44376343,0.00075044
5381.37257080,0.00076345
5383.30137817,0.00077607
5385.23018555,0.00073554
5387.15899292,0.00077698
5389.08780029,0.00071773
5391.01660767,0.00078836
5392.94541504,0.00080332
5394.87422241,0.00064789
5396.80302978,0.00068870
5398.73183716,0.00073827
5400.66064453,0.00076302
5402.58945190,0.00071817
5404.51825928,0.00076208
5406.44706665,0.00076546
5408.37587402,0.00069881
5410.30468140,0.00076309
5412.23348877,0.00071684
5414.16229614,0.00071988
5416.09110352,0.00067606
5418.01991089,0.00071353
5419.94871826,0.00076406
5421.87752563,0.00065753
5423.80633301,0.00073518
5425.73514038,0.00068712
5427.66394775,0.00070337
5429.59275513,0.00077831
5431.52156250,0.00069451
5433.45036987,0.00069568
5435.37917725,0.00064848
5437.30798462,0.00069372
5439.23679199,0.00070077
5441.16559936,0.00064747
5443.09440674,0.00070865
5445.02321411,0.00067232
5446.95202148,0.00065398
5448.88082886,0.00066330
5450.80963623,0.00066533
5452.73844360,0.00072045
5454.66725098,0.00072722
5456.59605835,0.00072184
5458.52486572,0.00068793
5460.45367310,0.00064082
5462.38248047,0.00069465
5464.31128784,0.00071071
5466.24009521,0.00064035
5468.16890259,0.00058777
5470.09770996,0.00061166
5472.02651733,0.00065030
5473.95532471,0.00061805
5475.88413208,0.00062209
5477.81293945,0.00058765
5479.74174683,0.00060504
5481.67055420,0.00063954
5483.59936157,0.00056875
5485.52816895,0.00062433
5487.45697632,0.00061067
5489.38578369,0.00060329
5491.31459106,0.00065276
5493.24339844,0.00057789
5495.17220581,0.00061062
5497.10101318,0.00064304
5499.02982056,0.00061848
5500.95862793,0.00067253
5502.88743530,0.00069727
5504.81624268,0.00060825
5506.74505005,0.00059540
5508.67385742,0.00063286
5510.60266479,0.00058768
5512.53147217,0.00059606
5514.46027954,0.00059741
5516.38908691,0.00061233
5518.31789429,0.00056863
5520.24670166,0.00055107
5522.17550903,0.00062168
5524.10431641,0.00057139
5526.03312378,0.00059024
5527.96193115,0.00063155
5529.89073853,0.00063601
5531.81954590,0.00060357
5533.74835327,0.00058329
5535.67716064,0.00061836
5537.60596802,0.00057261
5539.53477539,0.00055018
5541.46358276,0.00050919
5543.39239014,0.00062182
5545.32119751,0.00066438
5547.25000488,0.00050762
5549.17881226,0.00056321
5551.10761963,0.00055661
5553.03642700,0.00052971
5554.96523437,0.00055671
5556.89404175,0.00058532
5558.82284912,0.00064778
5560.75165649,0.00055085
5562.68046387,0.00052977
5564.60927124,0.00056770
5566.53807861,0.00058373
5568.46688599,0.00063096
5570.39569336,0.00059604
5572.32450073,0.00055082
5574.25330811,0.00052947
5576.18211548,0.00054884
5578.11092285,0.00055460
5580.03973022,0.00054842
5581.96853760,0.00059138
5583.89734497,0.00060349
5585.82615234,0.00054651
5587.75495972,0.00048667
5589.68376709,0.00053707
5591.61257446,0.00055772
5593.54138184,0.00049191
5595.47018921,0.00054204
5597.39899658,0.00056244
5599.32780395,0.00053618
5601.25661133,0.00058729
5603.18541870,0.00048736
5605.11422607,0.00047911
5607.04303345,0.00063809
5608.97184082,0.00053303
5610.90064819,0.00044678
5612.82945557,0.00047460
5614.75826294,0.00044672
5616.68707031,0.00053251
5618.61587769,0.00055644
5620.54468506,0.00054228
5622.47349243,0.00055977
5624.40229980,0.00047868
5626.33110718,0.00045312
5628.25991455,0.00048160
5630.18872192,0.00053775
5632.11752930,0.00053806
5634.04633667,0.00050324
5635.97514404,0.00055395
5637.90395142,0.00046488
5639.83275879,0.00046639
5641.76156616,0.00056902
5643.69037353,0.00049644
5645.61918091,0.00049957
5647.54798828,0.00049393
5649.47679565,0.00047503
5651.40560303,0.00047730
5653.33441040,0.00047208
5655.26321777,0.00055176
5657.19202515,0.00045202
5659.12083252,0.00042135
5661.04963989,0.00054425
5662.97844727,0.00046709
5664.90725464,0.00044940
5666.83606201,0.00050841
5668.76486938,0.00045193
5670.69367676,0.00043753
5672.62248413,0.00048000
5674.55129150,0.00047937
5676.48009888,0.00048920
5678.40890625,0.00049188
5680.33771362,0.00049003
5682.26652100,0.00053205
5684.19532837,0.00045689
5686.12413574,0.00043198
5688.05294311,0.00049799
5689.98175049,0.00036091
5691.91055786,0.00035666
5693.83936523,0.00048185
5695.76817261,0.00043672
5697.69697998,0.00042582
5699.62578735,0.00042027
5701.55459473,0.00043333
5703.48340210,0.00041453
5705.41220947,0.00037877
5707.34101685,0.00046639
5709.26982422,0.00043826
5711.19863159,0.00044340
5713.12743896,0.00048706
5715.05624634,0.00043328
5716.98505371,0.00044367
5718.91386108,0.00044347
5720.84266846,0.00043975
5722.77147583,0.00042573
5724.70028320,0.00041442
5726.62909058,0.00036591
5728.55789795,0.00033752
5730.48670532,0.00041954
5732.41551270,0.00043819
5734.34432007,0.00046154
5736.27312744,0.00042754
5738.20193481,0.00035358
5740.13074219,0.00038850
5742.05954956,0.00045882
5743.98835693,0.00047241
5745.91716431,0.00041121
5747.84597168,0.00042333
5749.77477905,0.00041634
5751.70358643,0.00040457
5753.63239380,0.00044097
5755.56120117,0.00041532
5757.49000854,0.00039804
5759.41881592,0.00040450
5761.34762329,0.00043258
5763.27643066,0.00045275
5765.20523804,0.00044424
5767.13404541,0.00041304
5769.06285278,0.00041613
5770.99166016,0.00037666
5772.92046753,0.00037297
5774.84927490,0.00044839
5776.77808228,0.00039213
5778.70688965,0.00043683
5780.63569702,0.00040667
5782.56450439,0.00034033
5784.49331177,0.00042977
5786.42211914,0.00039016
5788.35092651,0.00041919
5790.27973389,0.00037013
5792.20854126,0.00032165
5794.13734863,0.00040497
5796.06615601,0.00035706
5797.99496338,0.00034344
5799.92377075,0.00034805
5801.85257812,0.00035356
5803.78138550,0.00035091
5805.71019287,0.00035756
5807.63900024,0.00036573
5809.56780762,0.00035140
5811.49661499,0.00039333
5813.42542236,0.00040555
5815.35422974,0.00041189
5817.28303711,0.00033583
5819.21184448,0.00030890
5821.14065186,0.00037202
5823.06945923,0.00037912
5824.99826660,0.00036520
5826.92707397,0.00030342
5828.85588135,0.00036517
5830.78468872,0.00039435
5832.71349609,0.00035077
5834.64230347,0.00036214
5836.57111084,0.00028908
5838.49991821,0.00032940
5840.42872559,0.00038295
5842.35753296,0.00031123
5844.28634033,0.00032288
5846.21514770,0.00034457
5848.14395508,0.00035926
5850.07276245,0.00037000
5852.00156982,0.00029612
5853.93037720,0.00035323
5855.85918457,0.00042416
5857.78799194,0.00031624
5859.71679932,0.00026943
5861.64560669,0.00028272
5863.57441406,0.00032231
5865.50322144,0.00031692
5867.43202881,0.00031237
5869.36083618,0.00038517
5871.28964355,0.00035355
5873.21845093,0.00033563
5875.14725830,0.00029273
5877.07606567,0.00026890
5879.00487305,0.00034920
5880.93368042,0.00034396
5882.86248779,0.00033754
5884.79129517,0.00032720
5886.72010254,0.00029373
5888.64890991,0.00023857
5890.57771728,0.00026522
5892.50652466,0.00038592
5894.43533203,0.00035429
5896.36413940,0.00031737
5898.29294678,0.00031976
5900.22175415,0.00030866
5902.15056152,0.00035386
5904.07936890,0.00034292
5906.00817627,0.00028277
5907.93698364,0.00030032
5909.86579102,0.00037523
5911.79459839,0.00030938
5913.72340576,0.00022489
5915.65221313,0.00028930
5917.58102051,0.00028176
5919.50982788,0.00028145
5921.43863525,0.00035585
5923.36744263,0.00027785
5925.29625000,0.00024768
5927.22505737,0.00039208
5929.15386475,0.00038477
5931.08267212,0.00029549
5933.01147949,0.00033176
5934.94028686,0.00032577
5936.86909424,0.00030284
5938.79790161,0.00029413
5940.72670898,0.00027519
5942.65551636,0.00034286
5944.58432373,0.00030160
5946.51313110,0.00025786
5948.44193848,0.00033915
5950.37074585,0.00030543
5952.29955322,0.00026023
5954.22836060,0.00025734
5956.15716797,0.00026520
5958.08597534,0.00028386
5960.01478271,0.00031453
5961.94359009,0.00033938
5963.87239746,0.00030187
5965.80120483,0.00030403
5967.73001221,0.00025540
5969.65881958,0.00026801
5971.58762695,0.00033435
5973.51643433,0.00025909
5975.44524170,0.00024813
5977.37404907,0.00029415
5979.30285645,0.00029754
5981.23166382,0.00023235
5983.16047119,0.00025230
5985.08927856,0.00030438
5987.01808594,0.00022981
5988.94689331,0.00026854
5990.87570068,0.00025315
5992.80450806,0.00020179
5994.73331543,0.00028433
5996.66212280,0.00029902
5998.59093018,0.00029266
6000.51973755,0.00029456
