399.26312622,0.00009284
401.19193359,-0.00005586
403.12074097,-0.00029065
405.04954834,0.00009277
406.97835571,0.00003495
408.90716309,-0.00003388
410.83597046,0.00008377
412.76477783,-0.00000621
414.69358521,0.00008375
416.62239258,0.00022261
418.55119995,0.00014368
420.48000732,0.00015013
422.40881470,0.00013942
424.33762207,0.00005776
426.26642944,0.00015853
428.19523682,0.00009916
430.12404419,0.00007337
432.05285156,-0.00013435
433.98165894,-0.00010383
435.91046631,0.00020042
437.83927368,0.00013752
439.76808105,0.00017997
441.69688843,0.00010115
443.62569580,0.00028820
445.55450317,0.00028570
447.48331055,-0.00003354
449.41211792,0.00006645
451.34092529,0.00004630
453.26973267,0.00009030
455.19854004,-0.00001554
457.12734741,0.00011342
459.05615479,0.00014717
460.98496216,-0.00017672
462.91376953,0.00022039
464.84257690,0.00025553
466.77138428,0.00003970
468.70019165,0.00008239
470.62899902,0.00011935
472.55780640,0.00023538
474.48661377,0.00005514
476.41542114,0.00005465
478.34422852,0.00003486
480.27303589,-0.00002576
482.20184326,0.00008967
484.13065063,0.00012288
486.05945801,0.00007890
487.98826538,0.00003051
489.91707275,0.00002147
491.84588013,-0.00021940
493.77468750,-0.00006144
495.70349487,0.00013080
497.63230225,-0.00003004
499.56110962,0.00014805
501.48991699,0.00024872
503.41872437,0.00013606
505.34753174,-0.00002787
507.27633911,0.00012557
509.20514648,0.00035083
511.13395386,0.00016625
513.06276123,-0.00004650
514.99156860,-0.00006523
516.92037598,0.00011679
518.84918335,0.00026094
520.77799072,0.00023129
522.70679810,0.00011031
524.63560547,0.00029846
526.56441284,0.00024887
528.49322021,0.00007101
530.42202759,0.00029070
532.35083496,0.00013568
534.27964233,0.00020394
536.20844971,0.00006342
538.13725708,-0.00023294
540.06606445,0.00004692
541.99487183,0.00008628
543.92367920,0.00021186
545.85248657,0.00012257
547.78129395,-0.00010574
549.71010132,-0.00001434
551.63890869,0.00007559
553.56771606,0.00005062
555.49652344,0.00003091
557.42533081,0.00024304
559.35413818,0.00019655
561.28294556,0.00014653
563.21175293,0.00024134
565.14056030,0.00028102
567.06936768,0.00012394
568.99817505,-0.00013307
570.92698242,0.00000610
572.85578979,0.00021663
574.78459717,0.00018862
576.71340454,0.00007694
578.64221191,0.00005885
580.57101929,0.00011256
582.49982666,0.00024787
584.42863403,0.00011948
586.35744141,-0.00007989
588.28624878,0.00012895
590.21505615,0.00011811
592.14386353,0.00001885
594.07267090,0.00007269
596.00147827,0.00000539
597.93028564,-0.00007728
599.85909302,-0.00002331
601.78790039,0.00008735
603.71670776,-0.00015632
605.64551514,-0.00002300
607.57432251,0.00028987
609.50312988,-0.00004802
611.43193726,0.00010063
613.36074463,0.00012697
615.28955200,-0.00012351
617.21835938,0.00002409
619.14716675,-0.00001115
621.07597412,0.00003782
623.00478149,0.00015840
624.93358887,0.00016605
626.86239624,0.00029821
628.79120361,0.00024745
630.72001099,-0.00003389
632.64881836,0.00014673
634.57762573,0.00038754
636.50643311,0.00035845
638.43524048,0.00021994
640.36404785,-0.00014099
642.29285522,-0.00005625
644.22166260,0.00004980
646.15046997,0.00013764
648.07927734,0.00020018
650.00808472,-0.00005178
651.93689209,0.00014756
653.86569946,0.00025631
655.79450684,0.00023814
657.72331421,0.00009585
659.65212158,0.00002188
661.58092896,0.00005953
663.50973633,-0.00025358
665.43854370,0.00022097
667.36735107,0.00027959
669.29615845,-0.00004715
671.22496582,0.00023180
673.15377319,0.00019691
675.08258057,0.00033425
677.01138794,0.00017008
678.94019531,-0.00000037
680.86900269,0.00015750
682.79781006,0.00012176
684.72661743,0.00025866
686.65542480,0.00017604
688.58423218,0.00006267
690.51303955,0.00017078
692.44184692,0.00021687
694.37065430,0.00013036
696.29946167,0.00017618
698.22826904,0.00017823
700.15707642,0.00009649
702.08588379,0.00024224
704.01469116,0.00016148
705.94349854,0.00015913
707.87230591,0.00002294
709.80111328,-0.00008362
711.72992065,0.00019433
713.65872803,0.00006089
715.58753540,0.00009977
717.51634277,0.00023136
719.44515015,0.00012312
721.37395752,0.00011907
723.30276489,0.00010328
725.23157227,0.00006096
727.16037964,-0.00011503
729.08918701,-0.00001915
731.01799438,0.00011302
732.94680176,0.00008897
734.87560913,0.00017317
736.80441650,0.00006825
738.73322388,0.00011061
740.66203125,0.00021312
742.59083862,-0.00000232
744.51964600,-0.00016963
746.44845337,0.00005071
748.37726074,0.00023213
750.30606812,0.00002387
752.23487549,-0.00004938
754.16368286,0.00019440
756.09249023,0.00016868
758.02129761,0.00001642
759.95010498,0.00024013
761.87891235,0.00011606
763.80771973,-0.00002809
765.73652710,0.00015734
767.66533447,0.00015548
769.59414185,0.00032976
771.52294922,0.00032637
773.45175659,0.00000348
775.38056396,-0.00005212
777.30937134,0.00031301
779.23817871,0.00020325
781.16698608,0.00002601
783.09579346,0.00034512
785.02460083,0.00002945
786.95340820,-0.00001210
788.88221558,0.00010733
790.81102295,0.00004083
792.73983032,0.00031956
794.66863770,0.00012373
796.59744507,0.00009707
798.52625244,0.00017038
800.45505981,0.00007922
802.38386719,0.00011013
804.31267456,-0.00007463
806.24148193,0.00011203
808.17028931,0.00021985
810.09909668,0.00003968
812.02790405,0.00012766
813.95671143,0.00023587
815.88551880,0.00028306
817.81432617,0.00015161
819.74313354,0.00003898
821.67194092,0.00005598
823.60074829,0.00012852
825.52955566,0.00023096
827.45836304,0.00030002
829.38717041,0.00031844
831.31597778,0.00026370
833.24478516,0.00023076
835.17359253,0.00022536
837.10239990,0.00027916
839.03120728,0.00033776
840.96001465,0.00043282
842.88882202,0.00025355
844.81762939,0.00004779
846.74643677,0.00021119
848.67524414,0.00011587
850.60405151,-0.00002318
852.53285889,0.00015767
854.46166626,0.00035549
856.39047363,0.00018708
858.31928101,0.00018935
860.24808838,0.00042860
862.17689575,0.00031535
864.10570313,0.00037808
866.03451050,0.00027705
867.96331787,0.00013203
869.89212524,0.00017006
871.82093262,0.00018810
873.74973999,0.00028449
875.67854736,0.00019167
877.60735474,0.00034612
879.53616211,0.00024277
881.46496948,0.00018824
883.39377686,0.00036530
885.32258423,0.00012298
887.25139160,0.00033530
889.18019897,0.00042098
891.10900635,0.00023190
893.03781372,0.00026367
894.96662109,0.00031511
896.89542847,0.00033905
898.82423584,0.00014870
900.75304321,0.00012908
902.68185059,0.00015748
904.61065796,0.00014020
906.53946533,0.00012714
908.46827271,0.00026240
910.39708008,0.00028816
912.32588745,0.00003723
914.25469482,0.00014638
916.18350220,0.00022518
918.11230957,0.00035548
920.04111694,0.00032613
921.96992432,0.00029175
923.89873169,0.00048150
925.82753906,0.00027098
927.75634644,0.00029976
929.68515381,0.00019122
931.61396118,0.00012901
933.54276855,0.00048966
935.47157593,0.00041137
937.40038330,0.00023093
939.32919067,0.00030764
941.25799805,0.00035797
943.18680542,0.00026376
945.11561279,0.00042774
947.04442017,0.00041120
948.97322754,0.00032241
950.90203491,0.00043192
952.83084229,0.00020391
954.75964966,0.00038029
956.68845703,0.00032920
958.61726440,0.00004725
960.54607178,0.00038332
962.47487915,0.00040182
964.40368652,0.00028555
966.33249390,0.00029257
968.26130127,0.00027810
970.19010864,0.00029049
972.11891602,0.00023729
974.04772339,0.00031231
975.97653076,0.00027783
977.90533813,0.00017607
979.83414551,0.00030843
981.76295288,0.00042277
983.69176025,0.00041930
985.62056763,0.00041264
987.54937500,0.00034618
989.47818237,0.00028022
991.40698975,0.00045273
993.33579712,0.00059972
995.26460449,0.00034694
997.19341187,0.00038321
999.12221924,0.00052850
1001.05102661,0.00043960
1002.97983398,0.00067184
1004.90864136,0.00063190
1006.83744873,0.00065351
1008.76625610,0.00076400
1010.69506348,0.00052404
1012.62387085,0.00074049
1014.55267822,0.00084624
1016.48148560,0.00076630
1018.41029297,0.00084994
1020.33910034,0.00086450
1022.26790771,0.00090195
1024.19671509,0.00085045
1026.12552246,0.00082772
1028.05432983,0.00071905
1029.98313721,0.00075598
1031.91194458,0.00105200
1033.84075195,0.00110825
1035.76955933,0.00095165
1037.69836670,0.00100834
1039.62717407,0.00100697
1041.55598145,0.00075384
1043.48478882,0.00106959
1045.41359619,0.00110760
1047.34240356,0.00082112
1049.27121094,0.00113675
1051.20001831,0.00093137
1053.12882568,0.00081525
1055.05763306,0.00104638
1056.98644043,0.00080444
1058.91524780,0.00087265
1060.84405518,0.00083462
1062.77286255,0.00067112
1064.70166992,0.00082804
1066.63047729,0.00073593
1068.55928467,0.00088133
1070.48809204,0.00100625
1072.41689941,0.00069780
1074.34570679,0.00072914
1076.27451416,0.00087096
1078.20332153,0.00080972
1080.13212891,0.00070447
1082.06093628,0.00069175
1083.98974365,0.00068877
1085.91855103,0.00065418
1087.84735840,0.00074189
1089.77616577,0.00061527
1091.70497314,0.00065195
1093.63378052,0.00076493
1095.56258789,0.00051932
1097.49139526,0.00052669
1099.42020264,0.00056254
1101.34901001,0.00053693
1103.27781738,0.00074764
1105.20662476,0.00073860
1107.13543213,0.00050524
1109.06423950,0.00061118
1110.99304687,0.00075441
1112.92185425,0.00055629
1114.85066162,0.00061080
1116.77946899,0.00077214
1118.70827637,0.00073001
1120.63708374,0.00067582
1122.56589111,0.00065972
1124.49469849,0.00065157
1126.42350586,0.00061689
1128.35231323,0.00068877
1130.28112061,0.00069207
1132.20992798,0.00064425
1134.13873535,0.00062910
1136.06754272,0.00069856
1137.99635010,0.00075302
1139.92515747,0.00058530
1141.85396484,0.00065179
1143.78277222,0.00071650
1145.71157959,0.00066994
1147.64038696,0.00075681
1149.56919434,0.00072345
1151.49800171,0.00078858
1153.42680908,0.00085478
1155.35561646,0.00079508
1157.28442383,0.00091311
1159.21323120,0.00102546
1161.14203857,0.00094962
1163.07084595,0.00096626
1164.99965332,0.00100196
1166.92846069,0.00090659
1168.85726807,0.00093045
1170.78607544,0.00096799
1172.71488281,0.00092550
1174.64369019,0.00103115
1176.57249756,0.00117161
1178.50130493,0.00111753
1180.43011230,0.00115310
1182.35891968,0.00125105
1184.28772705,0.00121803
1186.21653442,0.00132184
1188.14534180,0.00140133
1190.07414917,0.00136985
1192.00295654,0.00138215
1193.93176392,0.00142704
1195.86057129,0.00146767
1197.78937866,0.00152848
1199.71818604,0.00163496
1201.64699341,0.00170330
1203.57580078,0.00173425
1205.50460815,0.00165553
1207.43341553,0.00173516
1209.36222290,0.00180137
1211.29103027,0.00176284
1213.21983765,0.00203805
1215.14864502,0.00211885
1217.07745239,0.00201319
1219.00625977,0.00200055
1220.93506714,0.00207240
1222.86387451,0.00217348
1224.79268188,0.00214425
1226.72148926,0.00215974
1228.65029663,0.00203512
1230.57910400,0.00211438
1232.50791138,0.00226051
1234.43671875,0.00208311
1236.36552612,0.00220196
1238.29433350,0.00227081
1240.22314087,0.00214035
1242.15194824,0.00215656
1244.08075562,0.00216287
1246.00956299,0.00219507
1247.93837036,0.00216300
1249.86717773,0.00212029
1251.79598511,0.00220339
1253.72479248,0.00223786
1255.65359985,0.00228299
1257.58240723,0.00227389
1259.51121460,0.00211883
1261.44002197,0.00213454
1263.36882935,0.00204108
1265.29763672,0.00196794
1267.22644409,0.00213288
1269.15525146,0.00200612
1271.08405884,0.00203878
1273.01286621,0.00211408
1274.94167358,0.00197395
1276.87048096,0.00193546
1278.79928833,0.00174325
1280.72809570,0.00180598
1282.65690308,0.00182625
1284.58571045,0.00159687
1286.51451782,0.00178494
1288.44332520,0.00183254
1290.37213257,0.00168078
1292.30093994,0.00178918
1294.22974731,0.00181837
1296.15855469,0.00176784
1298.08736206,0.00175235
1300.01616943,0.00174749
1301.94497681,0.00185976
1303.87378418,0.00185027
1305.80259155,0.00176331
1307.73139893,0.00176230
1309.66020630,0.00175360
1311.58901367,0.00181534
1313.51782104,0.00177298
1315.44662842,0.00177500
1317.37543579,0.00190079
1319.30424316,0.00191852
1321.23305054,0.00200804
1323.16185791,0.00216310
1325.09066528,0.00221213
1327.01947266,0.00206393
1328.94828003,0.00198104
1330.87708740,0.00213008
1332.80589478,0.00224746
1334.73470215,0.00222400
1336.66350952,0.00220512
1338.59231689,0.00226953
1340.52112427,0.00229258
1342.44993164,0.00234031
1344.37873901,0.00225642
1346.30754639,0.00229960
1348.23635376,0.00254395
1350.16516113,0.00240623
1352.09396851,0.00237963
1354.02277588,0.00236218
1355.95158325,0.00227440
1357.88039062,0.00254027
1359.80919800,0.00241995
1361.73800537,0.00216443
1363.66681274,0.00226439
1365.59562012,0.00227733
1367.52442749,0.00220564
1369.45323486,0.00222301
1371.38204224,0.00221387
1373.31084961,0.00217919
1375.23965698,0.00224824
1377.16846436,0.00216664
1379.09727173,0.00215588
1381.02607910,0.00232648
1382.95488647,0.00228376
1384.88369385,0.00225662
1386.81250122,0.00215295
1388.74130859,0.00207218
1390.67011597,0.00232167
1392.59892334,0.00228835
1394.52773071,0.00213060
1396.45653809,0.00234655
1398.38534546,0.00234440
1400.31415283,0.00225877
1402.24296021,0.00243834
1404.17176758,0.00235919
1406.10057495,0.00225206
1408.02938232,0.00230019
1409.95818970,0.00233287
1411.88699707,0.00235168
1413.81580444,0.00225093
1415.74461182,0.00229313
1417.67341919,0.00215714
1419.60222656,0.00192447
1421.53103394,0.00202607
1423.45984131,0.00209987
1425.38864868,0.00217507
1427.31745605,0.00198158
1429.24626343,0.00180232
1431.17507080,0.00200420
1433.10387817,0.00197065
1435.03268555,0.00178457
1436.96149292,0.00167053
1438.89030029,0.00187358
1440.81910767,0.00196516
1442.74791504,0.00177378
1444.67672241,0.00189332
1446.60552979,0.00176333
1448.53433716,0.00174788
1450.46314453,0.00187593
1452.39195190,0.00170707
1454.32075928,0.00182593
1456.24956665,0.00162403
1458.17837402,0.00156757
1460.10718140,0.00207293
1462.03598877,0.00213401
1463.96479614,0.00208444
1465.89360352,0.00218778
1467.82241089,0.00239202
1469.75121826,0.00254006
1471.68002563,0.00232472
1473.60883301,0.00229414
1475.53764038,0.00265292
1477.46644775,0.00283170
1479.39525513,0.00291209
1481.32406250,0.00310552
1483.25286987,0.00314002
1485.18167725,0.00323298
1487.11048462,0.00332539
1489.03929199,0.00327381
1490.96809937,0.00329385
1492.89690674,0.00357078
1494.82571411,0.00358079
1496.75452148,0.00316667
1498.68332886,0.00352203
1500.61213623,0.00383111
1502.54094360,0.00397595
1504.46975098,0.00383550
1506.39855835,0.00291675
1508.32736572,0.00349993
1510.25617310,0.00387002
1512.18498047,0.00372356
1514.11378784,0.00420092
1516.04259521,0.00360278
1517.97140259,0.00377356
1519.90020996,0.00373467
1521.82901733,0.00329932
1523.75782471,0.00398398
1525.68663208,0.00386967
1527.61543945,0.00379734
1529.54424683,0.00411170
1531.47305420,0.00424331
1533.40186157,0.00377592
1535.33066895,0.00373614
1537.25947632,0.00427293
1539.18828369,0.00320663
1541.11709106,0.00323936
1543.04589844,0.00384081
1544.97470581,0.00368172
1546.90351318,0.00430487
1548.83232056,0.00411385
1550.76112793,0.00420808
1552.68993530,0.00419389
1554.61874268,0.00382088
1556.54755005,0.00398118
1558.47635742,0.00290546
1560.40516479,0.00315897
1562.33397217,0.00433834
1564.26277954,0.00399206
1566.19158691,0.00425425
1568.12039429,0.00415522
1570.04920166,0.00355360
1571.97800903,0.00431291
1573.90681641,0.00438214
1575.83562378,0.00356593
1577.76443115,0.00393197
1579.69323853,0.00445348
1581.62204590,0.00437122
1583.55085327,0.00432839
1585.47966064,0.00422006
1587.40846802,0.00419869
1589.33727539,0.00424965
1591.26608276,0.00418153
1593.19489014,0.00411299
1595.12369751,0.00405692
1597.05250488,0.00412174
1598.98131226,0.00421470
1600.91011963,0.00412094
1602.83892700,0.00415226
1604.76773437,0.00422463
1606.69654175,0.00408111
1608.62534912,0.00410613
1610.55415649,0.00406177
1612.48296387,0.00416240
1614.41177124,0.00419446
1616.34057861,0.00357799
1618.26938599,0.00374150
1620.19819336,0.00418525
1622.12700073,0.00400308
1624.05580811,0.00408187
1625.98461548,0.00406086
1627.91342285,0.00406436
1629.84223022,0.00424427
1631.77103760,0.00426884
1633.69984497,0.00400212
1635.62865234,0.00356944
1637.55745972,0.00392905
1639.48626709,0.00439126
1641.41507446,0.00435465
1643.34388184,0.00463015
1645.27268921,0.00425826
1647.20149658,0.00358161
1649.13030396,0.00434678
1651.05911133,0.00417756
1652.98791870,0.00293461
1654.91672607,0.00385506
1656.84553345,0.00475431
1658.77434082,0.00450975
1660.70314819,0.00462770
1662.63195557,0.00438683
1664.56076294,0.00463695
1666.48957031,0.00501509
1668.41837769,0.00432124
1670.34718506,0.00420336
1672.27599243,0.00480801
1674.20479980,0.00444130
1676.13360718,0.00422590
1678.06241455,0.00475565
1679.99122192,0.00467487
1681.92002930,0.00461579
1683.84883667,0.00389438
1685.77764404,0.00386896
1687.70645142,0.00504222
1689.63525879,0.00458475
1691.56406616,0.00503581
1693.49287354,0.00497981
1695.42168091,0.00382577
1697.35048828,0.00461352
1699.27929565,0.00379634
1701.20810303,0.00363287
1703.13691040,0.00504030
1705.06571777,0.00445871
1706.99452515,0.00457760
1708.92333252,0.00490155
1710.85213989,0.00464881
1712.78094727,0.00477105
1714.70975464,0.00445437
1716.63856201,0.00398019
1718.56736938,0.00378118
1720.49617676,0.00454966
1722.42498413,0.00479371
1724.35379150,0.00451191
1726.28259888,0.00483624
1728.21140625,0.00443646
1730.14021362,0.00452386
1732.06902100,0.00431635
1733.99782837,0.00335350
1735.92663574,0.00408709
1737.85544312,0.00451669
1739.78425049,0.00415662
1741.71305786,0.00447053
1743.64186523,0.00445873
1745.57067261,0.00431568
1747.49947998,0.00449695
1749.42828735,0.00441711
1751.35709473,0.00422521
1753.28590210,0.00471086
1755.21470947,0.00472321
1757.14351685,0.00428371
1759.07232422,0.00473553
1761.00113159,0.00457689
1762.92993896,0.00442099
1764.85874634,0.00480116
1766.78755371,0.00444918
1768.71636108,0.00445148
1770.64516846,0.00438334
1772.57397583,0.00402483
1774.50278320,0.00436399
1776.43159058,0.00469767
1778.36039795,0.00470045
1780.28920532,0.00454693
1782.21801270,0.00454329
1784.14682007,0.00461125
1786.07562744,0.00454834
1788.00443481,0.00475927
1789.93324219,0.00463727
1791.86204956,0.00416229
1793.79085693,0.00433620
1795.71966431,0.00454558
1797.64847168,0.00448161
1799.57727905,0.00450220
1801.50608643,0.00445509
1803.43489380,0.00460171
1805.36370117,0.00462744
1807.29250854,0.00465082
1809.22131592,0.00466207
1811.15012329,0.00437360
1813.07893066,0.00453846
1815.00773804,0.00466011
1816.93654541,0.00455573
1818.86535278,0.00457017
1820.79416016,0.00458093
1822.72296753,0.00456571
1824.65177490,0.00440095
1826.58058228,0.00461248
1828.50938965,0.00447319
1830.43819702,0.00417682
1832.36700439,0.00453581
1834.29581177,0.00457941
1836.22461914,0.00455151
1838.15342651,0.00454030
1840.08223389,0.00462674
1842.01104126,0.00459881
1843.93984863,0.00412640
1845.86865601,0.00432152
1847.79746338,0.00451703
1849.72627075,0.00440556
1851.65507812,0.00452997
1853.58388550,0.00448598
1855.51269287,0.00445358
1857.44150024,0.00451154
1859.37030762,0.00458532
1861.29911499,0.00452084
1863.22792236,0.00449917
1865.15672974,0.00443669
1867.08553711,0.00420076
1869.01434448,0.00421221
1870.94315186,0.00429098
1872.87195923,0.00453815
1874.80076660,0.00448117
1876.72957397,0.00428148
1878.65838135,0.00450908
1880.58718872,0.00443292
1882.51599609,0.00446631
1884.44480347,0.00443798
1886.37361084,0.00430847
1888.30241821,0.00445776
1890.23122559,0.00433632
1892.16003296,0.00443072
1894.08884033,0.00434823
1896.01764771,0.00424280
1897.94645508,0.00446679
1899.87526245,0.00429832
1901.80406982,0.00435217
1903.73287720,0.00433491
1905.66168457,0.00418760
1907.59049194,0.00434590
1909.51929932,0.00430246
1911.44810669,0.00429835
1913.37691406,0.00435271
1915.30572144,0.00428865
1917.23452881,0.00416834
1919.16333618,0.00417299
1921.09214355,0.00429825
1923.02095093,0.00434217
1924.94975830,0.00427943
1926.87856567,0.00418782
1928.80737305,0.00442145
1930.73618042,0.00442679
1932.66498779,0.00427860
1934.59379517,0.00434114
1936.52260254,0.00413890
1938.45140991,0.00430957
1940.38021729,0.00435163
1942.30902466,0.00401842
1944.23783203,0.00423755
1946.16663940,0.00427068
1948.09544678,0.00417629
1950.02425415,0.00417448
1951.95306152,0.00402605
1953.88186890,0.00420511
1955.81067627,0.00422250
1957.73948364,0.00414451
1959.66829102,0.00427551
1961.59709839,0.00418780
1963.52590576,0.00412287
1965.45471313,0.00409664
1967.38352051,0.00415510
1969.31232788,0.00422887
1971.24113525,0.00414826
1973.16994263,0.00420162
1975.09875000,0.00417579
1977.02755737,0.00418945
1978.95636475,0.00421292
1980.88517212,0.00411625
1982.81397949,0.00421193
1984.74278687,0.00420779
1986.67159424,0.00420089
1988.60040161,0.00417024
1990.52920898,0.00399623
1992.45801636,0.00403572
1994.38682373,0.00404113
1996.31563110,0.00407534
1998.24443848,0.00414905
2000.17324585,0.00402399
2002.10205322,0.00409730
2004.03086060,0.00411399
2005.95966797,0.00390882
2007.88847534,0.00402863
2009.81728271,0.00407161
2011.74609009,0.00395304
2013.67489746,0.00404271
2015.60370483,0.00392674
2017.53251221,0.00387676
2019.46131958,0.00400706
2021.39012695,0.00393518
2023.31893433,0.00396172
2025.24774170,0.00398427
2027.17654907,0.00393479
2029.10535645,0.00399510
2031.03416382,0.00400421
2032.96297119,0.00394332
2034.89177856,0.00382794
2036.82058594,0.00390925
2038.74939331,0.00407039
2040.67820068,0.00392968
2042.60700806,0.00389241
2044.53581543,0.00390577
2046.46462280,0.00385286
2048.39343018,0.00394901
2050.32223755,0.00389349
2052.25104492,0.00387822
2054.17985229,0.00384975
2056.10865967,0.00373899
2058.03746704,0.00384966
2059.96627441,0.00380110
2061.89508179,0.00377635
2063.82388916,0.00385260
2065.75269653,0.00373039
2067.68150391,0.00374853
2069.61031128,0.00381965
2071.53911865,0.00375791
2073.46792603,0.00382530
2075.39673340,0.00388789
2077.32554077,0.00377253
2079.25434814,0.00374670
2081.18315552,0.00373216
2083.11196289,0.00380577
2085.04077026,0.00390605
2086.96957764,0.00374690
2088.89838501,0.00376775
2090.82719238,0.00385657
2092.75599976,0.00380647
2094.68480713,0.00371461
2096.61361450,0.00371597
2098.54242187,0.00380611
2100.47122925,0.00365399
2102.40003662,0.00367605
2104.32884399,0.00371431
2106.25765137,0.00364378
2108.18645874,0.00367223
2110.11526611,0.00360325
2112.04407349,0.00368601
2113.97288086,0.00359120
2115.90168823,0.00357204
2117.83049561,0.00378164
2119.75930298,0.00370275
2121.68811035,0.00362715
2123.61691772,0.00358807
2125.54572510,0.00369830
2127.47453247,0.00367039
2129.40333984,0.00351355
2131.33214722,0.00366787
2133.26095459,0.00364547
2135.18976196,0.00358908
2137.11856934,0.00360845
2139.04737671,0.00367606
2140.97618408,0.00379598
2142.90499146,0.00360323
2144.83379883,0.00359794
2146.76260620,0.00367254
2148.69141357,0.00358065
2150.62022095,0.00371190
2152.54902832,0.00362551
2154.47783569,0.00351510
2156.40664307,0.00362896
2158.33545044,0.00352085
2160.26425781,0.00346048
2162.19306519,0.00354111
2164.12187256,0.00361491
2166.05067993,0.00353866
2167.97948730,0.00346601
2169.90829468,0.00364919
2171.83710205,0.00354294
2173.76590942,0.00344568
2175.69471680,0.00367066
2177.62352417,0.00364642
2179.55233154,0.00355654
2181.48113892,0.00360809
2183.40994629,0.00359822
2185.33875366,0.00347438
2187.26756104,0.00351731
2189.19636841,0.00369884
2191.12517578,0.00360400
2193.05398315,0.00352392
2194.98279053,0.00362567
2196.91159790,0.00358739
2198.84040527,0.00350497
2200.76921265,0.00355408
2202.69802002,0.00350733
2204.62682739,0.00340695
2206.55563477,0.00354636
2208.48444214,0.00357810
2210.41324951,0.00339367
2212.34205688,0.00334266
2214.27086426,0.00338438
2216.19967163,0.00338372
2218.12847900,0.00337849
2220.05728638,0.00346807
2221.98609375,0.00350284
2223.91490112,0.00349717
2225.84370850,0.00351456
2227.77251587,0.00348963
2229.70132324,0.00352520
2231.63013062,0.00341331
2233.55893799,0.00332866
2235.48774536,0.00341932
2237.41655273,0.00344376
2239.34536011,0.00342556
2241.27416748,0.00337081
2243.20297485,0.00342338
2245.13178223,0.00336418
2247.06058960,0.00332820
2248.98939697,0.00342158
2250.91820435,0.00336258
2252.84701172,0.00341772
2254.77581909,0.00334829
2256.70462646,0.00333292
2258.63343384,0.00338533
2260.56224121,0.00330717
2262.49104858,0.00340732
2264.41985596,0.00334480
2266.34866333,0.00326784
2268.27747070,0.00324690
2270.20627808,0.00333940
2272.13508545,0.00340485
2274.06389282,0.00329651
2275.99270020,0.00337767
2277.92150757,0.00323061
2279.85031494,0.00329685
2281.77912231,0.00341703
2283.70792969,0.00321559
2285.63673706,0.00327217
2287.56554443,0.00325492
2289.49435181,0.00325346
2291.42315918,0.00321945
2293.35196655,0.00320360
2295.28077393,0.00330593
2297.20958130,0.00326407
2299.13838867,0.00326616
2301.06719604,0.00321945
2302.99600342,0.00322336
2304.92481079,0.00316409
2306.85361816,0.00306579
2308.78242554,0.00312241
2310.71123291,0.00317766
2312.64004028,0.00313311
2314.56884766,0.00300541
2316.49765503,0.00299136
2318.42646240,0.00296449
2320.35526978,0.00302581
2322.28407715,0.00295616
2324.21288452,0.00278245
2326.14169189,0.00284349
2328.07049927,0.00272459
2329.99930664,0.00268425
2331.92811401,0.00283969
2333.85692139,0.00283467
2335.78572876,0.00267729
2337.71453613,0.00265774
2339.64334351,0.00267093
2341.57215088,0.00259121
2343.50095825,0.00269356
2345.42976562,0.00269199
2347.35857300,0.00289352
2349.28738037,0.00310077
2351.21618774,0.00289737
2353.14499512,0.00278991
2355.07380249,0.00263657
2357.00260986,0.00255841
2358.93141724,0.00254208
2360.86022461,0.00253876
2362.78903198,0.00261476
2364.71783936,0.00247625
2366.64664673,0.00244506
2368.57545410,0.00253667
2370.50426147,0.00256764
2372.43306885,0.00271830
2374.36187622,0.00286477
2376.29068359,0.00286694
2378.21949097,0.00291091
2380.14829834,0.00294468
2382.07710571,0.00301608
2384.00591309,0.00314436
2385.93472046,0.00302754
2387.86352783,0.00303789
2389.79233521,0.00313466
2391.72114258,0.00301905
2393.64994995,0.00301832
2395.57875732,0.00305386
2397.50756470,0.00295652
2399.43637207,0.00295549
2401.36517944,0.00306106
2403.29398682,0.00296297
2405.22279419,0.00291381
2407.15160156,0.00302237
2409.08040894,0.00303308
2411.00921631,0.00308470
2412.93802368,0.00304797
2414.86683105,0.00288751
2416.79563843,0.00295047
2418.72444580,0.00308551
2420.65325317,0.00298792
2422.58206055,0.00297265
2424.51086792,0.00300449
2426.43967529,0.00294060
2428.36848267,0.00291079
2430.29729004,0.00287582
2432.22609741,0.00299594
2434.15490479,0.00296014
2436.08371216,0.00290372
2438.01251953,0.00303027
2439.94132690,0.00299461
2441.87013428,0.00295683
2443.79894165,0.00291796
2445.72774902,0.00298333
2447.65655640,0.00297322
2449.58536377,0.00286580
2451.51417114,0.00285408
2453.44297852,0.00275617
2455.37178589,0.00282710
2457.30059326,0.00293358
2459.22940063,0.00288508
2461.15820801,0.00281913
2463.08701538,0.00288326
2465.01582275,0.00291707
2466.94463013,0.00289738
2468.87343750,0.00290874
2470.80224487,0.00273300
2472.73105225,0.00284113
2474.65985962,0.00287400
2476.58866699,0.00277434
2478.51747437,0.00288784
2480.44628174,0.00278329
2482.37508911,0.00289381
2484.30389648,0.00285882
2486.23270386,0.00273885
2488.16151123,0.00286944
2490.09031860,0.00275546
2492.01912598,0.00281561
2493.94793335,0.00286127
2495.87674072,0.00273541
2497.80554810,0.00268865
2499.73435547,0.00276967
2501.66316284,0.00284558
2503.59197021,0.00268969
2505.52077759,0.00271638
2507.44958496,0.00274577
2509.37839233,0.00271675
2511.30719971,0.00275965
2513.23600708,0.00270184
2515.16481445,0.00273867
2517.09362183,0.00274884
2519.02242920,0.00268518
2520.95123657,0.00261433
2522.88004395,0.00268321
2524.80885132,0.00274198
2526.73765869,0.00270477
2528.66646606,0.00278286
2530.59527344,0.00267646
2532.52408081,0.00266237
2534.45288818,0.00267568
2536.38169556,0.00267117
2538.31050293,0.00280990
2540.23931030,0.00266119
2542.16811768,0.00269194
2544.09692505,0.00267715
2546.02573242,0.00257980
2547.95453979,0.00271909
2549.88334717,0.00258785
2551.81215454,0.00264389
2553.74096191,0.00271061
2555.66976929,0.00263873
2557.59857666,0.00268430
2559.52738403,0.00256647
2561.45619141,0.00260797
2563.38499878,0.00268530
2565.31380615,0.00259414
2567.24261353,0.00253832
2569.17142090,0.00265629
2571.10022827,0.00267079
2573.02903564,0.00249854
2574.95784302,0.00260464
2576.88665039,0.00264928
2578.81545776,0.00258339
2580.74426514,0.00260049
2582.67307251,0.00256388
2584.60187988,0.00261855
2586.53068726,0.00260415
2588.45949463,0.00253703
2590.38830200,0.00265272
2592.31710937,0.00268404
2594.24591675,0.00253523
2596.17472412,0.00254909
2598.10353149,0.00258430
2600.03233887,0.00264314
2601.96114624,0.00270826
2603.88995361,0.00257088
2605.81876099,0.00259526
2607.74756836,0.00257178
2609.67637573,0.00251007
2611.60518311,0.00257022
2613.53399048,0.00250734
2615.46279785,0.00252162
2617.39160522,0.00252687
2619.32041260,0.00250390
2621.24921997,0.00249577
2623.17802734,0.00252540
2625.10683472,0.00254584
2627.03564209,0.00244151
2628.96444946,0.00246145
2630.89325684,0.00252168
2632.82206421,0.00256089
2634.75087158,0.00252508
2636.67967895,0.00241614
2638.60848633,0.00240615
2640.53729370,0.00240545
2642.46610107,0.00245696
2644.39490845,0.00243560
2646.32371582,0.00233766
2648.25252319,0.00241295
2650.18133057,0.00242869
2652.11013794,0.00235100
2654.03894531,0.00243074
2655.96775269,0.00243295
2657.89656006,0.00237160
2659.82536743,0.00234932
2661.75417480,0.00233806
2663.68298218,0.00243870
2665.61178955,0.00236799
2667.54059692,0.00237322
2669.46940430,0.00245585
2671.39821167,0.00231455
2673.32701904,0.00234908
2675.25582642,0.00239100
2677.18463379,0.00238934
2679.11344116,0.00241756
2681.04224854,0.00234121
2682.97105591,0.00236197
2684.89986328,0.00240444
2686.82867065,0.00238618
2688.75747803,0.00232482
2690.68628540,0.00230171
2692.61509277,0.00239957
2694.54390015,0.00238238
2696.47270752,0.00229194
2698.40151489,0.00238354
2700.33032227,0.00231154
2702.25912964,0.00216790
2704.18793701,0.00227233
2706.11674438,0.00226118
2708.04555176,0.00228172
2709.97435913,0.00226107
2711.90316650,0.00224848
2713.83197388,0.00242715
2715.76078125,0.00227063
2717.68958862,0.00218009
2719.61839600,0.00233510
2721.54720337,0.00238400
2723.47601074,0.00239281
2725.40481812,0.00231842
2727.33362549,0.00230042
2729.26243286,0.00229599
2731.19124023,0.00226195
2733.12004761,0.00226603
2735.04885498,0.00223801
2736.97766235,0.00226757
2738.90646973,0.00231615
2740.83527710,0.00226903
2742.76408447,0.00217375
2744.69289185,0.00209123
2746.62169922,0.00218618
2748.55050659,0.00230538
2750.47931396,0.00221711
2752.40812134,0.00221606
2754.33692871,0.00218211
2756.26573608,0.00216803
2758.19454346,0.00221637
2760.12335083,0.00210424
2762.05215820,0.00220280
2763.98096558,0.00219134
2765.90977295,0.00214916
2767.83858032,0.00224744
2769.76738770,0.00215249
2771.69619507,0.00220907
2773.62500244,0.00211469
2775.55380981,0.00206072
2777.48261719,0.00219697
2779.41142456,0.00209905
2781.34023193,0.00213342
2783.26903931,0.00210436
2785.19784668,0.00204913
2787.12665405,0.00214680
2789.05546143,0.00213211
2790.98426880,0.00213564
2792.91307617,0.00213420
2794.84188354,0.00209555
2796.77069092,0.00207558
2798.69949829,0.00206671
2800.62830566,0.00205840
2802.55711304,0.00208645
2804.48592041,0.00205382
2806.41472778,0.00198851
2808.34353516,0.00210332
2810.27234253,0.00211839
2812.20114990,0.00199869
2814.12995728,0.00196238
2816.05876465,0.00200755
2817.98757202,0.00202287
2819.91637939,0.00198357
2821.84518677,0.00205026
2823.77399414,0.00204297
2825.70280151,0.00206127
2827.63160889,0.00209442
2829.56041626,0.00196177
2831.48922363,0.00200002
2833.41803101,0.00204478
2835.34683838,0.00195933
2837.27564575,0.00194157
2839.20445312,0.00193833
2841.13326050,0.00190902
2843.06206787,0.00195127
2844.99087524,0.00202374
2846.91968262,0.00198379
2848.84848999,0.00200079
2850.77729736,0.00199867
2852.70610474,0.00190627
2854.63491211,0.00189053
2856.56371948,0.00191768
2858.49252686,0.00191193
2860.42133423,0.00192961
2862.35014160,0.00193607
2864.27894897,0.00179091
2866.20775635,0.00191353
2868.13656372,0.00201383
2870.06537109,0.00187801
2871.99417847,0.00197039
2873.92298584,0.00188198
2875.85179321,0.00185791
2877.78060059,0.00186753
2879.70940796,0.00174312
2881.63821533,0.00185750
2883.56702270,0.00185049
2885.49583008,0.00183743
2887.42463745,0.00181172
2889.35344482,0.00180504
2891.28225220,0.00190312
2893.21105957,0.00189059
2895.13986694,0.00185222
2897.06867432,0.00173587
2898.99748169,0.00182159
2900.92628906,0.00189897
2902.85509644,0.00176202
2904.78390381,0.00180831
2906.71271118,0.00190701
2908.64151855,0.00185110
2910.57032593,0.00174130
2912.49913330,0.00167239
2914.42794067,0.00166749
2916.35674805,0.00173647
2918.28555542,0.00171364
2920.21436279,0.00176312
2922.14317017,0.00177546
2924.07197754,0.00165022
2926.00078491,0.00170688
2927.92959229,0.00169263
2929.85839966,0.00167393
2931.78720703,0.00165048
2933.71601440,0.00166381
2935.64482178,0.00177124
2937.57362915,0.00175132
2939.50243652,0.00171684
2941.43124390,0.00162193
2943.36005127,0.00166994
2945.28885864,0.00171040
2947.21766602,0.00170376
2949.14647339,0.00169660
2951.07528076,0.00158600
2953.00408813,0.00164275
2954.93289551,0.00160280
2956.86170288,0.00162958
2958.79051025,0.00169478
2960.71931763,0.00164762
2962.64812500,0.00168498
2964.57693237,0.00164582
2966.50573975,0.00162738
2968.43454712,0.00159688
2970.36335449,0.00158802
2972.29216187,0.00158699
2974.22096924,0.00162682
2976.14977661,0.00164223
2978.07858398,0.00156890
2980.00739136,0.00161362
2981.93619873,0.00162609
2983.86500610,0.00162708
2985.79381348,0.00159584
2987.72262085,0.00164033
2989.65142822,0.00159804
2991.58023560,0.00152458
2993.50904297,0.00168892
2995.43785034,0.00166389
2997.36665771,0.00164277
2999.29546509,0.00159340
3001.22427246,0.00149446
3003.15307983,0.00155134
3005.08188721,0.00158677
3007.01069458,0.00158229
3008.93950195,0.00155011
3010.86830933,0.00152957
3012.79711670,0.00145096
3014.72592407,0.00156374
3016.65473145,0.00154667
3018.58353882,0.00147533
3020.51234619,0.00161982
3022.44115356,0.00149122
3024.36996094,0.00150284
3026.29876831,0.00149996
3028.22757568,0.00153568
3030.15638306,0.00160815
3032.08519043,0.00132307
3034.01399780,0.00139382
3035.94280518,0.00153201
3037.87161255,0.00142932
3039.80041992,0.00143366
3041.72922729,0.00148527
3043.65803467,0.00147221
3045.58684204,0.00148537
3047.51564941,0.00155408
3049.44445679,0.00141179
3051.37326416,0.00133905
3053.30207153,0.00141729
3055.23087891,0.00142482
3057.15968628,0.00143734
3059.08849365,0.00140576
3061.01730103,0.00139711
3062.94610840,0.00150965
3064.87491577,0.00152215
3066.80372314,0.00140738
3068.73253052,0.00137954
3070.66133789,0.00137183
3072.59014526,0.00136921
3074.51895264,0.00133836
3076.44776001,0.00141353
3078.37656738,0.00148048
3080.30537476,0.00135003
3082.23418213,0.00131626
3084.16298950,0.00130609
3086.09179687,0.00137360
3088.02060425,0.00138087
3089.94941162,0.00131581
3091.87821899,0.00134204
3093.80702637,0.00134430
3095.73583374,0.00139871
3097.66464111,0.00135128
3099.59344849,0.00142022
3101.52225586,0.00141032
3103.45106323,0.00127282
3105.37987061,0.00134424
3107.30867798,0.00130628
3109.23748535,0.00127254
3111.16629272,0.00133111
3113.09510010,0.00142035
3115.02390747,0.00131760
3116.95271484,0.00125837
3118.88152222,0.00137555
3120.81032959,0.00130723
3122.73913696,0.00135040
3124.66794434,0.00127907
3126.59675171,0.00126902
3128.52555908,0.00140008
3130.45436645,0.00132978
3132.38317383,0.00133271
3134.31198120,0.00126373
3136.24078857,0.00125506
3138.16959595,0.00126007
3140.09840332,0.00123766
3142.02721069,0.00135359
3143.95601807,0.00126994
3145.88482544,0.00116657
3147.81363281,0.00122829
3149.74244019,0.00130543
3151.67124756,0.00132763
3153.60005493,0.00124171
3155.52886230,0.00123670
3157.45766968,0.00131567
3159.38647705,0.00125694
3161.31528442,0.00120859
3163.24409180,0.00119913
3165.17289917,0.00122120
3167.10170654,0.00123292
3169.03051392,0.00110224
3170.95932129,0.00115623
3172.88812866,0.00123782
3174.81693604,0.00114433
3176.74574341,0.00110475
3178.67455078,0.00120096
3180.60335815,0.00127829
3182.53216553,0.00115957
3184.46097290,0.00112703
3186.38978027,0.00117319
3188.31858765,0.00120337
3190.24739502,0.00120767
3192.17620239,0.00119682
3194.10500977,0.00116104
3196.03381714,0.00109707
3197.96262451,0.00119975
3199.89143188,0.00113819
3201.82023926,0.00108168
3203.74904663,0.00112075
3205.67785400,0.00114603
3207.60666138,0.00127663
3209.53546875,0.00119452
3211.46427612,0.00118901
3213.39308350,0.00121334
3215.32189087,0.00120400
3217.25069824,0.00122596
3219.17950562,0.00111470
3221.10831299,0.00118567
3223.03712036,0.00129009
3224.96592773,0.00130772
3226.89473511,0.00124368
3228.82354248,0.00120774
3230.75234985,0.00124256
3232.68115723,0.00119156
3234.60996460,0.00116576
3236.53877197,0.00117057
3238.46757935,0.00122783
3240.39638672,0.00118662
3242.32519409,0.00117500
3244.25400146,0.00116503
3246.18280884,0.00107399
3248.11161621,0.00117908
3250.04042358,0.00120057
3251.96923096,0.00117117
3253.89803833,0.00120463
3255.82684570,0.00117831
3257.75565308,0.00115534
3259.68446045,0.00118031
3261.61326782,0.00123951
3263.54207520,0.00119185
3265.47088257,0.00117504
3267.39968994,0.00115002
3269.32849731,0.00108479
3271.25730469,0.00123213
3273.18611206,0.00129670
3275.11491943,0.00118713
3277.04372681,0.00120417
3278.97253418,0.00123304
3280.90134155,0.00123255
3282.83014893,0.00117294
3284.75895630,0.00117405
3286.68776367,0.00126093
3288.61657104,0.00113602
3290.54537842,0.00118777
3292.47418579,0.00123428
3294.40299316,0.00117022
3296.33180054,0.00131359
3298.26060791,0.00126131
3300.18941528,0.00127539
3302.11822266,0.00131029
3304.04703003,0.00126805
3305.97583740,0.00129321
3307.90464478,0.00121677
3309.83345215,0.00131650
3311.76225952,0.00136705
3313.69106689,0.00127169
3315.61987427,0.00124146
3317.54868164,0.00131317
3319.47748901,0.00136243
3321.40629639,0.00126108
3323.33510376,0.00124128
3325.26391113,0.00128906
3327.19271851,0.00129963
3329.12152588,0.00127673
3331.05033325,0.00136397
3332.97914062,0.00130479
3334.90794800,0.00122729
3336.83675537,0.00137568
3338.76556274,0.00131962
3340.69437012,0.00136195
3342.62317749,0.00138112
3344.55198486,0.00126626
3346.48079224,0.00130173
3348.40959961,0.00133291
3350.33840698,0.00137692
3352.26721436,0.00134806
3354.19602173,0.00135184
3356.12482910,0.00134550
3358.05363647,0.00134664
3359.98244385,0.00137413
3361.91125122,0.00135656
3363.84005859,0.00132888
3365.76886597,0.00127077
3367.69767334,0.00140132
3369.62648071,0.00138423
3371.55528809,0.00136765
3373.48409546,0.00147258
3375.41290283,0.00137927
3377.34171020,0.00139005
3379.27051758,0.00141678
3381.19932495,0.00140914
3383.12813232,0.00132053
3385.05693970,0.00131800
3386.98574707,0.00135872
3388.91455444,0.00126387
3390.84336182,0.00139000
3392.77216919,0.00140713
3394.70097656,0.00141405
3396.62978394,0.00142251
3398.55859131,0.00129846
3400.48739868,0.00138615
3402.41620605,0.00136405
3404.34501343,0.00137267
3406.27382080,0.00139762
3408.20262817,0.00131028
3410.13143555,0.00146275
3412.06024292,0.00149471
3413.98905029,0.00139791
3415.91785767,0.00143999
3417.84666504,0.00138662
3419.77547241,0.00134612
3421.70427979,0.00139952
3423.63308716,0.00141581
3425.56189453,0.00148477
3427.49070190,0.00147111
3429.41950928,0.00141239
3431.34831665,0.00149741
3433.27712402,0.00147266
3435.20593140,0.00141271
3437.13473877,0.00143264
3439.06354614,0.00141397
3440.99235352,0.00149601
3442.92116089,0.00152922
3444.84996826,0.00148093
3446.77877563,0.00152212
3448.70758301,0.00147954
3450.63639038,0.00143525
3452.56519775,0.00149799
3454.49400513,0.00154523
3456.42281250,0.00151658
3458.35161987,0.00148817
3460.28042725,0.00154549
3462.20923462,0.00151102
3464.13804199,0.00144843
3466.06684937,0.00150146
3467.99565674,0.00153382
3469.92446411,0.00151458
3471.85327148,0.00153370
3473.78207886,0.00154145
3475.71088623,0.00147660
3477.63969360,0.00149562
3479.56850098,0.00148125
3481.49730835,0.00144444
3483.42611572,0.00153614
3485.35492310,0.00151743
3487.28373047,0.00145925
3489.21253784,0.00153680
3491.14134521,0.00160663
3493.07015259,0.00155098
3494.99895996,0.00150140
3496.92776733,0.00150215
3498.85657471,0.00150637
3500.78538208,0.00151296
3502.71418945,0.00153500
3504.64299683,0.00167050
3506.57180420,0.00162050
3508.50061157,0.00150896
3510.42941895,0.00158660
3512.35822632,0.00156198
3514.28703369,0.00155737
3516.21584106,0.00150022
3518.14464844,0.00144312
3520.07345581,0.00158586
3522.00226318,0.00153521
3523.93107056,0.00141837
3525.85987793,0.00155080
3527.78868530,0.00160959
3529.71749268,0.00159023
3531.64630005,0.00163697
3533.57510742,0.00155292
3535.50391479,0.00151920
3537.43272217,0.00156597
3539.36152954,0.00158240
3541.29033691,0.00162293
3543.21914429,0.00157954
3545.14795166,0.00154078
3547.07675903,0.00153299
3549.00556641,0.00160457
3550.93437378,0.00167613
3552.86318115,0.00161576
3554.79198853,0.00161677
3556.72079590,0.00168047
3558.64960327,0.00164330
3560.57841064,0.00154814
3562.50721802,0.00158900
3564.43602539,0.00158946
3566.36483276,0.00151247
3568.29364014,0.00151188
3570.22244751,0.00154213
3572.15125488,0.00162116
3574.08006226,0.00162269
3576.00886963,0.00156458
3577.93767700,0.00156026
3579.86648437,0.00161354
3581.79529175,0.00159231
3583.72409912,0.00158833
3585.65290649,0.00153718
3587.58171387,0.00135474
3589.51052124,0.00145427
3591.43932861,0.00150013
3593.36813599,0.00152013
3595.29694336,0.00158528
3597.22575073,0.00148216
3599.15455811,0.00157957
3601.08336548,0.00156510
3603.01217285,0.00157406
3604.94098022,0.00166628
3606.86978760,0.00147657
3608.79859497,0.00136982
3610.72740234,0.00150583
3612.65620972,0.00153764
3614.58501709,0.00143423
3616.51382446,0.00156609
3618.44263184,0.00151328
3620.37143921,0.00144208
3622.30024658,0.00155603
3624.22905395,0.00154654
3626.15786133,0.00165608
3628.08666870,0.00137721
3630.01547607,0.00124224
3631.94428345,0.00155016
3633.87309082,0.00154483
3635.80189819,0.00158996
3637.73070557,0.00158908
3639.65951294,0.00148343
3641.58832031,0.00155835
3643.51712769,0.00168042
3645.44593506,0.00162343
3647.37474243,0.00142754
3649.30354980,0.00125857
3651.23235718,0.00125951
3653.16116455,0.00155815
3655.08997192,0.00156599
3657.01877930,0.00145392
3658.94758667,0.00157620
3660.87639404,0.00162970
3662.80520142,0.00163454
3664.73400879,0.00153915
3666.66281616,0.00164377
3668.59162354,0.00152361
3670.52043091,0.00126860
3672.44923828,0.00150133
3674.37804565,0.00130575
3676.30685303,0.00116652
3678.23566040,0.00153458
3680.16446777,0.00153416
3682.09327515,0.00150466
3684.02208252,0.00158412
3685.95088989,0.00148889
3687.87969727,0.00130882
3689.80850464,0.00130674
3691.73731201,0.00145183
3693.66611938,0.00144075
3695.59492676,0.00146431
3697.52373413,0.00151321
3699.45254150,0.00151531
3701.38134888,0.00137717
3703.31015625,0.00134809
3705.23896362,0.00155658
3707.16777100,0.00143525
3709.09657837,0.00136279
3711.02538574,0.00129095
3712.95419312,0.00120806
3714.88300049,0.00138269
3716.81180786,0.00137273
3718.74061523,0.00142270
3720.66942261,0.00137333
3722.59822998,0.00143025
3724.52703735,0.00145626
3726.45584473,0.00122081
3728.38465210,0.00142731
3730.31345947,0.00135660
3732.24226685,0.00120891
3734.17107422,0.00129729
3736.09988159,0.00119821
3738.02868896,0.00124938
3739.95749634,0.00132691
3741.88630371,0.00137559
3743.81511108,0.00115540
3745.74391846,0.00108886
3747.67272583,0.00128331
3749.60153320,0.00113497
3751.53034058,0.00112358
3753.45914795,0.00124548
3755.38795532,0.00130747
3757.31676270,0.00131588
3759.24557007,0.00125610
3761.17437744,0.00134752
3763.10318481,0.00139577
3765.03199219,0.00127555
3766.96079956,0.00132330
3768.88960693,0.00134124
3770.81841431,0.00122104
3772.74722168,0.00136459
3774.67602905,0.00134557
3776.60483643,0.00134698
3778.53364380,0.00135216
3780.46245117,0.00117266
3782.39125854,0.00136934
3784.32006592,0.00130697
3786.24887329,0.00121198
3788.17768066,0.00133904
3790.10648804,0.00126832
3792.03529541,0.00136526
3793.96410278,0.00136458
3795.89291016,0.00121026
3797.82171753,0.00127814
3799.75052490,0.00124842
3801.67933228,0.00100950
3803.60813965,0.00122723
3805.53694702,0.00124837
3807.46575439,0.00106140
3809.39456177,0.00128748
3811.32336914,0.00116600
3813.25217651,0.00125792
3815.18098389,0.00112622
3817.10979126,0.00095810
3819.03859863,0.00133029
3820.96740601,0.00104077
3822.89621338,0.00107014
3824.82502075,0.00124768
3826.75382812,0.00113118
3828.68263550,0.00125665
3830.61144287,0.00112049
3832.54025024,0.00110178
3834.46905762,0.00115828
3836.39786499,0.00108775
3838.32667236,0.00103929
3840.25547974,0.00116012
3842.18428711,0.00118031
3844.11309448,0.00115028
3846.04190186,0.00133288
3847.97070923,0.00121667
3849.89951660,0.00127743
3851.82832397,0.00118067
3853.75713135,0.00081172
3855.68593872,0.00094613
3857.61474609,0.00109016
3859.54355347,0.00113802
3861.47236084,0.00117192
3863.40116821,0.00112038
3865.32997559,0.00108036
3867.25878296,0.00118080
3869.18759033,0.00110009
3871.11639770,0.00096182
3873.04520508,0.00117227
3874.97401245,0.00115740
3876.90281982,0.00117501
3878.83162720,0.00117127
3880.76043457,0.00103318
3882.68924194,0.00117642
3884.61804932,0.00107832
3886.54685669,0.00100570
3888.47566406,0.00117750
3890.40447144,0.00110501
3892.33327881,0.00109733
3894.26208618,0.00127036
3896.19089355,0.00118259
3898.11970093,0.00107620
3900.04850830,0.00105658
3901.97731567,0.00097807
3903.90612305,0.00102052
3905.83493042,0.00101430
3907.76373779,0.00115120
3909.69254517,0.00121013
3911.62135254,0.00107305
3913.55015991,0.00114746
3915.47896728,0.00110761
3917.40777466,0.00107913
3919.33658203,0.00105921
3921.26538940,0.00099912
3923.19419678,0.00106180
3925.12300415,0.00109089
3927.05181152,0.00111882
3928.98061890,0.00105365
3930.90942627,0.00108492
3932.83823364,0.00111351
3934.76704102,0.00103402
3936.69584839,0.00113289
3938.62465576,0.00117594
3940.55346313,0.00108576
3942.48227051,0.00101211
3944.41107788,0.00099696
3946.33988525,0.00102866
3948.26869263,0.00107340
3950.19750000,0.00107930
3952.12630737,0.00104140
3954.05511475,0.00105174
3955.98392212,0.00109422
3957.91272949,0.00109544
3959.84153687,0.00109212
3961.77034424,0.00111903
3963.69915161,0.00105831
3965.62795898,0.00110975
3967.55676636,0.00114635
3969.48557373,0.00100783
3971.41438110,0.00106093
3973.34318848,0.00104103
3975.27199585,0.00099537
3977.20080322,0.00103724
3979.12961060,0.00095359
3981.05841797,0.00102887
3982.98722534,0.00105011
3984.91603271,0.00095942
3986.84484009,0.00105252
3988.77364746,0.00106576
3990.70245483,0.00096923
3992.63126221,0.00102077
3994.56006958,0.00107287
3996.48887695,0.00099942
3998.41768433,0.00099515
4000.34649170,0.00102284
4002.27529907,0.00097427
4004.20410645,0.00102224
4006.13291382,0.00109213
4008.06172119,0.00099345
4009.99052856,0.00099798
4011.91933594,0.00101311
4013.84814331,0.00094471
4015.77695068,0.00102515
4017.70575806,0.00095906
4019.63456543,0.00099630
4021.56337280,0.00117551
4023.49218018,0.00106540
4025.42098755,0.00101622
4027.34979492,0.00106434
4029.27860229,0.00104738
4031.20740967,0.00099815
4033.13621704,0.00102230
4035.06502441,0.00102025
4036.99383179,0.00091219
4038.92263916,0.00102269
4040.85144653,0.00105915
4042.78025391,0.00095781
4044.70906128,0.00096637
4046.63786865,0.00095512
4048.56667603,0.00092720
4050.49548340,0.00091227
4052.42429077,0.00099706
4054.35309814,0.00099485
4056.28190552,0.00092140
4058.21071289,0.00096777
4060.13952026,0.00098723
4062.06832764,0.00096525
4063.99713501,0.00094643
4065.92594238,0.00096905
4067.85474976,0.00095134
4069.78355713,0.00093862
4071.71236450,0.00092968
4073.64117187,0.00094614
4075.56997925,0.00102605
4077.49878662,0.00096060
4079.42759399,0.00091684
4081.35640137,0.00084215
4083.28520874,0.00088099
4085.21401611,0.00100469
4087.14282349,0.00086486
4089.07163086,0.00088369
4091.00043823,0.00091886
4092.92924561,0.00095219
4094.85805298,0.00098252
4096.78686035,0.00083015
4098.71566772,0.00091493
4100.64447510,0.00093515
4102.57328247,0.00089803
4104.50208984,0.00092338
4106.43089722,0.00083870
4108.35970459,0.00090680
4110.28851196,0.00096806
4112.21731934,0.00091816
4114.14612671,0.00092413
4116.07493408,0.00097099
4118.00374145,0.00085745
4119.93254883,0.00081905
4121.86135620,0.00100228
4123.79016357,0.00101564
4125.71897095,0.00098481
4127.64777832,0.00093202
4129.57658569,0.00083285
4131.50539307,0.00085286
4133.43420044,0.00089501
4135.36300781,0.00089998
4137.29181519,0.00083839
4139.22062256,0.00084033
4141.14942993,0.00093718
4143.07823730,0.00092348
4145.00704468,0.00085135
4146.93585205,0.00088714
4148.86465942,0.00087848
4150.79346680,0.00086320
4152.72227417,0.00086790
4154.65108154,0.00083613
4156.57988892,0.00091283
4158.50869629,0.00087097
4160.43750366,0.00089806
4162.36631103,0.00094027
4164.29511841,0.00079828
4166.22392578,0.00085931
4168.15273315,0.00085785
4170.08154053,0.00085405
4172.01034790,0.00090614
4173.93915527,0.00083446
4175.86796265,0.00085450
4177.79677002,0.00082762
4179.72557739,0.00081747
4181.65438477,0.00085663
4183.58319214,0.00082058
4185.51199951,0.00082313
4187.44080688,0.00087537
4189.36961426,0.00083553
4191.29842163,0.00079771
4193.22722900,0.00084721
4195.15603638,0.00087495
4197.08484375,0.00092621
4199.01365112,0.00084325
4200.94245850,0.00081727
4202.87126587,0.00085563
4204.80007324,0.00079813
4206.72888062,0.00087167
4208.65768799,0.00081778
4210.58649536,0.00080141
4212.51530273,0.00084714
4214.44411011,0.00080527
4216.37291748,0.00083336
4218.30172485,0.00079466
4220.23053223,0.00080592
4222.15933960,0.00078091
4224.08814697,0.00079009
4226.01695435,0.00082243
4227.94576172,0.00082536
4229.87456909,0.00088557
4231.80337646,0.00076824
4233.73218384,0.00081357
4235.66099121,0.00085536
4237.58979858,0.00079457
4239.51860596,0.00088189
4241.44741333,0.00081909
4243.37622070,0.00077041
4245.30502808,0.00070517
4247.23383545,0.00071675
4249.16264282,0.00081721
4251.09145020,0.00078031
4253.02025757,0.00083511
4254.94906494,0.00078206
4256.87787231,0.00072117
4258.80667969,0.00080296
4260.73548706,0.00080516
4262.66429443,0.00082154
4264.59310181,0.00083541
4266.52190918,0.00080200
4268.45071655,0.00074274
4270.37952393,0.00078182
4272.30833130,0.00083206
4274.23713867,0.00076049
4276.16594604,0.00076636
4278.09475342,0.00074920
4280.02356079,0.00077278
4281.95236816,0.00083490
4283.88117554,0.00071768
4285.80998291,0.00076020
4287.73879028,0.00082271
4289.66759766,0.00067176
4291.59640503,0.00072552
4293.52521240,0.00078300
4295.45401978,0.00066338
4297.38282715,0.00069795
4299.31163452,0.00070440
4301.24044189,0.00070682
4303.16924927,0.00078497
4305.09805664,0.00076238
4307.02686401,0.00085020
4308.95567139,0.00077739
4310.88447876,0.00068112
4312.81328613,0.00079976
4314.74209351,0.00068229
4316.67090088,0.00073915
4318.59970825,0.00082409
4320.52851562,0.00065953
4322.45732300,0.00071639
4324.38613037,0.00078457
4326.31493774,0.00071787
4328.24374512,0.00066493
4330.17255249,0.00071982
4332.10135986,0.00074681
4334.03016724,0.00077856
4335.95897461,0.00076982
4337.88778198,0.00064156
4339.81658936,0.00070243
4341.74539673,0.00067855
4343.67420410,0.00067450
4345.60301147,0.00072958
4347.53181885,0.00067705
4349.46062622,0.00073145
4351.38943359,0.00071401
4353.31824097,0.00074393
4355.24704834,0.00072146
4357.17585571,0.00069825
4359.10466309,0.00074483
4361.03347046,0.00070358
4362.96227783,0.00072816
4364.89108520,0.00064969
4366.81989258,0.00069599
4368.74869995,0.00072899
4370.67750732,0.00063409
4372.60631470,0.00070584
4374.53512207,0.00077017
4376.46392944,0.00076691
4378.39273682,0.00065140
4380.32154419,0.00069390
4382.25035156,0.00072773
4384.17915894,0.00066404
4386.10796631,0.00071259
4388.03677368,0.00071183
4389.96558105,0.00076117
4391.89438843,0.00064458
4393.82319580,0.00068072
4395.75200317,0.00077876
4397.68081055,0.00059485
4399.60961792,0.00069186
4401.53842529,0.00074228
4403.46723267,0.00066964
4405.39604004,0.00068609
4407.32484741,0.00064460
4409.25365478,0.00060521
4411.18246216,0.00057248
4413.11126953,0.00070241
4415.04007690,0.00074268
4416.96888428,0.00064757
4418.89769165,0.00067329
4420.82649902,0.00065133
4422.75530640,0.00062937
4424.68411377,0.00067655
4426.61292114,0.00068061
4428.54172852,0.00065429
4430.47053589,0.00061839
4432.39934326,0.00061242
4434.32815063,0.00063362
4436.25695801,0.00059636
4438.18576538,0.00060677
4440.11457275,0.00062706
4442.04338013,0.00059760
4443.97218750,0.00061731
4445.90099487,0.00059782
4447.82980225,0.00064865
4449.75860962,0.00069820
4451.68741699,0.00061246
4453.61622437,0.00062582
4455.54503174,0.00064579
4457.47383911,0.00059888
4459.40264648,0.00063024
4461.33145386,0.00062105
4463.26026123,0.00054476
4465.18906860,0.00060556
4467.11787598,0.00070232
4469.04668335,0.00062554
4470.97549072,0.00057162
4472.90429810,0.00062682
4474.83310547,0.00055534
4476.76191284,0.00053224
4478.69072021,0.00064094
4480.61952759,0.00062868
4482.54833496,0.00064667
4484.47714233,0.00061649
4486.40594971,0.00057312
4488.33475708,0.00065442
4490.26356445,0.00063850
4492.19237183,0.00066670
4494.12117920,0.00061266
4496.04998657,0.00051786
4497.97879395,0.00056400
4499.90760132,0.00060301
4501.83640869,0.00067234
4503.76521606,0.00062405
4505.69402344,0.00059407
4507.62283081,0.00063253
4509.55163818,0.00061032
4511.48044556,0.00063445
4513.40925293,0.00068908
4515.33806030,0.00069959
4517.26686768,0.00061585
4519.19567505,0.00061125
4521.12448242,0.00056493
4523.05328979,0.00052623
4524.98209717,0.00060011
4526.91090454,0.00056235
4528.83971191,0.00060561
4530.76851929,0.00064582
4532.69732666,0.00060066
4534.62613403,0.00057409
4536.55494141,0.00056268
4538.48374878,0.00055926
4540.41255615,0.00051601
4542.34136353,0.00058452
4544.27017090,0.00062353
4546.19897827,0.00058423
4548.12778564,0.00058677
4550.05659302,0.00054703
4551.98540039,0.00053019
4553.91420776,0.00059270
4555.84301514,0.00058181
4557.77182251,0.00052109
4559.70062988,0.00058135
4561.62943726,0.00057589
4563.55824463,0.00060497
4565.48705200,0.00062109
4567.41585937,0.00053700
4569.34466675,0.00063499
4571.27347412,0.00059937
4573.20228149,0.00057442
4575.13108887,0.00066226
4577.05989624,0.00057553
4578.98870361,0.00051638
4580.91751099,0.00050497
4582.84631836,0.00054802
4584.77512573,0.00053184
4586.70393311,0.00053310
4588.63274048,0.00061097
4590.56154785,0.00058407
4592.49035522,0.00057950
4594.41916260,0.00051621
4596.34796997,0.00051130
4598.27677734,0.00059287
4600.20558472,0.00056725
4602.13439209,0.00058788
4604.06319946,0.00059947
4605.99200684,0.00053827
4607.92081421,0.00052618
4609.84962158,0.00055680
4611.77842895,0.00054619
4613.70723633,0.00056307
4615.63604370,0.00054928
4617.56485107,0.00048432
4619.49365845,0.00056200
4621.42246582,0.00054524
4623.35127319,0.00049255
4625.28008057,0.00058417
4627.20888794,0.00055200
4629.13769531,0.00050562
4631.06650269,0.00046462
4632.99531006,0.00042284
4634.92411743,0.00049868
4636.85292480,0.00053105
4638.78173218,0.00055616
4640.71053955,0.00055724
4642.63934692,0.00053761
4644.56815430,0.00054880
4646.49696167,0.00051788
4648.42576904,0.00054974
4650.35457642,0.00055686
4652.28338379,0.00050874
4654.21219116,0.00049447
4656.14099853,0.00050430
4658.06980591,0.00055615
4659.99861328,0.00054034
4661.92742065,0.00052550
4663.85622803,0.00054123
4665.78503540,0.00051456
4667.71384277,0.00051094
4669.64265015,0.00051755
4671.57145752,0.00052138
4673.50026489,0.00048230
4675.42907227,0.00050864
4677.35787964,0.00055479
4679.28668701,0.00047362
4681.21549438,0.00048597
4683.14430176,0.00051119
4685.07310913,0.00055079
4687.00191650,0.00062634
4688.93072388,0.00050218
4690.85953125,0.00050406
4692.78833862,0.00054929
4694.71714600,0.00048739
4696.64595337,0.00051479
4698.57476074,0.00045904
4700.50356812,0.00052662
4702.43237549,0.00052232
4704.36118286,0.00040018
4706.28999023,0.00050685
4708.21879761,0.00049366
4710.14760498,0.00046987
4712.07641235,0.00046525
4714.00521973,0.00046594
4715.93402710,0.00051288
4717.86283447,0.00044259
4719.79164185,0.00050777
4721.72044922,0.00049973
4723.64925659,0.00045514
4725.57806396,0.00044107
4727.50687134,0.00042873
4729.43567871,0.00057097
4731.36448608,0.00047371
4733.29329346,0.00046574
4735.22210083,0.00058421
4737.15090820,0.00046557
4739.07971558,0.00043079
4741.00852295,0.00041667
4742.93733032,0.00043144
4744.86613770,0.00050113
4746.79494507,0.00049081
4748.72375244,0.00048723
4750.65255981,0.00049978
4752.58136719,0.00047504
4754.51017456,0.00043831
4756.43898193,0.00044646
4758.36778931,0.00044526
4760.29659668,0.00047580
4762.22540405,0.00051712
4764.15421143,0.00047468
4766.08301880,0.00047923
4768.01182617,0.00051958
4769.94063354,0.00048960
4771.86944092,0.00049191
4773.79824829,0.00048174
4775.72705566,0.00043216
4777.65586304,0.00044892
4779.58467041,0.00045071
4781.51347778,0.00047491
4783.44228516,0.00047286
4785.37109253,0.00042896
4787.29989990,0.00046370
4789.22870728,0.00049184
4791.15751465,0.00045736
4793.08632202,0.00039766
4795.01512939,0.00046513
4796.94393677,0.00047099
4798.87274414,0.00042024
4800.80155151,0.00048897
4802.73035889,0.00041172
4804.65916626,0.00038949
4806.58797363,0.00041910
4808.51678101,0.00035797
4810.44558838,0.00043314
4812.37439575,0.00051778
4814.30320312,0.00047426
4816.23201050,0.00042937
4818.16081787,0.00044933
4820.08962524,0.00035758
4822.01843262,0.00033462
4823.94723999,0.00043306
4825.87604736,0.00039789
4827.80485474,0.00041878
4829.73366211,0.00043370
4831.66246948,0.00036984
4833.59127686,0.00037322
4835.52008423,0.00037874
4837.44889160,0.00038351
4839.37769897,0.00043471
4841.30650635,0.00042821
4843.23531372,0.00035234
4845.16412109,0.00037336
4847.09292847,0.00042308
4849.02173584,0.00044980
4850.95054321,0.00049270
4852.87935059,0.00047255
4854.80815796,0.00039964
4856.73696533,0.00038587
4858.66577270,0.00040367
4860.59458008,0.00039058
4862.52338745,0.00045630
4864.45219482,0.00042615
4866.38100220,0.00033640
4868.30980957,0.00042408
4870.23861694,0.00040271
4872.16742432,0.00031559
4874.09623169,0.00038729
4876.02503906,0.00041757
4877.95384644,0.00041196
4879.88265381,0.00044379
4881.81146118,0.00039658
4883.74026855,0.00040376
4885.66907593,0.00044157
4887.59788330,0.00038260
4889.52669067,0.00037328
4891.45549805,0.00037652
4893.38430542,0.00039714
4895.31311279,0.00038466
4897.24192017,0.00034543
4899.17072754,0.00038472
4901.09953491,0.00035785
4903.02834228,0.00040698
4904.95714966,0.00045247
4906.88595703,0.00034186
4908.81476440,0.00033863
4910.74357178,0.00038263
4912.67237915,0.00044345
4914.60118652,0.00048656
4916.52999390,0.00038430
4918.45880127,0.00033949
4920.38760864,0.00034955
4922.31641602,0.00039016
4924.24522339,0.00041302
4926.17403076,0.00036601
4928.10283813,0.00042568
4930.03164551,0.00039702
4931.96045288,0.00039499
4933.88926025,0.00041488
4935.81806763,0.00032051
4937.74687500,0.00040407
4939.67568237,0.00034388
4941.60448975,0.00032218
4943.53329712,0.00040411
4945.46210449,0.00032375
4947.39091187,0.00041312
4949.31971924,0.00040061
4951.24852661,0.00035030
4953.17733398,0.00038916
4955.10614136,0.00040220
4957.03494873,0.00043515
4958.96375610,0.00038983
4960.89256348,0.00038455
4962.82137085,0.00031562
4964.75017822,0.00028935
4966.67898560,0.00030396
4968.60779297,0.00033082
4970.53660034,0.00040052
4972.46540771,0.00035006
4974.39421509,0.00038489
4976.32302246,0.00038226
4978.25182983,0.00039809
4980.18063721,0.00045376
4982.10944458,0.00038905
4984.03825195,0.00033093
4985.96705933,0.00033890
4987.89586670,0.00039971
4989.82467407,0.00029337
4991.75348145,0.00031354
4993.68228882,0.00042609
4995.61109619,0.00039318
4997.53990356,0.00041182
4999.46871094,0.00040795
5001.39751831,0.00041152
5003.32632568,0.00030621
5005.25513306,0.00033975
5007.18394043,0.00046860
5009.11274780,0.00035625
5011.04155518,0.00033848
5012.97036255,0.00034926
5014.89916992,0.00036188
5016.82797729,0.00039043
5018.75678467,0.00036971
5020.68559204,0.00039043
5022.61439941,0.00035984
5024.54320679,0.00033059
5026.47201416,0.00037688
5028.40082153,0.00041168
5030.32962891,0.00036247
5032.25843628,0.00037305
5034.18724365,0.00034419
5036.11605103,0.00027819
5038.04485840,0.00035753
5039.97366577,0.00038628
5041.90247314,0.00037798
5043.83128052,0.00034527
5045.76008789,0.00031347
5047.68889526,0.00032354
5049.61770264,0.00033287
5051.54651001,0.00034647
5053.47531738,0.00029561
5055.40412476,0.00031445
5057.33293213,0.00034110
5059.26173950,0.00033716
5061.19054687,0.00033723
5063.11935425,0.00028087
5065.04816162,0.00028297
5066.97696899,0.00029125
5068.90577637,0.00031940
5070.83458374,0.00035532
5072.76339111,0.00038158
5074.69219849,0.00040328
5076.62100586,0.00033784
5078.54981323,0.00030283
5080.47862061,0.00028706
5082.40742798,0.00028996
5084.33623535,0.00029953
5086.26504272,0.00026971
5088.19385010,0.00028418
5090.12265747,0.00032841
5092.05146484,0.00038487
5093.98027222,0.00036011
5095.90907959,0.00031382
5097.83788696,0.00034247
5099.76669434,0.00033104
5101.69550171,0.00033826
5103.62430908,0.00037197
5105.55311645,0.00031555
5107.48192383,0.00027048
5109.41073120,0.00030422
5111.33953857,0.00032369
5113.26834595,0.00031873
5115.19715332,0.00027469
5117.12596069,0.00029778
5119.05476807,0.00037420
5120.98357544,0.00034197
5122.91238281,0.00036697
5124.84119019,0.00035240
5126.76999756,0.00031536
5128.69880493,0.00036371
5130.62761230,0.00029707
5132.55641968,0.00033664
5134.48522705,0.00035003
5136.41403442,0.00028041
5138.34284180,0.00032178
5140.27164917,0.00023181
5142.20045654,0.00026343
5144.12926392,0.00034347
5146.05807129,0.00023624
5147.98687866,0.00027580
5149.91568603,0.00035603
5151.84449341,0.00033925
5153.77330078,0.00030582
5155.70210815,0.00029026
5157.63091553,0.00032435
5159.55972290,0.00030400
5161.48853027,0.00025897
5163.41733765,0.00027587
5165.34614502,0.00029074
5167.27495239,0.00029715
5169.20375977,0.00030574
5171.13256714,0.00033254
5173.06137451,0.00033394
5174.99018188,0.00027954
5176.91898926,0.00031650
5178.84779663,0.00033164
5180.77660400,0.00027825
5182.70541138,0.00026704
5184.63421875,0.00022400
5186.56302612,0.00021071
5188.49183350,0.00027303
5190.42064087,0.00030700
5192.34944824,0.00025774
5194.27825562,0.00032266
5196.20706299,0.00037147
5198.13587036,0.00025567
5200.06467773,0.00023094
5201.99348511,0.00027967
5203.92229248,0.00039714
5205.85109985,0.00033906
5207.77990723,0.00022612
5209.70871460,0.00030555
5211.63752197,0.00026593
5213.56632935,0.00026556
5215.49513672,0.00030960
5217.42394409,0.00030488
5219.35275146,0.00026125
5221.28155884,0.00022561
5223.21036621,0.00025828
5225.13917358,0.00025069
5227.06798096,0.00028269
5228.99678833,0.00024873
5230.92559570,0.00027662
5232.85440308,0.00031246
5234.78321045,0.00027152
5236.71201782,0.00027381
5238.64082520,0.00026817
5240.56963257,0.00035567
5242.49843994,0.00024523
5244.42724731,0.00021603
5246.35605469,0.00031812
5248.28486206,0.00023253
5250.21366943,0.00032502
5252.14247681,0.00034124
5254.07128418,0.00024137
5256.00009155,0.00024245
5257.92889893,0.00024908
5259.85770630,0.00022932
5261.78651367,0.00021967
5263.71532104,0.00024891
5265.64412842,0.00022797
5267.57293579,0.00022651
5269.50174316,0.00022729
5271.43055054,0.00028488
5273.35935791,0.00025833
5275.28816528,0.00020531
5277.21697266,0.00026261
5279.14578003,0.00024539
5281.07458740,0.00030512
5283.00339478,0.00027676
5284.93220215,0.00025402
5286.86100952,0.00026582
5288.78981689,0.00020249
5290.71862427,0.00025741
5292.64743164,0.00022823
5294.57623901,0.00027104
5296.50504639,0.00029581
5298.43385376,0.00022654
5300.36266113,0.00026113
5302.29146851,0.00026731
5304.22027588,0.00028953
5306.14908325,0.00022632
5308.07789062,0.00018362
5310.00669800,0.00024683
5311.93550537,0.00023439
5313.86431274,0.00025714
5315.79312012,0.00029811
5317.72192749,0.00022100
5319.65073486,0.00017906
5321.57954224,0.00023819
5323.50834961,0.00024729
5325.43715698,0.00025094
5327.36596436,0.00028839
5329.29477173,0.00026660
5331.22357910,0.00021053
5333.15238647,0.00023563
5335.08119385,0.00023298
5337.01000122,0.00020729
5338.93880859,0.00025205
5340.86761597,0.00026104
5342.79642334,0.00027969
5344.72523071,0.00021829
5346.65403809,0.00020613
5348.58284546,0.00027024
5350.51165283,0.00028077
5352.44046020,0.00031841
5354.36926758,0.00023761
5356.29807495,0.00026615
5358.22688232,0.00029239
5360.15568970,0.00020605
5362.08449707,0.00024340
5364.01330444,0.00023100
5365.94211182,0.00024060
5367.87091919,0.00024943
5369.79972656,0.00024052
5371.72853394,0.00020691
5373.65734131,0.00018196
5375.58614868,0.00022177
5377.51495605,0.00024349
5379.44376343,0.00029023
5381.37257080,0.00021761
5383.30137817,0.00022374
5385.23018555,0.00024216
5387.15899292,0.00017492
5389.08780029,0.00019302
5391.01660767,0.00014794
5392.94541504,0.00020095
5394.87422241,0.00022800
5396.80302978,0.00021351
5398.73183716,0.00028447
5400.66064453,0.00027563
5402.58945190,0.00024646
5404.51825928,0.00022747
5406.44706665,0.00025324
5408.37587402,0.00026355
5410.30468140,0.00025003
5412.23348877,0.00020576
5414.16229614,0.00020974
5416.09110352,0.00030422
5418.01991089,0.00024309
5419.94871826,0.00016075
5421.87752563,0.00020305
5423.80633301,0.00028606
5425.73514038,0.00028680
5427.66394775,0.00017774
5429.59275513,0.00017149
5431.52156250,0.00026026
5433.45036987,0.00025808
5435.37917725,0.00023475
5437.30798462,0.00023721
5439.23679199,0.00016248
5441.16559936,0.00017767
5443.09440674,0.00023779
5445.02321411,0.00022231
5446.95202148,0.00023524
5448.88082886,0.00019947
5450.80963623,0.00021090
5452.73844360,0.00026815
5454.66725098,0.00023128
5456.59605835,0.00024426
5458.52486572,0.00029768
5460.45367310,0.00024042
5462.38248047,0.00025101
5464.31128784,0.00031687
5466.24009521,0.00019663
5468.16890259,0.00014142
5470.09770996,0.00017410
5472.02651733,0.00013935
5473.95532471,0.00017604
5475.88413208,0.00022490
5477.81293945,0.00020930
5479.74174683,0.00021243
5481.67055420,0.00026182
5483.59936157,0.00022286
5485.52816895,0.00016886
5487.45697632,0.00015596
5489.38578369,0.00013466
5491.31459106,0.00023388
5493.24339844,0.00027859
5495.17220581,0.00021199
5497.10101318,0.00017983
5499.02982056,0.00016324
5500.95862793,0.00020023
5502.88743530,0.00016577
5504.81624268,0.00015099
5506.74505005,0.00027077
5508.67385742,0.00020349
5510.60266479,0.00016490
5512.53147217,0.00025715
5514.46027954,0.00019513
5516.38908691,0.00020727
5518.31789429,0.00017729
5520.24670166,0.00013365
5522.17550903,0.00023193
5524.10431641,0.00018709
5526.03312378,0.00018898
5527.96193115,0.00025220
5529.89073853,0.00017706
5531.81954590,0.00013856
5533.74835327,0.00020151
5535.67716064,0.00016856
5537.60596802,0.00015802
5539.53477539,0.00026558
5541.46358276,0.00018480
5543.39239014,0.00013782
5545.32119751,0.00018773
5547.25000488,0.00017616
5549.17881226,0.00016262
5551.10761963,0.00012766
5553.03642700,0.00017649
5554.96523437,0.00019286
5556.89404175,0.00019973
5558.82284912,0.00017277
5560.75165649,0.00018378
5562.68046387,0.00024372
5564.60927124,0.00016608
5566.53807861,0.00023008
5568.46688599,0.00020826
5570.39569336,0.00018035
5572.32450073,0.00025017
5574.25330811,0.00016120
5576.18211548,0.00019745
5578.11092285,0.00020560
5580.03973022,0.00018631
5581.96853760,0.00015078
5583.89734497,0.00014725
5585.82615234,0.00023597
5587.75495972,0.00013943
5589.68376709,0.00017866
5591.61257446,0.00019013
5593.54138184,0.00012865
5595.47018921,0.00021164
5597.39899658,0.00020126
5599.32780395,0.00020652
5601.25661133,0.00013813
5603.18541870,0.00012991
5605.11422607,0.00021463
5607.04303345,0.00019301
5608.97184082,0.00021230
5610.90064819,0.00016555
5612.82945557,0.00011912
5614.75826294,0.00015403
5616.68707031,0.00019974
5618.61587769,0.00021245
5620.54468506,0.00017510
5622.47349243,0.00014764
5624.40229980,0.00014721
5626.33110718,0.00020485
5628.25991455,0.00018721
5630.18872192,0.00017684
5632.11752930,0.00018356
5634.04633667,0.00018516
5635.97514404,0.00026045
5637.90395142,0.00011978
5639.83275879,0.00003398
5641.76156616,0.00015723
5643.69037353,0.00017068
5645.61918091,0.00021932
5647.54798828,0.00025549
5649.47679565,0.00020701
5651.40560303,0.00018742
5653.33441040,0.00017286
5655.26321777,0.00018018
5657.19202515,0.00018955
5659.12083252,0.00018855
5661.04963989,0.00017717
5662.97844727,0.00015525
5664.90725464,0.00018805
5666.83606201,0.00023672
5668.76486938,0.00021823
5670.69367676,0.00017483
5672.62248413,0.00017574
5674.55129150,0.00021696
5676.48009888,0.00018504
5678.40890625,0.00010629
5680.33771362,0.00012344
5682.26652100,0.00017220
5684.19532837,0.00018191
5686.12413574,0.00017526
5688.05294311,0.00015756
5689.98175049,0.00017297
5691.91055786,0.00020285
5693.83936523,0.00015707
5695.76817261,0.00013155
5697.69697998,0.00014269
5699.62578735,0.00018967
5701.55459473,0.00025684
5703.48340210,0.00013884
5705.41220947,0.00012758
5707.34101685,0.00019701
5709.26982422,0.00011622
5711.19863159,0.00015798
5713.12743896,0.00019511
5715.05624634,0.00019822
5716.98505371,0.00019411
5718.91386108,0.00017437
5720.84266846,0.00020203
5722.77147583,0.00014596
5724.70028320,0.00010591
5726.62909058,0.00012245
5728.55789795,0.00016373
5730.48670532,0.00017891
5732.41551270,0.00018001
5734.34432007,0.00014835
5736.27312744,0.00012306
5738.20193481,0.00015795
5740.13074219,0.00013000
5742.05954956,0.00016572
5743.98835693,0.00014805
5745.91716431,0.00015297
5747.84597168,0.00019970
5749.77477905,0.00017582
5751.70358643,0.00018719
5753.63239380,0.00012634
5755.56120117,0.00021746
5757.49000854,0.00019096
5759.41881592,0.00013124
5761.34762329,0.00022530
5763.27643066,0.00014520
5765.20523804,0.00019337
5767.13404541,0.00014294
5769.06285278,0.00013129
5770.99166016,0.00019177
5772.92046753,0.00010350
5774.84927490,0.00020659
5776.77808228,0.00016072
5778.70688965,0.00011659
5780.63569702,0.00019840
5782.56450439,0.00013931
5784.49331177,0.00010356
5786.42211914,0.00010624
5788.35092651,0.00011043
5790.27973389,0.00014750
5792.20854126,0.00018602
5794.13734863,0.00015778
5796.06615601,0.00016201
5797.99496338,0.00009973
5799.92377075,0.00012426
5801.85257812,0.00020530
5803.78138550,0.00008910
5805.71019287,0.00011999
5807.63900024,0.00016461
5809.56780762,0.00010541
5811.49661499,0.00005807
5813.42542236,0.00009311
5815.35422974,0.00017061
5817.28303711,0.00020726
5819.21184448,0.00019774
5821.14065186,0.00007474
5823.06945923,0.00019776
5824.99826660,0.00019343
5826.92707397,0.00002620
5828.85588135,0.00010425
5830.78468872,0.00015002
5832.71349609,0.00018195
5834.64230347,0.00012016
5836.57111084,0.00015230
5838.49991821,0.00016004
5840.42872559,0.00009647
5842.35753296,0.00012948
5844.28634033,0.00011587
5846.21514770,0.00019542
5848.14395508,0.00011453
5850.07276245,0.00011351
5852.00156982,0.00016400
5853.93037720,0.00014406
5855.85918457,0.00023521
5857.78799194,0.00012547
5859.71679932,0.00011736
5861.64560669,0.00013041
5863.57441406,0.00011042
5865.50322144,0.00014457
5867.43202881,0.00009288
5869.36083618,0.00014076
5871.28964355,0.00013747
5873.21845093,0.00011878
5875.14725830,0.00012612
5877.07606567,0.00015451
5879.00487305,0.00016251
5880.93368042,0.00013417
5882.86248779,0.00017116
5884.79129517,0.00012973
5886.72010254,0.00014809
5888.64890991,0.00016196
5890.57771728,0.00008845
5892.50652466,0.00010469
5894.43533203,0.00013685
5896.36413940,0.00018938
5898.29294678,0.00022323
5900.22175415,0.00012282
5902.15056152,0.00008134
5904.07936890,0.00013957
5906.00817627,0.00012438
5907.93698364,0.00011530
5909.86579102,0.00007962
5911.79459839,0.00008230
5913.72340576,0.00012825
5915.65221313,0.00008441
5917.58102051,0.00010242
5919.50982788,0.00011446
5921.43863525,0.00010153
5923.36744263,0.00012461
5925.29625000,0.00013087
5927.22505737,0.00014865
5929.15386475,0.00017929
5931.08267212,0.00014247
5933.01147949,0.00006330
5934.94028686,0.00009213
5936.86909424,0.00012787
5938.79790161,0.00013893
5940.72670898,0.00014435
5942.65551636,0.00014107
5944.58432373,0.00014564
5946.51313110,0.00012215
5948.44193848,0.00012913
5950.37074585,0.00011650
5952.29955322,0.00012807
5954.22836060,0.00015207
5956.15716797,0.00017572
5958.08597534,0.00016882
5960.01478271,0.00009778
5961.94359009,0.00012930
5963.87239746,0.00017356
5965.80120483,0.00012336
5967.73001221,0.00006990
5969.65881958,0.00018563
5971.58762695,0.00019570
5973.51643433,0.00007775
5975.44524170,0.00015453
5977.37404907,0.00013023
5979.30285645,0.00012988
5981.23166382,0.00016225
5983.16047119,0.00013662
5985.08927856,0.00015176
5987.01808594,0.00005941
5988.94689331,0.00010161
5990.87570068,0.00014155
5992.80450806,0.00010867
5994.73331543,0.00014137
5996.66212280,0.00011522
5998.59093018,0.00010626
6000.51973755,0.00009593
