399.26312622,0.00150338
401.19193359,0.00153970
403.12074097,0.00187803
405.04954834,0.00185750
406.97835571,0.00180721
408.90716309,0.00188722
410.83597046,0.00168195
412.76477783,0.00201959
414.69358521,0.00215651
416.62239258,0.00208476
418.55119995,0.00174523
420.48000732,0.00183849
422.40881470,0.00215385
424.33762207,0.00200824
426.26642944,0.00188690
428.19523682,0.00180045
430.12404419,0.00223899
432.05285156,0.00207395
433.98165894,0.00185665
435.91046631,0.00182531
437.83927368,0.00162041
439.76808105,0.00218706
441.69688843,0.00197008
443.62569580,0.00167849
445.55450317,0.00158227
447.48331055,0.00126709
449.41211792,0.00190183
451.34092529,0.00185333
453.26973267,0.00110265
455.19854004,0.00137919
457.12734741,0.00183870
459.05615479,0.00154160
460.98496216,0.00104612
462.91376953,0.00094906
464.84257690,0.00121196
466.77138428,0.00081198
468.70019165,0.00062780
470.62899902,0.00097424
472.55780640,0.00045347
474.48661377,0.00053199
476.41542114,0.00068911
478.34422852,0.00047347
480.27303589,0.00051131
482.20184326,0.00035614
484.13065063,0.00050688
486.05945801,0.00001457
487.98826538,0.00008478
489.91707275,0.00075022
491.84588013,0.00054058
493.77468750,0.00019168
495.70349487,0.00002913
497.63230225,0.00046772
499.56110962,0.00061728
501.48991699,0.00028314
503.41872437,-0.00011426
505.34753174,0.00000002
507.27633911,0.00026197
509.20514648,0.00027639
511.13395386,0.00065543
513.06276123,0.00043264
514.99156860,0.00040981
516.92037598,0.00004644
518.84918335,-0.00007463
520.77799072,0.00057968
522.70679810,0.00015243
524.63560547,0.00017289
526.56441284,0.00023618
528.49322021,0.00027976
530.42202759,0.00035332
532.35083496,0.00010038
534.27964233,0.00015935
536.20844971,0.00007582
538.13725708,0.00036766
540.06606445,0.00013468
541.99487183,0.00026622
543.92367920,0.00045394
545.85248657,-0.00007835
547.78129395,0.00027309
549.71010132,0.00052011
551.63890869,0.00024940
553.56771606,-0.00033785
555.49652344,-0.00013000
557.42533081,0.00073784
559.35413818,0.00019465
561.28294556,-0.00002558
563.21175293,0.00032953
565.14056030,-0.00001194
567.06936768,0.00030100
568.99817505,0.00040351
570.92698242,0.00012850
572.85578979,0.00028343
574.78459717,0.00020593
576.71340454,0.00036587
578.64221191,0.00044956
580.57101929,0.00008122
582.49982666,-0.00013981
584.42863403,-0.00014791
586.35744141,0.00017313
588.28624878,0.00023779
590.21505615,0.00019374
592.14386353,0.00003111
594.07267090,0.00011017
596.00147827,0.00057271
597.93028564,0.00003024
599.85909302,0.00014111
601.78790039,0.00031000
603.71670776,0.00020948
605.64551514,0.00049340
607.57432251,0.00024453
609.50312988,0.00027649
611.43193726,0.00008367
613.36074463,0.00004869
615.28955200,0.00008793
617.21835938,0.00002552
619.14716675,0.00038129
621.07597412,-0.00019552
623.00478149,-0.00024353
624.93358887,0.00008443
626.86239624,-0.00024766
628.79120361,0.00034744
630.72001099,0.00064572
632.64881836,0.00109355
634.57762573,0.00166760
636.50643311,0.00152023
638.43524048,0.00174051
640.36404785,0.00157427
642.29285522,0.00175733
644.22166260,0.00226854
646.15046997,0.00239648
648.07927734,0.00263253
650.00808472,0.00266133
651.93689209,0.00260052
653.86569946,0.00272473
655.79450684,0.00310029
657.72331421,0.00325873
659.65212158,0.00319151
661.58092896,0.00326037
663.50973633,0.00361679
665.43854370,0.00365731
667.36735107,0.00336117
669.29615845,0.00380828
671.22496582,0.00387236
673.15377319,0.00381505
675.08258057,0.00438042
677.01138794,0.00444295
678.94019531,0.00445986
680.86900269,0.00470104
682.79781006,0.00459959
684.72661743,0.00446220
686.65542480,0.00470574
688.58423218,0.00465677
690.51303955,0.00475936
692.44184692,0.00525389
694.37065430,0.00540808
696.29946167,0.00617285
698.22826904,0.00709526
700.15707642,0.00734807
702.08588379,0.00741635
704.01469116,0.00709266
705.94349854,0.00606288
707.87230591,0.00521240
709.80111328,0.00446164
711.72992065,0.00275369
713.65872803,0.00162481
715.58753540,0.00110809
717.51634277,0.00063731
719.44515015,0.00070356
721.37395752,0.00038036
723.30276489,0.00033278
725.23157227,0.00033265
727.16037964,0.00007398
729.08918701,0.00012081
731.01799438,-0.00015294
732.94680176,-0.00003060
734.87560913,0.00003234
736.80441650,-0.00009859
738.73322388,0.00016217
740.66203125,-0.00008820
742.59083862,0.00016991
744.51964600,0.00017187
746.44845337,-0.00023573
748.37726074,0.00026722
750.30606812,-0.00000171
752.23487549,-0.00013926
754.16368286,0.00013128
756.09249023,-0.00003368
758.02129761,0.00029616
759.95010498,0.00029569
761.87891235,0.00022040
763.80771973,0.00057115
765.73652710,0.00041732
767.66533447,0.00064143
769.59414185,0.00067084
771.52294922,0.00029983
773.45175659,0.00036739
775.38056396,0.00035049
777.30937134,0.00026908
779.23817871,0.00042887
781.16698608,0.00065673
783.09579346,0.00024932
785.02460083,0.00038706
786.95340820,0.00069534
788.88221558,0.00041291
790.81102295,0.00053669
792.73983032,0.00052780
794.66863770,0.00057747
796.59744507,0.00052488
798.52625244,0.00089759
800.45505981,0.00145506
802.38386719,0.00118729
804.31267456,0.00096355
806.24148193,0.00064057
808.17028931,0.00050417
810.09909668,0.00051757
812.02790405,0.00040372
813.95671143,0.00057561
815.88551880,0.00056495
817.81432617,0.00027216
819.74313354,0.00042715
821.67194092,0.00066929
823.60074829,0.00054347
825.52955566,0.00070235
827.45836304,0.00069016
829.38717041,0.00091964
831.31597778,0.00140695
833.24478516,0.00149521
835.17359253,0.00173912
837.10239990,0.00181417
839.03120728,0.00202040
840.96001465,0.00209004
842.88882202,0.00164395
844.81762939,0.00153524
846.74643677,0.00162139
848.67524414,0.00145342
850.60405151,0.00131668
852.53285889,0.00111823
854.46166626,0.00076511
856.39047363,0.00085169
858.31928101,0.00080598
860.24808838,0.00083376
862.17689575,0.00085160
864.10570313,0.00037760
866.03451050,0.00043807
867.96331787,0.00056751
869.89212524,0.00043197
871.82093262,0.00039213
873.74973999,0.00059314
875.67854736,0.00043258
877.60735474,0.00038341
879.53616211,0.00077903
881.46496948,0.00022900
883.39377686,0.00007951
885.32258423,0.00032958
887.25139160,0.00036609
889.18019897,0.00049298
891.10900635,0.00025512
893.03781372,0.00039164
894.96662109,0.00051330
896.89542847,0.00055591
898.82423584,0.00040057
900.75304321,0.00034382
902.68185059,0.00041444
904.61065796,0.00018983
906.53946533,0.00067727
908.46827271,0.00070865
910.39708008,0.00046259
912.32588745,0.00077896
914.25469482,0.00096365
916.18350220,0.00102634
918.11230957,0.00104042
920.04111694,0.00111001
921.96992432,0.00124556
923.89873169,0.00170624
925.82753906,0.00190909
927.75634644,0.00192487
929.68515381,0.00203151
931.61396118,0.00219806
933.54276855,0.00253084
935.47157593,0.00263434
937.40038330,0.00282470
939.32919067,0.00295900
941.25799805,0.00319681
943.18680542,0.00320467
945.11561279,0.00308133
947.04442017,0.00316135
948.97322754,0.00294804
950.90203491,0.00294609
952.83084229,0.00276383
954.75964966,0.00278441
956.68845703,0.00289165
958.61726440,0.00278305
960.54607178,0.00301239
962.47487915,0.00292182
964.40368652,0.00298166
966.33249390,0.00312213
968.26130127,0.00304601
970.19010864,0.00338417
972.11891602,0.00381749
974.04772339,0.00377513
975.97653076,0.00401321
977.90533813,0.00454153
979.83414551,0.00490868
981.76295288,0.00568702
983.69176025,0.00607887
985.62056763,0.00670047
987.54937500,0.00765971
989.47818237,0.00823914
991.40698975,0.00911687
993.33579712,0.01000274
995.26460449,0.01100387
997.19341187,0.01176116
999.12221924,0.01267667
1001.05102661,0.01380505
1002.97983398,0.01470299
1004.90864136,0.01575599
1006.83744873,0.01670508
1008.76625610,0.01778633
1010.69506348,0.01862720
1012.62387085,0.01979088
1014.55267822,0.02095686
1016.48148560,0.02177170
1018.41029297,0.02301048
1020.33910034,0.02391321
1022.26790771,0.02486354
1024.19671509,0.02593470
1026.12552246,0.02718490
1028.05432983,0.02804558
1029.98313721,0.02863460
1031.91194458,0.02972770
1033.84075195,0.02997690
1035.76955933,0.03049046
1037.69836670,0.03119294
1039.62717407,0.03097453
1041.55598145,0.03087648
1043.48478882,0.03073666
1045.41359619,0.03038033
1047.34240356,0.02998957
1049.27121094,0.02960881
1051.20001831,0.02912383
1053.12882568,0.02860881
1055.05763306,0.02816418
1056.98644043,0.02738820
1058.91524780,0.02652201
1060.84405518,0.02598663
1062.77286255,0.02513669
1064.70166992,0.02414884
1066.63047729,0.02362124
1068.55928467,0.02261624
1070.48809204,0.02143140
1072.41689941,0.02049647
1074.34570679,0.01945963
1076.27451416,0.01848218
1078.20332153,0.01767901
1080.13212891,0.01711834
1082.06093628,0.01624773
1083.98974365,0.01545718
1085.91855103,0.01482084
1087.84735840,0.01395258
1089.77616577,0.01335035
1091.70497314,0.01279404
1093.63378052,0.01227360
1095.56258789,0.01180744
1097.49139526,0.01140567
1099.42020264,0.01121058
1101.34901001,0.01077364
1103.27781738,0.01028116
1105.20662476,0.01022084
1107.13543213,0.01010748
1109.06423950,0.00994719
1110.99304687,0.00987995
1112.92185425,0.00971039
1114.85066162,0.00979925
1116.77946899,0.00967168
1118.70827637,0.00973082
1120.63708374,0.00969621
1122.56589111,0.00932031
1124.49469849,0.00989599
1126.42350586,0.01005441
1128.35231323,0.01006947
1130.28112061,0.01037759
1132.20992798,0.01049596
1134.13873535,0.01137681
1136.06754272,0.01156645
1137.99635010,0.01178424
1139.92515747,0.01284665
1141.85396484,0.01354109
1143.78277222,0.01460783
1145.71157959,0.01558619
1147.64038696,0.01635567
1149.56919434,0.01731582
1151.49800171,0.01800826
1153.42680908,0.01888036
1155.35561646,0.01990054
1157.28442383,0.02077276
1159.21323120,0.02151270
1161.14203857,0.02230330
1163.07084595,0.02322391
1164.99965332,0.02403169
1166.92846069,0.02505651
1168.85726807,0.02598762
1170.78607544,0.02682387
1172.71488281,0.02813608
1174.64369019,0.02910158
1176.57249756,0.02988403
1178.50130493,0.03109852
1180.43011230,0.03239288
1182.35891968,0.03370307
1184.28772705,0.03509655
1186.21653442,0.03678783
1188.14534180,0.03846815
1190.07414917,0.04017386
1192.00295654,0.04233928
1193.93176392,0.04442057
1195.86057129,0.04618171
1197.78937866,0.04821787
1199.71818604,0.05050980
1201.64699341,0.05249510
1203.57580078,0.05457457
1205.50460815,0.05692337
1207.43341553,0.05900624
1209.36222290,0.06085362
1211.29103027,0.06270440
1213.21983765,0.06466323
1215.14864502,0.06637569
1217.07745239,0.06763507
1219.00625977,0.06877650
1220.93506714,0.07003249
1222.86387451,0.07107565
1224.79268188,0.07144355
1226.72148926,0.07184498
1228.65029663,0.07243103
1230.57910400,0.07270089
1232.50791138,0.07311446
1234.43671875,0.07317572
1236.36552612,0.07293399
1238.29433350,0.07284525
1240.22314087,0.07254460
1242.15194824,0.07258393
1244.08075562,0.07225597
1246.00956299,0.07167538
1247.93837036,0.07145825
1249.86717773,0.07074584
1251.79598511,0.07026625
1253.72479248,0.06967160
1255.65359985,0.06871109
1257.58240723,0.06784134
1259.51121460,0.06660520
1261.44002197,0.06581060
1263.36882935,0.06510042
1265.29763672,0.06401025
1267.22644409,0.06314856
1269.15525146,0.06213515
1271.08405884,0.06111636
1273.01286621,0.06024426
1274.94167358,0.05901012
1276.87048096,0.05791161
1278.79928833,0.05692399
1280.72809570,0.05557646
1282.65690308,0.05458185
1284.58571045,0.05373276
1286.51451782,0.05254255
1288.44332520,0.05155212
1290.37213257,0.05108017
1292.30093994,0.05047857
1294.22974731,0.04996183
1296.15855469,0.04987004
1298.08736206,0.04942970
1300.01616943,0.04959239
1301.94497681,0.05003705
1303.87378418,0.05039825
1305.80259155,0.05112502
1307.73139893,0.05142350
1309.66020630,0.05221429
1311.58901367,0.05307954
1313.51782104,0.05415296
1315.44662842,0.05577308
1317.37543579,0.05658840
1319.30424316,0.05795041
1321.23305054,0.06021868
1323.16185791,0.06202184
1325.09066528,0.06364618
1327.01947266,0.06561586
1328.94828003,0.06714788
1330.87708740,0.06880475
1332.80589478,0.07075568
1334.73470215,0.07183038
1336.66350952,0.07251304
1338.59231689,0.07214607
1340.52112427,0.07299967
1342.44993164,0.07575639
1344.37873901,0.07629880
1346.30754639,0.07622043
1348.23635376,0.07617666
1350.16516113,0.07571900
1352.09396851,0.07566059
1354.02277588,0.07456306
1355.95158325,0.07406046
1357.88039062,0.07369704
1359.80919800,0.07235564
1361.73800537,0.06955538
1363.66681274,0.06837641
1365.59562012,0.07125862
1367.52442749,0.06994091
1369.45323486,0.06900959
1371.38204224,0.07006279
1373.31084961,0.06672032
1375.23965698,0.06711350
1377.16846436,0.06874032
1379.09727173,0.06860980
1381.02607910,0.06854594
1382.95488647,0.06829704
1384.88369385,0.06835317
1386.81250122,0.06513597
1388.74130859,0.06607327
1390.67011597,0.07134889
1392.59892334,0.06985223
1394.52773071,0.06557060
1396.45653809,0.06833813
1398.38534546,0.06878026
1400.31415283,0.06797843
1402.24296021,0.07324673
1404.17176758,0.06975830
1406.10057495,0.06971104
1408.02938232,0.07261763
1409.95818970,0.06983352
1411.88699707,0.07157624
1413.81580444,0.06900610
1415.74461182,0.06995122
1417.67341919,0.06403861
1419.60222656,0.05667553
1421.53103394,0.06512272
1423.45984131,0.06352083
1425.38864868,0.06104325
1427.31745605,0.06207121
1429.24626343,0.05745792
1431.17507080,0.05562543
1433.10387817,0.05630180
1435.03268555,0.05157292
1436.96149292,0.04379638
1438.89030029,0.04934575
1440.81910767,0.05043638
1442.74791504,0.04676750
1444.67672241,0.04921998
1446.60552979,0.04509054
1448.53433716,0.04566522
1450.46314453,0.04728249
1452.39195190,0.04829041
1454.32075928,0.05014495
1456.24956665,0.04180226
1458.17837402,0.04318443
1460.10718140,0.05692493
1462.03598877,0.06128299
1463.96479614,0.06083821
1465.89360352,0.06347336
1467.82241089,0.07211350
1469.75121826,0.07766172
1471.68002563,0.06990119
1473.60883301,0.07314087
1475.53764038,0.08367778
1477.46644775,0.08983058
1479.39525513,0.09838797
1481.32406250,0.10012370
1483.25286987,0.10618424
1485.18167725,0.11006357
1487.11048462,0.10855843
1489.03929199,0.10837360
1490.96809937,0.10892118
1492.89690674,0.12610587
1494.82571411,0.12415992
1496.75452148,0.11185426
1498.68332886,0.12592573
1500.61213623,0.13007924
1502.54094360,0.13918188
1504.46975098,0.13283932
1506.39855835,0.09796509
1508.32736572,0.11763509
1510.25617310,0.13812590
1512.18498047,0.13374171
1514.11378784,0.14489236
1516.04259521,0.13124216
1517.97140259,0.13615856
1519.90020996,0.13253732
1521.82901733,0.11469796
1523.75782471,0.13937062
1525.68663208,0.13765579
1527.61543945,0.13636392
1529.54424683,0.15042461
1531.47305420,0.14500624
1533.40186157,0.13335025
1535.33066895,0.14006266
1537.25947632,0.15055184
1539.18828369,0.10990949
1541.11709106,0.11293358
1543.04589844,0.13558507
1544.97470581,0.12984331
1546.90351318,0.15226623
1548.83232056,0.14304903
1550.76112793,0.14674863
1552.68993530,0.14648119
1554.61874268,0.13287205
1556.54755005,0.14262119
1558.47635742,0.10292293
1560.40516479,0.10806420
1562.33397217,0.15244426
1564.26277954,0.14509419
1566.19158691,0.14817128
1568.12039429,0.14752863
1570.04920166,0.13089189
1571.97800903,0.14919911
1573.90681641,0.15187715
1575.83562378,0.12097667
1577.76443115,0.13523534
1579.69323853,0.15255339
1581.62204590,0.14585406
1583.55085327,0.14952484
1585.47966064,0.14714873
1587.40846802,0.14783275
1589.33727539,0.14638017
1591.26608276,0.14604968
1593.19489014,0.14616966
1595.12369751,0.14416851
1597.05250488,0.14586961
1598.98131226,0.14430657
1600.91011963,0.14500535
1602.83892700,0.14205262
1604.76773437,0.14385974
1606.69654175,0.14162090
1608.62534912,0.14051341
1610.55415649,0.14019299
1612.48296387,0.14009258
1614.41177124,0.14202450
1616.34057861,0.11669104
1618.26938599,0.12444040
1620.19819336,0.14453852
1622.12700073,0.12845364
1624.05580811,0.12837869
1625.98461548,0.13393104
1627.91342285,0.13295352
1629.84223022,0.13176963
1631.77103760,0.14008665
1633.69984497,0.13035274
1635.62865234,0.10780162
1637.55745972,0.12394990
1639.48626709,0.13639563
1641.41507446,0.13324340
1643.34388184,0.13678172
1645.27268921,0.12438370
1647.20149658,0.10945174
1649.13030396,0.13484795
1651.05911133,0.12980774
1652.98791870,0.08461544
1654.91672607,0.11254045
1656.84553345,0.14189227
1658.77434082,0.13608135
1660.70314819,0.14054203
1662.63195557,0.12872244
1664.56076294,0.13518918
1666.48957031,0.14584063
1668.41837769,0.12882854
1670.34718506,0.12502021
1672.27599243,0.14153731
1674.20479980,0.13224466
1676.13360718,0.12659220
1678.06241455,0.14553559
1679.99122192,0.14111532
1681.92002930,0.14026183
1683.84883667,0.11600927
1685.77764404,0.11309610
1687.70645142,0.15491807
1689.63525879,0.13630067
1691.56406616,0.14810671
1693.49287354,0.15328027
1695.42168091,0.11293846
1697.35048828,0.13779467
1699.27929565,0.12377839
1701.20810303,0.11043595
1703.13691040,0.14951959
1705.06571777,0.13880023
1706.99452515,0.13907772
1708.92333252,0.15148473
1710.85213989,0.14595029
1712.78094727,0.14861871
1714.70975464,0.13899937
1716.63856201,0.12529108
1718.56736938,0.12294762
1720.49617676,0.14488098
1722.42498413,0.15103450
1724.35379150,0.14034104
1726.28259888,0.15216920
1728.21140625,0.14145894
1730.14021362,0.14236864
1732.06902100,0.13990435
1733.99782837,0.10739046
1735.92663574,0.13121998
1737.85544312,0.14609803
1739.78425049,0.13035664
1741.71305786,0.14143664
1743.64186523,0.14380538
1745.57067261,0.14382792
1747.49947998,0.14551002
1749.42828735,0.13976419
1751.35709473,0.13358493
1753.28590210,0.14706463
1755.21470947,0.15471353
1757.14351685,0.14127439
1759.07232422,0.15451452
1761.00113159,0.14654025
1762.92993896,0.14057051
1764.85874634,0.16055414
1766.78755371,0.14559910
1768.71636108,0.14644516
1770.64516846,0.14607140
1772.57397583,0.13133475
1774.50278320,0.14583917
1776.43159058,0.15400557
1778.36039795,0.15203655
1780.28920532,0.15043238
1782.21801270,0.15138075
1784.14682007,0.15136176
1786.07562744,0.14831072
1788.00443481,0.15561867
1789.93324219,0.15241420
1791.86204956,0.13828489
1793.79085693,0.14336407
1795.71966431,0.15383963
1797.64847168,0.15213472
1799.57727905,0.14990637
1801.50608643,0.14727670
1803.43489380,0.15149778
1805.36370117,0.15513131
1807.29250854,0.15293837
1809.22131592,0.15357578
1811.15012329,0.14981714
1813.07893066,0.15372166
1815.00773804,0.15468545
1816.93654541,0.15311566
1818.86535278,0.15433127
1820.79416016,0.15352023
1822.72296753,0.15595964
1824.65177490,0.14619285
1826.58058228,0.15087903
1828.50938965,0.15173650
1830.43819702,0.14220032
1832.36700439,0.15415317
1834.29581177,0.15350367
1836.22461914,0.15309037
1838.15342651,0.15272677
1840.08223389,0.15333685
1842.01104126,0.15415293
1843.93984863,0.13734068
1845.86865601,0.14529568
1847.79746338,0.15351143
1849.72627075,0.15020552
1851.65507812,0.15448281
1853.58388550,0.15160371
1855.51269287,0.15301892
1857.44150024,0.15215400
1859.37030762,0.15124285
1861.29911499,0.15232104
1863.22792236,0.15049639
1865.15672974,0.15218799
1867.08553711,0.14751399
1869.01434448,0.14150715
1870.94315186,0.14647253
1872.87195923,0.15192315
1874.80076660,0.14976460
1876.72957397,0.15031341
1878.65838135,0.15008047
1880.58718872,0.14933419
1882.51599609,0.15025973
1884.44480347,0.14781576
1886.37361084,0.15002173
1888.30241821,0.14692950
1890.23122559,0.14402847
1892.16003296,0.14918327
1894.08884033,0.14724751
1896.01764771,0.14652562
1897.94645508,0.14812481
1899.87526245,0.14748339
1901.80406982,0.14774740
1903.73287720,0.14677298
1905.66168457,0.14733851
1907.59049194,0.14612463
1909.51929932,0.14527360
1911.44810669,0.14608225
1913.37691406,0.14608267
1915.30572144,0.14726472
1917.23452881,0.14137731
1919.16333618,0.14117023
1921.09214355,0.14648816
1923.02095093,0.14216676
1924.94975830,0.14453226
1926.87856567,0.14617109
1928.80737305,0.14425927
1930.73618042,0.14603806
1932.66498779,0.14408654
1934.59379517,0.14526460
1936.52260254,0.14446712
1938.45140991,0.14469430
1940.38021729,0.14474802
1942.30902466,0.14034209
1944.23783203,0.14276068
1946.16663940,0.14401241
1948.09544678,0.14375538
1950.02425415,0.14441136
1951.95306152,0.14379948
1953.88186890,0.14396469
1955.81067627,0.14345147
1957.73948364,0.14378998
1959.66829102,0.14338878
1961.59709839,0.14313906
1963.52590576,0.14343335
1965.45471313,0.14270106
1967.38352051,0.14145727
1969.31232788,0.14244696
1971.24113525,0.14339209
1973.16994263,0.14222416
1975.09875000,0.14284763
1977.02755737,0.14219315
1978.95636475,0.14225432
1980.88517212,0.14222154
1982.81397949,0.14155592
1984.74278687,0.14231420
1986.67159424,0.14088798
1988.60040161,0.14109187
1990.52920898,0.14005008
1992.45801636,0.13842580
1994.38682373,0.14019284
1996.31563110,0.14051087
1998.24443848,0.13994670
2000.17324585,0.13981718
2002.10205322,0.13967726
2004.03086060,0.13938330
2005.95966797,0.13914225
2007.88847534,0.13870081
2009.81728271,0.13859558
2011.74609009,0.13836095
2013.67489746,0.13792665
2015.60370483,0.13744666
2017.53251221,0.13623123
2019.46131958,0.13691399
2021.39012695,0.13697895
2023.31893433,0.13632596
2025.24774170,0.13649534
2027.17654907,0.13583565
2029.10535645,0.13573611
2031.03416382,0.13547647
2032.96297119,0.13524821
2034.89177856,0.13486184
2036.82058594,0.13453870
2038.74939331,0.13452004
2040.67820068,0.13377626
2042.60700806,0.13346229
2044.53581543,0.13351342
2046.46462280,0.13333675
2048.39343018,0.13292441
2050.32223755,0.13280490
2052.25104492,0.13242944
2054.17985229,0.13210729
2056.10865967,0.13206051
2058.03746704,0.13171604
2059.96627441,0.13139611
2061.89508179,0.13103542
2063.82388916,0.13069050
2065.75269653,0.13009341
2067.68150391,0.13055906
2069.61031128,0.13046567
2071.53911865,0.12967148
2073.46792603,0.12978965
2075.39673340,0.12930475
2077.32554077,0.12925190
2079.25434814,0.12904064
2081.18315552,0.12883145
2083.11196289,0.12869842
2085.04077026,0.12829766
2086.96957764,0.12824276
2088.89838501,0.12766635
2090.82719238,0.12753707
2092.75599976,0.12736392
2094.68480713,0.12720817
2096.61361450,0.12698433
2098.54242187,0.12673436
2100.47122925,0.12674657
2102.40003662,0.12627521
2104.32884399,0.12607399
2106.25765137,0.12580350
2108.18645874,0.12583572
2110.11526611,0.12558465
2112.04407349,0.12527421
2113.97288086,0.12508897
2115.90168823,0.12471963
2117.83049561,0.12495767
2119.75930298,0.12458827
2121.68811035,0.12442042
2123.61691772,0.12427657
2125.54572510,0.12408045
2127.47453247,0.12403516
2129.40333984,0.12373232
2131.33214722,0.12379941
2133.26095459,0.12342886
2135.18976196,0.12328602
2137.11856934,0.12313612
2139.04737671,0.12302653
2140.97618408,0.12291932
2142.90499146,0.12260011
2144.83379883,0.12266067
2146.76260620,0.12236969
2148.69141357,0.12228511
2150.62022095,0.12217459
2152.54902832,0.12216607
2154.47783569,0.12197475
2156.40664307,0.12163024
2158.33545044,0.12164818
2160.26425781,0.12133616
2162.19306519,0.12131173
2164.12187256,0.12117454
2166.05067993,0.12112696
2167.97948730,0.12104040
2169.90829468,0.12077789
2171.83710205,0.12077004
2173.76590942,0.12064372
2175.69471680,0.12051312
2177.62352417,0.12018988
2179.55233154,0.12025456
2181.48113892,0.12017372
2183.40994629,0.11998471
2185.33875366,0.11992721
2187.26756104,0.11961457
2189.19636841,0.11955708
2191.12517578,0.11943665
2193.05398315,0.11933045
2194.98279053,0.11899376
2196.91159790,0.11892905
2198.84040527,0.11903147
2200.76921265,0.11875018
2202.69802002,0.11854920
2204.62682739,0.11842556
2206.55563477,0.11847888
2208.48444214,0.11819635
2210.41324951,0.11808034
2212.34205688,0.11806394
2214.27086426,0.11788689
2216.19967163,0.11779812
2218.12847900,0.11750952
2220.05728638,0.11738580
2221.98609375,0.11729316
2223.91490112,0.11729337
2225.84370850,0.11704683
2227.77251587,0.11684467
2229.70132324,0.11681785
2231.63013062,0.11653052
2233.55893799,0.11640911
2235.48774536,0.11624677
2237.41655273,0.11610647
2239.34536011,0.11592649
2241.27416748,0.11579531
2243.20297485,0.11565895
2245.13178223,0.11551364
2247.06058960,0.11535281
2248.98939697,0.11512765
2250.91820435,0.11507969
2252.84701172,0.11481491
2254.77581909,0.11465208
2256.70462646,0.11441565
2258.63343384,0.11433890
2260.56224121,0.11430831
2262.49104858,0.11403955
2264.41985596,0.11397462
2266.34866333,0.11368510
2268.27747070,0.11370622
2270.20627808,0.11358842
2272.13508545,0.11338677
2274.06389282,0.11340966
2275.99270020,0.11318141
2277.92150757,0.11307614
2279.85031494,0.11291651
2281.77912231,0.11294840
2283.70792969,0.11282723
2285.63673706,0.11264007
2287.56554443,0.11245938
2289.49435181,0.11206288
2291.42315918,0.11188484
2293.35196655,0.11160768
2295.28077393,0.11129209
2297.20958130,0.11091141
2299.13838867,0.11059499
2301.06719604,0.11029978
2302.99600342,0.10978886
2304.92481079,0.10915076
2306.85361816,0.10857118
2308.78242554,0.10789613
2310.71123291,0.10691193
2312.64004028,0.10598592
2314.56884766,0.10496962
2316.49765503,0.10386774
2318.42646240,0.10249490
2320.35526978,0.10126652
2322.28407715,0.09980225
2324.21288452,0.09830869
2326.14169189,0.09759119
2328.07049927,0.09630655
2329.99930664,0.09515714
2331.92811401,0.09437010
2333.85692139,0.09398068
2335.78572876,0.09363317
2337.71453613,0.09330289
2339.64334351,0.09359209
2341.57215088,0.09356540
2343.50095825,0.09497479
2345.42976562,0.09690336
2347.35857300,0.10061045
2349.28738037,0.10408586
2351.21618774,0.10068924
2353.14499512,0.09564500
2355.07380249,0.09221317
2357.00260986,0.08941250
2358.93141724,0.08768974
2360.86022461,0.08642060
2362.78903198,0.08643248
2364.71783936,0.08704259
2366.64664673,0.08823236
2368.57545410,0.08990316
2370.50426147,0.09210195
2372.43306885,0.09467393
2374.36187622,0.09720201
2376.29068359,0.09991358
2378.21949097,0.10193742
2380.14829834,0.10362826
2382.07710571,0.10481240
2384.00591309,0.10542718
2385.93472046,0.10575944
2387.86352783,0.10577010
2389.79233521,0.10575533
2391.72114258,0.10569324
2393.64994995,0.10566190
2395.57875732,0.10538168
2397.50756470,0.10520989
2399.43637207,0.10506864
2401.36517944,0.10498803
2403.29398682,0.10491824
2405.22279419,0.10467061
2407.15160156,0.10464294
2409.08040894,0.10443378
2411.00921631,0.10436255
2412.93802368,0.10428420
2414.86683105,0.10399766
2416.79563843,0.10392663
2418.72444580,0.10397570
2420.65325317,0.10389379
2422.58206055,0.10361579
2424.51086792,0.10350484
2426.43967529,0.10337412
2428.36848267,0.10321899
2430.29729004,0.10307223
2432.22609741,0.10297202
2434.15490479,0.10290982
2436.08371216,0.10271034
2438.01251953,0.10258709
2439.94132690,0.10252857
2441.87013428,0.10238421
2443.79894165,0.10217640
2445.72774902,0.10215245
2447.65655640,0.10197303
2449.58536377,0.10182929
2451.51417114,0.10170443
2453.44297852,0.10149066
2455.37178589,0.10149437
2457.30059326,0.10126739
2459.22940063,0.10127728
2461.15820801,0.10121442
2463.08701538,0.10099022
2465.01582275,0.10091698
2466.94463013,0.10078116
2468.87343750,0.10070029
2470.80224487,0.10043772
2472.73105225,0.10036987
2474.65985962,0.10022490
2476.58866699,0.10016680
2478.51747437,0.09995647
2480.44628174,0.09971048
2482.37508911,0.09981196
2484.30389648,0.09945634
2486.23270386,0.09953216
2488.16151123,0.09940369
2490.09031860,0.09917499
2492.01912598,0.09920733
2493.94793335,0.09885196
2495.87674072,0.09886280
2497.80554810,0.09868004
2499.73435547,0.09858265
2501.66316284,0.09846999
2503.59197021,0.09836735
2505.52077759,0.09839892
2507.44958496,0.09811804
2509.37839233,0.09811658
2511.30719971,0.09783483
2513.23600708,0.09766696
2515.16481445,0.09762511
2517.09362183,0.09745291
2519.02242920,0.09742664
2520.95123657,0.09714364
2522.88004395,0.09702157
2524.80885132,0.09703131
2526.73765869,0.09700011
2528.66646606,0.09682901
2530.59527344,0.09672094
2532.52408081,0.09664210
2534.45288818,0.09645788
2536.38169556,0.09644563
2538.31050293,0.09628353
2540.23931030,0.09611136
2542.16811768,0.09601264
2544.09692505,0.09591366
2546.02573242,0.09581455
2547.95453979,0.09569142
2549.88334717,0.09554532
2551.81215454,0.09542757
2553.74096191,0.09529983
2555.66976929,0.09512299
2557.59857666,0.09509409
2559.52738403,0.09492804
2561.45619141,0.09479496
2563.38499878,0.09464704
2565.31380615,0.09455331
2567.24261353,0.09451246
2569.17142090,0.09432250
2571.10022827,0.09424891
2573.02903564,0.09390453
2574.95784302,0.09392667
2576.88665039,0.09393281
2578.81545776,0.09362093
2580.74426514,0.09364860
2582.67307251,0.09340471
2584.60187988,0.09336139
2586.53068726,0.09324943
2588.45949463,0.09299911
2590.38830200,0.09292942
2592.31710937,0.09269752
2594.24591675,0.09279050
2596.17472412,0.09270799
2598.10353149,0.09245804
2600.03233887,0.09236877
2601.96114624,0.09221779
2603.88995361,0.09222250
2605.81876099,0.09203784
2607.74756836,0.09181181
2609.67637573,0.09180874
2611.60518311,0.09157646
2613.53399048,0.09145017
2615.46279785,0.09151663
2617.39160522,0.09139651
2619.32041260,0.09125327
2621.24921997,0.09107712
2623.17802734,0.09092429
2625.10683472,0.09072722
2627.03564209,0.09062034
2628.96444946,0.09056093
2630.89325684,0.09048635
2632.82206421,0.09046759
2634.75087158,0.09014830
2636.67967895,0.09013318
2638.60848633,0.09000199
2640.53729370,0.08971708
2642.46610107,0.08981425
2644.39490845,0.08960931
2646.32371582,0.08955164
2648.25252319,0.08940810
2650.18133057,0.08921604
2652.11013794,0.08920079
2654.03894531,0.08896399
2655.96775269,0.08885494
2657.89656006,0.08871618
2659.82536743,0.08863878
2661.75417480,0.08852233
2663.68298218,0.08836051
2665.61178955,0.08830504
2667.54059692,0.08822756
2669.46940430,0.08809365
2671.39821167,0.08787674
2673.32701904,0.08781032
2675.25582642,0.08769098
2677.18463379,0.08754054
2679.11344116,0.08737954
2681.04224854,0.08728199
2682.97105591,0.08720090
2684.89986328,0.08704690
2686.82867065,0.08693033
2688.75747803,0.08670942
2690.68628540,0.08675379
2692.61509277,0.08664739
2694.54390015,0.08640635
2696.47270752,0.08636117
2698.40151489,0.08624953
2700.33032227,0.08613902
2702.25912964,0.08589146
2704.18793701,0.08583639
2706.11674438,0.08570382
2708.04555176,0.08548479
2709.97435913,0.08548780
2711.90316650,0.08536325
2713.83197388,0.08517171
2715.76078125,0.08508255
2717.68958862,0.08508178
2719.61839600,0.08483420
2721.54720337,0.08472394
2723.47601074,0.08461343
2725.40481812,0.08429673
2727.33362549,0.08428539
2729.26243286,0.08413710
2731.19124023,0.08399723
2733.12004761,0.08400686
2735.04885498,0.08380570
2736.97766235,0.08368340
2738.90646973,0.08365433
2740.83527710,0.08344105
2742.76408447,0.08331566
2744.69289185,0.08313020
2746.62169922,0.08295150
2748.55050659,0.08299610
2750.47931396,0.08272161
2752.40812134,0.08262499
2754.33692871,0.08254293
2756.26573608,0.08239685
2758.19454346,0.08236820
2760.12335083,0.08202738
2762.05215820,0.08198919
2763.98096558,0.08188756
2765.90977295,0.08169465
2767.83858032,0.08154247
2769.76738770,0.08136184
2771.69619507,0.08128853
2773.62500244,0.08106193
2775.55380981,0.08112010
2777.48261719,0.08098209
2779.41142456,0.08078173
2781.34023193,0.08060938
2783.26903931,0.08038646
2785.19784668,0.08044268
2787.12665405,0.08016138
2789.05546143,0.08003525
2790.98426880,0.07994980
2792.91307617,0.07971860
2794.84188354,0.07960929
2796.77069092,0.07940477
2798.69949829,0.07931791
2800.62830566,0.07923010
2802.55711304,0.07908095
2804.48592041,0.07888162
2806.41472778,0.07874532
2808.34353516,0.07855330
2810.27234253,0.07844770
2812.20114990,0.07832150
2814.12995728,0.07807187
2816.05876465,0.07799362
2817.98757202,0.07769226
2819.91637939,0.07764987
2821.84518677,0.07754987
2823.77399414,0.07730311
2825.70280151,0.07732809
2827.63160889,0.07700209
2829.56041626,0.07684571
2831.48922363,0.07677850
2833.41803101,0.07658471
2835.34683838,0.07642865
2837.27564575,0.07627158
2839.20445312,0.07606584
2841.13326050,0.07561801
2843.06206787,0.07550086
2844.99087524,0.07521388
2846.91968262,0.07464008
2848.84848999,0.07436928
2850.77729736,0.07402706
2852.70610474,0.07397324
2854.63491211,0.07398027
2856.56371948,0.07370848
2858.49252686,0.07370476
2860.42133423,0.07364982
2862.35014160,0.07351401
2864.27894897,0.07340419
2866.20775635,0.07320328
2868.13656372,0.07320700
2870.06537109,0.07308617
2871.99417847,0.07290572
2873.92298584,0.07276294
2875.85179321,0.07259938
2877.78060059,0.07261831
2879.70940796,0.07245743
2881.63821533,0.07230764
2883.56702270,0.07218406
2885.49583008,0.07205173
2887.42463745,0.07195692
2889.35344482,0.07180429
2891.28225220,0.07169799
2893.21105957,0.07137328
2895.13986694,0.07121159
2897.06867432,0.07105025
2898.99748169,0.07086569
2900.92628906,0.07079495
2902.85509644,0.07036992
2904.78390381,0.07019116
2906.71271118,0.07011878
2908.64151855,0.06978840
2910.57032593,0.06946496
2912.49913330,0.06915027
2914.42794067,0.06870392
2916.35674805,0.06834993
2918.28555542,0.06833902
2920.21436279,0.06810968
2922.14317017,0.06797746
2924.07197754,0.06799201
2926.00078491,0.06777371
2927.92959229,0.06772085
2929.85839966,0.06766841
2931.78720703,0.06762358
2933.71601440,0.06761631
2935.64482178,0.06743405
2937.57362915,0.06743956
2939.50243652,0.06755305
2941.43124390,0.06739267
2943.36005127,0.06731050
2945.28885864,0.06718206
2947.21766602,0.06697264
2949.14647339,0.06691472
2951.07528076,0.06678705
2953.00408813,0.06669287
2954.93289551,0.06629631
2956.86170288,0.06601538
2958.79051025,0.06597927
2960.71931763,0.06574295
2962.64812500,0.06565697
2964.57693237,0.06539906
2966.50573975,0.06530100
2968.43454712,0.06531946
2970.36335449,0.06527739
2972.29216187,0.06532827
2974.22096924,0.06522404
2976.14977661,0.06535623
2978.07858398,0.06522875
2980.00739136,0.06508773
2981.93619873,0.06515460
2983.86500610,0.06497762
2985.79381348,0.06494164
2987.72262085,0.06476212
2989.65142822,0.06463636
2991.58023560,0.06458990
2993.50904297,0.06438786
2995.43785034,0.06432383
2997.36665771,0.06419667
2999.29546509,0.06399438
3001.22427246,0.06385428
3003.15307983,0.06375272
3005.08188721,0.06359523
3007.01069458,0.06343820
3008.93950195,0.06321856
3010.86830933,0.06292439
3012.79711670,0.06277449
3014.72592407,0.06259390
3016.65473145,0.06242354
3018.58353882,0.06235145
3020.51234619,0.06224788
3022.44115356,0.06207082
3024.36996094,0.06179007
3026.29876831,0.06171555
3028.22757568,0.06160003
3030.15638306,0.06114364
3032.08519043,0.06097970
3034.01399780,0.06087092
3035.94280518,0.06066610
3037.87161255,0.06063304
3039.80041992,0.06042332
3041.72922729,0.06022347
3043.65803467,0.05999055
3045.58684204,0.05979865
3047.51564941,0.05969626
3049.44445679,0.05947012
3051.37326416,0.05930565
3053.30207153,0.05909469
3055.23087891,0.05895553
3057.15968628,0.05870897
3059.08849365,0.05849266
3061.01730103,0.05842094
3062.94610840,0.05816503
3064.87491577,0.05798823
3066.80372314,0.05776180
3068.73253052,0.05757819
3070.66133789,0.05748795
3072.59014526,0.05738991
3074.51895264,0.05711937
3076.44776001,0.05678249
3078.37656738,0.05671420
3080.30537476,0.05640186
3082.23418213,0.05622929
3084.16298950,0.05615807
3086.09179687,0.05592233
3088.02060425,0.05586930
3089.94941162,0.05555057
3091.87821899,0.05530154
3093.80702637,0.05516726
3095.73583374,0.05482896
3097.66464111,0.05468537
3099.59344849,0.05456482
3101.52225586,0.05430092
3103.45106323,0.05413897
3105.37987061,0.05391197
3107.30867798,0.05361286
3109.23748535,0.05340678
3111.16629272,0.05316398
3113.09510010,0.05303584
3115.02390747,0.05278625
3116.95271484,0.05241649
3118.88152222,0.05222620
3120.81032959,0.05204858
3122.73913696,0.05193917
3124.66794434,0.05172979
3126.59675171,0.05136195
3128.52555908,0.05112863
3130.45436645,0.05098595
3132.38317383,0.05063803
3134.31198120,0.05043259
3136.24078857,0.05031829
3138.16959595,0.04992680
3140.09840332,0.04966722
3142.02721069,0.04947597
3143.95601807,0.04939865
3145.88482544,0.04911951
3147.81363281,0.04877879
3149.74244019,0.04863120
3151.67124756,0.04823150
3153.60005493,0.04808756
3155.52886230,0.04784794
3157.45766968,0.04756750
3159.38647705,0.04740657
3161.31528442,0.04707815
3163.24409180,0.04692077
3165.17289917,0.04667618
3167.10170654,0.04642026
3169.03051392,0.04608044
3170.95932129,0.04587113
3172.88812866,0.04566893
3174.81693604,0.04541365
3176.74574341,0.04527973
3178.67455078,0.04488415
3180.60335815,0.04483091
3182.53216553,0.04465193
3184.46097290,0.04433359
3186.38978027,0.04420032
3188.31858765,0.04387138
3190.24739502,0.04369815
3192.17620239,0.04350091
3194.10500977,0.04337797
3196.03381714,0.04307771
3197.96262451,0.04279719
3199.89143188,0.04277860
3201.82023926,0.04254678
3203.74904663,0.04238541
3205.67785400,0.04221673
3207.60666138,0.04198762
3209.53546875,0.04177245
3211.46427612,0.04161997
3213.39308350,0.04135257
3215.32189087,0.04119661
3217.25069824,0.04124469
3219.17950562,0.04095207
3221.10831299,0.04081005
3223.03712036,0.04074507
3224.96592773,0.04049029
3226.89473511,0.04028212
3228.82354248,0.04015455
3230.75234985,0.04010223
3232.68115723,0.03997786
3234.60996460,0.03988510
3236.53877197,0.03982750
3238.46757935,0.03967877
3240.39638672,0.03950523
3242.32519409,0.03948565
3244.25400146,0.03932005
3246.18280884,0.03909777
3248.11161621,0.03906313
3250.04042358,0.03909551
3251.96923096,0.03904437
3253.89803833,0.03873254
3255.82684570,0.03871252
3257.75565308,0.03865773
3259.68446045,0.03859279
3261.61326782,0.03858802
3263.54207520,0.03831754
3265.47088257,0.03843017
3267.39968994,0.03832331
3269.32849731,0.03812290
3271.25730469,0.03813612
3273.18611206,0.03802730
3275.11491943,0.03794247
3277.04372681,0.03782272
3278.97253418,0.03788300
3280.90134155,0.03780123
3282.83014893,0.03770343
3284.75895630,0.03766839
3286.68776367,0.03758468
3288.61657104,0.03753672
3290.54537842,0.03744537
3292.47418579,0.03740305
3294.40299316,0.03729328
3296.33180054,0.03729575
3298.26060791,0.03716106
3300.18941528,0.03710704
3302.11822266,0.03704965
3304.04703003,0.03680523
3305.97583740,0.03677244
3307.90464478,0.03664783
3309.83345215,0.03674741
3311.76225952,0.03673534
3313.69106689,0.03654002
3315.61987427,0.03657068
3317.54868164,0.03656248
3319.47748901,0.03646111
3321.40629639,0.03635917
3323.33510376,0.03629447
3325.26391113,0.03608092
3327.19271851,0.03617416
3329.12152588,0.03611865
3331.05033325,0.03593418
3332.97914062,0.03599786
3334.90794800,0.03582171
3336.83675537,0.03574004
3338.76556274,0.03561034
3340.69437012,0.03558999
3342.62317749,0.03556199
3344.55198486,0.03559489
3346.48079224,0.03563187
3348.40959961,0.03534023
3350.33840698,0.03530874
3352.26721436,0.03519753
3354.19602173,0.03511855
3356.12482910,0.03506492
3358.05363647,0.03501149
3359.98244385,0.03496896
3361.91125122,0.03485622
3363.84005859,0.03486231
3365.76886597,0.03471934
3367.69767334,0.03472721
3369.62648071,0.03469719
3371.55528809,0.03479758
3373.48409546,0.03465143
3375.41290283,0.03451118
3377.34171020,0.03474185
3379.27051758,0.03449067
3381.19932495,0.03448755
3383.12813232,0.03441873
3385.05693970,0.03436777
3386.98574707,0.03438126
3388.91455444,0.03426372
3390.84336182,0.03420655
3392.77216919,0.03392785
3394.70097656,0.03418688
3396.62978394,0.03419125
3398.55859131,0.03407342
3400.48739868,0.03406820
3402.41620605,0.03395021
3404.34501343,0.03413136
3406.27382080,0.03408901
3408.20262817,0.03412989
3410.13143555,0.03411062
3412.06024292,0.03416401
3413.98905029,0.03410133
3415.91785767,0.03406964
3417.84666504,0.03412702
3419.77547241,0.03387192
3421.70427979,0.03396522
3423.63308716,0.03400806
3425.56189453,0.03408911
3427.49070190,0.03398518
3429.41950928,0.03399354
3431.34831665,0.03404336
3433.27712402,0.03389358
3435.20593140,0.03406258
3437.13473877,0.03391147
3439.06354614,0.03413020
3440.99235352,0.03403416
3442.92116089,0.03399556
3444.84996826,0.03424409
3446.77877563,0.03371024
3448.70758301,0.03389584
3450.63639038,0.03421342
3452.56519775,0.03421181
3454.49400513,0.03426126
3456.42281250,0.03422037
3458.35161987,0.03427530
3460.28042725,0.03432878
3462.20923462,0.03432839
3464.13804199,0.03430459
3466.06684937,0.03439972
3467.99565674,0.03427071
3469.92446411,0.03440945
3471.85327148,0.03451361
3473.78207886,0.03448651
3475.71088623,0.03456199
3477.63969360,0.03466086
3479.56850098,0.03471192
3481.49730835,0.03427068
3483.42611572,0.03458092
3485.35492310,0.03477776
3487.28373047,0.03458999
3489.21253784,0.03475155
3491.14134521,0.03485491
3493.07015259,0.03515819
3494.99895996,0.03498846
3496.92776733,0.03492299
3498.85657471,0.03506299
3500.78538208,0.03511660
3502.71418945,0.03468948
3504.64299683,0.03467726
3506.57180420,0.03546410
3508.50061157,0.03510650
3510.42941895,0.03507359
3512.35822632,0.03539724
3514.28703369,0.03556174
3516.21584106,0.03568161
3518.14464844,0.03547113
3520.07345581,0.03575327
3522.00226318,0.03550878
3523.93107056,0.03514707
3525.85987793,0.03535455
3527.78868530,0.03550717
3529.71749268,0.03546880
3531.64630005,0.03589627
3533.57510742,0.03626662
3535.50391479,0.03592104
3537.43272217,0.03598542
3539.36152954,0.03629483
3541.29033691,0.03642944
3543.21914429,0.03610479
3545.14795166,0.03545921
3547.07675903,0.03515680
3549.00556641,0.03618348
3550.93437378,0.03652440
3552.86318115,0.03575002
3554.79198853,0.03658693
3556.72079590,0.03670590
3558.64960327,0.03660950
3560.57841064,0.03652237
3562.50721802,0.03637033
3564.43602539,0.03672643
3566.36483276,0.03452288
3568.29364014,0.03386353
3570.22244751,0.03625282
3572.15125488,0.03723582
3574.08006226,0.03691051
3576.00886963,0.03705852
3577.93767700,0.03710926
3579.86648437,0.03696953
3581.79529175,0.03718393
3583.72409912,0.03727052
3585.65290649,0.03655047
3587.58171387,0.03393096
3589.51052124,0.03482889
3591.43932861,0.03768675
3593.36813599,0.03668810
3595.29694336,0.03629484
3597.22575073,0.03696015
3599.15455811,0.03724343
3601.08336548,0.03698476
3603.01217285,0.03727727
3604.94098022,0.03802294
3606.86978760,0.03683728
3608.79859497,0.03490891
3610.72740234,0.03566023
3612.65620972,0.03644001
3614.58501709,0.03547876
3616.51382446,0.03790673
3618.44263184,0.03540538
3620.37143921,0.03416868
3622.30024658,0.03836280
3624.22905395,0.03746258
3626.15786133,0.03904212
3628.08666870,0.03372888
3630.01547607,0.03074989
3631.94428345,0.03810587
3633.87309082,0.03742280
3635.80189819,0.03795617
3637.73070557,0.03877926
3639.65951294,0.03820584
3641.58832031,0.03869490
3643.51712769,0.03825189
3645.44593506,0.03862495
3647.37474243,0.03512981
3649.30354980,0.03235576
3651.23235718,0.03274339
3653.16116455,0.03847123
3655.08997192,0.03812653
3657.01877930,0.03447564
3658.94758667,0.03937823
3660.87639404,0.03867703
3662.80520142,0.03915587
3664.73400879,0.03912909
3666.66281616,0.03877205
3668.59162354,0.03801275
3670.52043091,0.03136707
3672.44923828,0.03725145
3674.37804565,0.03607978
3676.30685303,0.03012032
3678.23566040,0.03722893
3680.16446777,0.03830410
3682.09327515,0.03816652
3684.02208252,0.03933810
3685.95088989,0.03883155
3687.87969727,0.03516892
3689.80850464,0.03247024
3691.73731201,0.03672459
3693.66611938,0.03776056
3695.59492676,0.03876375
3697.52373413,0.03870306
3699.45254150,0.03826340
3701.38134888,0.03764322
3703.31015625,0.03615626
3705.23896362,0.03941717
3707.16777100,0.03776593
3709.09657837,0.03687001
3711.02538574,0.03487007
3712.95419312,0.03272197
3714.88300049,0.03805234
3716.81180786,0.03760407
3718.74061523,0.03781984
3720.66942261,0.03715538
3722.59822998,0.03592992
3724.52703735,0.03719525
3726.45584473,0.03467528
3728.38465210,0.03739445
3730.31345947,0.03701999
3732.24226685,0.03416100
3734.17107422,0.03353257
3736.09988159,0.03195692
3738.02868896,0.03355271
3739.95749634,0.03621046
3741.88630371,0.03789686
3743.81511108,0.02999398
3745.74391846,0.02826891
3747.67272583,0.03604402
3749.60153320,0.03140306
3751.53034058,0.02896215
3753.45914795,0.03301010
3755.38795532,0.03537028
3757.31676270,0.03673223
3759.24557007,0.03426046
3761.17437744,0.03525189
3763.10318481,0.03727323
3765.03199219,0.03500888
3766.96079956,0.03575365
3768.88960693,0.03537949
3770.81841431,0.03378259
3772.74722168,0.03633081
3774.67602905,0.03640664
3776.60483643,0.03642442
3778.53364380,0.03552423
3780.46245117,0.03423112
3782.39125854,0.03625830
3784.32006592,0.03551125
3786.24887329,0.03533331
3788.17768066,0.03594358
3790.10648804,0.03581389
3792.03529541,0.03556980
3793.96410278,0.03609975
3795.89291016,0.03425321
3797.82171753,0.03377255
3799.75052490,0.03543933
3801.67933228,0.02851726
3803.60813965,0.03279107
3805.53694702,0.03563315
3807.46575439,0.02947988
3809.39456177,0.03517579
3811.32336914,0.03471253
3813.25217651,0.03571518
3815.18098389,0.03247514
3817.10979126,0.02870288
3819.03859863,0.03569190
3820.96740601,0.02943097
3822.89621338,0.03070255
3824.82502075,0.03555550
3826.75382812,0.03230215
3828.68263550,0.03445552
3830.61144287,0.03330855
3832.54025024,0.03227966
3834.46905762,0.03291129
3836.39786499,0.03138778
3838.32667236,0.02852413
3840.25547974,0.03070784
3842.18428711,0.03303956
3844.11309448,0.03154235
3846.04190186,0.03388332
3847.97070923,0.03349611
3849.89951660,0.03352720
3851.82832397,0.03037858
3853.75713135,0.02318528
3855.68593872,0.02708882
3857.61474609,0.03361508
3859.54355347,0.03276916
3861.47236084,0.03241852
3863.40116821,0.03180048
3865.32997559,0.02963132
3867.25878296,0.03280324
3869.18759033,0.03025513
3871.11639770,0.02815655
3873.04520508,0.03292247
3874.97401245,0.03044809
3876.90281982,0.03254957
3878.83162720,0.03319211
3880.76043457,0.02889815
3882.68924194,0.03272252
3884.61804932,0.03087167
3886.54685669,0.02855797
3888.47566406,0.03277700
3890.40447144,0.03127030
3892.33327881,0.02952022
3894.26208618,0.03203937
3896.19089355,0.03260151
3898.11970093,0.03111879
3900.04850830,0.02946992
3901.97731567,0.02915927
3903.90612305,0.02897379
3905.83493042,0.02936847
3907.76373779,0.03181169
3909.69254517,0.03178225
3911.62135254,0.03156219
3913.55015991,0.03202670
3915.47896728,0.03104490
3917.40777466,0.03040637
3919.33658203,0.03009745
3921.26538940,0.03106003
3923.19419678,0.03100779
3925.12300415,0.03046033
3927.05181152,0.03088420
3928.98061890,0.03112557
3930.90942627,0.03059195
3932.83823364,0.02961634
3934.76704102,0.03074026
3936.69584839,0.03095590
3938.62465576,0.03068407
3940.55346313,0.03103765
3942.48227051,0.02994312
3944.41107788,0.03016058
3946.33988525,0.03062913
3948.26869263,0.02991319
3950.19750000,0.02995547
3952.12630737,0.03044064
3954.05511475,0.03036954
3955.98392212,0.03031405
3957.91272949,0.03023762
3959.84153687,0.03017952
3961.77034424,0.02999318
3963.69915161,0.02982225
3965.62795898,0.03023608
3967.55676636,0.02992718
3969.48557373,0.02983964
3971.41438110,0.02985906
3973.34318848,0.02968475
3975.27199585,0.02972443
3977.20080322,0.02953821
3979.12961060,0.02976777
3981.05841797,0.02956129
3982.98722534,0.02957400
3984.91603271,0.02945545
3986.84484009,0.02936470
3988.77364746,0.02948589
3990.70245483,0.02907909
3992.63126221,0.02928315
3994.56006958,0.02913839
3996.48887695,0.02916633
3998.41768433,0.02907852
4000.34649170,0.02891940
4002.27529907,0.02911732
4004.20410645,0.02884849
4006.13291382,0.02892666
4008.06172119,0.02869679
4009.99052856,0.02869341
4011.91933594,0.02874022
4013.84814331,0.02863473
4015.77695068,0.02863248
4017.70575806,0.02849056
4019.63456543,0.02855454
4021.56337280,0.02835023
4023.49218018,0.02841061
4025.42098755,0.02822534
4027.34979492,0.02822194
4029.27860229,0.02827306
4031.20740967,0.02801520
4033.13621704,0.02807500
4035.06502441,0.02792120
4036.99383179,0.02801169
4038.92263916,0.02785897
4040.85144653,0.02788424
4042.78025391,0.02779314
4044.70906128,0.02756688
4046.63786865,0.02774412
4048.56667603,0.02755944
4050.49548340,0.02766855
4052.42429077,0.02757204
4054.35309814,0.02752689
4056.28190552,0.02746744
4058.21071289,0.02733439
4060.13952026,0.02742694
4062.06832764,0.02728928
4063.99713501,0.02724303
4065.92594238,0.02700463
4067.85474976,0.02706741
4069.78355713,0.02701168
4071.71236450,0.02698329
4073.64117187,0.02697602
4075.56997925,0.02675273
4077.49878662,0.02684856
4079.42759399,0.02665105
4081.35640137,0.02671225
4083.28520874,0.02660721
4085.21401611,0.02656292
4087.14282349,0.02656918
4089.07163086,0.02637313
4091.00043823,0.02649287
4092.92924561,0.02627447
4094.85805298,0.02633430
4096.78686035,0.02628892
4098.71566772,0.02621835
4100.64447510,0.02620529
4102.57328247,0.02610605
4104.50208984,0.02619261
4106.43089722,0.02590630
4108.35970459,0.02592060
4110.28851196,0.02589501
4112.21731934,0.02578397
4114.14612671,0.02572898
4116.07493408,0.02567001
4118.00374145,0.02572326
4119.93254883,0.02562734
4121.86135620,0.02562744
4123.79016357,0.02547025
4125.71897095,0.02549109
4127.64777832,0.02542551
4129.57658569,0.02535691
4131.50539307,0.02542963
4133.43420044,0.02527698
4135.36300781,0.02524481
4137.29181519,0.02516419
4139.22062256,0.02513662
4141.14942993,0.02501929
4143.07823730,0.02501901
4145.00704468,0.02495766
4146.93585205,0.02482666
4148.86465942,0.02488241
4150.79346680,0.02477329
4152.72227417,0.02476631
4154.65108154,0.02468090
4156.57988892,0.02469944
4158.50869629,0.02461998
4160.43750366,0.02452151
4162.36631103,0.02448491
4164.29511841,0.02439118
4166.22392578,0.02448844
4168.15273315,0.02428118
4170.08154053,0.02428928
4172.01034790,0.02426315
4173.93915527,0.02414651
4175.86796265,0.02414110
4177.79677002,0.02403561
4179.72557739,0.02410900
4181.65438477,0.02393394
4183.58319214,0.02388144
4185.51199951,0.02392185
4187.44080688,0.02385674
4189.36961426,0.02374722
4191.29842163,0.02373671
4193.22722900,0.02374995
4195.15603638,0.02359097
4197.08484375,0.02368139
4199.01365112,0.02359247
4200.94245850,0.02352776
4202.87126587,0.02341307
4204.80007324,0.02329694
4206.72888062,0.02334697
4208.65768799,0.02325814
4210.58649536,0.02326556
4212.51530273,0.02316285
4214.44411011,0.02324650
4216.37291748,0.02314410
4218.30172485,0.02305757
4220.23053223,0.02303912
4222.15933960,0.02281784
4224.08814697,0.02292794
4226.01695435,0.02278872
4227.94576172,0.02280197
4229.87456909,0.02284820
4231.80337646,0.02277251
4233.73218384,0.02279265
4235.66099121,0.02257765
4237.58979858,0.02253717
4239.51860596,0.02251168
4241.44741333,0.02251677
4243.37622070,0.02251362
4245.30502808,0.02244668
4247.23383545,0.02233449
4249.16264282,0.02227326
4251.09145020,0.02222873
4253.02025757,0.02214182
4254.94906494,0.02225270
4256.87787231,0.02210678
4258.80667969,0.02203035
4260.73548706,0.02204183
4262.66429443,0.02197428
4264.59310181,0.02196292
4266.52190918,0.02184508
4268.45071655,0.02178081
4270.37952393,0.02176709
4272.30833130,0.02183812
4274.23713867,0.02168060
4276.16594604,0.02162277
4278.09475342,0.02165098
4280.02356079,0.02154177
4281.95236816,0.02156696
4283.88117554,0.02152498
4285.80998291,0.02149708
4287.73879028,0.02140802
4289.66759766,0.02143189
4291.59640503,0.02132840
4293.52521240,0.02122610
4295.45401978,0.02129534
4297.38282715,0.02121362
4299.31163452,0.02114936
4301.24044189,0.02098659
4303.16924927,0.02103394
4305.09805664,0.02101457
4307.02686401,0.02100249
4308.95567139,0.02096659
4310.88447876,0.02080326
4312.81328613,0.02087930
4314.74209351,0.02073558
4316.67090088,0.02077728
4318.59970825,0.02074139
4320.52851562,0.02061219
4322.45732300,0.02060886
4324.38613037,0.02049803
4326.31493774,0.02051932
4328.24374512,0.02044845
4330.17255249,0.02042530
4332.10135986,0.02036877
4334.03016724,0.02040112
4335.95897461,0.02025216
4337.88778198,0.02015754
4339.81658936,0.02027509
4341.74539673,0.02009414
4343.67420410,0.02012958
4345.60301147,0.02001920
4347.53181885,0.02000746
4349.46062622,0.02001318
4351.38943359,0.01990291
4353.31824097,0.01998140
4355.24704834,0.01990325
4357.17585571,0.01991444
4359.10466309,0.01971430
4361.03347046,0.01967677
4362.96227783,0.01966021
4364.89108520,0.01958441
4366.81989258,0.01965257
4368.74869995,0.01945755
4370.67750732,0.01950375
4372.60631470,0.01947740
4374.53512207,0.01939956
4376.46392944,0.01935801
4378.39273682,0.01929684
4380.32154419,0.01930307
4382.25035156,0.01922471
4384.17915894,0.01924964
4386.10796631,0.01919431
4388.03677368,0.01921304
4389.96558105,0.01916320
4391.89438843,0.01903514
4393.82319580,0.01895886
4395.75200317,0.01894018
4397.68081055,0.01895285
4399.60961792,0.01890390
4401.53842529,0.01889263
4403.46723267,0.01872299
4405.39604004,0.01876616
4407.32484741,0.01875598
4409.25365478,0.01870926
4411.18246216,0.01872209
4413.11126953,0.01854706
4415.04007690,0.01857308
4416.96888428,0.01849425
4418.89769165,0.01844406
4420.82649902,0.01842267
4422.75530640,0.01847450
4424.68411377,0.01843265
4426.61292114,0.01830626
4428.54172852,0.01835292
4430.47053589,0.01816208
4432.39934326,0.01824578
4434.32815063,0.01818971
4436.25695801,0.01805146
4438.18576538,0.01807274
4440.11457275,0.01791446
4442.04338013,0.01798634
4443.97218750,0.01796609
4445.90099487,0.01791963
4447.82980225,0.01788394
4449.75860962,0.01787849
4451.68741699,0.01778908
4453.61622437,0.01769118
4455.54503174,0.01775995
4457.47383911,0.01769981
4459.40264648,0.01768666
4461.33145386,0.01754068
4463.26026123,0.01753234
4465.18906860,0.01750038
4467.11787598,0.01749323
4469.04668335,0.01756451
4470.97549072,0.01734626
4472.90429810,0.01737197
4474.83310547,0.01731285
4476.76191284,0.01724473
4478.69072021,0.01720588
4480.61952759,0.01717902
4482.54833496,0.01725290
4484.47714233,0.01711795
4486.40594971,0.01711022
4488.33475708,0.01709136
4490.26356445,0.01708598
4492.19237183,0.01698839
4494.12117920,0.01690077
4496.04998657,0.01692304
4497.97879395,0.01685480
4499.90760132,0.01685012
4501.83640869,0.01672423
4503.76521606,0.01672915
4505.69402344,0.01677662
4507.62283081,0.01669073
4509.55163818,0.01662927
4511.48044556,0.01665140
4513.40925293,0.01664667
4515.33806030,0.01654572
4517.26686768,0.01647678
4519.19567505,0.01645823
4521.12448242,0.01658845
4523.05328979,0.01637760
4524.98209717,0.01622926
4526.91090454,0.01631654
4528.83971191,0.01626869
4530.76851929,0.01629841
4532.69732666,0.01610073
4534.62613403,0.01608745
4536.55494141,0.01611679
4538.48374878,0.01606370
4540.41255615,0.01609387
4542.34136353,0.01600515
4544.27017090,0.01601242
4546.19897827,0.01595379
4548.12778564,0.01595206
4550.05659302,0.01586101
4551.98540039,0.01581587
4553.91420776,0.01583593
4555.84301514,0.01576074
4557.77182251,0.01577368
4559.70062988,0.01563999
4561.62943726,0.01566401
4563.55824463,0.01562488
4565.48705200,0.01554360
4567.41585937,0.01560363
4569.34466675,0.01547582
4571.27347412,0.01545369
4573.20228149,0.01546650
4575.13108887,0.01535573
4577.05989624,0.01533614
4578.98870361,0.01536885
4580.91751099,0.01532088
4582.84631836,0.01529509
4584.77512573,0.01514718
4586.70393311,0.01513548
4588.63274048,0.01518466
4590.56154785,0.01504880
4592.49035522,0.01512628
4594.41916260,0.01504257
4596.34796997,0.01504060
4598.27677734,0.01504040
4600.20558472,0.01489185
4602.13439209,0.01494779
4604.06319946,0.01482305
4605.99200684,0.01487815
4607.92081421,0.01495023
4609.84962158,0.01477466
4611.77842895,0.01472129
4613.70723633,0.01480354
4615.63604370,0.01474272
4617.56485107,0.01459529
4619.49365845,0.01461345
4621.42246582,0.01453419
4623.35127319,0.01458934
4625.28008057,0.01457950
4627.20888794,0.01443199
4629.13769531,0.01444463
4631.06650269,0.01444410
4632.99531006,0.01441710
4634.92411743,0.01430922
4636.85292480,0.01428480
4638.78173218,0.01426046
4640.71053955,0.01427431
4642.63934692,0.01422481
4644.56815430,0.01416189
4646.49696167,0.01419560
4648.42576904,0.01411714
4650.35457642,0.01414610
4652.28338379,0.01405423
4654.21219116,0.01399370
4656.14099853,0.01393089
4658.06980591,0.01391640
4659.99861328,0.01402363
4661.92742065,0.01390041
4663.85622803,0.01388409
4665.78503540,0.01378824
4667.71384277,0.01375433
4669.64265015,0.01376355
4671.57145752,0.01371874
4673.50026489,0.01374755
4675.42907227,0.01368185
4677.35787964,0.01368498
4679.28668701,0.01353696
4681.21549438,0.01355142
4683.14430176,0.01360415
4685.07310913,0.01347902
4687.00191650,0.01348131
4688.93072388,0.01345517
4690.85953125,0.01339544
4692.78833862,0.01337312
4694.71714600,0.01346152
4696.64595337,0.01339463
4698.57476074,0.01336722
4700.50356812,0.01328146
4702.43237549,0.01317991
4704.36118286,0.01327227
4706.28999023,0.01315999
4708.21879761,0.01317553
4710.14760498,0.01312869
4712.07641235,0.01316140
4714.00521973,0.01315058
4715.93402710,0.01295105
4717.86283447,0.01303858
4719.79164185,0.01298537
4721.72044922,0.01301559
4723.64925659,0.01296342
4725.57806396,0.01283663
4727.50687134,0.01289473
4729.43567871,0.01284000
4731.36448608,0.01281508
4733.29329346,0.01279644
4735.22210083,0.01280335
4737.15090820,0.01267409
4739.07971558,0.01266527
4741.00852295,0.01270711
4742.93733032,0.01260019
4744.86613770,0.01264703
4746.79494507,0.01260759
4748.72375244,0.01257789
4750.65255981,0.01254880
4752.58136719,0.01252527
4754.51017456,0.01250791
4756.43898193,0.01242961
4758.36778931,0.01247385
4760.29659668,0.01243200
4762.22540405,0.01234206
4764.15421143,0.01235595
4766.08301880,0.01229081
4768.01182617,0.01217848
4769.94063354,0.01227975
4771.86944092,0.01229520
4773.79824829,0.01220267
4775.72705566,0.01224754
4777.65586304,0.01215744
4779.58467041,0.01208344
4781.51347778,0.01212432
4783.44228516,0.01208986
4785.37109253,0.01201093
4787.29989990,0.01199276
4789.22870728,0.01193746
4791.15751465,0.01188407
4793.08632202,0.01188814
4795.01512939,0.01189717
4796.94393677,0.01195047
4798.87274414,0.01186936
4800.80155151,0.01186360
4802.73035889,0.01179741
4804.65916626,0.01169301
4806.58797363,0.01179543
4808.51678101,0.01172782
4810.44558838,0.01171619
4812.37439575,0.01171341
4814.30320312,0.01166192
4816.23201050,0.01164416
4818.16081787,0.01151400
4820.08962524,0.01150273
4822.01843262,0.01153535
4823.94723999,0.01154595
4825.87604736,0.01150997
4827.80485474,0.01143889
4829.73366211,0.01145149
4831.66246948,0.01138644
4833.59127686,0.01128201
4835.52008423,0.01135234
4837.44889160,0.01133548
4839.37769897,0.01125995
4841.30650635,0.01127678
4843.23531372,0.01118806
4845.16412109,0.01116231
4847.09292847,0.01107084
4849.02173584,0.01112510
4850.95054321,0.01118187
4852.87935059,0.01101823
4854.80815796,0.01110432
4856.73696533,0.01102399
4858.66577270,0.01099214
4860.59458008,0.01101193
4862.52338745,0.01092037
4864.45219482,0.01097005
4866.38100220,0.01086306
4868.30980957,0.01088065
4870.23861694,0.01087924
4872.16742432,0.01080639
4874.09623169,0.01082174
4876.02503906,0.01081707
4877.95384644,0.01077847
4879.88265381,0.01069703
4881.81146118,0.01071677
4883.74026855,0.01063877
4885.66907593,0.01066694
4887.59788330,0.01068993
4889.52669067,0.01056652
4891.45549805,0.01055841
4893.38430542,0.01058663
4895.31311279,0.01059066
4897.24192017,0.01045902
4899.17072754,0.01043906
4901.09953491,0.01044048
4903.02834228,0.01045109
4904.95714966,0.01047985
4906.88595703,0.01040091
4908.81476440,0.01040589
4910.74357178,0.01030962
4912.67237915,0.01030102
4914.60118652,0.01028993
4916.52999390,0.01025525
4918.45880127,0.01028135
4920.38760864,0.01018085
4922.31641602,0.01019171
4924.24522339,0.01014893
4926.17403076,0.01015997
4928.10283813,0.01019045
4930.03164551,0.01009079
4931.96045288,0.01007958
4933.88926025,0.00998378
4935.81806763,0.00997360
4937.74687500,0.01006896
4939.67568237,0.01002347
4941.60448975,0.00999780
4943.53329712,0.00992808
4945.46210449,0.00985011
4947.39091187,0.00994589
4949.31971924,0.00989303
4951.24852661,0.00979495
4953.17733398,0.00981611
4955.10614136,0.00979080
4957.03494873,0.00978934
4958.96375610,0.00972886
4960.89256348,0.00976043
4962.82137085,0.00974466
4964.75017822,0.00964656
4966.67898560,0.00967643
4968.60779297,0.00958977
4970.53660034,0.00958089
4972.46540771,0.00963552
4974.39421509,0.00959256
4976.32302246,0.00955394
4978.25182983,0.00951267
4980.18063721,0.00953649
4982.10944458,0.00952602
4984.03825195,0.00939156
4985.96705933,0.00937812
4987.89586670,0.00943513
4989.82467407,0.00934172
4991.75348145,0.00935954
4993.68228882,0.00932481
4995.61109619,0.00923736
4997.53990356,0.00927498
4999.46871094,0.00923668
5001.39751831,0.00922504
5003.32632568,0.00915740
5005.25513306,0.00915029
5007.18394043,0.00916986
5009.11274780,0.00916864
5011.04155518,0.00916056
5012.97036255,0.00905483
5014.89916992,0.00908220
5016.82797729,0.00901973
5018.75678467,0.00901217
5020.68559204,0.00900742
5022.61439941,0.00895423
5024.54320679,0.00901165
5026.47201416,0.00890901
5028.40082153,0.00895043
5030.32962891,0.00889039
5032.25843628,0.00878508
5034.18724365,0.00887063
5036.11605103,0.00877331
5038.04485840,0.00871519
5039.97366577,0.00870596
5041.90247314,0.00873853
5043.83128052,0.00879518
5045.76008789,0.00877477
5047.68889526,0.00871012
5049.61770264,0.00863628
5051.54651001,0.00867657
5053.47531738,0.00863789
5055.40412476,0.00861531
5057.33293213,0.00868401
5059.26173950,0.00857343
5061.19054687,0.00851797
5063.11935425,0.00855722
5065.04816162,0.00846381
5066.97696899,0.00849378
5068.90577637,0.00852357
5070.83458374,0.00850340
5072.76339111,0.00855309
5074.69219849,0.00836982
5076.62100586,0.00835241
5078.54981323,0.00846111
5080.47862061,0.00833173
5082.40742798,0.00835868
5084.33623535,0.00840045
5086.26504272,0.00833617
5088.19385010,0.00832257
5090.12265747,0.00824773
5092.05146484,0.00823590
5093.98027222,0.00829301
5095.90907959,0.00818047
5097.83788696,0.00817311
5099.76669434,0.00826168
5101.69550171,0.00812841
5103.62430908,0.00813890
5105.55311645,0.00818670
5107.48192383,0.00807378
5109.41073120,0.00806861
5111.33953857,0.00805620
5113.26834595,0.00809348
5115.19715332,0.00808222
5117.12596069,0.00792951
5119.05476807,0.00798191
5120.98357544,0.00792922
5122.91238281,0.00781010
5124.84119019,0.00793879
5126.76999756,0.00787870
5128.69880493,0.00781790
5130.62761230,0.00783841
5132.55641968,0.00780105
5134.48522705,0.00782163
5136.41403442,0.00777177
5138.34284180,0.00781008
5140.27164917,0.00775931
5142.20045654,0.00772094
5144.12926392,0.00778566
5146.05807129,0.00771150
5147.98687866,0.00768459
5149.91568603,0.00765676
5151.84449341,0.00768431
5153.77330078,0.00757296
5155.70210815,0.00752630
5157.63091553,0.00765750
5159.55972290,0.00755523
5161.48853027,0.00760169
5163.41733765,0.00756271
5165.34614502,0.00743425
5167.27495239,0.00755039
5169.20375977,0.00752383
5171.13256714,0.00744256
5173.06137451,0.00743413
5174.99018188,0.00743027
5176.91898926,0.00742523
5178.84779663,0.00741862
5180.77660400,0.00744038
5182.70541138,0.00739133
5184.63421875,0.00725159
5186.56302612,0.00722918
5188.49183350,0.00729768
5190.42064087,0.00727939
5192.34944824,0.00725274
5194.27825562,0.00727226
5196.20706299,0.00728024
5198.13587036,0.00720393
5200.06467773,0.00718797
5201.99348511,0.00726178
5203.92229248,0.00727571
5205.85109985,0.00709637
5207.77990723,0.00690840
5209.70871460,0.00704492
5211.63752197,0.00712204
5213.56632935,0.00714412
5215.49513672,0.00717093
5217.42394409,0.00702929
5219.35275146,0.00700431
5221.28155884,0.00702761
5223.21036621,0.00703354
5225.13917358,0.00692192
5227.06798096,0.00685036
5228.99678833,0.00696981
5230.92559570,0.00691490
5232.85440308,0.00685354
5234.78321045,0.00693835
5236.71201782,0.00691044
5238.64082520,0.00684790
5240.56963257,0.00692054
5242.49843994,0.00685619
5244.42724731,0.00675611
5246.35605469,0.00681026
5248.28486206,0.00671878
5250.21366943,0.00667400
5252.14247681,0.00677404
5254.07128418,0.00669667
5256.00009155,0.00663305
5257.92889893,0.00675947
5259.85770630,0.00671883
5261.78651367,0.00662616
5263.71532104,0.00660938
5265.64412842,0.00653660
5267.57293579,0.00661482
5269.50174316,0.00665407
5271.43055054,0.00662129
5273.35935791,0.00659809
5275.28816528,0.00656692
5277.21697266,0.00660388
5279.14578003,0.00655674
5281.07458740,0.00655289
5283.00339478,0.00652699
5284.93220215,0.00646790
5286.86100952,0.00653769
5288.78981689,0.00648772
5290.71862427,0.00639722
5292.64743164,0.00648837
5294.57623901,0.00651032
5296.50504639,0.00641040
5298.43385376,0.00638162
5300.36266113,0.00639021
5302.29146851,0.00643920
5304.22027588,0.00645693
5306.14908325,0.00636903
5308.07789062,0.00620916
5310.00669800,0.00625630
5311.93550537,0.00638136
5313.86431274,0.00627282
5315.79312012,0.00628845
5317.72192749,0.00626692
5319.65073486,0.00625096
5321.57954224,0.00626446
5323.50834961,0.00620526
5325.43715698,0.00623072
5327.36596436,0.00602840
5329.29477173,0.00609282
5331.22357910,0.00621901
5333.15238647,0.00602296
5335.08119385,0.00608222
5337.01000122,0.00605296
5338.93880859,0.00584592
5340.86761597,0.00598133
5342.79642334,0.00610139
5344.72523071,0.00587061
5346.65403809,0.00594948
5348.58284546,0.00604926
5350.51165283,0.00598383
5352.44046020,0.00597138
5354.36926758,0.00575563
5356.29807495,0.00590758
5358.22688232,0.00602519
5360.15568970,0.00594530
5362.08449707,0.00592649
5364.01330444,0.00581954
5365.94211182,0.00588611
5367.87091919,0.00582954
5369.79972656,0.00583139
5371.72853394,0.00583290
5373.65734131,0.00582002
5375.58614868,0.00578939
5377.51495605,0.00561065
5379.44376343,0.00574101
5381.37257080,0.00578866
5383.30137817,0.00575779
5385.23018555,0.00568154
5387.15899292,0.00557660
5389.08780029,0.00570313
5391.01660767,0.00566169
5392.94541504,0.00550476
5394.87422241,0.00550435
5396.80302978,0.00564802
5398.73183716,0.00566446
5400.66064453,0.00565532
5402.58945190,0.00564187
5404.51825928,0.00557726
5406.44706665,0.00562078
5408.37587402,0.00553764
5410.30468140,0.00547448
5412.23348877,0.00541150
5414.16229614,0.00534745
5416.09110352,0.00544642
5418.01991089,0.00550607
5419.94871826,0.00547859
5421.87752563,0.00545019
5423.80633301,0.00546843
5425.73514038,0.00547201
5427.66394775,0.00540519
5429.59275513,0.00528277
5431.52156250,0.00538907
5433.45036987,0.00542515
5435.37917725,0.00525415
5437.30798462,0.00543357
5439.23679199,0.00543624
5441.16559936,0.00523629
5443.09440674,0.00534628
5445.02321411,0.00525204
5446.95202148,0.00517418
5448.88082886,0.00533539
5450.80963623,0.00520634
5452.73844360,0.00526026
5454.66725098,0.00531636
5456.59605835,0.00515984
5458.52486572,0.00528533
5460.45367310,0.00510896
5462.38248047,0.00506660
5464.31128784,0.00517820
5466.24009521,0.00505154
5468.16890259,0.00517533
5470.09770996,0.00516330
5472.02651733,0.00521844
5473.95532471,0.00517727
5475.88413208,0.00495890
5477.81293945,0.00499514
5479.74174683,0.00504469
5481.67055420,0.00514097
5483.59936157,0.00510658
5485.52816895,0.00503710
5487.45697632,0.00494907
5489.38578369,0.00491805
5491.31459106,0.00500777
5493.24339844,0.00491123
5495.17220581,0.00490912
5497.10101318,0.00496539
5499.02982056,0.00496357
5500.95862793,0.00498494
5502.88743530,0.00497454
5504.81624268,0.00490481
5506.74505005,0.00487208
5508.67385742,0.00489343
5510.60266479,0.00491038
5512.53147217,0.00493334
5514.46027954,0.00488761
5516.38908691,0.00488627
5518.31789429,0.00479943
5520.24670166,0.00478875
5522.17550903,0.00487453
5524.10431641,0.00483317
5526.03312378,0.00485598
5527.96193115,0.00477359
5529.89073853,0.00474455
5531.81954590,0.00479876
5533.74835327,0.00476150
5535.67716064,0.00469978
5537.60596802,0.00466129
5539.53477539,0.00469297
5541.46358276,0.00470270
5543.39239014,0.00469857
5545.32119751,0.00460653
5547.25000488,0.00465671
5549.17881226,0.00471646
5551.10761963,0.00462232
5553.03642700,0.00462322
5554.96523437,0.00464497
5556.89404175,0.00469959
5558.82284912,0.00467389
5560.75165649,0.00461757
5562.68046387,0.00456544
5564.60927124,0.00461614
5566.53807861,0.00460699
5568.46688599,0.00450114
5570.39569336,0.00460166
5572.32450073,0.00451221
5574.25330811,0.00449723
5576.18211548,0.00452654
5578.11092285,0.00445471
5580.03973022,0.00448845
5581.96853760,0.00440963
5583.89734497,0.00446961
5585.82615234,0.00450703
5587.75495972,0.00446492
5589.68376709,0.00441764
5591.61257446,0.00440305
5593.54138184,0.00443765
5595.47018921,0.00435370
5597.39899658,0.00436921
5599.32780395,0.00435270
5601.25661133,0.00442004
5603.18541870,0.00446038
5605.11422607,0.00432124
5607.04303345,0.00435408
5608.97184082,0.00439506
5610.90064819,0.00434057
5612.82945557,0.00430379
5614.75826294,0.00432896
5616.68707031,0.00427844
5618.61587769,0.00424258
5620.54468506,0.00430043
5622.47349243,0.00430987
5624.40229980,0.00430761
5626.33110718,0.00425091
5628.25991455,0.00420266
5630.18872192,0.00419603
5632.11752930,0.00422446
5634.04633667,0.00424975
5635.97514404,0.00424578
5637.90395142,0.00421729
5639.83275879,0.00414515
5641.76156616,0.00412078
5643.69037353,0.00415175
5645.61918091,0.00411639
5647.54798828,0.00405002
5649.47679565,0.00410814
5651.40560303,0.00407476
5653.33441040,0.00408216
5655.26321777,0.00413106
5657.19202515,0.00402686
5659.12083252,0.00405323
5661.04963989,0.00405593
5662.97844727,0.00403868
5664.90725464,0.00402188
5666.83606201,0.00397095
5668.76486938,0.00395596
5670.69367676,0.00398909
5672.62248413,0.00404199
5674.55129150,0.00395802
5676.48009888,0.00397883
5678.40890625,0.00395960
5680.33771362,0.00394635
5682.26652100,0.00399285
5684.19532837,0.00394061
5686.12413574,0.00390324
5688.05294311,0.00383079
5689.98175049,0.00391528
5691.91055786,0.00389183
5693.83936523,0.00387495
5695.76817261,0.00389168
5697.69697998,0.00378887
5699.62578735,0.00383831
5701.55459473,0.00381609
5703.48340210,0.00384612
5705.41220947,0.00376257
5707.34101685,0.00373529
5709.26982422,0.00379728
5711.19863159,0.00372633
5713.12743896,0.00377098
5715.05624634,0.00365972
5716.98505371,0.00368777
5718.91386108,0.00372674
5720.84266846,0.00373242
5722.77147583,0.00377739
5724.70028320,0.00365166
5726.62909058,0.00373689
5728.55789795,0.00374312
5730.48670532,0.00369964
5732.41551270,0.00365089
5734.34432007,0.00364542
5736.27312744,0.00369071
5738.20193481,0.00358283
5740.13074219,0.00368009
5742.05954956,0.00363013
5743.98835693,0.00355967
5745.91716431,0.00365208
5747.84597168,0.00358660
5749.77477905,0.00357523
5751.70358643,0.00357292
5753.63239380,0.00361701
5755.56120117,0.00363840
5757.49000854,0.00355377
5759.41881592,0.00353417
5761.34762329,0.00352396
5763.27643066,0.00355550
5765.20523804,0.00355158
5767.13404541,0.00345828
5769.06285278,0.00344773
5770.99166016,0.00340545
5772.92046753,0.00341962
5774.84927490,0.00349501
5776.77808228,0.00345026
5778.70688965,0.00345530
5780.63569702,0.00339864
5782.56450439,0.00340050
5784.49331177,0.00341083
5786.42211914,0.00333346
5788.35092651,0.00338624
5790.27973389,0.00338080
5792.20854126,0.00340607
5794.13734863,0.00338969
5796.06615601,0.00338252
5797.99496338,0.00336539
5799.92377075,0.00332113
5801.85257812,0.00338699
5803.78138550,0.00324709
5805.71019287,0.00328306
5807.63900024,0.00334993
5809.56780762,0.00327567
5811.49661499,0.00329769
5813.42542236,0.00322226
5815.35422974,0.00325693
5817.28303711,0.00325548
5819.21184448,0.00324875
5821.14065186,0.00327521
5823.06945923,0.00323874
5824.99826660,0.00324471
5826.92707397,0.00321731
5828.85588135,0.00321005
5830.78468872,0.00317953
5832.71349609,0.00320443
5834.64230347,0.00316159
5836.57111084,0.00313899
5838.49991821,0.00318906
5840.42872559,0.00309892
5842.35753296,0.00310366
5844.28634033,0.00314376
5846.21514770,0.00315301
5848.14395508,0.00309788
5850.07276245,0.00307290
5852.00156982,0.00310583
5853.93037720,0.00304394
5855.85918457,0.00308160
5857.78799194,0.00309062
5859.71679932,0.00304165
5861.64560669,0.00304255
5863.57441406,0.00301332
5865.50322144,0.00294850
5867.43202881,0.00295040
5869.36083618,0.00304111
5871.28964355,0.00300318
5873.21845093,0.00299908
5875.14725830,0.00305261
5877.07606567,0.00298671
5879.00487305,0.00301447
5880.93368042,0.00302775
5882.86248779,0.00297765
5884.79129517,0.00297830
5886.72010254,0.00291168
5888.64890991,0.00296247
5890.57771728,0.00297937
5892.50652466,0.00289363
5894.43533203,0.00297303
5896.36413940,0.00293361
5898.29294678,0.00290764
5900.22175415,0.00297791
5902.15056152,0.00289484
5904.07936890,0.00286490
5906.00817627,0.00292672
5907.93698364,0.00286345
5909.86579102,0.00279644
5911.79459839,0.00288013
5913.72340576,0.00285914
5915.65221313,0.00287530
5917.58102051,0.00285297
5919.50982788,0.00275803
5921.43863525,0.00284405
5923.36744263,0.00278946
5925.29625000,0.00280354
5927.22505737,0.00283143
5929.15386475,0.00276037
5931.08267212,0.00277646
5933.01147949,0.00273888
5934.94028686,0.00276961
5936.86909424,0.00274447
5938.79790161,0.00274092
5940.72670898,0.00282389
5942.65551636,0.00281263
5944.58432373,0.00273466
5946.51313110,0.00274401
5948.44193848,0.00276222
5950.37074585,0.00267732
5952.29955322,0.00271091
5954.22836060,0.00266433
5956.15716797,0.00268813
5958.08597534,0.00270247
5960.01478271,0.00263780
5961.94359009,0.00277584
5963.87239746,0.00271044
5965.80120483,0.00265885
5967.73001221,0.00268309
5969.65881958,0.00263994
5971.58762695,0.00260171
5973.51643433,0.00255824
5975.44524170,0.00262362
5977.37404907,0.00261690
5979.30285645,0.00259686
5981.23166382,0.00256235
5983.16047119,0.00254254
5985.08927856,0.00257936
5987.01808594,0.00260028
5988.94689331,0.00257050
5990.87570068,0.00259332
5992.80450806,0.00260109
5994.73331543,0.00248579
5996.66212280,0.00258937
5998.59093018,0.00249826
6000.51973755,0.00249907
