399.26312622,0.00101256
401.19193359,0.00093033
403.12074097,0.00159625
405.04954834,0.00174688
406.97835571,0.00102361
408.90716309,0.00128843
410.83597046,0.00138041
412.76477783,0.00146129
414.69358521,0.00144736
416.62239258,0.00153468
418.55119995,0.00151626
420.48000732,0.00165213
422.40881470,0.00203287
424.33762207,0.00121403
426.26642944,0.00150205
428.19523682,0.00217558
430.12404419,0.00184973
432.05285156,0.00223835
433.98165894,0.00198089
435.91046631,0.00169283
437.83927368,0.00167432
439.76808105,0.00099796
441.69688843,0.00125690
443.62569580,0.00153145
445.55450317,0.00101333
447.48331055,0.00098441
449.41211792,0.00148382
451.34092529,0.00145254
453.26973267,0.00099837
455.19854004,0.00127952
457.12734741,0.00103764
459.05615479,0.00065184
460.98496216,0.00123629
462.91376953,0.00072933
464.84257690,0.00033847
466.77138428,0.00097980
468.70019165,0.00060935
470.62899902,0.00066800
472.55780640,0.00124821
474.48661377,0.00111139
476.41542114,0.00065817
478.34422852,0.00005070
480.27303589,0.00029228
482.20184326,0.00049458
484.13065063,0.00046388
486.05945801,0.00058288
487.98826538,0.00059612
489.91707275,0.00104666
491.84588013,0.00076896
493.77468750,0.00023003
495.70349487,0.00026424
497.63230225,0.00064267
499.56110962,0.00047290
501.48991699,0.00029674
503.41872437,0.00080270
505.34753174,0.00071781
507.27633911,0.00086479
509.20514648,0.00071373
511.13395386,0.00069201
513.06276123,0.00097459
514.99156860,0.00066460
516.92037598,0.00070171
518.84918335,0.00072102
520.77799072,0.00076604
522.70679810,0.00040767
524.63560547,0.00038247
526.56441284,0.00048568
528.49322021,0.00052034
530.42202759,0.00091405
532.35083496,0.00050999
534.27964233,0.00057815
536.20844971,0.00056401
538.13725708,0.00043042
540.06606445,0.00066059
541.99487183,0.00048432
543.92367920,0.00065553
545.85248657,0.00065065
547.78129395,0.00050477
549.71010132,0.00060137
551.63890869,0.00054259
553.56771606,0.00042458
555.49652344,0.00078801
557.42533081,0.00071683
559.35413818,0.00033823
561.28294556,0.00060239
563.21175293,0.00029963
565.14056030,0.00009732
567.06936768,0.00022300
568.99817505,0.00063729
570.92698242,0.00090590
572.85578979,0.00042846
574.78459717,0.00058106
576.71340454,0.00055404
578.64221191,0.00059968
580.57101929,0.00071869
582.49982666,0.00039693
584.42863403,0.00060876
586.35744141,0.00033638
588.28624878,0.00008359
590.21505615,0.00067259
592.14386353,0.00073708
594.07267090,0.00060791
596.00147827,0.00071321
597.93028564,0.00061078
599.85909302,0.00052534
601.78790039,0.00002494
603.71670776,0.00023990
605.64551514,0.00072713
607.57432251,0.00025907
609.50312988,0.00043298
611.43193726,0.00047828
613.36074463,0.00024775
615.28955200,0.00000596
617.21835938,-0.00013243
619.14716675,0.00022878
621.07597412,0.00045300
623.00478149,0.00031008
624.93358887,-0.00005000
626.86239624,0.00006605
628.79120361,0.00045413
630.72001099,0.00028357
632.64881836,0.00063416
634.57762573,0.00129603
636.50643311,0.00130373
638.43524048,0.00129733
640.36404785,0.00113887
642.29285522,0.00145965
644.22166260,0.00182007
646.15046997,0.00209317
648.07927734,0.00226928
650.00808472,0.00206163
651.93689209,0.00261126
653.86569946,0.00248870
655.79450684,0.00239373
657.72331421,0.00286657
659.65212158,0.00274610
661.58092896,0.00286693
663.50973633,0.00322752
665.43854370,0.00330591
667.36735107,0.00261282
669.29615845,0.00288366
671.22496582,0.00339012
673.15377319,0.00332954
675.08258057,0.00377130
677.01138794,0.00340395
678.94019531,0.00378622
680.86900269,0.00416301
682.79781006,0.00374370
684.72661743,0.00421483
686.65542480,0.00412898
688.58423218,0.00385058
690.51303955,0.00407723
692.44184692,0.00436733
694.37065430,0.00478665
696.29946167,0.00540590
698.22826904,0.00624054
700.15707642,0.00656817
702.08588379,0.00651245
704.01469116,0.00625241
705.94349854,0.00531822
707.87230591,0.00446203
709.80111328,0.00369004
711.72992065,0.00247659
713.65872803,0.00160250
715.58753540,0.00090580
717.51634277,0.00064068
719.44515015,0.00056924
721.37395752,0.00021826
723.30276489,0.00009141
725.23157227,0.00001182
727.16037964,0.00029042
729.08918701,0.00019570
731.01799438,0.00014853
732.94680176,0.00027432
734.87560913,0.00023869
736.80441650,0.00046906
738.73322388,0.00045346
740.66203125,0.00022582
742.59083862,0.00032674
744.51964600,0.00054290
746.44845337,0.00037388
748.37726074,0.00036647
750.30606812,0.00024575
752.23487549,0.00032090
754.16368286,0.00026852
756.09249023,0.00017326
758.02129761,0.00036817
759.95010498,0.00050945
761.87891235,0.00061921
763.80771973,0.00031672
765.73652710,0.00035535
767.66533447,0.00034825
769.59414185,0.00020268
771.52294922,0.00046912
773.45175659,0.00050736
775.38056396,0.00059679
777.30937134,0.00007623
779.23817871,-0.00004218
781.16698608,0.00053396
783.09579346,0.00029909
785.02460083,0.00032168
786.95340820,0.00042629
788.88221558,0.00024878
790.81102295,0.00030784
792.73983032,0.00043997
794.66863770,0.00047315
796.59744507,0.00023185
798.52625244,0.00062848
800.45505981,0.00099200
802.38386719,0.00087582
804.31267456,0.00070780
806.24148193,0.00040407
808.17028931,0.00065980
810.09909668,0.00044774
812.02790405,0.00026404
813.95671143,0.00059383
815.88551880,0.00025380
817.81432617,0.00010199
819.74313354,0.00039189
821.67194092,0.00053985
823.60074829,0.00049597
825.52955566,0.00048522
827.45836304,0.00049195
829.38717041,0.00074712
831.31597778,0.00109413
833.24478516,0.00122466
835.17359253,0.00147238
837.10239990,0.00157542
839.03120728,0.00177680
840.96001465,0.00162285
842.88882202,0.00127973
844.81762939,0.00122705
846.74643677,0.00104581
848.67524414,0.00109818
850.60405151,0.00109434
852.53285889,0.00129836
854.46166626,0.00103569
856.39047363,0.00057312
858.31928101,0.00090004
860.24808838,0.00068292
862.17689575,0.00054723
864.10570313,0.00052562
866.03451050,0.00035132
867.96331787,0.00045116
869.89212524,0.00025775
871.82093262,0.00037732
873.74973999,0.00051560
875.67854736,0.00060116
877.60735474,0.00049351
879.53616211,0.00014805
881.46496948,0.00033311
883.39377686,0.00037692
885.32258423,0.00059174
887.25139160,0.00048767
889.18019897,0.00013545
891.10900635,0.00055483
893.03781372,0.00043379
894.96662109,0.00023888
896.89542847,0.00042530
898.82423584,0.00041224
900.75304321,0.00060446
902.68185059,0.00054360
904.61065796,0.00047073
906.53946533,0.00060169
908.46827271,0.00054721
910.39708008,0.00086538
912.32588745,0.00089232
914.25469482,0.00088795
916.18350220,0.00123247
918.11230957,0.00104631
920.04111694,0.00121264
921.96992432,0.00139696
923.89873169,0.00140586
925.82753906,0.00159900
927.75634644,0.00161145
929.68515381,0.00193245
931.61396118,0.00198774
933.54276855,0.00201085
935.47157593,0.00216557
937.40038330,0.00224620
939.32919067,0.00270519
941.25799805,0.00278531
943.18680542,0.00291517
945.11561279,0.00309282
947.04442017,0.00283095
948.97322754,0.00273846
950.90203491,0.00270945
952.83084229,0.00289575
954.75964966,0.00270178
956.68845703,0.00236750
958.61726440,0.00268676
960.54607178,0.00284921
962.47487915,0.00285592
964.40368652,0.00265205
966.33249390,0.00281144
968.26130127,0.00309252
970.19010864,0.00274623
972.11891602,0.00323815
974.04772339,0.00375079
975.97653076,0.00370849
977.90533813,0.00398120
979.83414551,0.00422808
981.76295288,0.00481134
983.69176025,0.00533450
985.62056763,0.00558410
987.54937500,0.00632941
989.47818237,0.00724798
991.40698975,0.00776756
993.33579712,0.00862650
995.26460449,0.00981948
997.19341187,0.01051206
999.12221924,0.01126225
1001.05102661,0.01204171
1002.97983398,0.01303035
1004.90864136,0.01406261
1006.83744873,0.01455736
1008.76625610,0.01555619
1010.69506348,0.01669816
1012.62387085,0.01743808
1014.55267822,0.01832725
1016.48148560,0.01919874
1018.41029297,0.02015589
1020.33910034,0.02135910
1022.26790771,0.02224879
1024.19671509,0.02296650
1026.12552246,0.02379575
1028.05432983,0.02442744
1029.98313721,0.02522062
1031.91194458,0.02592036
1033.84075195,0.02647844
1035.76955933,0.02716068
1037.69836670,0.02742231
1039.62717407,0.02744326
1041.55598145,0.02731651
1043.48478882,0.02712154
1045.41359619,0.02683948
1047.34240356,0.02647562
1049.27121094,0.02628960
1051.20001831,0.02579593
1053.12882568,0.02538260
1055.05763306,0.02501993
1056.98644043,0.02414237
1058.91524780,0.02360899
1060.84405518,0.02313318
1062.77286255,0.02239112
1064.70166992,0.02174801
1066.63047729,0.02066292
1068.55928467,0.01981134
1070.48809204,0.01912295
1072.41689941,0.01808508
1074.34570679,0.01720477
1076.27451416,0.01618174
1078.20332153,0.01554109
1080.13212891,0.01511095
1082.06093628,0.01435187
1083.98974365,0.01365755
1085.91855103,0.01306446
1087.84735840,0.01249943
1089.77616577,0.01178120
1091.70497314,0.01148061
1093.63378052,0.01125506
1095.56258789,0.01062133
1097.49139526,0.01007265
1099.42020264,0.00992879
1101.34901001,0.00989215
1103.27781738,0.00948834
1105.20662476,0.00929541
1107.13543213,0.00899968
1109.06423950,0.00890985
1110.99304687,0.00895514
1112.92185425,0.00870002
1114.85066162,0.00869134
1116.77946899,0.00833517
1118.70827637,0.00847097
1120.63708374,0.00873451
1122.56589111,0.00861361
1124.49469849,0.00873924
1126.42350586,0.00891719
1128.35231323,0.00931221
1130.28112061,0.00930806
1132.20992798,0.00958912
1134.13873535,0.00981555
1136.06754272,0.01005605
1137.99635010,0.01090081
1139.92515747,0.01118978
1141.85396484,0.01192197
1143.78277222,0.01301434
1145.71157959,0.01394276
1147.64038696,0.01465610
1149.56919434,0.01529103
1151.49800171,0.01622896
1153.42680908,0.01698470
1155.35561646,0.01784168
1157.28442383,0.01850722
1159.21323120,0.01931620
1161.14203857,0.01989355
1163.07084595,0.02041906
1164.99965332,0.02159856
1166.92846069,0.02231323
1168.85726807,0.02317482
1170.78607544,0.02406150
1172.71488281,0.02474453
1174.64369019,0.02573622
1176.57249756,0.02674940
1178.50130493,0.02766079
1180.43011230,0.02862794
1182.35891968,0.03014586
1184.28772705,0.03149711
1186.21653442,0.03272281
1188.14534180,0.03426671
1190.07414917,0.03587478
1192.00295654,0.03749165
1193.93176392,0.03914014
1195.86057129,0.04108938
1197.78937866,0.04289405
1199.71818604,0.04476200
1201.64699341,0.04668972
1203.57580078,0.04854281
1205.50460815,0.05065112
1207.43341553,0.05243315
1209.36222290,0.05424821
1211.29103027,0.05620688
1213.21983765,0.05762083
1215.14864502,0.05890609
1217.07745239,0.06018266
1219.00625977,0.06115540
1220.93506714,0.06228713
1222.86387451,0.06328633
1224.79268188,0.06371944
1226.72148926,0.06407396
1228.65029663,0.06440009
1230.57910400,0.06469108
1232.50791138,0.06486372
1234.43671875,0.06491619
1236.36552612,0.06496674
1238.29433350,0.06484981
1240.22314087,0.06467091
1242.15194824,0.06446606
1244.08075562,0.06408773
1246.00956299,0.06374487
1247.93837036,0.06347141
1249.86717773,0.06284215
1251.79598511,0.06227846
1253.72479248,0.06187820
1255.65359985,0.06124217
1257.58240723,0.06037026
1259.51121460,0.05921013
1261.44002197,0.05838519
1263.36882935,0.05777076
1265.29763672,0.05700202
1267.22644409,0.05631963
1269.15525146,0.05554076
1271.08405884,0.05463325
1273.01286621,0.05372322
1274.94167358,0.05282599
1276.87048096,0.05174635
1278.79928833,0.05061369
1280.72809570,0.04962748
1282.65690308,0.04888940
1284.58571045,0.04802259
1286.51451782,0.04683666
1288.44332520,0.04604284
1290.37213257,0.04546048
1292.30093994,0.04497610
1294.22974731,0.04465375
1296.15855469,0.04436734
1298.08736206,0.04428047
1300.01616943,0.04440644
1301.94497681,0.04467694
1303.87378418,0.04488093
1305.80259155,0.04529993
1307.73139893,0.04588985
1309.66020630,0.04658178
1311.58901367,0.04727661
1313.51782104,0.04812455
1315.44662842,0.04961428
1317.37543579,0.05069332
1319.30424316,0.05188216
1321.23305054,0.05378526
1323.16185791,0.05518689
1325.09066528,0.05675277
1327.01947266,0.05857588
1328.94828003,0.05991681
1330.87708740,0.06146181
1332.80589478,0.06285684
1334.73470215,0.06380128
1336.66350952,0.06462644
1338.59231689,0.06435087
1340.52112427,0.06510168
1342.44993164,0.06752247
1344.37873901,0.06786451
1346.30754639,0.06777018
1348.23635376,0.06792238
1350.16516113,0.06739123
1352.09396851,0.06736690
1354.02277588,0.06642693
1355.95158325,0.06580378
1357.88039062,0.06561904
1359.80919800,0.06464148
1361.73800537,0.06192532
1363.66681274,0.06057611
1365.59562012,0.06352031
1367.52442749,0.06243731
1369.45323486,0.06141817
1371.38204224,0.06266597
1373.31084961,0.05955124
1375.23965698,0.05963381
1377.16846436,0.06115689
1379.09727173,0.06101402
1381.02607910,0.06100664
1382.95488647,0.06064931
1384.88369385,0.06087977
1386.81250122,0.05834965
1388.74130859,0.05886492
1390.67011597,0.06372888
1392.59892334,0.06238073
1394.52773071,0.05841076
1396.45653809,0.06114105
1398.38534546,0.06128834
1400.31415283,0.06081088
1402.24296021,0.06540366
1404.17176758,0.06214489
1406.10057495,0.06248596
1408.02938232,0.06491166
1409.95818970,0.06243863
1411.88699707,0.06368113
1413.81580444,0.06152150
1415.74461182,0.06237227
1417.67341919,0.05670851
1419.60222656,0.05086514
1421.53103394,0.05824454
1423.45984131,0.05643659
1425.38864868,0.05460048
1427.31745605,0.05542897
1429.24626343,0.05121855
1431.17507080,0.04968201
1433.10387817,0.05029791
1435.03268555,0.04623245
1436.96149292,0.03929058
1438.89030029,0.04398472
1440.81910767,0.04535902
1442.74791504,0.04194434
1444.67672241,0.04382026
1446.60552979,0.04068189
1448.53433716,0.04109469
1450.46314453,0.04234554
1452.39195190,0.04328126
1454.32075928,0.04489371
1456.24956665,0.03737579
1458.17837402,0.03874270
1460.10718140,0.05114061
1462.03598877,0.05474907
1463.96479614,0.05443502
1465.89360352,0.05670932
1467.82241089,0.06448837
1469.75121826,0.06954575
1471.68002563,0.06233687
1473.60883301,0.06536694
1475.53764038,0.07464392
1477.46644775,0.08004491
1479.39525513,0.08792737
1481.32406250,0.08952130
1483.25286987,0.09486178
1485.18167725,0.09823279
1487.11048462,0.09682964
1489.03929199,0.09683342
1490.96809937,0.09739192
1492.89690674,0.11251493
1494.82571411,0.11107668
1496.75452148,0.10009249
1498.68332886,0.11260021
1500.61213623,0.11637589
1502.54094360,0.12412199
1504.46975098,0.11906832
1506.39855835,0.08795704
1508.32736572,0.10501355
1510.25617310,0.12369414
1512.18498047,0.11942299
1514.11378784,0.12940621
1516.04259521,0.11766507
1517.97140259,0.12176434
1519.90020996,0.11872944
1521.82901733,0.10296055
1523.75782471,0.12459220
1525.68663208,0.12296949
1527.61543945,0.12192325
1529.54424683,0.13452461
1531.47305420,0.12989542
1533.40186157,0.11958428
1535.33066895,0.12550160
1537.25947632,0.13498478
1539.18828369,0.09846948
1541.11709106,0.10099573
1543.04589844,0.12144005
1544.97470581,0.11634789
1546.90351318,0.13663688
1548.83232056,0.12826110
1550.76112793,0.13127381
1552.68993530,0.13132246
1554.61874268,0.11918782
1556.54755005,0.12775750
1558.47635742,0.09223339
1560.40516479,0.09690804
1562.33397217,0.13654241
1564.26277954,0.13011463
1566.19158691,0.13293141
1568.12039429,0.13216622
1570.04920166,0.11741953
1571.97800903,0.13372928
1573.90681641,0.13660949
1575.83562378,0.10881300
1577.76443115,0.12132785
1579.69323853,0.13786474
1581.62204590,0.13144173
1583.55085327,0.13420731
1585.47966064,0.13227314
1587.40846802,0.13299942
1589.33727539,0.13188380
1591.26608276,0.13130093
1593.19489014,0.13156056
1595.12369751,0.12965526
1597.05250488,0.13120732
1598.98131226,0.13004875
1600.91011963,0.13057634
1602.83892700,0.12802818
1604.76773437,0.12949564
1606.69654175,0.12777507
1608.62534912,0.12689689
1610.55415649,0.12652364
1612.48296387,0.12665910
1614.41177124,0.12854344
1616.34057861,0.10602591
1618.26938599,0.11278487
1620.19819336,0.13086174
1622.12700073,0.11648442
1624.05580811,0.11632946
1625.98461548,0.12163167
1627.91342285,0.12091669
1629.84223022,0.11981057
1631.77103760,0.12729785
1633.69984497,0.11858084
1635.62865234,0.09804843
1637.55745972,0.11265956
1639.48626709,0.12416028
1641.41507446,0.12105615
1643.34388184,0.12411176
1645.27268921,0.11310987
1647.20149658,0.09953031
1649.13030396,0.12234119
1651.05911133,0.11807526
1652.98791870,0.07703045
1654.91672607,0.10211338
1656.84553345,0.12893832
1658.77434082,0.12333402
1660.70314819,0.12732503
1662.63195557,0.11670350
1664.56076294,0.12238411
1666.48957031,0.13214308
1668.41837769,0.11668721
1670.34718506,0.11321360
1672.27599243,0.12816770
1674.20479980,0.11962612
1676.13360718,0.11424010
1678.06241455,0.13149852
1679.99122192,0.12763903
1681.92002930,0.12659995
1683.84883667,0.10501896
1685.77764404,0.10223386
1687.70645142,0.13964255
1689.63525879,0.12299272
1691.56406616,0.13345921
1693.49287354,0.13836622
1695.42168091,0.10180372
1697.35048828,0.12390339
1699.27929565,0.11164244
1701.20810303,0.09938853
1703.13691040,0.13463032
1705.06571777,0.12498687
1706.99452515,0.12493970
1708.92333252,0.13623255
1710.85213989,0.13112050
1712.78094727,0.13356954
1714.70975464,0.12487422
1716.63856201,0.11253165
1718.56736938,0.11049846
1720.49617676,0.12992352
1722.42498413,0.13577291
1724.35379150,0.12614533
1726.28259888,0.13650733
1728.21140625,0.12699059
1730.14021362,0.12751019
1732.06902100,0.12558916
1733.99782837,0.09661293
1735.92663574,0.11761361
1737.85544312,0.13116679
1739.78425049,0.11704057
1741.71305786,0.12665211
1743.64186523,0.12897238
1745.57067261,0.12916252
1747.49947998,0.13041773
1749.42828735,0.12530455
1751.35709473,0.11999361
1753.28590210,0.13181014
1755.21470947,0.13870358
1757.14351685,0.12674303
1759.07232422,0.13834193
1761.00113159,0.13143165
1762.92993896,0.12600157
1764.85874634,0.14387631
1766.78755371,0.13064975
1768.71636108,0.13112879
1770.64516846,0.13105190
1772.57397583,0.11781231
1774.50278320,0.13061970
1776.43159058,0.13809070
1778.36039795,0.13610229
1780.28920532,0.13469699
1782.21801270,0.13555649
1784.14682007,0.13566053
1786.07562744,0.13305700
1788.00443481,0.13947204
1789.93324219,0.13674147
1791.86204956,0.12392018
1793.79085693,0.12840793
1795.71966431,0.13785626
1797.64847168,0.13617404
1799.57727905,0.13436382
1801.50608643,0.13208842
1803.43489380,0.13576801
1805.36370117,0.13896854
1807.29250854,0.13700721
1809.22131592,0.13764510
1811.15012329,0.13422544
1813.07893066,0.13795108
1815.00773804,0.13878790
1816.93654541,0.13699713
1818.86535278,0.13823795
1820.79416016,0.13751835
1822.72296753,0.13982952
1824.65177490,0.13121212
1826.58058228,0.13498878
1828.50938965,0.13602281
1830.43819702,0.12765649
1832.36700439,0.13811612
1834.29581177,0.13757482
1836.22461914,0.13720727
1838.15342651,0.13696077
1840.08223389,0.13731310
1842.01104126,0.13803098
1843.93984863,0.12313724
1845.86865601,0.13023165
1847.79746338,0.13769573
1849.72627075,0.13456817
1851.65507812,0.13844910
1853.58388550,0.13591647
1855.51269287,0.13705409
1857.44150024,0.13647670
1859.37030762,0.13543725
1861.29911499,0.13644700
1863.22792236,0.13507295
1865.15672974,0.13625681
1867.08553711,0.13222626
1869.01434448,0.12699895
1870.94315186,0.13138190
1872.87195923,0.13646856
1874.80076660,0.13426584
1876.72957397,0.13472676
1878.65838135,0.13461719
1880.58718872,0.13378128
1882.51599609,0.13490321
1884.44480347,0.13275847
1886.37361084,0.13459164
1888.30241821,0.13190991
1890.23122559,0.12930906
1892.16003296,0.13394189
1894.08884033,0.13220987
1896.01764771,0.13150060
1897.94645508,0.13284034
1899.87526245,0.13237241
1901.80406982,0.13262919
1903.73287720,0.13159651
1905.66168457,0.13228947
1907.59049194,0.13122080
1909.51929932,0.13017902
1911.44810669,0.13096607
1913.37691406,0.13116542
1915.30572144,0.13227695
1917.23452881,0.12693813
1919.16333618,0.12672111
1921.09214355,0.13152413
1923.02095093,0.12752040
1924.94975830,0.12970924
1926.87856567,0.13133536
1928.80737305,0.12950468
1930.73618042,0.13106956
1932.66498779,0.12939748
1934.59379517,0.13061136
1936.52260254,0.12978467
1938.45140991,0.12989807
1940.38021729,0.13005812
1942.30902466,0.12586755
1944.23783203,0.12806997
1946.16663940,0.12930603
1948.09544678,0.12899886
1950.02425415,0.12967360
1951.95306152,0.12916645
1953.88186890,0.12926686
1955.81067627,0.12869954
1957.73948364,0.12901793
1959.66829102,0.12869780
1961.59709839,0.12867936
1963.52590576,0.12895626
1965.45471313,0.12804677
1967.38352051,0.12703797
1969.31232788,0.12792732
1971.24113525,0.12879372
1973.16994263,0.12783661
1975.09875000,0.12843151
1977.02755737,0.12778097
1978.95636475,0.12773263
1980.88517212,0.12785634
1982.81397949,0.12703243
1984.74278687,0.12768313
1986.67159424,0.12673119
1988.60040161,0.12690660
1990.52920898,0.12590265
1992.45801636,0.12442987
1994.38682373,0.12619962
1996.31563110,0.12640332
1998.24443848,0.12568143
2000.17324585,0.12569833
2002.10205322,0.12564084
2004.03086060,0.12529358
2005.95966797,0.12509370
2007.88847534,0.12486625
2009.81728271,0.12464857
2011.74609009,0.12433422
2013.67489746,0.12410800
2015.60370483,0.12360142
2017.53251221,0.12245858
2019.46131958,0.12314689
2021.39012695,0.12324055
2023.31893433,0.12276337
2025.24774170,0.12285595
2027.17654907,0.12219364
2029.10535645,0.12225761
2031.03416382,0.12189437
2032.96297119,0.12169568
2034.89177856,0.12156457
2036.82058594,0.12111796
2038.74939331,0.12098080
2040.67820068,0.12036639
2042.60700806,0.12026388
2044.53581543,0.12019151
2046.46462280,0.11997563
2048.39343018,0.11984142
2050.32223755,0.11955297
2052.25104492,0.11928287
2054.17985229,0.11911651
2056.10865967,0.11898715
2058.03746704,0.11871061
2059.96627441,0.11852986
2061.89508179,0.11820392
2063.82388916,0.11761801
2065.75269653,0.11725777
2067.68150391,0.11757232
2069.61031128,0.11739393
2071.53911865,0.11712368
2073.46792603,0.11702927
2075.39673340,0.11659378
2077.32554077,0.11668622
2079.25434814,0.11626275
2081.18315552,0.11605467
2083.11196289,0.11603159
2085.04077026,0.11567846
2086.96957764,0.11555557
2088.89838501,0.11505279
2090.82719238,0.11491120
2092.75599976,0.11489514
2094.68480713,0.11480008
2096.61361450,0.11454222
2098.54242187,0.11440147
2100.47122925,0.11430414
2102.40003662,0.11397387
2104.32884399,0.11384398
2106.25765137,0.11345509
2108.18645874,0.11344341
2110.11526611,0.11332689
2112.04407349,0.11312247
2113.97288086,0.11291832
2115.90168823,0.11265360
2117.83049561,0.11276287
2119.75930298,0.11252879
2121.68811035,0.11241418
2123.61691772,0.11208364
2125.54572510,0.11197592
2127.47453247,0.11196502
2129.40333984,0.11165209
2131.33214722,0.11160491
2133.26095459,0.11135748
2135.18976196,0.11124776
2137.11856934,0.11108200
2139.04737671,0.11105600
2140.97618408,0.11095087
2142.90499146,0.11089085
2144.83379883,0.11078782
2146.76260620,0.11038092
2148.69141357,0.11038443
2150.62022095,0.11026384
2152.54902832,0.11031475
2154.47783569,0.11005437
2156.40664307,0.10988307
2158.33545044,0.10981484
2160.26425781,0.10948838
2162.19306519,0.10965587
2164.12187256,0.10935604
2166.05067993,0.10928105
2167.97948730,0.10924770
2169.90829468,0.10907553
2171.83710205,0.10905433
2173.76590942,0.10881384
2175.69471680,0.10874570
2177.62352417,0.10854445
2179.55233154,0.10850170
2181.48113892,0.10839088
2183.40994629,0.10838309
2185.33875366,0.10821488
2187.26756104,0.10795931
2189.19636841,0.10808123
2191.12517578,0.10798124
2193.05398315,0.10788488
2194.98279053,0.10760613
2196.91159790,0.10743914
2198.84040527,0.10738695
2200.76921265,0.10753263
2202.69802002,0.10733479
2204.62682739,0.10701534
2206.55563477,0.10716596
2208.48444214,0.10673077
2210.41324951,0.10673115
2212.34205688,0.10669016
2214.27086426,0.10646536
2216.19967163,0.10638887
2218.12847900,0.10614705
2220.05728638,0.10628800
2221.98609375,0.10610116
2223.91490112,0.10594945
2225.84370850,0.10565870
2227.77251587,0.10562487
2229.70132324,0.10563311
2231.63013062,0.10528088
2233.55893799,0.10529909
2235.48774536,0.10505909
2237.41655273,0.10501458
2239.34536011,0.10483491
2241.27416748,0.10457537
2243.20297485,0.10441564
2245.13178223,0.10433045
2247.06058960,0.10436174
2248.98939697,0.10397495
2250.91820435,0.10390072
2252.84701172,0.10378179
2254.77581909,0.10370148
2256.70462646,0.10357384
2258.63343384,0.10336491
2260.56224121,0.10333350
2262.49104858,0.10310422
2264.41985596,0.10296449
2266.34866333,0.10279557
2268.27747070,0.10286912
2270.20627808,0.10265119
2272.13508545,0.10251330
2274.06389282,0.10256873
2275.99270020,0.10228520
2277.92150757,0.10225031
2279.85031494,0.10212171
2281.77912231,0.10215460
2283.70792969,0.10202022
2285.63673706,0.10174398
2287.56554443,0.10157053
2289.49435181,0.10137203
2291.42315918,0.10122404
2293.35196655,0.10087477
2295.28077393,0.10064482
2297.20958130,0.10027835
2299.13838867,0.10006312
2301.06719604,0.09974051
2302.99600342,0.09927315
2304.92481079,0.09882760
2306.85361816,0.09806004
2308.78242554,0.09750669
2310.71123291,0.09688570
2312.64004028,0.09606043
2314.56884766,0.09500387
2316.49765503,0.09398244
2318.42646240,0.09281515
2320.35526978,0.09158713
2322.28407715,0.09040225
2324.21288452,0.08914101
2326.14169189,0.08839665
2328.07049927,0.08723123
2329.99930664,0.08613531
2331.92811401,0.08545639
2333.85692139,0.08507846
2335.78572876,0.08485124
2337.71453613,0.08455361
2339.64334351,0.08468419
2341.57215088,0.08485952
2343.50095825,0.08608907
2345.42976562,0.08766937
2347.35857300,0.09113331
2349.28738037,0.09422906
2351.21618774,0.09107855
2353.14499512,0.08663854
2355.07380249,0.08360095
2357.00260986,0.08089669
2358.93141724,0.07943048
2360.86022461,0.07856729
2362.78903198,0.07842831
2364.71783936,0.07888996
2366.64664673,0.07995066
2368.57545410,0.08136958
2370.50426147,0.08347198
2372.43306885,0.08586888
2374.36187622,0.08805766
2376.29068359,0.09034503
2378.21949097,0.09233748
2380.14829834,0.09382293
2382.07710571,0.09470055
2384.00591309,0.09548496
2385.93472046,0.09572673
2387.86352783,0.09573393
2389.79233521,0.09575942
2391.72114258,0.09562622
2393.64994995,0.09554580
2395.57875732,0.09518835
2397.50756470,0.09528632
2399.43637207,0.09515257
2401.36517944,0.09498099
2403.29398682,0.09502975
2405.22279419,0.09481550
2407.15160156,0.09477216
2409.08040894,0.09459876
2411.00921631,0.09458859
2412.93802368,0.09434260
2414.86683105,0.09429060
2416.79563843,0.09424564
2418.72444580,0.09390538
2420.65325317,0.09404217
2422.58206055,0.09382342
2424.51086792,0.09358482
2426.43967529,0.09356724
2428.36848267,0.09348617
2430.29729004,0.09331658
2432.22609741,0.09323446
2434.15490479,0.09321746
2436.08371216,0.09300089
2438.01251953,0.09291337
2439.94132690,0.09280054
2441.87013428,0.09273922
2443.79894165,0.09254780
2445.72774902,0.09249386
2447.65655640,0.09239060
2449.58536377,0.09218342
2451.51417114,0.09219772
2453.44297852,0.09202015
2455.37178589,0.09206301
2457.30059326,0.09181637
2459.22940063,0.09171885
2461.15820801,0.09169464
2463.08701538,0.09128708
2465.01582275,0.09132668
2466.94463013,0.09119903
2468.87343750,0.09109721
2470.80224487,0.09108055
2472.73105225,0.09095165
2474.65985962,0.09077366
2476.58866699,0.09063308
2478.51747437,0.09062152
2480.44628174,0.09045654
2482.37508911,0.09039730
2484.30389648,0.09018259
2486.23270386,0.09008213
2488.16151123,0.09004861
2490.09031860,0.08993521
2492.01912598,0.08988009
2493.94793335,0.08966729
2495.87674072,0.08952081
2497.80554810,0.08937409
2499.73435547,0.08937253
2501.66316284,0.08929655
2503.59197021,0.08918607
2505.52077759,0.08904652
2507.44958496,0.08894400
2509.37839233,0.08889367
2511.30719971,0.08868712
2513.23600708,0.08869418
2515.16481445,0.08838847
2517.09362183,0.08836931
2519.02242920,0.08849595
2520.95123657,0.08821767
2522.88004395,0.08817582
2524.80885132,0.08801356
2526.73765869,0.08790348
2528.66646606,0.08784162
2530.59527344,0.08781886
2532.52408081,0.08761023
2534.45288818,0.08742455
2536.38169556,0.08744022
2538.31050293,0.08721481
2540.23931030,0.08721352
2542.16811768,0.08697979
2544.09692505,0.08684400
2546.02573242,0.08690941
2547.95453979,0.08669437
2549.88334717,0.08660719
2551.81215454,0.08645585
2553.74096191,0.08642035
2555.66976929,0.08640451
2557.59857666,0.08621649
2559.52738403,0.08607583
2561.45619141,0.08601163
2563.38499878,0.08588257
2565.31380615,0.08572365
2567.24261353,0.08560424
2569.17142090,0.08554959
2571.10022827,0.08554815
2573.02903564,0.08541405
2574.95784302,0.08535977
2576.88665039,0.08513819
2578.81545776,0.08500063
2580.74426514,0.08494230
2582.67307251,0.08477294
2584.60187988,0.08475725
2586.53068726,0.08446120
2588.45949463,0.08440308
2590.38830200,0.08436912
2592.31710937,0.08418980
2594.24591675,0.08420703
2596.17472412,0.08404604
2598.10353149,0.08393199
2600.03233887,0.08386378
2601.96114624,0.08373670
2603.88995361,0.08356247
2605.81876099,0.08361243
2607.74756836,0.08349945
2609.67637573,0.08329826
2611.60518311,0.08332105
2613.53399048,0.08313298
2615.46279785,0.08306828
2617.39160522,0.08289069
2619.32041260,0.08276199
2621.24921997,0.08267838
2623.17802734,0.08254491
2625.10683472,0.08249834
2627.03564209,0.08235854
2628.96444946,0.08236511
2630.89325684,0.08209874
2632.82206421,0.08199607
2634.75087158,0.08199187
2636.67967895,0.08191231
2638.60848633,0.08188599
2640.53729370,0.08155245
2642.46610107,0.08150069
2644.39490845,0.08145439
2646.32371582,0.08135425
2648.25252319,0.08123337
2650.18133057,0.08099226
2652.11013794,0.08085759
2654.03894531,0.08087748
2655.96775269,0.08091052
2657.89656006,0.08066845
2659.82536743,0.08057559
2661.75417480,0.08030258
2663.68298218,0.08019977
2665.61178955,0.08030446
2667.54059692,0.08010781
2669.46940430,0.08002312
2671.39821167,0.07987082
2673.32701904,0.07981341
2675.25582642,0.07957613
2677.18463379,0.07948657
2679.11344116,0.07950339
2681.04224854,0.07919103
2682.97105591,0.07913020
2684.89986328,0.07909438
2686.82867065,0.07911405
2688.75747803,0.07897547
2690.68628540,0.07878826
2692.61509277,0.07871981
2694.54390015,0.07855316
2696.47270752,0.07837538
2698.40151489,0.07829323
2700.33032227,0.07833566
2702.25912964,0.07809725
2704.18793701,0.07808495
2706.11674438,0.07797813
2708.04555176,0.07776038
2709.97435913,0.07775231
2711.90316650,0.07746503
2713.83197388,0.07752360
2715.76078125,0.07744204
2717.68958862,0.07717921
2719.61839600,0.07716279
2721.54720337,0.07704505
2723.47601074,0.07696089
2725.40481812,0.07683392
2727.33362549,0.07669419
2729.26243286,0.07655007
2731.19124023,0.07640064
2733.12004761,0.07620003
2735.04885498,0.07618512
2736.97766235,0.07618441
2738.90646973,0.07606851
2740.83527710,0.07599200
2742.76408447,0.07571624
2744.69289185,0.07565893
2746.62169922,0.07560268
2748.55050659,0.07547228
2750.47931396,0.07536354
2752.40812134,0.07518669
2754.33692871,0.07518204
2756.26573608,0.07500926
2758.19454346,0.07486238
2760.12335083,0.07481038
2762.05215820,0.07469521
2763.98096558,0.07457958
2765.90977295,0.07443974
2767.83858032,0.07429643
2769.76738770,0.07419193
2771.69619507,0.07406723
2773.62500244,0.07377796
2775.55380981,0.07371464
2777.48261719,0.07366282
2779.41142456,0.07351236
2781.34023193,0.07347701
2783.26903931,0.07331963
2785.19784668,0.07316589
2787.12665405,0.07297567
2789.05546143,0.07278931
2790.98426880,0.07272623
2792.91307617,0.07268957
2794.84188354,0.07257479
2796.77069092,0.07248482
2798.69949829,0.07236180
2800.62830566,0.07214729
2802.55711304,0.07205854
2804.48592041,0.07191453
2806.41472778,0.07177477
2808.34353516,0.07163608
2810.27234253,0.07147825
2812.20114990,0.07139580
2814.12995728,0.07124853
2816.05876465,0.07105948
2817.98757202,0.07091647
2819.91637939,0.07081542
2821.84518677,0.07067430
2823.77399414,0.07055141
2825.70280151,0.07036074
2827.63160889,0.07032795
2829.56041626,0.07024886
2831.48922363,0.06995309
2833.41803101,0.06984806
2835.34683838,0.06969357
2837.27564575,0.06948154
2839.20445312,0.06920756
2841.13326050,0.06914303
2843.06206787,0.06897062
2844.99087524,0.06855589
2846.91968262,0.06826137
2848.84848999,0.06769156
2850.77729736,0.06756310
2852.70610474,0.06760600
2854.63491211,0.06752063
2856.56371948,0.06750015
2858.49252686,0.06728996
2860.42133423,0.06723635
2862.35014160,0.06708007
2864.27894897,0.06704108
2866.20775635,0.06692393
2868.13656372,0.06682807
2870.06537109,0.06674750
2871.99417847,0.06645241
2873.92298584,0.06652772
2875.85179321,0.06636453
2877.78060059,0.06622049
2879.70940796,0.06618914
2881.63821533,0.06603453
2883.56702270,0.06593301
2885.49583008,0.06583324
2887.42463745,0.06584387
2889.35344482,0.06555714
2891.28225220,0.06544740
2893.21105957,0.06533486
2895.13986694,0.06509468
2897.06867432,0.06500243
2898.99748169,0.06475150
2900.92628906,0.06466649
2902.85509644,0.06449383
2904.78390381,0.06420381
2906.71271118,0.06398454
2908.64151855,0.06385630
2910.57032593,0.06362820
2912.49913330,0.06323785
2914.42794067,0.06287561
2916.35674805,0.06254067
2918.28555542,0.06250224
2920.21436279,0.06240988
2922.14317017,0.06221612
2924.07197754,0.06203880
2926.00078491,0.06195467
2927.92959229,0.06189546
2929.85839966,0.06181496
2931.78720703,0.06188523
2933.71601440,0.06176076
2935.64482178,0.06182384
2937.57362915,0.06178840
2939.50243652,0.06173511
2941.43124390,0.06179465
2943.36005127,0.06153007
2945.28885864,0.06150202
2947.21766602,0.06137940
2949.14647339,0.06131448
2951.07528076,0.06125700
2953.00408813,0.06100415
2954.93289551,0.06085065
2956.86170288,0.06056280
2958.79051025,0.06039468
2960.71931763,0.06015164
2962.64812500,0.05993415
2964.57693237,0.05984341
2966.50573975,0.05978594
2968.43454712,0.05980540
2970.36335449,0.05982911
2972.29216187,0.05994012
2974.22096924,0.05990458
2976.14977661,0.05984019
2978.07858398,0.05978933
2980.00739136,0.05979495
2981.93619873,0.05966790
2983.86500610,0.05963378
2985.79381348,0.05971497
2987.72262085,0.05943938
2989.65142822,0.05948837
2991.58023560,0.05939963
2993.50904297,0.05911205
2995.43785034,0.05911282
2997.36665771,0.05894542
2999.29546509,0.05883264
3001.22427246,0.05873210
3003.15307983,0.05853713
3005.08188721,0.05837267
3007.01069458,0.05834208
3008.93950195,0.05825268
3010.86830933,0.05793812
3012.79711670,0.05766866
3014.72592407,0.05762590
3016.65473145,0.05763124
3018.58353882,0.05741017
3020.51234619,0.05724822
3022.44115356,0.05713458
3024.36996094,0.05697615
3026.29876831,0.05678210
3028.22757568,0.05659279
3030.15638306,0.05637798
3032.08519043,0.05618609
3034.01399780,0.05615473
3035.94280518,0.05591016
3037.87161255,0.05578013
3039.80041992,0.05560967
3041.72922729,0.05537055
3043.65803467,0.05532853
3045.58684204,0.05518017
3047.51564941,0.05512885
3049.44445679,0.05485849
3051.37326416,0.05466120
3053.30207153,0.05459714
3055.23087891,0.05442059
3057.15968628,0.05428962
3059.08849365,0.05404770
3061.01730103,0.05393042
3062.94610840,0.05374096
3064.87491577,0.05354894
3066.80372314,0.05334046
3068.73253052,0.05325064
3070.66133789,0.05319533
3072.59014526,0.05292906
3074.51895264,0.05293884
3076.44776001,0.05276888
3078.37656738,0.05245750
3080.30537476,0.05224426
3082.23418213,0.05215090
3084.16298950,0.05203117
3086.09179687,0.05181795
3088.02060425,0.05174762
3089.94941162,0.05150216
3091.87821899,0.05140225
3093.80702637,0.05115634
3095.73583374,0.05095752
3097.66464111,0.05089007
3099.59344849,0.05052388
3101.52225586,0.05036587
3103.45106323,0.05023600
3105.37987061,0.05019268
3107.30867798,0.04985195
3109.23748535,0.04957027
3111.16629272,0.04956889
3113.09510010,0.04926223
3115.02390747,0.04908490
3116.95271484,0.04872880
3118.88152222,0.04858059
3120.81032959,0.04852409
3122.73913696,0.04831598
3124.66794434,0.04828368
3126.59675171,0.04799084
3128.52555908,0.04783053
3130.45436645,0.04763309
3132.38317383,0.04733464
3134.31198120,0.04711892
3136.24078857,0.04686873
3138.16959595,0.04673880
3140.09840332,0.04650591
3142.02721069,0.04630645
3143.95601807,0.04614889
3145.88482544,0.04590015
3147.81363281,0.04575465
3149.74244019,0.04557182
3151.67124756,0.04518216
3153.60005493,0.04499885
3155.52886230,0.04495355
3157.45766968,0.04466802
3159.38647705,0.04435569
3161.31528442,0.04418255
3163.24409180,0.04405016
3165.17289917,0.04380817
3167.10170654,0.04372118
3169.03051392,0.04349900
3170.95932129,0.04312893
3172.88812866,0.04303024
3174.81693604,0.04282979
3176.74574341,0.04260454
3178.67455078,0.04237977
3180.60335815,0.04217953
3182.53216553,0.04203387
3184.46097290,0.04192140
3186.38978027,0.04175957
3188.31858765,0.04150511
3190.24739502,0.04141334
3192.17620239,0.04110282
3194.10500977,0.04094025
3196.03381714,0.04089193
3197.96262451,0.04050690
3199.89143188,0.04031456
3201.82023926,0.04023793
3203.74904663,0.04007169
3205.67785400,0.03993706
3207.60666138,0.03981785
3209.53546875,0.03956507
3211.46427612,0.03945406
3213.39308350,0.03929558
3215.32189087,0.03911198
3217.25069824,0.03915374
3219.17950562,0.03882321
3221.10831299,0.03868920
3223.03712036,0.03872529
3224.96592773,0.03854239
3226.89473511,0.03846187
3228.82354248,0.03824072
3230.75234985,0.03807575
3232.68115723,0.03796402
3234.60996460,0.03785523
3236.53877197,0.03787043
3238.46757935,0.03781266
3240.39638672,0.03760597
3242.32519409,0.03749133
3244.25400146,0.03739728
3246.18280884,0.03718268
3248.11161621,0.03715912
3250.04042358,0.03713232
3251.96923096,0.03703679
3253.89803833,0.03695475
3255.82684570,0.03689212
3257.75565308,0.03690829
3259.68446045,0.03683197
3261.61326782,0.03666032
3263.54207520,0.03661918
3265.47088257,0.03663119
3267.39968994,0.03641669
3269.32849731,0.03634584
3271.25730469,0.03632630
3273.18611206,0.03626179
3275.11491943,0.03616956
3277.04372681,0.03603821
3278.97253418,0.03615177
3280.90134155,0.03604297
3282.83014893,0.03598006
3284.75895630,0.03597777
3286.68776367,0.03586579
3288.61657104,0.03576690
3290.54537842,0.03559242
3292.47418579,0.03563623
3294.40299316,0.03554486
3296.33180054,0.03555039
3298.26060791,0.03549975
3300.18941528,0.03532771
3302.11822266,0.03537638
3304.04703003,0.03529022
3305.97583740,0.03523606
3307.90464478,0.03504740
3309.83345215,0.03496987
3311.76225952,0.03494653
3313.69106689,0.03490205
3315.61987427,0.03495284
3317.54868164,0.03481510
3319.47748901,0.03482597
3321.40629639,0.03470876
3323.33510376,0.03458109
3325.26391113,0.03457160
3327.19271851,0.03448588
3329.12152588,0.03444865
3331.05033325,0.03441458
3332.97914062,0.03440310
3334.90794800,0.03425835
3336.83675537,0.03410270
3338.76556274,0.03406817
3340.69437012,0.03409240
3342.62317749,0.03395870
3344.55198486,0.03391148
3346.48079224,0.03392309
3348.40959961,0.03378688
3350.33840698,0.03375563
3352.26721436,0.03366592
3354.19602173,0.03362983
3356.12482910,0.03353035
3358.05363647,0.03355493
3359.98244385,0.03353079
3361.91125122,0.03334719
3363.84005859,0.03331605
3365.76886597,0.03322663
3367.69767334,0.03325165
3369.62648071,0.03308294
3371.55528809,0.03316112
3373.48409546,0.03319167
3375.41290283,0.03303720
3377.34171020,0.03311231
3379.27051758,0.03292609
3381.19932495,0.03298396
3383.12813232,0.03281283
3385.05693970,0.03273099
3386.98574707,0.03280136
3388.91455444,0.03271024
3390.84336182,0.03267790
3392.77216919,0.03246830
3394.70097656,0.03265054
3396.62978394,0.03248299
3398.55859131,0.03249652
3400.48739868,0.03259472
3402.41620605,0.03237338
3404.34501343,0.03253461
3406.27382080,0.03243979
3408.20262817,0.03250007
3410.13143555,0.03244931
3412.06024292,0.03249943
3413.98905029,0.03250054
3415.91785767,0.03235816
3417.84666504,0.03245086
3419.77547241,0.03224682
3421.70427979,0.03235046
3423.63308716,0.03237273
3425.56189453,0.03246731
3427.49070190,0.03243551
3429.41950928,0.03231454
3431.34831665,0.03234956
3433.27712402,0.03224673
3435.20593140,0.03248303
3437.13473877,0.03229643
3439.06354614,0.03240462
3440.99235352,0.03235345
3442.92116089,0.03220082
3444.84996826,0.03237730
3446.77877563,0.03188528
3448.70758301,0.03223738
3450.63639038,0.03253995
3452.56519775,0.03229878
3454.49400513,0.03246045
3456.42281250,0.03251204
3458.35161987,0.03246615
3460.28042725,0.03240685
3462.20923462,0.03245510
3464.13804199,0.03248306
3466.06684937,0.03250429
3467.99565674,0.03246989
3469.92446411,0.03257028
3471.85327148,0.03255929
3473.78207886,0.03267444
3475.71088623,0.03276173
3477.63969360,0.03264707
3479.56850098,0.03282463
3481.49730835,0.03241587
3483.42611572,0.03254189
3485.35492310,0.03289020
3487.28373047,0.03266594
3489.21253784,0.03278378
3491.14134521,0.03297029
3493.07015259,0.03315385
3494.99895996,0.03296103
3496.92776733,0.03294886
3498.85657471,0.03303559
3500.78538208,0.03312953
3502.71418945,0.03283512
3504.64299683,0.03268097
3506.57180420,0.03341079
3508.50061157,0.03308640
3510.42941895,0.03303105
3512.35822632,0.03333057
3514.28703369,0.03334153
3516.21584106,0.03352838
3518.14464844,0.03336865
3520.07345581,0.03365398
3522.00226318,0.03333387
3523.93107056,0.03293855
3525.85987793,0.03326119
3527.78868530,0.03337134
3529.71749268,0.03338840
3531.64630005,0.03365801
3533.57510742,0.03403529
3535.50391479,0.03370752
3537.43272217,0.03359833
3539.36152954,0.03411071
3541.29033691,0.03415636
3543.21914429,0.03383487
3545.14795166,0.03335873
3547.07675903,0.03293572
3549.00556641,0.03390785
3550.93437378,0.03433560
3552.86318115,0.03353111
3554.79198853,0.03420036
3556.72079590,0.03441277
3558.64960327,0.03431466
3560.57841064,0.03421767
3562.50721802,0.03405155
3564.43602539,0.03437757
3566.36483276,0.03229939
3568.29364014,0.03147933
3570.22244751,0.03380989
3572.15125488,0.03484026
3574.08006226,0.03458183
3576.00886963,0.03466059
3577.93767700,0.03467271
3579.86648437,0.03471123
3581.79529175,0.03469751
3583.72409912,0.03477301
3585.65290649,0.03422739
3587.58171387,0.03158557
3589.51052124,0.03241048
3591.43932861,0.03524429
3593.36813599,0.03434815
3595.29694336,0.03376117
3597.22575073,0.03437977
3599.15455811,0.03475057
3601.08336548,0.03444182
3603.01217285,0.03478772
3604.94098022,0.03552696
3606.86978760,0.03438777
3608.79859497,0.03253249
3610.72740234,0.03320935
3612.65620972,0.03405374
3614.58501709,0.03313893
3616.51382446,0.03535546
3618.44263184,0.03305063
3620.37143921,0.03186749
3622.30024658,0.03577768
3624.22905395,0.03485136
3626.15786133,0.03635430
3628.08666870,0.03148711
3630.01547607,0.02865598
3631.94428345,0.03554537
3633.87309082,0.03484476
3635.80189819,0.03529941
3637.73070557,0.03609464
3639.65951294,0.03556751
3641.58832031,0.03594828
3643.51712769,0.03548762
3645.44593506,0.03596979
3647.37474243,0.03260368
3649.30354980,0.03002995
3651.23235718,0.03043807
3653.16116455,0.03569050
3655.08997192,0.03544521
3657.01877930,0.03191380
3658.94758667,0.03644245
3660.87639404,0.03582817
3662.80520142,0.03626877
3664.73400879,0.03624760
3666.66281616,0.03589150
3668.59162354,0.03523601
3670.52043091,0.02911023
3672.44923828,0.03471164
3674.37804565,0.03346073
3676.30685303,0.02793103
3678.23566040,0.03461133
3680.16446777,0.03544865
3682.09327515,0.03557127
3684.02208252,0.03650010
3685.95088989,0.03590911
3687.87969727,0.03279124
3689.80850464,0.03008673
3691.73731201,0.03412145
3693.66611938,0.03517451
3695.59492676,0.03575247
3697.52373413,0.03583236
3699.45254150,0.03557413
3701.38134888,0.03476381
3703.31015625,0.03348833
3705.23896362,0.03660149
3707.16777100,0.03499249
3709.09657837,0.03421226
3711.02538574,0.03233838
3712.95419312,0.03038374
3714.88300049,0.03531137
3716.81180786,0.03486630
3718.74061523,0.03499097
3720.66942261,0.03425657
3722.59822998,0.03327992
3724.52703735,0.03450231
3726.45584473,0.03208704
3728.38465210,0.03454645
3730.31345947,0.03428251
3732.24226685,0.03185056
3734.17107422,0.03107714
3736.09988159,0.02953879
3738.02868896,0.03115111
3739.95749634,0.03348912
3741.88630371,0.03509504
3743.81511108,0.02779925
3745.74391846,0.02611101
3747.67272583,0.03333059
3749.60153320,0.02909622
3751.53034058,0.02693049
3753.45914795,0.03059623
3755.38795532,0.03280033
3757.31676270,0.03411263
3759.24557007,0.03173017
3761.17437744,0.03271228
3763.10318481,0.03457520
3765.03199219,0.03244579
3766.96079956,0.03318628
3768.88960693,0.03278029
3770.81841431,0.03116069
3772.74722168,0.03358990
3774.67602905,0.03379463
3776.60483643,0.03370497
3778.53364380,0.03289016
3780.46245117,0.03167833
3782.39125854,0.03352751
3784.32006592,0.03289543
3786.24887329,0.03264037
3788.17768066,0.03330083
3790.10648804,0.03328544
3792.03529541,0.03302850
3793.96410278,0.03350981
3795.89291016,0.03172550
3797.82171753,0.03125374
3799.75052490,0.03287373
3801.67933228,0.02649587
3803.60813965,0.03046625
3805.53694702,0.03310149
3807.46575439,0.02735768
3809.39456177,0.03269923
3811.32336914,0.03220103
3813.25217651,0.03310180
3815.18098389,0.03016387
3817.10979126,0.02652830
3819.03859863,0.03305171
3820.96740601,0.02731450
3822.89621338,0.02846617
3824.82502075,0.03291561
3826.75382812,0.02998609
3828.68263550,0.03212881
3830.61144287,0.03090635
3832.54025024,0.02999275
3834.46905762,0.03061346
3836.39786499,0.02909762
3838.32667236,0.02647112
3840.25547974,0.02849896
3842.18428711,0.03065943
3844.11309448,0.02928165
3846.04190186,0.03150938
3847.97070923,0.03103173
3849.89951660,0.03110280
3851.82832397,0.02833272
3853.75713135,0.02157386
3855.68593872,0.02517151
3857.61474609,0.03124207
3859.54355347,0.03049403
3861.47236084,0.03004478
3863.40116821,0.02950545
3865.32997559,0.02757994
3867.25878296,0.03039436
3869.18759033,0.02809161
3871.11639770,0.02616269
3873.04520508,0.03064808
3874.97401245,0.02832262
3876.90281982,0.03030477
3878.83162720,0.03100858
3880.76043457,0.02677438
3882.68924194,0.03035643
3884.61804932,0.02864605
3886.54685669,0.02636224
3888.47566406,0.03045496
3890.40447144,0.02909416
3892.33327881,0.02735579
3894.26208618,0.02971130
3896.19089355,0.03031120
3898.11970093,0.02895038
3900.04850830,0.02747767
3901.97731567,0.02718169
3903.90612305,0.02692269
3905.83493042,0.02729208
3907.76373779,0.02966642
3909.69254517,0.02973429
3911.62135254,0.02936155
3913.55015991,0.02980785
3915.47896728,0.02901496
3917.40777466,0.02825641
3919.33658203,0.02805006
3921.26538940,0.02897144
3923.19419678,0.02872025
3925.12300415,0.02830457
3927.05181152,0.02878634
3928.98061890,0.02896005
3930.90942627,0.02848598
3932.83823364,0.02752734
3934.76704102,0.02855789
3936.69584839,0.02889790
3938.62465576,0.02859097
3940.55346313,0.02876760
3942.48227051,0.02787837
3944.41107788,0.02809284
3946.33988525,0.02848991
3948.26869263,0.02798058
3950.19750000,0.02787549
3952.12630737,0.02825677
3954.05511475,0.02829432
3955.98392212,0.02819288
3957.91272949,0.02815785
3959.84153687,0.02806059
3961.77034424,0.02792856
3963.69915161,0.02784160
3965.62795898,0.02814640
3967.55676636,0.02785396
3969.48557373,0.02775028
3971.41438110,0.02782220
3973.34318848,0.02769357
3975.27199585,0.02764402
3977.20080322,0.02743047
3979.12961060,0.02774518
3981.05841797,0.02757816
3982.98722534,0.02747010
3984.91603271,0.02748121
3986.84484009,0.02743792
3988.77364746,0.02744360
3990.70245483,0.02707028
3992.63126221,0.02730339
3994.56006958,0.02718690
3996.48887695,0.02713832
3998.41768433,0.02713584
4000.34649170,0.02694591
4002.27529907,0.02703389
4004.20410645,0.02687275
4006.13291382,0.02693693
4008.06172119,0.02680254
4009.99052856,0.02676203
4011.91933594,0.02669762
4013.84814331,0.02661071
4015.77695068,0.02663183
4017.70575806,0.02652718
4019.63456543,0.02651324
4021.56337280,0.02642934
4023.49218018,0.02650074
4025.42098755,0.02624323
4027.34979492,0.02629231
4029.27860229,0.02629548
4031.20740967,0.02619441
4033.13621704,0.02626866
4035.06502441,0.02598602
4036.99383179,0.02616153
4038.92263916,0.02600766
4040.85144653,0.02595081
4042.78025391,0.02590530
4044.70906128,0.02569138
4046.63786865,0.02580122
4048.56667603,0.02569891
4050.49548340,0.02576911
4052.42429077,0.02559291
4054.35309814,0.02560630
4056.28190552,0.02554505
4058.21071289,0.02555967
4060.13952026,0.02563225
4062.06832764,0.02533636
4063.99713501,0.02549953
4065.92594238,0.02534032
4067.85474976,0.02526115
4069.78355713,0.02520411
4071.71236450,0.02517541
4073.64117187,0.02520368
4075.56997925,0.02503371
4077.49878662,0.02511975
4079.42759399,0.02489161
4081.35640137,0.02496212
4083.28520874,0.02491671
4085.21401611,0.02479122
4087.14282349,0.02481224
4089.07163086,0.02470198
4091.00043823,0.02477714
4092.92924561,0.02458954
4094.85805298,0.02461183
4096.78686035,0.02457023
4098.71566772,0.02451237
4100.64447510,0.02444451
4102.57328247,0.02431405
4104.50208984,0.02429183
4106.43089722,0.02414387
4108.35970459,0.02425404
4110.28851196,0.02417172
4112.21731934,0.02415812
4114.14612671,0.02412371
4116.07493408,0.02407582
4118.00374145,0.02401883
4119.93254883,0.02386268
4121.86135620,0.02399843
4123.79016357,0.02382369
4125.71897095,0.02381371
4127.64777832,0.02377331
4129.57658569,0.02372651
4131.50539307,0.02371791
4133.43420044,0.02359429
4135.36300781,0.02374505
4137.29181519,0.02350799
4139.22062256,0.02341312
4141.14942993,0.02346684
4143.07823730,0.02347294
4145.00704468,0.02345563
4146.93585205,0.02334317
4148.86465942,0.02330981
4150.79346680,0.02319071
4152.72227417,0.02319433
4154.65108154,0.02300978
4156.57988892,0.02306205
4158.50869629,0.02314761
4160.43750366,0.02298840
4162.36631103,0.02296578
4164.29511841,0.02293818
4166.22392578,0.02291007
4168.15273315,0.02271378
4170.08154053,0.02280826
4172.01034790,0.02277253
4173.93915527,0.02258776
4175.86796265,0.02259708
4177.79677002,0.02254923
4179.72557739,0.02255110
4181.65438477,0.02237651
4183.58319214,0.02232270
4185.51199951,0.02229405
4187.44080688,0.02236175
4189.36961426,0.02235018
4191.29842163,0.02216534
4193.22722900,0.02216879
4195.15603638,0.02213270
4197.08484375,0.02216963
4199.01365112,0.02210976
4200.94245850,0.02206418
4202.87126587,0.02195279
4204.80007324,0.02189920
4206.72888062,0.02191558
4208.65768799,0.02179738
4210.58649536,0.02177900
4212.51530273,0.02172452
4214.44411011,0.02177768
4216.37291748,0.02165823
4218.30172485,0.02162966
4220.23053223,0.02159480
4222.15933960,0.02151226
4224.08814697,0.02150016
4226.01695435,0.02125571
4227.94576172,0.02137599
4229.87456909,0.02130312
4231.80337646,0.02124621
4233.73218384,0.02128229
4235.66099121,0.02119299
4237.58979858,0.02123608
4239.51860596,0.02104400
4241.44741333,0.02106570
4243.37622070,0.02102143
4245.30502808,0.02102781
4247.23383545,0.02097001
4249.16264282,0.02085230
4251.09145020,0.02091616
4253.02025757,0.02077970
4254.94906494,0.02080951
4256.87787231,0.02074469
4258.80667969,0.02077824
4260.73548706,0.02062573
4262.66429443,0.02048305
4264.59310181,0.02064490
4266.52190918,0.02052003
4268.45071655,0.02051124
4270.37952393,0.02047911
4272.30833130,0.02054498
4274.23713867,0.02042129
4276.16594604,0.02029802
4278.09475342,0.02034619
4280.02356079,0.02015834
4281.95236816,0.02022821
4283.88117554,0.02015505
4285.80998291,0.02003859
4287.73879028,0.02002572
4289.66759766,0.02000165
4291.59640503,0.02000848
4293.52521240,0.01997713
4295.45401978,0.01992613
4297.38282715,0.01984714
4299.31163452,0.01984063
4301.24044189,0.01964227
4303.16924927,0.01968222
4305.09805664,0.01970809
4307.02686401,0.01961677
4308.95567139,0.01965381
4310.88447876,0.01953105
4312.81328613,0.01949196
4314.74209351,0.01937070
4316.67090088,0.01945772
4318.59970825,0.01946142
4320.52851562,0.01928745
4322.45732300,0.01931570
4324.38613037,0.01932340
4326.31493774,0.01928790
4328.24374512,0.01910074
4330.17255249,0.01913819
4332.10135986,0.01914725
4334.03016724,0.01909073
4335.95897461,0.01904952
4337.88778198,0.01897406
4339.81658936,0.01902068
4341.74539673,0.01888849
4343.67420410,0.01888162
4345.60301147,0.01879393
4347.53181885,0.01874272
4349.46062622,0.01883810
4351.38943359,0.01872769
4353.31824097,0.01866122
4355.24704834,0.01868195
4357.17585571,0.01864906
4359.10466309,0.01855685
4361.03347046,0.01857762
4362.96227783,0.01847253
4364.89108520,0.01847940
4366.81989258,0.01844030
4368.74869995,0.01829335
4370.67750732,0.01839224
4372.60631470,0.01834247
4374.53512207,0.01834180
4376.46392944,0.01827157
4378.39273682,0.01824905
4380.32154419,0.01816502
4382.25035156,0.01805534
4384.17915894,0.01809227
4386.10796631,0.01798663
4388.03677368,0.01811928
4389.96558105,0.01796656
4391.89438843,0.01787821
4393.82319580,0.01793138
4395.75200317,0.01781956
4397.68081055,0.01785443
4399.60961792,0.01774170
4401.53842529,0.01781004
4403.46723267,0.01766306
4405.39604004,0.01759531
4407.32484741,0.01770539
4409.25365478,0.01757060
4411.18246216,0.01756205
4413.11126953,0.01741513
4415.04007690,0.01742567
4416.96888428,0.01743624
4418.89769165,0.01730243
4420.82649902,0.01729263
4422.75530640,0.01726533
4424.68411377,0.01727687
4426.61292114,0.01731414
4428.54172852,0.01728328
4430.47053589,0.01719688
4432.39934326,0.01713354
4434.32815063,0.01705466
4436.25695801,0.01714212
4438.18576538,0.01702385
4440.11457275,0.01689000
4442.04338013,0.01696505
4443.97218750,0.01683261
4445.90099487,0.01684119
4447.82980225,0.01682483
4449.75860962,0.01683689
4451.68741699,0.01680437
4453.61622437,0.01670042
4455.54503174,0.01672109
4457.47383911,0.01668454
4459.40264648,0.01665154
4461.33145386,0.01655781
4463.26026123,0.01662976
4465.18906860,0.01650811
4467.11787598,0.01642384
4469.04668335,0.01646872
4470.97549072,0.01633642
4472.90429810,0.01642716
4474.83310547,0.01634366
4476.76191284,0.01628089
4478.69072021,0.01625898
4480.61952759,0.01621436
4482.54833496,0.01619057
4484.47714233,0.01610023
4486.40594971,0.01618150
4488.33475708,0.01613430
4490.26356445,0.01602795
4492.19237183,0.01593880
4494.12117920,0.01605158
4496.04998657,0.01599284
4497.97879395,0.01583995
4499.90760132,0.01597123
4501.83640869,0.01588943
4503.76521606,0.01588538
4505.69402344,0.01576065
4507.62283081,0.01568027
4509.55163818,0.01573435
4511.48044556,0.01563430
4513.40925293,0.01562143
4515.33806030,0.01558383
4517.26686768,0.01561573
4519.19567505,0.01550918
4521.12448242,0.01545488
4523.05328979,0.01548914
4524.98209717,0.01542492
4526.91090454,0.01536670
4528.83971191,0.01532140
4530.76851929,0.01534864
4532.69732666,0.01523436
4534.62613403,0.01522947
4536.55494141,0.01523031
4538.48374878,0.01519128
4540.41255615,0.01520372
4542.34136353,0.01518197
4544.27017090,0.01514273
4546.19897827,0.01504399
4548.12778564,0.01511376
4550.05659302,0.01500933
4551.98540039,0.01497684
4553.91420776,0.01498000
4555.84301514,0.01482404
4557.77182251,0.01487412
4559.70062988,0.01481800
4561.62943726,0.01479077
4563.55824463,0.01468662
4565.48705200,0.01464701
4567.41585937,0.01474284
4569.34466675,0.01462280
4571.27347412,0.01459754
4573.20228149,0.01465932
4575.13108887,0.01458696
4577.05989624,0.01443204
4578.98870361,0.01450029
4580.91751099,0.01451495
4582.84631836,0.01442079
4584.77512573,0.01444656
4586.70393311,0.01438758
4588.63274048,0.01431586
4590.56154785,0.01423590
4592.49035522,0.01428389
4594.41916260,0.01429220
4596.34796997,0.01421375
4598.27677734,0.01422933
4600.20558472,0.01413145
4602.13439209,0.01408111
4604.06319946,0.01413614
4605.99200684,0.01411139
4607.92081421,0.01406864
4609.84962158,0.01400822
4611.77842895,0.01391998
4613.70723633,0.01393745
4615.63604370,0.01394914
4617.56485107,0.01394621
4619.49365845,0.01384061
4621.42246582,0.01376003
4623.35127319,0.01377102
4625.28008057,0.01364374
4627.20888794,0.01374307
4629.13769531,0.01369214
4631.06650269,0.01361500
4632.99531006,0.01366831
4634.92411743,0.01351561
4636.85292480,0.01357059
4638.78173218,0.01348896
4640.71053955,0.01347525
4642.63934692,0.01348081
4644.56815430,0.01337959
4646.49696167,0.01348598
4648.42576904,0.01339231
4650.35457642,0.01333762
4652.28338379,0.01333221
4654.21219116,0.01334153
4656.14099853,0.01333798
4658.06980591,0.01324989
4659.99861328,0.01319017
4661.92742065,0.01317051
4663.85622803,0.01320974
4665.78503540,0.01308733
4667.71384277,0.01305562
4669.64265015,0.01303408
4671.57145752,0.01304609
4673.50026489,0.01304880
4675.42907227,0.01289690
4677.35787964,0.01290545
4679.28668701,0.01288579
4681.21549438,0.01288461
4683.14430176,0.01281663
4685.07310913,0.01278954
4687.00191650,0.01286959
4688.93072388,0.01283944
4690.85953125,0.01276854
4692.78833862,0.01266235
4694.71714600,0.01269443
4696.64595337,0.01272480
4698.57476074,0.01273156
4700.50356812,0.01265220
4702.43237549,0.01260092
4704.36118286,0.01260715
4706.28999023,0.01249626
4708.21879761,0.01249067
4710.14760498,0.01241320
4712.07641235,0.01242051
4714.00521973,0.01243073
4715.93402710,0.01232489
4717.86283447,0.01235561
4719.79164185,0.01239202
4721.72044922,0.01236206
4723.64925659,0.01234347
4725.57806396,0.01236319
4727.50687134,0.01221821
4729.43567871,0.01215164
4731.36448608,0.01220226
4733.29329346,0.01221414
4735.22210083,0.01214253
4737.15090820,0.01206431
4739.07971558,0.01210512
4741.00852295,0.01203568
4742.93733032,0.01209510
4744.86613770,0.01204627
4746.79494507,0.01192494
4748.72375244,0.01191410
4750.65255981,0.01187566
4752.58136719,0.01187742
4754.51017456,0.01181362
4756.43898193,0.01188594
4758.36778931,0.01172827
4760.29659668,0.01171221
4762.22540405,0.01183189
4764.15421143,0.01173817
4766.08301880,0.01176684
4768.01182617,0.01157655
4769.94063354,0.01160048
4771.86944092,0.01160319
4773.79824829,0.01155295
4775.72705566,0.01162293
4777.65586304,0.01155861
4779.58467041,0.01159116
4781.51347778,0.01142190
4783.44228516,0.01143136
4785.37109253,0.01146398
4787.29989990,0.01145423
4789.22870728,0.01145217
4791.15751465,0.01131312
4793.08632202,0.01137508
4795.01512939,0.01130584
4796.94393677,0.01133910
4798.87274414,0.01135713
4800.80155151,0.01128622
4802.73035889,0.01121329
4804.65916626,0.01112528
4806.58797363,0.01117305
4808.51678101,0.01109701
4810.44558838,0.01118749
4812.37439575,0.01116567
4814.30320312,0.01102713
4816.23201050,0.01102654
4818.16081787,0.01107056
4820.08962524,0.01108469
4822.01843262,0.01099095
4823.94723999,0.01104914
4825.87604736,0.01089251
4827.80485474,0.01082064
4829.73366211,0.01094558
4831.66246948,0.01090184
4833.59127686,0.01086436
4835.52008423,0.01077140
4837.44889160,0.01077188
4839.37769897,0.01075762
4841.30650635,0.01070412
4843.23531372,0.01069539
4845.16412109,0.01066947
4847.09292847,0.01063945
4849.02173584,0.01066876
4850.95054321,0.01061664
4852.87935059,0.01049394
4854.80815796,0.01059772
4856.73696533,0.01056474
4858.66577270,0.01048228
4860.59458008,0.01049436
4862.52338745,0.01047146
4864.45219482,0.01040719
4866.38100220,0.01035266
4868.30980957,0.01043675
4870.23861694,0.01038109
4872.16742432,0.01032272
4874.09623169,0.01026292
4876.02503906,0.01026409
4877.95384644,0.01032120
4879.88265381,0.01026589
4881.81146118,0.01023842
4883.74026855,0.01015643
4885.66907593,0.01014887
4887.59788330,0.01014484
4889.52669067,0.01018172
4891.45549805,0.01011705
4893.38430542,0.01010477
4895.31311279,0.01011508
4897.24192017,0.00996590
4899.17072754,0.01009357
4901.09953491,0.00996615
4903.02834228,0.00993839
4904.95714966,0.00995211
4906.88595703,0.00979115
4908.81476440,0.00993782
4910.74357178,0.00984230
4912.67237915,0.00987238
4914.60118652,0.00988358
4916.52999390,0.00978933
4918.45880127,0.00981126
4920.38760864,0.00971729
4922.31641602,0.00974157
4924.24522339,0.00971428
4926.17403076,0.00969622
4928.10283813,0.00964464
4930.03164551,0.00966645
4931.96045288,0.00964083
4933.88926025,0.00956660
4935.81806763,0.00966040
4937.74687500,0.00958369
4939.67568237,0.00954446
4941.60448975,0.00947614
4943.53329712,0.00946089
4945.46210449,0.00944592
4947.39091187,0.00938233
4949.31971924,0.00946284
4951.24852661,0.00935819
4953.17733398,0.00931291
4955.10614136,0.00935890
4957.03494873,0.00935179
4958.96375610,0.00931844
4960.89256348,0.00929148
4962.82137085,0.00928809
4964.75017822,0.00927226
4966.67898560,0.00928652
4968.60779297,0.00919537
4970.53660034,0.00916581
4972.46540771,0.00913351
4974.39421509,0.00908633
4976.32302246,0.00912227
4978.25182983,0.00909934
4980.18063721,0.00905381
4982.10944458,0.00899112
4984.03825195,0.00900927
4985.96705933,0.00904486
4987.89586670,0.00902604
4989.82467407,0.00899149
4991.75348145,0.00896167
4993.68228882,0.00894460
4995.61109619,0.00890360
4997.53990356,0.00880935
4999.46871094,0.00883282
5001.39751831,0.00893014
5003.32632568,0.00882984
5005.25513306,0.00882327
5007.18394043,0.00876970
5009.11274780,0.00873484
5011.04155518,0.00883540
5012.97036255,0.00878453
5014.89916992,0.00879020
5016.82797729,0.00866712
5018.75678467,0.00862396
5020.68559204,0.00867374
5022.61439941,0.00859378
5024.54320679,0.00856374
5026.47201416,0.00852050
5028.40082153,0.00853812
5030.32962891,0.00848915
5032.25843628,0.00850357
5034.18724365,0.00845864
5036.11605103,0.00841354
5038.04485840,0.00849596
5039.97366577,0.00838210
5041.90247314,0.00841025
5043.83128052,0.00841688
5045.76008789,0.00837410
5047.68889526,0.00840487
5049.61770264,0.00833055
5051.54651001,0.00834316
5053.47531738,0.00832368
5055.40412476,0.00828846
5057.33293213,0.00824361
5059.26173950,0.00818007
5061.19054687,0.00821707
5063.11935425,0.00822016
5065.04816162,0.00819376
5066.97696899,0.00818915
5068.90577637,0.00816295
5070.83458374,0.00810232
5072.76339111,0.00803281
5074.69219849,0.00807989
5076.62100586,0.00807385
5078.54981323,0.00799717
5080.47862061,0.00808868
5082.40742798,0.00800194
5084.33623535,0.00790972
5086.26504272,0.00792864
5088.19385010,0.00791412
5090.12265747,0.00798315
5092.05146484,0.00788148
5093.98027222,0.00792558
5095.90907959,0.00790589
5097.83788696,0.00781156
5099.76669434,0.00791353
5101.69550171,0.00780936
5103.62430908,0.00782305
5105.55311645,0.00779162
5107.48192383,0.00767772
5109.41073120,0.00770471
5111.33953857,0.00770400
5113.26834595,0.00771164
5115.19715332,0.00769310
5117.12596069,0.00769453
5119.05476807,0.00768946
5120.98357544,0.00772546
5122.91238281,0.00763865
5124.84119019,0.00760338
5126.76999756,0.00762483
5128.69880493,0.00755289
5130.62761230,0.00757974
5132.55641968,0.00751716
5134.48522705,0.00759543
5136.41403442,0.00754136
5138.34284180,0.00742620
5140.27164917,0.00752980
5142.20045654,0.00747592
5144.12926392,0.00745488
5146.05807129,0.00740754
5147.98687866,0.00739829
5149.91568603,0.00734580
5151.84449341,0.00730978
5153.77330078,0.00737016
5155.70210815,0.00728578
5157.63091553,0.00727760
5159.55972290,0.00727199
5161.48853027,0.00731524
5163.41733765,0.00724950
5165.34614502,0.00718583
5167.27495239,0.00725046
5169.20375977,0.00716981
5171.13256714,0.00718976
5173.06137451,0.00713816
5174.99018188,0.00712019
5176.91898926,0.00719624
5178.84779663,0.00710521
5180.77660400,0.00708251
5182.70541138,0.00711294
5184.63421875,0.00704739
5186.56302612,0.00698515
5188.49183350,0.00703611
5190.42064087,0.00704253
5192.34944824,0.00701202
5194.27825562,0.00697522
5196.20706299,0.00692215
5198.13587036,0.00694813
5200.06467773,0.00692065
5201.99348511,0.00693446
5203.92229248,0.00696252
5205.85109985,0.00679970
5207.77990723,0.00673205
5209.70871460,0.00684944
5211.63752197,0.00692052
5213.56632935,0.00689867
5215.49513672,0.00678730
5217.42394409,0.00681688
5219.35275146,0.00681438
5221.28155884,0.00672133
5223.21036621,0.00675730
5225.13917358,0.00660533
5227.06798096,0.00660686
5228.99678833,0.00671066
5230.92559570,0.00671052
5232.85440308,0.00672840
5234.78321045,0.00662732
5236.71201782,0.00670635
5238.64082520,0.00663447
5240.56963257,0.00666817
5242.49843994,0.00669616
5244.42724731,0.00641826
5246.35605469,0.00655940
5248.28486206,0.00646023
5250.21366943,0.00641721
5252.14247681,0.00664946
5254.07128418,0.00641205
5256.00009155,0.00635654
5257.92889893,0.00647103
5259.85770630,0.00650536
5261.78651367,0.00648578
5263.71532104,0.00633182
5265.64412842,0.00634940
5267.57293579,0.00645811
5269.50174316,0.00642375
5271.43055054,0.00634695
5273.35935791,0.00636383
5275.28816528,0.00637654
5277.21697266,0.00637140
5279.14578003,0.00633594
5281.07458740,0.00627466
5283.00339478,0.00633353
5284.93220215,0.00630925
5286.86100952,0.00628004
5288.78981689,0.00630047
5290.71862427,0.00618519
5292.64743164,0.00628926
5294.57623901,0.00631602
5296.50504639,0.00615493
5298.43385376,0.00624523
5300.36266113,0.00623906
5302.29146851,0.00615466
5304.22027588,0.00613918
5306.14908325,0.00611575
5308.07789062,0.00607159
5310.00669800,0.00609642
5311.93550537,0.00613771
5313.86431274,0.00605059
5315.79312012,0.00612247
5317.72192749,0.00611446
5319.65073486,0.00609645
5321.57954224,0.00605198
5323.50834961,0.00594964
5325.43715698,0.00604399
5327.36596436,0.00586732
5329.29477173,0.00588121
5331.22357910,0.00599481
5333.15238647,0.00587209
5335.08119385,0.00596151
5337.01000122,0.00593084
5338.93880859,0.00569992
5340.86761597,0.00574861
5342.79642334,0.00589703
5344.72523071,0.00564718
5346.65403809,0.00569150
5348.58284546,0.00578214
5350.51165283,0.00571148
5352.44046020,0.00578492
5354.36926758,0.00557839
5356.29807495,0.00579320
5358.22688232,0.00582107
5360.15568970,0.00570647
5362.08449707,0.00582498
5364.01330444,0.00565820
5365.94211182,0.00582098
5367.87091919,0.00573509
5369.79972656,0.00564397
5371.72853394,0.00571235
5373.65734131,0.00565456
5375.58614868,0.00563640
5377.51495605,0.00549788
5379.44376343,0.00562589
5381.37257080,0.00554454
5383.30137817,0.00553462
5385.23018555,0.00558272
5387.15899292,0.00549959
5389.08780029,0.00560710
5391.01660767,0.00551222
5392.94541504,0.00548459
5394.87422241,0.00533724
5396.80302978,0.00536823
5398.73183716,0.00550231
5400.66064453,0.00546647
5402.58945190,0.00549752
5404.51825928,0.00533052
5406.44706665,0.00549223
5408.37587402,0.00546296
5410.30468140,0.00525596
5412.23348877,0.00533311
5414.16229614,0.00516011
5416.09110352,0.00525005
5418.01991089,0.00540892
5419.94871826,0.00531393
5421.87752563,0.00536023
5423.80633301,0.00533530
5425.73514038,0.00533995
5427.66394775,0.00533525
5429.59275513,0.00508569
5431.52156250,0.00519339
5433.45036987,0.00528190
5435.37917725,0.00507971
5437.30798462,0.00521867
5439.23679199,0.00516304
5441.16559936,0.00509030
5443.09440674,0.00519958
5445.02321411,0.00507224
5446.95202148,0.00508349
5448.88082886,0.00514373
5450.80963623,0.00507966
5452.73844360,0.00512738
5454.66725098,0.00519860
5456.59605835,0.00508074
5458.52486572,0.00503920
5460.45367310,0.00501537
5462.38248047,0.00496630
5464.31128784,0.00506783
5466.24009521,0.00504262
5468.16890259,0.00500041
5470.09770996,0.00500026
5472.02651733,0.00503442
5473.95532471,0.00496272
5475.88413208,0.00487619
5477.81293945,0.00499589
5479.74174683,0.00501646
5481.67055420,0.00499168
5483.59936157,0.00491699
5485.52816895,0.00495007
5487.45697632,0.00492362
5489.38578369,0.00477224
5491.31459106,0.00482628
5493.24339844,0.00478163
5495.17220581,0.00481893
5497.10101318,0.00489460
5499.02982056,0.00488479
5500.95862793,0.00491641
5502.88743530,0.00484547
5504.81624268,0.00478644
5506.74505005,0.00472912
5508.67385742,0.00471253
5510.60266479,0.00473273
5512.53147217,0.00473822
5514.46027954,0.00476939
5516.38908691,0.00477421
5518.31789429,0.00473030
5520.24670166,0.00468359
5522.17550903,0.00466042
5524.10431641,0.00470810
5526.03312378,0.00471793
5527.96193115,0.00459129
5529.89073853,0.00468514
5531.81954590,0.00470187
5533.74835327,0.00454258
5535.67716064,0.00459392
5537.60596802,0.00459705
5539.53477539,0.00460921
5541.46358276,0.00461228
5543.39239014,0.00458883
5545.32119751,0.00461756
5547.25000488,0.00458937
5549.17881226,0.00455599
5551.10761963,0.00451400
5553.03642700,0.00450725
5554.96523437,0.00447625
5556.89404175,0.00450610
5558.82284912,0.00456322
5560.75165649,0.00451717
5562.68046387,0.00449336
5564.60927124,0.00448827
5566.53807861,0.00445444
5568.46688599,0.00440874
5570.39569336,0.00441124
5572.32450073,0.00442371
5574.25330811,0.00445271
5576.18211548,0.00442586
5578.11092285,0.00439032
5580.03973022,0.00441097
5581.96853760,0.00437066
5583.89734497,0.00438327
5585.82615234,0.00437483
5587.75495972,0.00434823
5589.68376709,0.00436134
5591.61257446,0.00433549
5593.54138184,0.00429523
5595.47018921,0.00429643
5597.39899658,0.00430938
5599.32780395,0.00427829
5601.25661133,0.00429479
5603.18541870,0.00423240
5605.11422607,0.00419807
5607.04303345,0.00424902
5608.97184082,0.00424742
5610.90064819,0.00421381
5612.82945557,0.00417542
5614.75826294,0.00422749
5616.68707031,0.00416585
5618.61587769,0.00418116
5620.54468506,0.00422338
5622.47349243,0.00414992
5624.40229980,0.00419516
5626.33110718,0.00413892
5628.25991455,0.00414997
5630.18872192,0.00413342
5632.11752930,0.00405969
5634.04633667,0.00407965
5635.97514404,0.00403957
5637.90395142,0.00409574
5639.83275879,0.00411554
5641.76156616,0.00412554
5643.69037353,0.00406925
5645.61918091,0.00399753
5647.54798828,0.00407772
5649.47679565,0.00403703
5651.40560303,0.00400653
5653.33441040,0.00402268
5655.26321777,0.00399998
5657.19202515,0.00395532
5659.12083252,0.00392820
5661.04963989,0.00399395
5662.97844727,0.00399816
5664.90725464,0.00395084
5666.83606201,0.00396800
5668.76486938,0.00397036
5670.69367676,0.00387219
5672.62248413,0.00381261
5674.55129150,0.00385646
5676.48009888,0.00390699
5678.40890625,0.00391684
5680.33771362,0.00391897
5682.26652100,0.00387828
5684.19532837,0.00379863
5686.12413574,0.00384460
5688.05294311,0.00383947
5689.98175049,0.00380750
5691.91055786,0.00387093
5693.83936523,0.00382332
5695.76817261,0.00379322
5697.69697998,0.00381240
5699.62578735,0.00374614
5701.55459473,0.00370264
5703.48340210,0.00376355
5705.41220947,0.00377338
5707.34101685,0.00373393
5709.26982422,0.00374633
5711.19863159,0.00370431
5713.12743896,0.00370351
5715.05624634,0.00369044
5716.98505371,0.00367482
5718.91386108,0.00372448
5720.84266846,0.00365162
5722.77147583,0.00364700
5724.70028320,0.00365888
5726.62909058,0.00364485
5728.55789795,0.00369817
5730.48670532,0.00362074
5732.41551270,0.00363471
5734.34432007,0.00367816
5736.27312744,0.00360571
5738.20193481,0.00357108
5740.13074219,0.00354004
5742.05954956,0.00355169
5743.98835693,0.00354334
5745.91716431,0.00356322
5747.84597168,0.00353383
5749.77477905,0.00344549
5751.70358643,0.00345352
5753.63239380,0.00347766
5755.56120117,0.00352287
5757.49000854,0.00347778
5759.41881592,0.00347067
5761.34762329,0.00347582
5763.27643066,0.00345132
5765.20523804,0.00346766
5767.13404541,0.00342429
5769.06285278,0.00350508
5770.99166016,0.00341425
5772.92046753,0.00333726
5774.84927490,0.00342929
5776.77808228,0.00337692
5778.70688965,0.00341561
5780.63569702,0.00336275
5782.56450439,0.00331240
5784.49331177,0.00339404
5786.42211914,0.00338289
5788.35092651,0.00329374
5790.27973389,0.00334343
5792.20854126,0.00340470
5794.13734863,0.00324316
5796.06615601,0.00326991
5797.99496338,0.00328437
5799.92377075,0.00328440
5801.85257812,0.00333933
5803.78138550,0.00328571
5805.71019287,0.00330747
5807.63900024,0.00321239
5809.56780762,0.00324466
5811.49661499,0.00324337
5813.42542236,0.00320255
5815.35422974,0.00328039
5817.28303711,0.00318357
5819.21184448,0.00320558
5821.14065186,0.00321593
5823.06945923,0.00317342
5824.99826660,0.00316650
5826.92707397,0.00315814
5828.85588135,0.00316773
5830.78468872,0.00317538
5832.71349609,0.00320004
5834.64230347,0.00312930
5836.57111084,0.00315453
5838.49991821,0.00316336
5840.42872559,0.00313766
5842.35753296,0.00305246
5844.28634033,0.00296837
5846.21514770,0.00305652
5848.14395508,0.00305038
5850.07276245,0.00312206
5852.00156982,0.00310804
5853.93037720,0.00302019
5855.85918457,0.00301591
5857.78799194,0.00302329
5859.71679932,0.00310628
5861.64560669,0.00301995
5863.57441406,0.00302856
5865.50322144,0.00310922
5867.43202881,0.00305913
5869.36083618,0.00304525
5871.28964355,0.00300642
5873.21845093,0.00295205
5875.14725830,0.00297510
5877.07606567,0.00303363
5879.00487305,0.00300002
5880.93368042,0.00297052
5882.86248779,0.00294438
5884.79129517,0.00294396
5886.72010254,0.00292927
5888.64890991,0.00287641
5890.57771728,0.00286553
5892.50652466,0.00285966
5894.43533203,0.00293094
5896.36413940,0.00293116
5898.29294678,0.00286682
5900.22175415,0.00278504
5902.15056152,0.00284271
5904.07936890,0.00289341
5906.00817627,0.00280429
5907.93698364,0.00284057
5909.86579102,0.00272568
5911.79459839,0.00276924
5913.72340576,0.00287394
5915.65221313,0.00281692
5917.58102051,0.00287498
5919.50982788,0.00282986
5921.43863525,0.00280462
5923.36744263,0.00279409
5925.29625000,0.00281919
5927.22505737,0.00278630
5929.15386475,0.00278185
5931.08267212,0.00277007
5933.01147949,0.00266181
5934.94028686,0.00276589
5936.86909424,0.00272384
5938.79790161,0.00271556
5940.72670898,0.00269682
5942.65551636,0.00268267
5944.58432373,0.00273166
5946.51313110,0.00264405
5948.44193848,0.00278317
5950.37074585,0.00267796
5952.29955322,0.00261926
5954.22836060,0.00268767
5956.15716797,0.00259193
5958.08597534,0.00266260
5960.01478271,0.00263687
5961.94359009,0.00266827
5963.87239746,0.00262243
5965.80120483,0.00254222
5967.73001221,0.00258557
5969.65881958,0.00262130
5971.58762695,0.00266473
5973.51643433,0.00261283
5975.44524170,0.00263881
5977.37404907,0.00262110
5979.30285645,0.00263088
5981.23166382,0.00259078
5983.16047119,0.00251451
5985.08927856,0.00255482
5987.01808594,0.00250810
5988.94689331,0.00259358
5990.87570068,0.00258917
5992.80450806,0.00250209
5994.73331543,0.00257432
5996.66212280,0.00257604
5998.59093018,0.00248757
6000.51973755,0.00243990
