399.26312622,0.00100389
401.19193359,0.00113886
403.12074097,0.00094546
405.04954834,0.00119269
406.97835571,0.00165796
408.90716309,0.00123334
410.83597046,0.00130015
412.76477783,0.00168624
414.69358521,0.00141953
416.62239258,0.00132778
418.55119995,0.00181430
420.48000732,0.00174459
422.40881470,0.00145066
424.33762207,0.00197146
426.26642944,0.00201875
428.19523682,0.00193780
430.12404419,0.00195919
432.05285156,0.00170406
433.98165894,0.00223669
435.91046631,0.00216142
437.83927368,0.00158694
439.76808105,0.00188195
441.69688843,0.00156157
443.62569580,0.00124516
445.55450317,0.00136545
447.48331055,0.00107400
449.41211792,0.00135650
451.34092529,0.00153939
453.26973267,0.00107515
455.19854004,0.00091293
457.12734741,0.00101888
459.05615479,0.00104592
460.98496216,0.00098253
462.91376953,0.00092421
464.84257690,0.00087384
466.77138428,0.00114863
468.70019165,0.00091350
470.62899902,0.00061473
472.55780640,0.00084065
474.48661377,0.00036561
476.41542114,0.00073240
478.34422852,0.00074791
480.27303589,0.00012219
482.20184326,0.00083401
484.13065063,0.00059322
486.05945801,0.00030361
487.98826538,0.00054563
489.91707275,0.00057926
491.84588013,0.00063402
493.77468750,0.00054272
495.70349487,0.00094368
497.63230225,0.00039315
499.56110962,0.00024570
501.48991699,0.00071118
503.41872437,0.00049616
505.34753174,0.00037492
507.27633911,0.00022334
509.20514648,0.00026444
511.13395386,0.00024988
513.06276123,0.00062726
514.99156860,0.00041660
516.92037598,0.00003586
518.84918335,0.00040795
520.77799072,0.00026597
522.70679810,0.00027924
524.63560547,0.00054245
526.56441284,0.00047523
528.49322021,0.00019634
530.42202759,0.00069012
532.35083496,0.00080934
534.27964233,0.00046103
536.20844971,0.00084019
538.13725708,0.00032431
540.06606445,0.00025560
541.99487183,0.00046505
543.92367920,0.00016797
545.85248657,0.00043219
547.78129395,0.00031792
549.71010132,0.00043208
551.63890869,0.00063614
553.56771606,0.00036822
555.49652344,0.00022025
557.42533081,0.00006174
559.35413818,-0.00006571
561.28294556,0.00033876
563.21175293,0.00046335
565.14056030,0.00017452
567.06936768,0.00040730
568.99817505,0.00036063
570.92698242,0.00027173
572.85578979,0.00032879
574.78459717,0.00046162
576.71340454,0.00016889
578.64221191,0.00002044
580.57101929,0.00019450
582.49982666,0.00002369
584.42863403,0.00004800
586.35744141,0.00025365
588.28624878,0.00035534
590.21505615,0.00024883
592.14386353,0.00023275
594.07267090,0.00050705
596.00147827,0.00071602
597.93028564,0.00023988
599.85909302,0.00027029
601.78790039,0.00031155
603.71670776,-0.00000278
605.64551514,0.00016338
607.57432251,0.00007811
609.50312988,0.00045347
611.43193726,0.00030597
613.36074463,0.00031461
615.28955200,0.00002724
617.21835938,-0.00015359
619.14716675,0.00018556
621.07597412,0.00017787
623.00478149,0.00053186
624.93358887,-0.00031389
626.86239624,-0.00018239
628.79120361,0.00045302
630.72001099,0.00054269
632.64881836,0.00116501
634.57762573,0.00150779
636.50643311,0.00181414
638.43524048,0.00148781
640.36404785,0.00189748
642.29285522,0.00195467
644.22166260,0.00181984
646.15046997,0.00246813
648.07927734,0.00244043
650.00808472,0.00269122
651.93689209,0.00253879
653.86569946,0.00276991
655.79450684,0.00301484
657.72331421,0.00269052
659.65212158,0.00315992
661.58092896,0.00323049
663.50973633,0.00331513
665.43854370,0.00343415
667.36735107,0.00322851
669.29615845,0.00344641
671.22496582,0.00397205
673.15377319,0.00423174
675.08258057,0.00417685
677.01138794,0.00460428
678.94019531,0.00498181
680.86900269,0.00472336
682.79781006,0.00463940
684.72661743,0.00478245
686.65542480,0.00460887
688.58423218,0.00460861
690.51303955,0.00480156
692.44184692,0.00513959
694.37065430,0.00547508
696.29946167,0.00591924
698.22826904,0.00717425
700.15707642,0.00788975
702.08588379,0.00788729
704.01469116,0.00727295
705.94349854,0.00621720
707.87230591,0.00562055
709.80111328,0.00448792
711.72992065,0.00301571
713.65872803,0.00168026
715.58753540,0.00107131
717.51634277,0.00077961
719.44515015,0.00020665
721.37395752,0.00051189
723.30276489,0.00044660
725.23157227,-0.00004581
727.16037964,-0.00001824
729.08918701,-0.00020334
731.01799438,-0.00011202
732.94680176,0.00013363
734.87560913,-0.00000346
736.80441650,0.00015356
738.73322388,0.00026138
740.66203125,-0.00002108
742.59083862,-0.00008632
744.51964600,0.00000302
746.44845337,0.00022131
748.37726074,0.00024399
750.30606812,0.00028580
752.23487549,0.00036732
754.16368286,0.00011701
756.09249023,0.00038667
758.02129761,0.00024188
759.95010498,0.00000816
761.87891235,0.00034396
763.80771973,0.00030609
765.73652710,0.00049207
767.66533447,0.00048596
769.59414185,0.00038307
771.52294922,0.00035942
773.45175659,0.00047773
775.38056396,0.00093501
777.30937134,0.00070041
779.23817871,0.00047895
781.16698608,0.00058710
783.09579346,0.00078093
785.02460083,0.00076579
786.95340820,0.00047864
788.88221558,0.00077313
790.81102295,0.00081308
792.73983032,0.00027026
794.66863770,0.00030837
796.59744507,0.00089847
798.52625244,0.00126045
800.45505981,0.00118987
802.38386719,0.00091389
804.31267456,0.00082110
806.24148193,0.00084044
808.17028931,0.00079008
810.09909668,0.00072109
812.02790405,0.00076947
813.95671143,0.00079576
815.88551880,0.00057570
817.81432617,0.00051859
819.74313354,0.00024123
821.67194092,0.00015767
823.60074829,0.00056840
825.52955566,0.00065867
827.45836304,0.00077724
829.38717041,0.00106744
831.31597778,0.00132843
833.24478516,0.00159670
835.17359253,0.00196691
837.10239990,0.00199176
839.03120728,0.00228640
840.96001465,0.00256387
842.88882202,0.00197822
844.81762939,0.00191259
846.74643677,0.00172323
848.67524414,0.00148246
850.60405151,0.00148366
852.53285889,0.00114559
854.46166626,0.00119190
856.39047363,0.00113308
858.31928101,0.00097444
860.24808838,0.00073076
862.17689575,0.00066018
864.10570313,0.00069901
866.03451050,0.00056429
867.96331787,0.00060557
869.89212524,0.00040993
871.82093262,0.00044152
873.74973999,0.00034880
875.67854736,0.00029930
877.60735474,0.00046641
879.53616211,0.00040165
881.46496948,0.00038172
883.39377686,0.00016757
885.32258423,0.00050867
887.25139160,0.00042408
889.18019897,0.00000623
891.10900635,0.00042147
893.03781372,0.00053778
894.96662109,0.00039139
896.89542847,0.00031952
898.82423584,0.00030714
900.75304321,0.00023493
902.68185059,0.00057638
904.61065796,0.00059494
906.53946533,0.00036413
908.46827271,0.00083963
910.39708008,0.00078904
912.32588745,0.00087612
914.25469482,0.00096372
916.18350220,0.00106593
918.11230957,0.00153145
920.04111694,0.00137099
921.96992432,0.00176727
923.89873169,0.00234726
925.82753906,0.00228838
927.75634644,0.00219718
929.68515381,0.00254406
931.61396118,0.00306471
933.54276855,0.00291620
935.47157593,0.00307410
937.40038330,0.00349536
939.32919067,0.00356962
941.25799805,0.00376101
943.18680542,0.00361726
945.11561279,0.00347347
947.04442017,0.00362930
948.97322754,0.00366267
950.90203491,0.00361354
952.83084229,0.00348800
954.75964966,0.00359092
956.68845703,0.00359207
958.61726440,0.00336059
960.54607178,0.00348109
962.47487915,0.00354492
964.40368652,0.00372142
966.33249390,0.00404014
968.26130127,0.00394219
970.19010864,0.00411245
972.11891602,0.00448990
974.04772339,0.00460416
975.97653076,0.00494804
977.90533813,0.00538436
979.83414551,0.00585666
981.76295288,0.00668502
983.69176025,0.00747168
985.62056763,0.00816921
987.54937500,0.00897652
989.47818237,0.00999294
991.40698975,0.01128697
993.33579712,0.01242018
995.26460449,0.01342246
997.19341187,0.01457712
999.12221924,0.01585745
1001.05102661,0.01704890
1002.97983398,0.01822740
1004.90864136,0.01952985
1006.83744873,0.02072519
1008.76625610,0.02213583
1010.69506348,0.02344302
1012.62387085,0.02446005
1014.55267822,0.02572338
1016.48148560,0.02696318
1018.41029297,0.02833124
1020.33910034,0.02986040
1022.26790771,0.03099516
1024.19671509,0.03216462
1026.12552246,0.03367553
1028.05432983,0.03457388
1029.98313721,0.03540386
1031.91194458,0.03664143
1033.84075195,0.03715181
1035.76955933,0.03778567
1037.69836670,0.03854606
1039.62717407,0.03879899
1041.55598145,0.03869731
1043.48478882,0.03789932
1045.41359619,0.03759200
1047.34240356,0.03725388
1049.27121094,0.03655313
1051.20001831,0.03629178
1053.12882568,0.03531388
1055.05763306,0.03443571
1056.98644043,0.03377527
1058.91524780,0.03278814
1060.84405518,0.03224471
1062.77286255,0.03117339
1064.70166992,0.03009908
1066.63047729,0.02916979
1068.55928467,0.02767791
1070.48809204,0.02656218
1072.41689941,0.02513898
1074.34570679,0.02397000
1076.27451416,0.02331954
1078.20332153,0.02193105
1080.13212891,0.02082874
1082.06093628,0.02000067
1083.98974365,0.01921058
1085.91855103,0.01826873
1087.84735840,0.01718241
1089.77616577,0.01669255
1091.70497314,0.01583817
1093.63378052,0.01511901
1095.56258789,0.01462289
1097.49139526,0.01403325
1099.42020264,0.01380382
1101.34901001,0.01337274
1103.27781738,0.01328515
1105.20662476,0.01276084
1107.13543213,0.01223965
1109.06423950,0.01247239
1110.99304687,0.01202275
1112.92185425,0.01198370
1114.85066162,0.01214046
1116.77946899,0.01180123
1118.70827637,0.01177838
1120.63708374,0.01183055
1122.56589111,0.01204354
1124.49469849,0.01229625
1126.42350586,0.01235913
1128.35231323,0.01249236
1130.28112061,0.01296838
1132.20992798,0.01322239
1134.13873535,0.01351312
1136.06754272,0.01416712
1137.99635010,0.01476982
1139.92515747,0.01594939
1141.85396484,0.01699586
1143.78277222,0.01802029
1145.71157959,0.01922199
1147.64038696,0.02012312
1149.56919434,0.02138210
1151.49800171,0.02244561
1153.42680908,0.02352524
1155.35561646,0.02459191
1157.28442383,0.02563013
1159.21323120,0.02673104
1161.14203857,0.02750967
1163.07084595,0.02866894
1164.99965332,0.02969702
1166.92846069,0.03087629
1168.85726807,0.03218073
1170.78607544,0.03313390
1172.71488281,0.03440181
1174.64369019,0.03579326
1176.57249756,0.03721487
1178.50130493,0.03847415
1180.43011230,0.03997523
1182.35891968,0.04186005
1184.28772705,0.04372286
1186.21653442,0.04542040
1188.14534180,0.04743397
1190.07414917,0.05000086
1192.00295654,0.05224312
1193.93176392,0.05476968
1195.86057129,0.05724584
1197.78937866,0.05964216
1199.71818604,0.06249417
1201.64699341,0.06508572
1203.57580078,0.06781396
1205.50460815,0.07039344
1207.43341553,0.07300822
1209.36222290,0.07551857
1211.29103027,0.07762839
1213.21983765,0.07980134
1215.14864502,0.08164968
1217.07745239,0.08353491
1219.00625977,0.08514804
1220.93506714,0.08641057
1222.86387451,0.08749080
1224.79268188,0.08821787
1226.72148926,0.08904532
1228.65029663,0.08958136
1230.57910400,0.08988744
1232.50791138,0.09020993
1234.43671875,0.09023578
1236.36552612,0.09008123
1238.29433350,0.08979192
1240.22314087,0.08961487
1242.15194824,0.08953046
1244.08075562,0.08893438
1246.00956299,0.08861536
1247.93837036,0.08820795
1249.86717773,0.08719842
1251.79598511,0.08686739
1253.72479248,0.08578032
1255.65359985,0.08449757
1257.58240723,0.08398790
1259.51121460,0.08217359
1261.44002197,0.08061176
1263.36882935,0.08010125
1265.29763672,0.07897152
1267.22644409,0.07772429
1269.15525146,0.07677560
1271.08405884,0.07557742
1273.01286621,0.07435657
1274.94167358,0.07299041
1276.87048096,0.07145189
1278.79928833,0.07017672
1280.72809570,0.06876703
1282.65690308,0.06753603
1284.58571045,0.06631435
1286.51451782,0.06499751
1288.44332520,0.06389688
1290.37213257,0.06287090
1292.30093994,0.06247951
1294.22974731,0.06207530
1296.15855469,0.06138269
1298.08736206,0.06129140
1300.01616943,0.06154863
1301.94497681,0.06165273
1303.87378418,0.06216726
1305.80259155,0.06270756
1307.73139893,0.06334321
1309.66020630,0.06485647
1311.58901367,0.06568062
1313.51782104,0.06686117
1315.44662842,0.06880625
1317.37543579,0.06996463
1319.30424316,0.07183401
1321.23305054,0.07436270
1323.16185791,0.07665203
1325.09066528,0.07878238
1327.01947266,0.08109621
1328.94828003,0.08331270
1330.87708740,0.08534078
1332.80589478,0.08732282
1334.73470215,0.08874451
1336.66350952,0.08981493
1338.59231689,0.08921009
1340.52112427,0.09021825
1342.44993164,0.09381197
1344.37873901,0.09428182
1346.30754639,0.09415938
1348.23635376,0.09416387
1350.16516113,0.09338025
1352.09396851,0.09338853
1354.02277588,0.09203561
1355.95158325,0.09133802
1357.88039062,0.09077486
1359.80919800,0.08923464
1361.73800537,0.08570704
1363.66681274,0.08408871
1365.59562012,0.08821337
1367.52442749,0.08630502
1369.45323486,0.08506659
1371.38204224,0.08678854
1373.31084961,0.08229415
1375.23965698,0.08292556
1377.16846436,0.08480433
1379.09727173,0.08450146
1381.02607910,0.08471813
1382.95488647,0.08417050
1384.88369385,0.08444594
1386.81250122,0.08073528
1388.74130859,0.08172059
1390.67011597,0.08817703
1392.59892334,0.08614375
1394.52773071,0.08102232
1396.45653809,0.08449912
1398.38534546,0.08462337
1400.31415283,0.08414255
1402.24296021,0.09055965
1404.17176758,0.08567707
1406.10057495,0.08616479
1408.02938232,0.08952722
1409.95818970,0.08582111
1411.88699707,0.08804144
1413.81580444,0.08497577
1415.74461182,0.08616860
1417.67341919,0.07840301
1419.60222656,0.07000414
1421.53103394,0.08034681
1423.45984131,0.07794838
1425.38864868,0.07535091
1427.31745605,0.07617997
1429.24626343,0.07063200
1431.17507080,0.06854619
1433.10387817,0.06932561
1435.03268555,0.06377277
1436.96149292,0.05385618
1438.89030029,0.06082518
1440.81910767,0.06246890
1442.74791504,0.05779774
1444.67672241,0.06066111
1446.60552979,0.05554993
1448.53433716,0.05641814
1450.46314453,0.05817883
1452.39195190,0.05923915
1454.32075928,0.06155692
1456.24956665,0.05128908
1458.17837402,0.05357721
1460.10718140,0.07041791
1462.03598877,0.07542112
1463.96479614,0.07490164
1465.89360352,0.07772522
1467.82241089,0.08876622
1469.75121826,0.09557977
1471.68002563,0.08585183
1473.60883301,0.09011829
1475.53764038,0.10238370
1477.46644775,0.11011547
1479.39525513,0.12078956
1481.32406250,0.12279436
1483.25286987,0.13038190
1485.18167725,0.13474318
1487.11048462,0.13285567
1489.03929199,0.13262147
1490.96809937,0.13354114
1492.89690674,0.15428299
1494.82571411,0.15125668
1496.75452148,0.13664168
1498.68332886,0.15394592
1500.61213623,0.15884650
1502.54094360,0.16986763
1504.46975098,0.16139504
1506.39855835,0.11905248
1508.32736572,0.14379115
1510.25617310,0.16811565
1512.18498047,0.16256876
1514.11378784,0.17583567
1516.04259521,0.15928447
1517.97140259,0.16598669
1519.90020996,0.16063496
1521.82901733,0.13932735
1523.75782471,0.16938534
1525.68663208,0.16676641
1527.61543945,0.16590884
1529.54424683,0.18256351
1531.47305420,0.17568962
1533.40186157,0.16171479
1535.33066895,0.17045882
1537.25947632,0.18209854
1539.18828369,0.13226131
1541.11709106,0.13710973
1543.04589844,0.16362187
1544.97470581,0.15714258
1546.90351318,0.18416461
1548.83232056,0.17231545
1550.76112793,0.17730978
1552.68993530,0.17625912
1554.61874268,0.16020387
1556.54755005,0.17107946
1558.47635742,0.12262879
1560.40516479,0.13052019
1562.33397217,0.18337491
1564.26277954,0.17391530
1566.19158691,0.17810294
1568.12039429,0.17644614
1570.04920166,0.15646003
1571.97800903,0.17902967
1573.90681641,0.18121132
1575.83562378,0.14406675
1577.76443115,0.16140695
1579.69323853,0.18181157
1581.62204590,0.17362848
1583.55085327,0.17736349
1585.47966064,0.17418046
1587.40846802,0.17464264
1589.33727539,0.17284052
1591.26608276,0.17208737
1593.19489014,0.17161107
1595.12369751,0.16872904
1597.05250488,0.17013937
1598.98131226,0.16827378
1600.91011963,0.16856271
1602.83892700,0.16478422
1604.76773437,0.16629526
1606.69654175,0.16288948
1608.62534912,0.16121714
1610.55415649,0.16029932
1612.48296387,0.16013362
1614.41177124,0.16122025
1616.34057861,0.13191351
1618.26938599,0.14135468
1620.19819336,0.16290322
1622.12700073,0.14398223
1624.05580811,0.14391881
1625.98461548,0.15001410
1627.91342285,0.14879246
1629.84223022,0.14710748
1631.77103760,0.15612608
1633.69984497,0.14463672
1635.62865234,0.11985865
1637.55745972,0.13845542
1639.48626709,0.15195861
1641.41507446,0.14853486
1643.34388184,0.15265280
1645.27268921,0.13863291
1647.20149658,0.12270767
1649.13030396,0.15191180
1651.05911133,0.14509252
1652.98791870,0.09491856
1654.91672607,0.12781850
1656.84553345,0.16054338
1658.77434082,0.15456825
1660.70314819,0.15980771
1662.63195557,0.14649117
1664.56076294,0.15484709
1666.48957031,0.16708815
1668.41837769,0.14762104
1670.34718506,0.14432621
1672.27599243,0.16380987
1674.20479980,0.15272720
1676.13360718,0.14719534
1678.06241455,0.16953625
1679.99122192,0.16465193
1681.92002930,0.16391248
1683.84883667,0.13536620
1685.77764404,0.13386965
1687.70645142,0.18280174
1689.63525879,0.16063312
1691.56406616,0.17612895
1693.49287354,0.18095598
1695.42168091,0.13387734
1697.35048828,0.16464728
1699.27929565,0.14701396
1701.20810303,0.13253498
1703.13691040,0.17934503
1705.06571777,0.16590163
1706.99452515,0.16747338
1708.92333252,0.18238892
1710.85213989,0.17582917
1712.78094727,0.17921007
1714.70975464,0.16739711
1716.63856201,0.15126669
1718.56736938,0.14906490
1720.49617676,0.17591730
1722.42498413,0.18311644
1724.35379150,0.17064095
1726.28259888,0.18516713
1728.21140625,0.17210525
1730.14021362,0.17341399
1732.06902100,0.16964340
1733.99782837,0.13093171
1735.92663574,0.16095984
1737.85544312,0.17841667
1739.78425049,0.15940323
1741.71305786,0.17304178
1743.64186523,0.17588434
1745.57067261,0.17621811
1747.49947998,0.17818022
1749.42828735,0.17095563
1751.35709473,0.16386358
1753.28590210,0.18070740
1755.21470947,0.18920252
1757.14351685,0.17320183
1759.07232422,0.18975279
1761.00113159,0.17930600
1762.92993896,0.17293093
1764.85874634,0.19716549
1766.78755371,0.17848250
1768.71636108,0.17994608
1770.64516846,0.17909069
1772.57397583,0.16159640
1774.50278320,0.17944583
1776.43159058,0.18922488
1778.36039795,0.18691440
1780.28920532,0.18485016
1782.21801270,0.18626073
1784.14682007,0.18618022
1786.07562744,0.18256725
1788.00443481,0.19149199
1789.93324219,0.18718114
1791.86204956,0.16993320
1793.79085693,0.17675138
1795.71966431,0.18962416
1797.64847168,0.18704030
1799.57727905,0.18443000
1801.50608643,0.18138748
1803.43489380,0.18670578
1805.36370117,0.19097662
1807.29250854,0.18838140
1809.22131592,0.18915156
1811.15012329,0.18433052
1813.07893066,0.18976265
1815.00773804,0.19074528
1816.93654541,0.18850538
1818.86535278,0.19019946
1820.79416016,0.18923922
1822.72296753,0.19202366
1824.65177490,0.18004443
1826.58058228,0.18608981
1828.50938965,0.18669301
1830.43819702,0.17529005
1832.36700439,0.19017863
1834.29581177,0.18913066
1836.22461914,0.18867713
1838.15342651,0.18810895
1840.08223389,0.18904091
1842.01104126,0.18954730
1843.93984863,0.16911866
1845.86865601,0.17936011
1847.79746338,0.18909210
1849.72627075,0.18511111
1851.65507812,0.19013512
1853.58388550,0.18664829
1855.51269287,0.18849891
1857.44150024,0.18734095
1859.37030762,0.18615323
1861.29911499,0.18736456
1863.22792236,0.18537934
1865.15672974,0.18722254
1867.08553711,0.18125299
1869.01434448,0.17423025
1870.94315186,0.18051255
1872.87195923,0.18684629
1874.80076660,0.18403536
1876.72957397,0.18505013
1878.65838135,0.18451074
1880.58718872,0.18336880
1882.51599609,0.18491924
1884.44480347,0.18197039
1886.37361084,0.18459514
1888.30241821,0.18073006
1890.23122559,0.17702460
1892.16003296,0.18342829
1894.08884033,0.18080708
1896.01764771,0.18004692
1897.94645508,0.18210858
1899.87526245,0.18093842
1901.80406982,0.18151553
1903.73287720,0.18036491
1905.66168457,0.18092510
1907.59049194,0.17933404
1909.51929932,0.17819355
1911.44810669,0.17912871
1913.37691406,0.17918882
1915.30572144,0.18090451
1917.23452881,0.17332983
1919.16333618,0.17325181
1921.09214355,0.17966947
1923.02095093,0.17402278
1924.94975830,0.17734013
1926.87856567,0.17913029
1928.80737305,0.17673016
1930.73618042,0.17884624
1932.66498779,0.17654762
1934.59379517,0.17821738
1936.52260254,0.17704459
1938.45140991,0.17742074
1940.38021729,0.17739329
1942.30902466,0.17197786
1944.23783203,0.17477998
1946.16663940,0.17629579
1948.09544678,0.17603973
1950.02425415,0.17660859
1951.95306152,0.17599705
1953.88186890,0.17605844
1955.81067627,0.17542589
1957.73948364,0.17599642
1959.66829102,0.17542011
1961.59709839,0.17524773
1963.52590576,0.17559430
1965.45471313,0.17445740
1967.38352051,0.17288142
1969.31232788,0.17400114
1971.24113525,0.17505574
1973.16994263,0.17378005
1975.09875000,0.17444709
1977.02755737,0.17361328
1978.95636475,0.17369953
1980.88517212,0.17356199
1982.81397949,0.17261025
1984.74278687,0.17337345
1986.67159424,0.17193410
1988.60040161,0.17222095
1990.52920898,0.17075530
1992.45801636,0.16884528
1994.38682373,0.17110267
1996.31563110,0.17126194
1998.24443848,0.17046747
2000.17324585,0.17040826
2002.10205322,0.16987279
2004.03086060,0.16951519
2005.95966797,0.16919485
2007.88847534,0.16865599
2009.81728271,0.16846129
2011.74609009,0.16799600
2013.67489746,0.16783528
2015.60370483,0.16694811
2017.53251221,0.16542548
2019.46131958,0.16627899
2021.39012695,0.16619773
2023.31893433,0.16553172
2025.24774170,0.16531093
2027.17654907,0.16475174
2029.10535645,0.16474402
2031.03416382,0.16409072
2032.96297119,0.16387396
2034.89177856,0.16333190
2036.82058594,0.16293688
2038.74939331,0.16280496
2040.67820068,0.16190551
2042.60700806,0.16165447
2044.53581543,0.16160443
2046.46462280,0.16134198
2048.39343018,0.16077790
2050.32223755,0.16044223
2052.25104492,0.16009977
2054.17985229,0.15965140
2056.10865967,0.15938035
2058.03746704,0.15899111
2059.96627441,0.15863863
2061.89508179,0.15849274
2063.82388916,0.15783510
2065.75269653,0.15690762
2067.68150391,0.15744382
2069.61031128,0.15715823
2071.53911865,0.15661626
2073.46792603,0.15659894
2075.39673340,0.15590931
2077.32554077,0.15589619
2079.25434814,0.15533975
2081.18315552,0.15503666
2083.11196289,0.15479651
2085.04077026,0.15439492
2086.96957764,0.15426785
2088.89838501,0.15369993
2090.82719238,0.15358967
2092.75599976,0.15318900
2094.68480713,0.15299365
2096.61361450,0.15263081
2098.54242187,0.15233758
2100.47122925,0.15221950
2102.40003662,0.15182140
2104.32884399,0.15178955
2106.25765137,0.15131244
2108.18645874,0.15118121
2110.11526611,0.15079609
2112.04407349,0.15043378
2113.97288086,0.15017346
2115.90168823,0.14985299
2117.83049561,0.15009698
2119.75930298,0.14968702
2121.68811035,0.14938040
2123.61691772,0.14910522
2125.54572510,0.14893278
2127.47453247,0.14864719
2129.40333984,0.14838862
2131.33214722,0.14838043
2133.26095459,0.14793429
2135.18976196,0.14787552
2137.11856934,0.14763220
2139.04737671,0.14747667
2140.97618408,0.14723274
2142.90499146,0.14709866
2144.83379883,0.14705372
2146.76260620,0.14665784
2148.69141357,0.14664045
2150.62022095,0.14634046
2152.54902832,0.14617634
2154.47783569,0.14594178
2156.40664307,0.14601889
2158.33545044,0.14586507
2160.26425781,0.14534220
2162.19306519,0.14541203
2164.12187256,0.14504921
2166.05067993,0.14494590
2167.97948730,0.14485893
2169.90829468,0.14483134
2171.83710205,0.14458273
2173.76590942,0.14431944
2175.69471680,0.14440715
2177.62352417,0.14398567
2179.55233154,0.14398456
2181.48113892,0.14375257
2183.40994629,0.14364120
2185.33875366,0.14351824
2187.26756104,0.14323059
2189.19636841,0.14312881
2191.12517578,0.14282849
2193.05398315,0.14295301
2194.98279053,0.14272648
2196.91159790,0.14261705
2198.84040527,0.14236897
2200.76921265,0.14219742
2202.69802002,0.14219835
2204.62682739,0.14186954
2206.55563477,0.14186433
2208.48444214,0.14150450
2210.41324951,0.14151159
2212.34205688,0.14128180
2214.27086426,0.14104915
2216.19967163,0.14112511
2218.12847900,0.14082912
2220.05728638,0.14084318
2221.98609375,0.14055468
2223.91490112,0.14037265
2225.84370850,0.14014386
2227.77251587,0.13999832
2229.70132324,0.13980111
2231.63013062,0.13949494
2233.55893799,0.13948992
2235.48774536,0.13911346
2237.41655273,0.13901687
2239.34536011,0.13877495
2241.27416748,0.13854986
2243.20297485,0.13844353
2245.13178223,0.13826135
2247.06058960,0.13815092
2248.98939697,0.13782421
2250.91820435,0.13767132
2252.84701172,0.13734950
2254.77581909,0.13716269
2256.70462646,0.13698748
2258.63343384,0.13692309
2260.56224121,0.13671851
2262.49104858,0.13632092
2264.41985596,0.13635005
2266.34866333,0.13617650
2268.27747070,0.13611981
2270.20627808,0.13592608
2272.13508545,0.13575947
2274.06389282,0.13559991
2275.99270020,0.13541427
2277.92150757,0.13537085
2279.85031494,0.13511358
2281.77912231,0.13512513
2283.70792969,0.13488498
2285.63673706,0.13465469
2287.56554443,0.13444734
2289.49435181,0.13415325
2291.42315918,0.13371783
2293.35196655,0.13332014
2295.28077393,0.13320249
2297.20958130,0.13268393
2299.13838867,0.13237849
2301.06719604,0.13173907
2302.99600342,0.13118470
2304.92481079,0.13063416
2306.85361816,0.12972119
2308.78242554,0.12895098
2310.71123291,0.12757596
2312.64004028,0.12646389
2314.56884766,0.12526806
2316.49765503,0.12385592
2318.42646240,0.12227365
2320.35526978,0.12061816
2322.28407715,0.11903834
2324.21288452,0.11734574
2326.14169189,0.11621074
2328.07049927,0.11466056
2329.99930664,0.11324196
2331.92811401,0.11224645
2333.85692139,0.11188052
2335.78572876,0.11150011
2337.71453613,0.11101151
2339.64334351,0.11116908
2341.57215088,0.11143494
2343.50095825,0.11327419
2345.42976562,0.11513574
2347.35857300,0.11993247
2349.28738037,0.12421822
2351.21618774,0.11970135
2353.14499512,0.11376771
2355.07380249,0.10949925
2357.00260986,0.10600621
2358.93141724,0.10412038
2360.86022461,0.10283583
2362.78903198,0.10283801
2364.71783936,0.10324696
2366.64664673,0.10475002
2368.57545410,0.10675356
2370.50426147,0.10941562
2372.43306885,0.11279109
2374.36187622,0.11572155
2376.29068359,0.11889800
2378.21949097,0.12147573
2380.14829834,0.12348703
2382.07710571,0.12500913
2384.00591309,0.12584499
2385.93472046,0.12622622
2387.86352783,0.12631887
2389.79233521,0.12611525
2391.72114258,0.12596114
2393.64994995,0.12599236
2395.57875732,0.12565303
2397.50756470,0.12564392
2399.43637207,0.12549862
2401.36517944,0.12532750
2403.29398682,0.12514909
2405.22279419,0.12478147
2407.15160156,0.12479096
2409.08040894,0.12456514
2411.00921631,0.12441482
2412.93802368,0.12430884
2414.86683105,0.12427700
2416.79563843,0.12406878
2418.72444580,0.12385044
2420.65325317,0.12376539
2422.58206055,0.12336183
2424.51086792,0.12337281
2426.43967529,0.12320460
2428.36848267,0.12297975
2430.29729004,0.12283537
2432.22609741,0.12259436
2434.15490479,0.12257393
2436.08371216,0.12247055
2438.01251953,0.12233608
2439.94132690,0.12214060
2441.87013428,0.12201121
2443.79894165,0.12169416
2445.72774902,0.12163219
2447.65655640,0.12147249
2449.58536377,0.12120815
2451.51417114,0.12127110
2453.44297852,0.12088935
2455.37178589,0.12089345
2457.30059326,0.12075068
2459.22940063,0.12037565
2461.15820801,0.12032641
2463.08701538,0.12015043
2465.01582275,0.12008792
2466.94463013,0.11981536
2468.87343750,0.11967508
2470.80224487,0.11964044
2472.73105225,0.11941946
2474.65985962,0.11919060
2476.58866699,0.11911929
2478.51747437,0.11890049
2480.44628174,0.11858161
2482.37508911,0.11869448
2484.30389648,0.11849353
2486.23270386,0.11821307
2488.16151123,0.11812563
2490.09031860,0.11800112
2492.01912598,0.11777654
2493.94793335,0.11758934
2495.87674072,0.11765559
2497.80554810,0.11744654
2499.73435547,0.11727335
2501.66316284,0.11714502
2503.59197021,0.11698687
2505.52077759,0.11680591
2507.44958496,0.11657878
2509.37839233,0.11641100
2511.30719971,0.11619195
2513.23600708,0.11613685
2515.16481445,0.11596152
2517.09362183,0.11582253
2519.02242920,0.11565246
2520.95123657,0.11559126
2522.88004395,0.11550751
2524.80885132,0.11518663
2526.73765869,0.11516462
2528.66646606,0.11489392
2530.59527344,0.11474840
2532.52408081,0.11469879
2534.45288818,0.11449385
2536.38169556,0.11439831
2538.31050293,0.11425135
2540.23931030,0.11420228
2542.16811768,0.11393033
2544.09692505,0.11375591
2546.02573242,0.11356694
2547.95453979,0.11341137
2549.88334717,0.11338748
2551.81215454,0.11316581
2553.74096191,0.11308333
2555.66976929,0.11277832
2557.59857666,0.11256619
2559.52738403,0.11257051
2561.45619141,0.11243278
2563.38499878,0.11230995
2565.31380615,0.11208061
2567.24261353,0.11183872
2569.17142090,0.11179274
2571.10022827,0.11169007
2573.02903564,0.11142638
2574.95784302,0.11138501
2576.88665039,0.11124383
2578.81545776,0.11106150
2580.74426514,0.11092106
2582.67307251,0.11068004
2584.60187988,0.11052789
2586.53068726,0.11032830
2588.45949463,0.11035978
2590.38830200,0.11025573
2592.31710937,0.10989265
2594.24591675,0.10968010
2596.17472412,0.10958938
2598.10353149,0.10948190
2600.03233887,0.10932095
2601.96114624,0.10920466
2603.88995361,0.10899574
2605.81876099,0.10890358
2607.74756836,0.10875632
2609.67637573,0.10867947
2611.60518311,0.10846476
2613.53399048,0.10816262
2615.46279785,0.10827550
2617.39160522,0.10799883
2619.32041260,0.10780904
2621.24921997,0.10767671
2623.17802734,0.10740581
2625.10683472,0.10733411
2627.03564209,0.10709253
2628.96444946,0.10704356
2630.89325684,0.10690825
2632.82206421,0.10674849
2634.75087158,0.10658102
2636.67967895,0.10633830
2638.60848633,0.10626187
2640.53729370,0.10609655
2642.46610107,0.10597286
2644.39490845,0.10572001
2646.32371582,0.10550532
2648.25252319,0.10543066
2650.18133057,0.10530312
2652.11013794,0.10512745
2654.03894531,0.10491948
2655.96775269,0.10474363
2657.89656006,0.10456248
2659.82536743,0.10445277
2661.75417480,0.10431740
2663.68298218,0.10422798
2665.61178955,0.10407475
2667.54059692,0.10386602
2669.46940430,0.10367934
2671.39821167,0.10349049
2673.32701904,0.10337186
2675.25582642,0.10320701
2677.18463379,0.10309148
2679.11344116,0.10291913
2681.04224854,0.10279690
2682.97105591,0.10261790
2684.89986328,0.10242731
2686.82867065,0.10230789
2688.75747803,0.10212821
2690.68628540,0.10203363
2692.61509277,0.10178865
2694.54390015,0.10163172
2696.47270752,0.10136467
2698.40151489,0.10121627
2700.33032227,0.10121691
2702.25912964,0.10090747
2704.18793701,0.10078262
2706.11674438,0.10064740
2708.04555176,0.10054062
2709.97435913,0.10031009
2711.90316650,0.10019079
2713.83197388,0.10010117
2715.76078125,0.09980568
2717.68958862,0.09973931
2719.61839600,0.09941959
2721.54720337,0.09939355
2723.47601074,0.09923865
2725.40481812,0.09891775
2727.33362549,0.09899354
2729.26243286,0.09873000
2731.19124023,0.09847581
2733.12004761,0.09833871
2735.04885498,0.09828456
2736.97766235,0.09803927
2738.90646973,0.09786849
2740.83527710,0.09780513
2742.76408447,0.09753348
2744.69289185,0.09742083
2746.62169922,0.09705422
2748.55050659,0.09690595
2750.47931396,0.09688012
2752.40812134,0.09674814
2754.33692871,0.09661375
2756.26573608,0.09627338
2758.19454346,0.09609546
2760.12335083,0.09588487
2762.05215820,0.09580017
2763.98096558,0.09569336
2765.90977295,0.09548687
2767.83858032,0.09526840
2769.76738770,0.09505599
2771.69619507,0.09495366
2773.62500244,0.09470423
2775.55380981,0.09455512
2777.48261719,0.09440064
2779.41142456,0.09426511
2781.34023193,0.09400548
2783.26903931,0.09375925
2785.19784668,0.09369323
2787.12665405,0.09349179
2789.05546143,0.09329662
2790.98426880,0.09304357
2792.91307617,0.09299415
2794.84188354,0.09268167
2796.77069092,0.09236062
2798.69949829,0.09235573
2800.62830566,0.09212971
2802.55711304,0.09205305
2804.48592041,0.09170163
2806.41472778,0.09139334
2808.34353516,0.09133106
2810.27234253,0.09109687
2812.20114990,0.09098110
2814.12995728,0.09076674
2816.05876465,0.09049313
2817.98757202,0.09030633
2819.91637939,0.09016241
2821.84518677,0.08995953
2823.77399414,0.08975041
2825.70280151,0.08960316
2827.63160889,0.08947045
2829.56041626,0.08920780
2831.48922363,0.08890973
2833.41803101,0.08870845
2835.34683838,0.08841843
2837.27564575,0.08820751
2839.20445312,0.08783127
2841.13326050,0.08751169
2843.06206787,0.08733849
2844.99087524,0.08702086
2846.91968262,0.08650152
2848.84848999,0.08581692
2850.77729736,0.08568470
2852.70610474,0.08559208
2854.63491211,0.08542713
2856.56371948,0.08536302
2858.49252686,0.08514206
2860.42133423,0.08501484
2862.35014160,0.08475082
2864.27894897,0.08455832
2866.20775635,0.08434720
2868.13656372,0.08424146
2870.06537109,0.08409412
2871.99417847,0.08385816
2873.92298584,0.08378617
2875.85179321,0.08350042
2877.78060059,0.08347632
2879.70940796,0.08335353
2881.63821533,0.08309539
2883.56702270,0.08296384
2885.49583008,0.08281224
2887.42463745,0.08265939
2889.35344482,0.08229734
2891.28225220,0.08216161
2893.21105957,0.08192671
2895.13986694,0.08169760
2897.06867432,0.08141851
2898.99748169,0.08101232
2900.92628906,0.08095500
2902.85509644,0.08067790
2904.78390381,0.08037034
2906.71271118,0.08006693
2908.64151855,0.07968848
2910.57032593,0.07931361
2912.49913330,0.07891178
2914.42794067,0.07853404
2916.35674805,0.07807708
2918.28555542,0.07782431
2920.21436279,0.07758957
2922.14317017,0.07738946
2924.07197754,0.07717332
2926.00078491,0.07700361
2927.92959229,0.07694148
2929.85839966,0.07674488
2931.78720703,0.07662950
2933.71601440,0.07658895
2935.64482178,0.07660131
2937.57362915,0.07639253
2939.50243652,0.07632525
2941.43124390,0.07630251
2943.36005127,0.07599089
2945.28885864,0.07596789
2947.21766602,0.07578576
2949.14647339,0.07550561
2951.07528076,0.07533473
2953.00408813,0.07495143
2954.93289551,0.07467628
2956.86170288,0.07454079
2958.79051025,0.07406278
2960.71931763,0.07365191
2962.64812500,0.07362493
2964.57693237,0.07336974
2966.50573975,0.07324497
2968.43454712,0.07313773
2970.36335449,0.07301654
2972.29216187,0.07308134
2974.22096924,0.07291642
2976.14977661,0.07283147
2978.07858398,0.07270131
2980.00739136,0.07259534
2981.93619873,0.07251983
2983.86500610,0.07236591
2985.79381348,0.07218898
2987.72262085,0.07197610
2989.65142822,0.07194424
2991.58023560,0.07168303
2993.50904297,0.07133049
2995.43785034,0.07107995
2997.36665771,0.07093593
2999.29546509,0.07073739
3001.22427246,0.07038006
3003.15307983,0.07023489
3005.08188721,0.06999157
3007.01069458,0.06966373
3008.93950195,0.06934373
3010.86830933,0.06907465
3012.79711670,0.06873488
3014.72592407,0.06844532
3016.65473145,0.06837403
3018.58353882,0.06803623
3020.51234619,0.06786526
3022.44115356,0.06767072
3024.36996094,0.06720537
3026.29876831,0.06690975
3028.22757568,0.06667401
3030.15638306,0.06633728
3032.08519043,0.06591949
3034.01399780,0.06575605
3035.94280518,0.06558120
3037.87161255,0.06524529
3039.80041992,0.06494644
3041.72922729,0.06464820
3043.65803467,0.06431089
3045.58684204,0.06399949
3047.51564941,0.06375790
3049.44445679,0.06339614
3051.37326416,0.06320776
3053.30207153,0.06296512
3055.23087891,0.06257298
3057.15968628,0.06231406
3059.08849365,0.06197434
3061.01730103,0.06169318
3062.94610840,0.06141776
3064.87491577,0.06106856
3066.80372314,0.06068408
3068.73253052,0.06044780
3070.66133789,0.06025875
3072.59014526,0.05989040
3074.51895264,0.05957649
3076.44776001,0.05930017
3078.37656738,0.05892881
3080.30537476,0.05849504
3082.23418213,0.05833640
3084.16298950,0.05805798
3086.09179687,0.05764619
3088.02060425,0.05747340
3089.94941162,0.05713951
3091.87821899,0.05689557
3093.80702637,0.05649280
3095.73583374,0.05597200
3097.66464111,0.05570178
3099.59344849,0.05532645
3101.52225586,0.05498772
3103.45106323,0.05467787
3105.37987061,0.05440859
3107.30867798,0.05416015
3109.23748535,0.05382857
3111.16629272,0.05349806
3113.09510010,0.05310782
3115.02390747,0.05266527
3116.95271484,0.05222177
3118.88152222,0.05187861
3120.81032959,0.05160947
3122.73913696,0.05128509
3124.66794434,0.05091283
3126.59675171,0.05056076
3128.52555908,0.05020330
3130.45436645,0.04991323
3132.38317383,0.04954261
3134.31198120,0.04912874
3136.24078857,0.04886142
3138.16959595,0.04842807
3140.09840332,0.04803753
3142.02721069,0.04774977
3143.95601807,0.04742803
3145.88482544,0.04713330
3147.81363281,0.04676551
3149.74244019,0.04644288
3151.67124756,0.04601093
3153.60005493,0.04562652
3155.52886230,0.04541659
3157.45766968,0.04507230
3159.38647705,0.04475513
3161.31528442,0.04449926
3163.24409180,0.04411943
3165.17289917,0.04376552
3167.10170654,0.04344946
3169.03051392,0.04319581
3170.95932129,0.04288132
3172.88812866,0.04237661
3174.81693604,0.04214039
3176.74574341,0.04178639
3178.67455078,0.04143114
3180.60335815,0.04132224
3182.53216553,0.04094574
3184.46097290,0.04072271
3186.38978027,0.04039719
3188.31858765,0.04013393
3190.24739502,0.04001485
3192.17620239,0.03968149
3194.10500977,0.03948082
3196.03381714,0.03916126
3197.96262451,0.03887110
3199.89143188,0.03860126
3201.82023926,0.03846071
3203.74904663,0.03830417
3205.67785400,0.03805037
3207.60666138,0.03785613
3209.53546875,0.03747311
3211.46427612,0.03746242
3213.39308350,0.03726412
3215.32189087,0.03695025
3217.25069824,0.03686504
3219.17950562,0.03660330
3221.10831299,0.03646677
3223.03712036,0.03638013
3224.96592773,0.03631625
3226.89473511,0.03595922
3228.82354248,0.03580417
3230.75234985,0.03573973
3232.68115723,0.03556757
3234.60996460,0.03558113
3236.53877197,0.03530206
3238.46757935,0.03524396
3240.39638672,0.03507712
3242.32519409,0.03501532
3244.25400146,0.03498285
3246.18280884,0.03474287
3248.11161621,0.03485259
3250.04042358,0.03462344
3251.96923096,0.03456119
3253.89803833,0.03450296
3255.82684570,0.03432130
3257.75565308,0.03434844
3259.68446045,0.03426069
3261.61326782,0.03424057
3263.54207520,0.03410539
3265.47088257,0.03411324
3267.39968994,0.03406999
3269.32849731,0.03399552
3271.25730469,0.03391889
3273.18611206,0.03370213
3275.11491943,0.03361671
3277.04372681,0.03358866
3278.97253418,0.03364284
3280.90134155,0.03356039
3282.83014893,0.03350741
3284.75895630,0.03336842
3286.68776367,0.03341603
3288.61657104,0.03347988
3290.54537842,0.03320995
3292.47418579,0.03313904
3294.40299316,0.03308192
3296.33180054,0.03315542
3298.26060791,0.03296518
3300.18941528,0.03296495
3302.11822266,0.03307030
3304.04703003,0.03280904
3305.97583740,0.03286088
3307.90464478,0.03265910
3309.83345215,0.03259282
3311.76225952,0.03259785
3313.69106689,0.03259729
3315.61987427,0.03264168
3317.54868164,0.03243496
3319.47748901,0.03252638
3321.40629639,0.03241494
3323.33510376,0.03232648
3325.26391113,0.03232048
3327.19271851,0.03225107
3329.12152588,0.03227212
3331.05033325,0.03216380
3332.97914062,0.03205935
3334.90794800,0.03197839
3336.83675537,0.03195317
3338.76556274,0.03192241
3340.69437012,0.03196578
3342.62317749,0.03180680
3344.55198486,0.03179979
3346.48079224,0.03180702
3348.40959961,0.03166499
3350.33840698,0.03167114
3352.26721436,0.03155072
3354.19602173,0.03169188
3356.12482910,0.03147171
3358.05363647,0.03143613
3359.98244385,0.03154974
3361.91125122,0.03138792
3363.84005859,0.03141445
3365.76886597,0.03110988
3367.69767334,0.03123571
3369.62648071,0.03122126
3371.55528809,0.03135421
3373.48409546,0.03150528
3375.41290283,0.03117848
3377.34171020,0.03134799
3379.27051758,0.03125655
3381.19932495,0.03128942
3383.12813232,0.03120199
3385.05693970,0.03119161
3386.98574707,0.03130489
3388.91455444,0.03120523
3390.84336182,0.03120990
3392.77216919,0.03103526
3394.70097656,0.03134552
3396.62978394,0.03119236
3398.55859131,0.03122331
3400.48739868,0.03133710
3402.41620605,0.03111550
3404.34501343,0.03149042
3406.27382080,0.03142278
3408.20262817,0.03157045
3410.13143555,0.03150760
3412.06024292,0.03143462
3413.98905029,0.03163786
3415.91785767,0.03166647
3417.84666504,0.03183530
3419.77547241,0.03149968
3421.70427979,0.03160671
3423.63308716,0.03183024
3425.56189453,0.03187266
3427.49070190,0.03186812
3429.41950928,0.03181199
3431.34831665,0.03199510
3433.27712402,0.03204411
3435.20593140,0.03212252
3437.13473877,0.03203902
3439.06354614,0.03233761
3440.99235352,0.03228112
3442.92116089,0.03219863
3444.84996826,0.03244893
3446.77877563,0.03207326
3448.70758301,0.03227100
3450.63639038,0.03262245
3452.56519775,0.03271988
3454.49400513,0.03279579
3456.42281250,0.03289741
3458.35161987,0.03302613
3460.28042725,0.03304926
3462.20923462,0.03305395
3464.13804199,0.03304132
3466.06684937,0.03317610
3467.99565674,0.03310885
3469.92446411,0.03342225
3471.85327148,0.03348412
3473.78207886,0.03348432
3475.71088623,0.03369109
3477.63969360,0.03367088
3479.56850098,0.03388710
3481.49730835,0.03349049
3483.42611572,0.03382833
3485.35492310,0.03418863
3487.28373047,0.03395117
3489.21253784,0.03418219
3491.14134521,0.03425153
3493.07015259,0.03456308
3494.99895996,0.03445524
3496.92776733,0.03442858
3498.85657471,0.03465563
3500.78538208,0.03471383
3502.71418945,0.03435447
3504.64299683,0.03440329
3506.57180420,0.03526986
3508.50061157,0.03491444
3510.42941895,0.03496368
3512.35822632,0.03534245
3514.28703369,0.03545765
3516.21584106,0.03566962
3518.14464844,0.03546171
3520.07345581,0.03583967
3522.00226318,0.03565891
3523.93107056,0.03535617
3525.85987793,0.03561533
3527.78868530,0.03563682
3529.71749268,0.03571039
3531.64630005,0.03626207
3533.57510742,0.03659377
3535.50391479,0.03629179
3537.43272217,0.03641991
3539.36152954,0.03670234
3541.29033691,0.03697276
3543.21914429,0.03678450
3545.14795166,0.03605786
3547.07675903,0.03576811
3549.00556641,0.03687412
3550.93437378,0.03740156
3552.86318115,0.03658501
3554.79198853,0.03730346
3556.72079590,0.03759649
3558.64960327,0.03752659
3560.57841064,0.03740547
3562.50721802,0.03733376
3564.43602539,0.03780694
3566.36483276,0.03545878
3568.29364014,0.03481662
3570.22244751,0.03750864
3572.15125488,0.03846626
3574.08006226,0.03823393
3576.00886963,0.03835817
3577.93767700,0.03832863
3579.86648437,0.03843149
3581.79529175,0.03859656
3583.72409912,0.03868867
3585.65290649,0.03810812
3587.58171387,0.03536454
3589.51052124,0.03624361
3591.43932861,0.03929096
3593.36813599,0.03834304
3595.29694336,0.03783035
3597.22575073,0.03855484
3599.15455811,0.03896221
3601.08336548,0.03874782
3603.01217285,0.03914782
3604.94098022,0.03999657
3606.86978760,0.03875015
3608.79859497,0.03661200
3610.72740234,0.03753611
3612.65620972,0.03845232
3614.58501709,0.03743692
3616.51382446,0.04006291
3618.44263184,0.03733645
3620.37143921,0.03620915
3622.30024658,0.04061484
3624.22905395,0.03964218
3626.15786133,0.04144407
3628.08666870,0.03555519
3630.01547607,0.03264341
3631.94428345,0.04058820
3633.87309082,0.03971073
3635.80189819,0.04035167
3637.73070557,0.04114853
3639.65951294,0.04075380
3641.58832031,0.04136465
3643.51712769,0.04085436
3645.44593506,0.04127037
3647.37474243,0.03744045
3649.30354980,0.03465783
3651.23235718,0.03515999
3653.16116455,0.04132449
3655.08997192,0.04103968
3657.01877930,0.03713667
3658.94758667,0.04248635
3660.87639404,0.04178260
3662.80520142,0.04222767
3664.73400879,0.04226075
3666.66281616,0.04207313
3668.59162354,0.04112901
3670.52043091,0.03402809
3672.44923828,0.04050108
3674.37804565,0.03899506
3676.30685303,0.03274518
3678.23566040,0.04060675
3680.16446777,0.04169544
3682.09327515,0.04168967
3684.02208252,0.04296637
3685.95088989,0.04235029
3687.87969727,0.03837628
3689.80850464,0.03546422
3691.73731201,0.04020468
3693.66611938,0.04135982
3695.59492676,0.04232413
3697.52373413,0.04228703
3699.45254150,0.04193369
3701.38134888,0.04116675
3703.31015625,0.03955954
3705.23896362,0.04322903
3707.16777100,0.04132034
3709.09657837,0.04038119
3711.02538574,0.03828874
3712.95419312,0.03586607
3714.88300049,0.04162551
3716.81180786,0.04115669
3718.74061523,0.04146770
3720.66942261,0.04068012
3722.59822998,0.03941015
3724.52703735,0.04076095
3726.45584473,0.03780204
3728.38465210,0.04089547
3730.31345947,0.04058059
3732.24226685,0.03749806
3734.17107422,0.03667681
3736.09988159,0.03487137
3738.02868896,0.03680473
3739.95749634,0.03969317
3741.88630371,0.04144471
3743.81511108,0.03263614
3745.74391846,0.03081888
3747.67272583,0.03938616
3749.60153320,0.03425824
3751.53034058,0.03169489
3753.45914795,0.03603156
3755.38795532,0.03870716
3757.31676270,0.04015125
3759.24557007,0.03737627
3761.17437744,0.03862553
3763.10318481,0.04075408
3765.03199219,0.03824189
3766.96079956,0.03897787
3768.88960693,0.03858817
3770.81841431,0.03692266
3772.74722168,0.03975572
3774.67602905,0.03980241
3776.60483643,0.03966592
3778.53364380,0.03878883
3780.46245117,0.03731886
3782.39125854,0.03962162
3784.32006592,0.03888845
3786.24887329,0.03848779
3788.17768066,0.03931348
3790.10648804,0.03917276
3792.03529541,0.03886925
3793.96410278,0.03948436
3795.89291016,0.03726743
3797.82171753,0.03677017
3799.75052490,0.03861506
3801.67933228,0.03112924
3803.60813965,0.03597221
3805.53694702,0.03886539
3807.46575439,0.03208115
3809.39456177,0.03840289
3811.32336914,0.03779297
3813.25217651,0.03895181
3815.18098389,0.03537805
3817.10979126,0.03119027
3819.03859863,0.03889710
3820.96740601,0.03205202
3822.89621338,0.03342536
3824.82502075,0.03865447
3826.75382812,0.03524259
3828.68263550,0.03768659
3830.61144287,0.03638756
3832.54025024,0.03523367
3834.46905762,0.03572112
3836.39786499,0.03417417
3838.32667236,0.03112853
3840.25547974,0.03337058
3842.18428711,0.03594280
3844.11309448,0.03438269
3846.04190186,0.03705541
3847.97070923,0.03649002
3849.89951660,0.03644618
3851.82832397,0.03317622
3853.75713135,0.02527614
3855.68593872,0.02944928
3857.61474609,0.03657872
3859.54355347,0.03562769
3861.47236084,0.03515540
3863.40116821,0.03452355
3865.32997559,0.03226905
3867.25878296,0.03575506
3869.18759033,0.03289559
3871.11639770,0.03048475
3873.04520508,0.03575715
3874.97401245,0.03309018
3876.90281982,0.03534060
3878.83162720,0.03601142
3880.76043457,0.03136224
3882.68924194,0.03567283
3884.61804932,0.03344936
3886.54685669,0.03081262
3888.47566406,0.03558312
3890.40447144,0.03386326
3892.33327881,0.03192380
3894.26208618,0.03474541
3896.19089355,0.03530541
3898.11970093,0.03368737
3900.04850830,0.03199240
3901.97731567,0.03163574
3903.90612305,0.03143558
3905.83493042,0.03187332
3907.76373779,0.03447672
3909.69254517,0.03453838
3911.62135254,0.03426026
3913.55015991,0.03477181
3915.47896728,0.03367016
3917.40777466,0.03276343
3919.33658203,0.03258004
3921.26538940,0.03372646
3923.19419678,0.03354790
3925.12300415,0.03292029
3927.05181152,0.03340056
3928.98061890,0.03365488
3930.90942627,0.03311976
3932.83823364,0.03212673
3934.76704102,0.03321769
3936.69584839,0.03348996
3938.62465576,0.03316230
3940.55346313,0.03340186
3942.48227051,0.03235698
3944.41107788,0.03260978
3946.33988525,0.03311454
3948.26869263,0.03238302
3950.19750000,0.03230176
3952.12630737,0.03276850
3954.05511475,0.03279281
3955.98392212,0.03267659
3957.91272949,0.03253973
3959.84153687,0.03261064
3961.77034424,0.03238413
3963.69915161,0.03214478
3965.62795898,0.03260425
3967.55676636,0.03235506
3969.48557373,0.03216217
3971.41438110,0.03210783
3973.34318848,0.03210036
3975.27199585,0.03193355
3977.20080322,0.03168942
3979.12961060,0.03208133
3981.05841797,0.03176489
3982.98722534,0.03179793
3984.91603271,0.03169242
3986.84484009,0.03160705
3988.77364746,0.03167603
3990.70245483,0.03130126
3992.63126221,0.03156679
3994.56006958,0.03128620
3996.48887695,0.03134602
3998.41768433,0.03132650
4000.34649170,0.03112058
4002.27529907,0.03117588
4004.20410645,0.03094702
4006.13291382,0.03109571
4008.06172119,0.03085408
4009.99052856,0.03091069
4011.91933594,0.03077956
4013.84814331,0.03068145
4015.77695068,0.03076005
4017.70575806,0.03053549
4019.63456543,0.03060220
4021.56337280,0.03037805
4023.49218018,0.03050666
4025.42098755,0.03031093
4027.34979492,0.03018179
4029.27860229,0.03023453
4031.20740967,0.03008785
4033.13621704,0.03016033
4035.06502441,0.02992634
4036.99383179,0.02998691
4038.92263916,0.02981405
4040.85144653,0.02986187
4042.78025391,0.02984815
4044.70906128,0.02960063
4046.63786865,0.02966893
4048.56667603,0.02951444
4050.49548340,0.02953331
4052.42429077,0.02942939
4054.35309814,0.02950702
4056.28190552,0.02933416
4058.21071289,0.02927739
4060.13952026,0.02930059
4062.06832764,0.02906424
4063.99713501,0.02920810
4065.92594238,0.02896654
4067.85474976,0.02898146
4069.78355713,0.02884650
4071.71236450,0.02877140
4073.64117187,0.02879885
4075.56997925,0.02858654
4077.49878662,0.02866092
4079.42759399,0.02842603
4081.35640137,0.02852743
4083.28520874,0.02841156
4085.21401611,0.02831590
4087.14282349,0.02832476
4089.07163086,0.02815976
4091.00043823,0.02827066
4092.92924561,0.02810908
4094.85805298,0.02815066
4096.78686035,0.02802937
4098.71566772,0.02793057
4100.64447510,0.02781373
4102.57328247,0.02775408
4104.50208984,0.02777985
4106.43089722,0.02756530
4108.35970459,0.02772050
4110.28851196,0.02756696
4112.21731934,0.02752869
4114.14612671,0.02746107
4116.07493408,0.02740455
4118.00374145,0.02743311
4119.93254883,0.02717893
4121.86135620,0.02724833
4123.79016357,0.02711993
4125.71897095,0.02711662
4127.64777832,0.02699924
4129.57658569,0.02696690
4131.50539307,0.02698065
4133.43420044,0.02673884
4135.36300781,0.02683504
4137.29181519,0.02671980
4139.22062256,0.02674782
4141.14942993,0.02659090
4143.07823730,0.02642802
4145.00704468,0.02649893
4146.93585205,0.02643225
4148.86465942,0.02646751
4150.79346680,0.02631509
4152.72227417,0.02632327
4154.65108154,0.02624517
4156.57988892,0.02611816
4158.50869629,0.02609068
4160.43750366,0.02604323
4162.36631103,0.02601513
4164.29511841,0.02591906
4166.22392578,0.02586038
4168.15273315,0.02572784
4170.08154053,0.02573751
4172.01034790,0.02564193
4173.93915527,0.02560970
4175.86796265,0.02557804
4177.79677002,0.02547495
4179.72557739,0.02547142
4181.65438477,0.02541313
4183.58319214,0.02545191
4185.51199951,0.02522636
4187.44080688,0.02516010
4189.36961426,0.02514987
4191.29842163,0.02516991
4193.22722900,0.02517768
4195.15603638,0.02496439
4197.08484375,0.02498633
4199.01365112,0.02481050
4200.94245850,0.02479861
4202.87126587,0.02477358
4204.80007324,0.02473989
4206.72888062,0.02471176
4208.65768799,0.02452383
4210.58649536,0.02456846
4212.51530273,0.02445820
4214.44411011,0.02448190
4216.37291748,0.02433670
4218.30172485,0.02429370
4220.23053223,0.02431533
4222.15933960,0.02415840
4224.08814697,0.02415350
4226.01695435,0.02398440
4227.94576172,0.02409640
4229.87456909,0.02401697
4231.80337646,0.02397416
4233.73218384,0.02392476
4235.66099121,0.02372870
4237.58979858,0.02378355
4239.51860596,0.02364054
4241.44741333,0.02373742
4243.37622070,0.02364368
4245.30502808,0.02355458
4247.23383545,0.02357811
4249.16264282,0.02341112
4251.09145020,0.02340674
4253.02025757,0.02336603
4254.94906494,0.02333461
4256.87787231,0.02320654
4258.80667969,0.02322004
4260.73548706,0.02314269
4262.66429443,0.02306878
4264.59310181,0.02303130
4266.52190918,0.02290997
4268.45071655,0.02291805
4270.37952393,0.02280962
4272.30833130,0.02289928
4274.23713867,0.02272895
4276.16594604,0.02262650
4278.09475342,0.02273423
4280.02356079,0.02263167
4281.95236816,0.02255893
4283.88117554,0.02245220
4285.80998291,0.02251419
4287.73879028,0.02238584
4289.66759766,0.02238514
4291.59640503,0.02238342
4293.52521240,0.02227762
4295.45401978,0.02221180
4297.38282715,0.02204403
4299.31163452,0.02217816
4301.24044189,0.02205994
4303.16924927,0.02204058
4305.09805664,0.02204954
4307.02686401,0.02192241
4308.95567139,0.02184061
4310.88447876,0.02172466
4312.81328613,0.02181537
4314.74209351,0.02160856
4316.67090088,0.02167516
4318.59970825,0.02172794
4320.52851562,0.02154282
4322.45732300,0.02151510
4324.38613037,0.02141983
4326.31493774,0.02149467
4328.24374512,0.02136974
4330.17255249,0.02128892
4332.10135986,0.02126512
4334.03016724,0.02122419
4335.95897461,0.02119633
4337.88778198,0.02104263
4339.81658936,0.02105625
4341.74539673,0.02104801
4343.67420410,0.02097587
4345.60301147,0.02089093
4347.53181885,0.02089863
4349.46062622,0.02079891
4351.38943359,0.02074392
4353.31824097,0.02079143
4355.24704834,0.02070078
4357.17585571,0.02060839
4359.10466309,0.02060001
4361.03347046,0.02065658
4362.96227783,0.02041412
4364.89108520,0.02043906
4366.81989258,0.02043300
4368.74869995,0.02029205
4370.67750732,0.02037546
4372.60631470,0.02023831
4374.53512207,0.02028440
4376.46392944,0.02007886
4378.39273682,0.02000098
4380.32154419,0.02009333
4382.25035156,0.01994955
4384.17915894,0.01997651
4386.10796631,0.01989321
4388.03677368,0.01993844
4389.96558105,0.01989793
4391.89438843,0.01984699
4393.82319580,0.01972994
4395.75200317,0.01960260
4397.68081055,0.01965123
4399.60961792,0.01958136
4401.53842529,0.01956347
4403.46723267,0.01941872
4405.39604004,0.01948477
4407.32484741,0.01943405
4409.25365478,0.01931464
4411.18246216,0.01933738
4413.11126953,0.01923826
4415.04007690,0.01924649
4416.96888428,0.01913649
4418.89769165,0.01921172
4420.82649902,0.01913011
4422.75530640,0.01903638
4424.68411377,0.01903019
4426.61292114,0.01892220
4428.54172852,0.01896214
4430.47053589,0.01882108
4432.39934326,0.01883004
4434.32815063,0.01871353
4436.25695801,0.01873680
4438.18576538,0.01877773
4440.11457275,0.01859821
4442.04338013,0.01864475
4443.97218750,0.01851619
4445.90099487,0.01852357
4447.82980225,0.01842811
4449.75860962,0.01836783
4451.68741699,0.01843036
4453.61622437,0.01836760
4455.54503174,0.01833775
4457.47383911,0.01822721
4459.40264648,0.01820239
4461.33145386,0.01805856
4463.26026123,0.01812726
4465.18906860,0.01810602
4467.11787598,0.01796736
4469.04668335,0.01797595
4470.97549072,0.01786941
4472.90429810,0.01793724
4474.83310547,0.01779683
4476.76191284,0.01774491
4478.69072021,0.01778673
4480.61952759,0.01770292
4482.54833496,0.01764668
4484.47714233,0.01757023
4486.40594971,0.01763194
4488.33475708,0.01760977
4490.26356445,0.01758771
4492.19237183,0.01748041
4494.12117920,0.01743621
4496.04998657,0.01736439
4497.97879395,0.01730190
4499.90760132,0.01738906
4501.83640869,0.01728010
4503.76521606,0.01727451
4505.69402344,0.01719630
4507.62283081,0.01711479
4509.55163818,0.01708822
4511.48044556,0.01707881
4513.40925293,0.01706485
4515.33806030,0.01696183
4517.26686768,0.01693774
4519.19567505,0.01684867
4521.12448242,0.01690882
4523.05328979,0.01680407
4524.98209717,0.01676468
4526.91090454,0.01676063
4528.83971191,0.01661371
4530.76851929,0.01669105
4532.69732666,0.01653401
4534.62613403,0.01653513
4536.55494141,0.01650747
4538.48374878,0.01640975
4540.41255615,0.01641212
4542.34136353,0.01626508
4544.27017090,0.01633137
4546.19897827,0.01630750
4548.12778564,0.01622286
4550.05659302,0.01618884
4551.98540039,0.01622280
4553.91420776,0.01614527
4555.84301514,0.01605576
4557.77182251,0.01610244
4559.70062988,0.01602633
4561.62943726,0.01609251
4563.55824463,0.01593930
4565.48705200,0.01584673
4567.41585937,0.01596202
4569.34466675,0.01588557
4571.27347412,0.01582410
4573.20228149,0.01574901
4575.13108887,0.01575768
4577.05989624,0.01574779
4578.98870361,0.01563632
4580.91751099,0.01554816
4582.84631836,0.01557189
4584.77512573,0.01547700
4586.70393311,0.01545752
4588.63274048,0.01547681
4590.56154785,0.01527315
4592.49035522,0.01537386
4594.41916260,0.01536994
4596.34796997,0.01526161
4598.27677734,0.01524205
4600.20558472,0.01522193
4602.13439209,0.01524177
4604.06319946,0.01508160
4605.99200684,0.01504634
4607.92081421,0.01498202
4609.84962158,0.01500713
4611.77842895,0.01503952
4613.70723633,0.01489348
4615.63604370,0.01483432
4617.56485107,0.01479888
4619.49365845,0.01481956
4621.42246582,0.01476631
4623.35127319,0.01478769
4625.28008057,0.01472986
4627.20888794,0.01467342
4629.13769531,0.01468343
4631.06650269,0.01459067
4632.99531006,0.01461751
4634.92411743,0.01455579
4636.85292480,0.01455992
4638.78173218,0.01448392
4640.71053955,0.01438546
4642.63934692,0.01444706
4644.56815430,0.01435947
4646.49696167,0.01429701
4648.42576904,0.01428667
4650.35457642,0.01426241
4652.28338379,0.01417865
4654.21219116,0.01415181
4656.14099853,0.01415987
4658.06980591,0.01413503
4659.99861328,0.01406126
4661.92742065,0.01403838
4663.85622803,0.01407211
4665.78503540,0.01392954
4667.71384277,0.01391888
4669.64265015,0.01386284
4671.57145752,0.01383889
4673.50026489,0.01387479
4675.42907227,0.01374356
4677.35787964,0.01372194
4679.28668701,0.01366555
4681.21549438,0.01367028
4683.14430176,0.01363535
4685.07310913,0.01365259
4687.00191650,0.01370290
4688.93072388,0.01357860
4690.85953125,0.01354993
4692.78833862,0.01348124
4694.71714600,0.01346780
4696.64595337,0.01345486
4698.57476074,0.01335755
4700.50356812,0.01331855
4702.43237549,0.01333968
4704.36118286,0.01331617
4706.28999023,0.01325630
4708.21879761,0.01325708
4710.14760498,0.01322515
4712.07641235,0.01322711
4714.00521973,0.01310151
4715.93402710,0.01305261
4717.86283447,0.01307022
4719.79164185,0.01302314
4721.72044922,0.01307151
4723.64925659,0.01300654
4725.57806396,0.01297711
4727.50687134,0.01292550
4729.43567871,0.01290380
4731.36448608,0.01286869
4733.29329346,0.01281191
4735.22210083,0.01280544
4737.15090820,0.01271125
4739.07971558,0.01274781
4741.00852295,0.01273353
4742.93733032,0.01273763
4744.86613770,0.01267988
4746.79494507,0.01266027
4748.72375244,0.01270829
4750.65255981,0.01258571
4752.58136719,0.01258441
4754.51017456,0.01244531
4756.43898193,0.01239012
4758.36778931,0.01241431
4760.29659668,0.01238593
4762.22540405,0.01238465
4764.15421143,0.01227738
4766.08301880,0.01234606
4768.01182617,0.01234068
4769.94063354,0.01225304
4771.86944092,0.01218630
4773.79824829,0.01214254
4775.72705566,0.01210158
4777.65586304,0.01211441
4779.58467041,0.01215696
4781.51347778,0.01203345
4783.44228516,0.01203523
4785.37109253,0.01197503
4787.29989990,0.01194420
4789.22870728,0.01190233
4791.15751465,0.01186058
4793.08632202,0.01191638
4795.01512939,0.01182370
4796.94393677,0.01190894
4798.87274414,0.01187314
4800.80155151,0.01179392
4802.73035889,0.01174222
4804.65916626,0.01166164
4806.58797363,0.01166696
4808.51678101,0.01163949
4810.44558838,0.01171552
4812.37439575,0.01155448
4814.30320312,0.01152559
4816.23201050,0.01155011
4818.16081787,0.01145095
4820.08962524,0.01143861
4822.01843262,0.01135130
4823.94723999,0.01150088
4825.87604736,0.01145077
4827.80485474,0.01135154
4829.73366211,0.01134328
4831.66246948,0.01120825
4833.59127686,0.01126857
4835.52008423,0.01125761
4837.44889160,0.01118872
4839.37769897,0.01117886
4841.30650635,0.01118044
4843.23531372,0.01113528
4845.16412109,0.01110543
4847.09292847,0.01104528
4849.02173584,0.01099877
4850.95054321,0.01104875
4852.87935059,0.01097605
4854.80815796,0.01095173
4856.73696533,0.01090825
4858.66577270,0.01089699
4860.59458008,0.01086122
4862.52338745,0.01081223
4864.45219482,0.01091781
4866.38100220,0.01083441
4868.30980957,0.01072643
4870.23861694,0.01067691
4872.16742432,0.01070919
4874.09623169,0.01077073
4876.02503906,0.01064530
4877.95384644,0.01054421
4879.88265381,0.01057788
4881.81146118,0.01060738
4883.74026855,0.01053352
4885.66907593,0.01050524
4887.59788330,0.01049428
4889.52669067,0.01049335
4891.45549805,0.01054460
4893.38430542,0.01048322
4895.31311279,0.01029512
4897.24192017,0.01027922
4899.17072754,0.01037422
4901.09953491,0.01032921
4903.02834228,0.01032575
4904.95714966,0.01020916
4906.88595703,0.01016214
4908.81476440,0.01024023
4910.74357178,0.01018864
4912.67237915,0.01016061
4914.60118652,0.01012470
4916.52999390,0.01013929
4918.45880127,0.01008783
4920.38760864,0.01001358
4922.31641602,0.00995727
4924.24522339,0.00995492
4926.17403076,0.00996629
4928.10283813,0.00986760
4930.03164551,0.00985218
4931.96045288,0.00983804
4933.88926025,0.00991215
4935.81806763,0.00980930
4937.74687500,0.00973968
4939.67568237,0.00983805
4941.60448975,0.00977967
4943.53329712,0.00977002
4945.46210449,0.00963683
4947.39091187,0.00967627
4949.31971924,0.00965928
4951.24852661,0.00960527
4953.17733398,0.00964317
4955.10614136,0.00952019
4957.03494873,0.00961236
4958.96375610,0.00948141
4960.89256348,0.00947444
4962.82137085,0.00950745
4964.75017822,0.00936817
4966.67898560,0.00949058
4968.60779297,0.00939232
4970.53660034,0.00930845
4972.46540771,0.00928821
4974.39421509,0.00927781
4976.32302246,0.00928043
4978.25182983,0.00923933
4980.18063721,0.00923204
4982.10944458,0.00921348
4984.03825195,0.00923351
4985.96705933,0.00914500
4987.89586670,0.00923027
4989.82467407,0.00920928
4991.75348145,0.00909289
4993.68228882,0.00911652
4995.61109619,0.00908076
4997.53990356,0.00912836
4999.46871094,0.00904061
5001.39751831,0.00902675
5003.32632568,0.00901932
5005.25513306,0.00897970
5007.18394043,0.00900048
5009.11274780,0.00888475
5011.04155518,0.00889090
5012.97036255,0.00888599
5014.89916992,0.00884407
5016.82797729,0.00882233
5018.75678467,0.00879414
5020.68559204,0.00871464
5022.61439941,0.00867205
5024.54320679,0.00872290
5026.47201416,0.00865159
5028.40082153,0.00861793
5030.32962891,0.00857883
5032.25843628,0.00854668
5034.18724365,0.00856103
5036.11605103,0.00856046
5038.04485840,0.00853296
5039.97366577,0.00850817
5041.90247314,0.00851390
5043.83128052,0.00844196
5045.76008789,0.00843044
5047.68889526,0.00839958
5049.61770264,0.00841682
5051.54651001,0.00841372
5053.47531738,0.00835697
5055.40412476,0.00835212
5057.33293213,0.00826044
5059.26173950,0.00831252
5061.19054687,0.00830961
5063.11935425,0.00824307
5065.04816162,0.00818551
5066.97696899,0.00815515
5068.90577637,0.00824516
5070.83458374,0.00814484
5072.76339111,0.00809735
5074.69219849,0.00813295
5076.62100586,0.00810393
5078.54981323,0.00805607
5080.47862061,0.00805838
5082.40742798,0.00808759
5084.33623535,0.00800063
5086.26504272,0.00797149
5088.19385010,0.00794509
5090.12265747,0.00794389
5092.05146484,0.00796859
5093.98027222,0.00794284
5095.90907959,0.00792716
5097.83788696,0.00791066
5099.76669434,0.00786491
5101.69550171,0.00785656
5103.62430908,0.00785803
5105.55311645,0.00773724
5107.48192383,0.00780529
5109.41073120,0.00781249
5111.33953857,0.00772434
5113.26834595,0.00775247
5115.19715332,0.00765398
5117.12596069,0.00769083
5119.05476807,0.00767993
5120.98357544,0.00764635
5122.91238281,0.00764241
5124.84119019,0.00753757
5126.76999756,0.00754840
5128.69880493,0.00757260
5130.62761230,0.00757635
5132.55641968,0.00745977
5134.48522705,0.00745347
5136.41403442,0.00749210
5138.34284180,0.00744508
5140.27164917,0.00745731
5142.20045654,0.00736149
5144.12926392,0.00736587
5146.05807129,0.00735453
5147.98687866,0.00737178
5149.91568603,0.00742344
5151.84449341,0.00730078
5153.77330078,0.00725639
5155.70210815,0.00724080
5157.63091553,0.00726445
5159.55972290,0.00724216
5161.48853027,0.00719097
5163.41733765,0.00718095
5165.34614502,0.00711435
5167.27495239,0.00716256
5169.20375977,0.00715240
5171.13256714,0.00710984
5173.06137451,0.00716237
5174.99018188,0.00709780
5176.91898926,0.00707459
5178.84779663,0.00711527
5180.77660400,0.00702847
5182.70541138,0.00695013
5184.63421875,0.00696161
5186.56302612,0.00694708
5188.49183350,0.00694698
5190.42064087,0.00697625
5192.34944824,0.00691569
5194.27825562,0.00694130
5196.20706299,0.00694229
5198.13587036,0.00683833
5200.06467773,0.00688604
5201.99348511,0.00683891
5203.92229248,0.00678077
5205.85109985,0.00668698
5207.77990723,0.00660676
5209.70871460,0.00674782
5211.63752197,0.00668862
5213.56632935,0.00670668
5215.49513672,0.00676505
5217.42394409,0.00670733
5219.35275146,0.00669587
5221.28155884,0.00669643
5223.21036621,0.00672547
5225.13917358,0.00646654
5227.06798096,0.00650253
5228.99678833,0.00668817
5230.92559570,0.00655323
5232.85440308,0.00656354
5234.78321045,0.00653244
5236.71201782,0.00651246
5238.64082520,0.00647748
5240.56963257,0.00650111
5242.49843994,0.00648935
5244.42724731,0.00634865
5246.35605469,0.00641124
5248.28486206,0.00633237
5250.21366943,0.00633914
5252.14247681,0.00645696
5254.07128418,0.00630808
5256.00009155,0.00619987
5257.92889893,0.00636826
5259.85770630,0.00647267
5261.78651367,0.00620555
5263.71532104,0.00609816
5265.64412842,0.00619473
5267.57293579,0.00624301
5269.50174316,0.00632026
5271.43055054,0.00625615
5273.35935791,0.00615465
5275.28816528,0.00617988
5277.21697266,0.00623578
5279.14578003,0.00621828
5281.07458740,0.00617506
5283.00339478,0.00614241
5284.93220215,0.00610762
5286.86100952,0.00611260
5288.78981689,0.00608081
5290.71862427,0.00603117
5292.64743164,0.00605138
5294.57623901,0.00602250
5296.50504639,0.00601047
5298.43385376,0.00603563
5300.36266113,0.00598165
5302.29146851,0.00599078
5304.22027588,0.00603740
5306.14908325,0.00600973
5308.07789062,0.00585355
5310.00669800,0.00589170
5311.93550537,0.00602217
5313.86431274,0.00589290
5315.79312012,0.00589679
5317.72192749,0.00582402
5319.65073486,0.00583461
5321.57954224,0.00593153
5323.50834961,0.00579917
5325.43715698,0.00579699
5327.36596436,0.00566006
5329.29477173,0.00567245
5331.22357910,0.00575878
5333.15238647,0.00561693
5335.08119385,0.00572396
5337.01000122,0.00576651
5338.93880859,0.00552432
5340.86761597,0.00554864
5342.79642334,0.00572700
5344.72523071,0.00546261
5346.65403809,0.00545753
5348.58284546,0.00564986
5350.51165283,0.00558663
5352.44046020,0.00553817
5354.36926758,0.00542557
5356.29807495,0.00561355
5358.22688232,0.00553318
5360.15568970,0.00542977
5362.08449707,0.00555346
5364.01330444,0.00540631
5365.94211182,0.00556590
5367.87091919,0.00552013
5369.79972656,0.00542985
5371.72853394,0.00548765
5373.65734131,0.00538481
5375.58614868,0.00534138
5377.51495605,0.00523327
5379.44376343,0.00533583
5381.37257080,0.00537102
5383.30137817,0.00532425
5385.23018555,0.00523406
5387.15899292,0.00516032
5389.08780029,0.00532285
5391.01660767,0.00523815
5392.94541504,0.00511222
5394.87422241,0.00509851
5396.80302978,0.00521717
5398.73183716,0.00530105
5400.66064453,0.00523222
5402.58945190,0.00526847
5404.51825928,0.00520742
5406.44706665,0.00519949
5408.37587402,0.00518401
5410.30468140,0.00508891
5412.23348877,0.00505970
5414.16229614,0.00496401
5416.09110352,0.00504517
5418.01991089,0.00517986
5419.94871826,0.00511007
5421.87752563,0.00508027
5423.80633301,0.00501150
5425.73514038,0.00497932
5427.66394775,0.00499931
5429.59275513,0.00487253
5431.52156250,0.00501938
5433.45036987,0.00501768
5435.37917725,0.00474479
5437.30798462,0.00495431
5439.23679199,0.00500277
5441.16559936,0.00478066
5443.09440674,0.00487888
5445.02321411,0.00486574
5446.95202148,0.00477940
5448.88082886,0.00484202
5450.80963623,0.00475588
5452.73844360,0.00484042
5454.66725098,0.00490904
5456.59605835,0.00477365
5458.52486572,0.00487896
5460.45367310,0.00476639
5462.38248047,0.00467709
5464.31128784,0.00480729
5466.24009521,0.00479005
5468.16890259,0.00474302
5470.09770996,0.00466272
5472.02651733,0.00477960
5473.95532471,0.00471730
5475.88413208,0.00457021
5477.81293945,0.00462555
5479.74174683,0.00461983
5481.67055420,0.00469756
5483.59936157,0.00461048
5485.52816895,0.00458833
5487.45697632,0.00465783
5489.38578369,0.00459863
5491.31459106,0.00460787
5493.24339844,0.00450951
5495.17220581,0.00455179
5497.10101318,0.00467639
5499.02982056,0.00452211
5500.95862793,0.00449958
5502.88743530,0.00458548
5504.81624268,0.00447026
5506.74505005,0.00449598
5508.67385742,0.00448525
5510.60266479,0.00445562
5512.53147217,0.00456545
5514.46027954,0.00444352
5516.38908691,0.00443257
5518.31789429,0.00446166
5520.24670166,0.00439502
5522.17550903,0.00440254
5524.10431641,0.00440915
5526.03312378,0.00441710
5527.96193115,0.00435214
5529.89073853,0.00437382
5531.81954590,0.00434991
5533.74835327,0.00434267
5535.67716064,0.00434777
5537.60596802,0.00431058
5539.53477539,0.00434376
5541.46358276,0.00428135
5543.39239014,0.00429800
5545.32119751,0.00427336
5547.25000488,0.00428507
5549.17881226,0.00428928
5551.10761963,0.00421680
5553.03642700,0.00423411
5554.96523437,0.00419293
5556.89404175,0.00422169
5558.82284912,0.00414413
5560.75165649,0.00417388
5562.68046387,0.00422702
5564.60927124,0.00410553
5566.53807861,0.00413853
5568.46688599,0.00412145
5570.39569336,0.00413133
5572.32450073,0.00413600
5574.25330811,0.00410797
5576.18211548,0.00405886
5578.11092285,0.00405751
5580.03973022,0.00410228
5581.96853760,0.00405278
5583.89734497,0.00409415
5585.82615234,0.00401895
5587.75495972,0.00400945
5589.68376709,0.00400279
5591.61257446,0.00396055
5593.54138184,0.00407324
5595.47018921,0.00399862
5597.39899658,0.00395450
5599.32780395,0.00396118
5601.25661133,0.00397644
5603.18541870,0.00397833
5605.11422607,0.00391512
5607.04303345,0.00394437
5608.97184082,0.00393489
5610.90064819,0.00394120
5612.82945557,0.00399391
5614.75826294,0.00390191
5616.68707031,0.00374213
5618.61587769,0.00384470
5620.54468506,0.00389125
5622.47349243,0.00381686
5624.40229980,0.00382015
5626.33110718,0.00374719
5628.25991455,0.00379933
5630.18872192,0.00378394
5632.11752930,0.00379035
5634.04633667,0.00382174
5635.97514404,0.00376003
5637.90395142,0.00376649
5639.83275879,0.00368485
5641.76156616,0.00376457
5643.69037353,0.00380965
5645.61918091,0.00375965
5647.54798828,0.00376343
5649.47679565,0.00368374
5651.40560303,0.00365823
5653.33441040,0.00363114
5655.26321777,0.00366195
5657.19202515,0.00369429
5659.12083252,0.00370582
5661.04963989,0.00364222
5662.97844727,0.00357459
5664.90725464,0.00366302
5666.83606201,0.00365529
5668.76486938,0.00362760
5670.69367676,0.00359694
5672.62248413,0.00357249
5674.55129150,0.00357549
5676.48009888,0.00352100
5678.40890625,0.00350393
5680.33771362,0.00352890
5682.26652100,0.00351599
5684.19532837,0.00345484
5686.12413574,0.00347733
5688.05294311,0.00348819
5689.98175049,0.00349327
5691.91055786,0.00346718
5693.83936523,0.00339983
5695.76817261,0.00341947
5697.69697998,0.00341033
5699.62578735,0.00343772
5701.55459473,0.00340634
5703.48340210,0.00340039
5705.41220947,0.00344726
5707.34101685,0.00337321
5709.26982422,0.00337029
5711.19863159,0.00339158
5713.12743896,0.00338476
5715.05624634,0.00335343
5716.98505371,0.00336896
5718.91386108,0.00336200
5720.84266846,0.00331241
5722.77147583,0.00336466
5724.70028320,0.00332762
5726.62909058,0.00329814
5728.55789795,0.00328162
5730.48670532,0.00325282
5732.41551270,0.00323938
5734.34432007,0.00317125
5736.27312744,0.00319705
5738.20193481,0.00322177
5740.13074219,0.00328616
5742.05954956,0.00327865
5743.98835693,0.00315553
5745.91716431,0.00317472
5747.84597168,0.00319314
5749.77477905,0.00317431
5751.70358643,0.00311473
5753.63239380,0.00315096
5755.56120117,0.00323777
5757.49000854,0.00314482
5759.41881592,0.00312660
5761.34762329,0.00312597
5763.27643066,0.00307086
5765.20523804,0.00308534
5767.13404541,0.00313448
5769.06285278,0.00309551
5770.99166016,0.00299638
5772.92046753,0.00307168
5774.84927490,0.00307231
5776.77808228,0.00303084
5778.70688965,0.00302919
5780.63569702,0.00291730
5782.56450439,0.00294918
5784.49331177,0.00300625
5786.42211914,0.00301611
5788.35092651,0.00298276
5790.27973389,0.00296316
5792.20854126,0.00301480
5794.13734863,0.00299912
5796.06615601,0.00301064
5797.99496338,0.00291809
5799.92377075,0.00292154
5801.85257812,0.00295820
5803.78138550,0.00289082
5805.71019287,0.00295287
5807.63900024,0.00286844
5809.56780762,0.00286287
5811.49661499,0.00292090
5813.42542236,0.00286971
5815.35422974,0.00287711
5817.28303711,0.00284463
5819.21184448,0.00287109
5821.14065186,0.00284964
5823.06945923,0.00280417
5824.99826660,0.00280747
5826.92707397,0.00283531
5828.85588135,0.00282957
5830.78468872,0.00273568
5832.71349609,0.00276929
5834.64230347,0.00277785
5836.57111084,0.00277556
5838.49991821,0.00277023
5840.42872559,0.00272319
5842.35753296,0.00277360
5844.28634033,0.00272577
5846.21514770,0.00271030
5848.14395508,0.00275586
5850.07276245,0.00274635
5852.00156982,0.00278839
5853.93037720,0.00272090
5855.85918457,0.00264083
5857.78799194,0.00268642
5859.71679932,0.00265392
5861.64560669,0.00266760
5863.57441406,0.00272127
5865.50322144,0.00263731
5867.43202881,0.00264611
5869.36083618,0.00268507
5871.28964355,0.00265521
5873.21845093,0.00266629
5875.14725830,0.00262093
5877.07606567,0.00258636
5879.00487305,0.00258933
5880.93368042,0.00257532
5882.86248779,0.00259620
5884.79129517,0.00257293
5886.72010254,0.00256624
5888.64890991,0.00259286
5890.57771728,0.00253496
5892.50652466,0.00253253
5894.43533203,0.00247467
5896.36413940,0.00246624
5898.29294678,0.00258608
5900.22175415,0.00250945
5902.15056152,0.00255490
5904.07936890,0.00256553
5906.00817627,0.00243012
5907.93698364,0.00244860
5909.86579102,0.00242868
5911.79459839,0.00250389
5913.72340576,0.00250657
5915.65221313,0.00248312
5917.58102051,0.00253624
5919.50982788,0.00242873
5921.43863525,0.00242176
5923.36744263,0.00243362
5925.29625000,0.00239362
5927.22505737,0.00241314
5929.15386475,0.00242808
5931.08267212,0.00240821
5933.01147949,0.00241704
5934.94028686,0.00241168
5936.86909424,0.00236143
5938.79790161,0.00238328
5940.72670898,0.00235431
5942.65551636,0.00241611
5944.58432373,0.00240043
5946.51313110,0.00225056
5948.44193848,0.00232097
5950.37074585,0.00234244
5952.29955322,0.00230695
5954.22836060,0.00228564
5956.15716797,0.00229059
5958.08597534,0.00232411
5960.01478271,0.00228175
5961.94359009,0.00232462
5963.87239746,0.00233345
5965.80120483,0.00228547
5967.73001221,0.00228003
5969.65881958,0.00224975
5971.58762695,0.00228478
5973.51643433,0.00227143
5975.44524170,0.00216455
5977.37404907,0.00224241
5979.30285645,0.00227781
5981.23166382,0.00220117
5983.16047119,0.00220621
5985.08927856,0.00216298
5987.01808594,0.00222684
5988.94689331,0.00220763
5990.87570068,0.00213804
5992.80450806,0.00219143
5994.73331543,0.00213602
5996.66212280,0.00216704
5998.59093018,0.00218931
6000.51973755,0.00216606
