399.26312622,0.00157221
401.19193359,0.00155091
403.12074097,0.00123994
405.04954834,0.00100018
406.97835571,0.00140065
408.90716309,0.00178382
410.83597046,0.00116496
412.76477783,0.00171580
414.69358521,0.00240789
416.62239258,0.00145817
418.55119995,0.00144549
420.48000732,0.00203390
422.40881470,0.00212819
424.33762207,0.00210762
426.26642944,0.00168643
428.19523682,0.00189847
430.12404419,0.00217255
432.05285156,0.00212919
433.98165894,0.00192392
435.91046631,0.00173188
437.83927368,0.00209634
439.76808105,0.00164197
441.69688843,0.00168730
443.62569580,0.00179035
445.55450317,0.00127447
447.48331055,0.00179203
449.41211792,0.00156718
451.34092529,0.00121061
453.26973267,0.00116367
455.19854004,0.00134297
457.12734741,0.00160881
459.05615479,0.00106741
460.98496216,0.00137419
462.91376953,0.00168031
464.84257690,0.00115530
466.77138428,0.00069066
468.70019165,0.00098190
470.62899902,0.00093585
472.55780640,0.00056389
474.48661377,0.00074478
476.41542114,0.00074154
478.34422852,0.00117493
480.27303589,0.00087641
482.20184326,0.00088576
484.13065063,0.00134027
486.05945801,0.00080558
487.98826538,0.00040748
489.91707275,0.00030312
491.84588013,0.00082120
493.77468750,0.00041779
495.70349487,0.00045087
497.63230225,0.00097072
499.56110962,0.00055834
501.48991699,0.00055083
503.41872437,0.00015383
505.34753174,0.00054617
507.27633911,0.00058486
509.20514648,0.00025587
511.13395386,0.00107868
513.06276123,0.00096948
514.99156860,0.00067755
516.92037598,0.00099992
518.84918335,0.00075835
520.77799072,0.00024018
522.70679810,0.00062916
524.63560547,0.00048984
526.56441284,0.00017704
528.49322021,0.00048558
530.42202759,0.00026750
532.35083496,0.00064661
534.27964233,0.00050725
536.20844971,0.00015449
538.13725708,0.00037907
540.06606445,0.00038801
541.99487183,0.00077151
543.92367920,0.00048923
545.85248657,0.00038863
547.78129395,0.00052687
549.71010132,0.00017286
551.63890869,0.00062992
553.56771606,0.00076688
555.49652344,0.00041153
557.42533081,0.00070378
559.35413818,0.00080263
561.28294556,0.00057938
563.21175293,0.00066353
565.14056030,0.00038324
567.06936768,0.00030001
568.99817505,0.00052659
570.92698242,0.00029933
572.85578979,0.00058094
574.78459717,0.00052190
576.71340454,0.00018068
578.64221191,0.00060408
580.57101929,0.00050305
582.49982666,0.00031644
584.42863403,0.00062999
586.35744141,0.00038779
588.28624878,0.00038718
590.21505615,0.00111872
592.14386353,0.00081367
594.07267090,0.00020624
596.00147827,0.00029422
597.93028564,0.00028950
599.85909302,0.00042194
601.78790039,0.00021239
603.71670776,0.00025369
605.64551514,0.00055644
607.57432251,0.00012279
609.50312988,0.00021099
611.43193726,0.00077605
613.36074463,0.00066802
615.28955200,0.00028205
617.21835938,0.00039900
619.14716675,0.00050551
621.07597412,0.00040913
623.00478149,0.00017950
624.93358887,0.00052222
626.86239624,0.00030536
628.79120361,0.00001165
630.72001099,0.00061110
632.64881836,0.00090987
634.57762573,0.00138012
636.50643311,0.00123555
638.43524048,0.00157511
640.36404785,0.00189886
642.29285522,0.00180840
644.22166260,0.00236381
646.15046997,0.00240325
648.07927734,0.00239619
650.00808472,0.00229534
651.93689209,0.00268118
653.86569946,0.00270450
655.79450684,0.00259685
657.72331421,0.00319908
659.65212158,0.00317617
661.58092896,0.00354295
663.50973633,0.00365524
665.43854370,0.00364762
667.36735107,0.00375186
669.29615845,0.00402004
671.22496582,0.00439150
673.15377319,0.00423608
675.08258057,0.00446329
677.01138794,0.00428250
678.94019531,0.00471706
680.86900269,0.00498746
682.79781006,0.00474598
684.72661743,0.00512165
686.65542480,0.00475740
688.58423218,0.00484089
690.51303955,0.00535870
692.44184692,0.00552651
694.37065430,0.00551846
696.29946167,0.00624447
698.22826904,0.00719711
700.15707642,0.00756886
702.08588379,0.00784378
704.01469116,0.00695360
705.94349854,0.00621575
707.87230591,0.00542366
709.80111328,0.00427979
711.72992065,0.00328375
713.65872803,0.00183762
715.58753540,0.00088657
717.51634277,0.00038935
719.44515015,0.00043616
721.37395752,0.00021455
723.30276489,0.00024016
725.23157227,0.00016346
727.16037964,-0.00013606
729.08918701,0.00052406
731.01799438,-0.00003076
732.94680176,-0.00024829
734.87560913,0.00025307
736.80441650,0.00005738
738.73322388,0.00017305
740.66203125,0.00029665
742.59083862,0.00019531
744.51964600,0.00022864
746.44845337,0.00052626
748.37726074,0.00045959
750.30606812,0.00047907
752.23487549,0.00038986
754.16368286,0.00017026
756.09249023,0.00028856
758.02129761,0.00024041
759.95010498,0.00073653
761.87891235,0.00058871
763.80771973,0.00007010
765.73652710,0.00025064
767.66533447,0.00049939
769.59414185,0.00040305
771.52294922,0.00022606
773.45175659,0.00041504
775.38056396,0.00026152
777.30937134,0.00048050
779.23817871,0.00046850
781.16698608,0.00037565
783.09579346,0.00083937
785.02460083,0.00069252
786.95340820,0.00065750
788.88221558,0.00055755
790.81102295,0.00065848
792.73983032,0.00070218
794.66863770,0.00051346
796.59744507,0.00067777
798.52625244,0.00097358
800.45505981,0.00143665
802.38386719,0.00132510
804.31267456,0.00130477
806.24148193,0.00083956
808.17028931,0.00035016
810.09909668,0.00067772
812.02790405,0.00060905
813.95671143,0.00056041
815.88551880,0.00023644
817.81432617,0.00032620
819.74313354,0.00067536
821.67194092,0.00061561
823.60074829,0.00075241
825.52955566,0.00072297
827.45836304,0.00089110
829.38717041,0.00120532
831.31597778,0.00172526
833.24478516,0.00207009
835.17359253,0.00210665
837.10239990,0.00223752
839.03120728,0.00225765
840.96001465,0.00221565
842.88882202,0.00178071
844.81762939,0.00160524
846.74643677,0.00166679
848.67524414,0.00156148
850.60405151,0.00149118
852.53285889,0.00127391
854.46166626,0.00128012
856.39047363,0.00126899
858.31928101,0.00101090
860.24808838,0.00078725
862.17689575,0.00065673
864.10570313,0.00058779
866.03451050,0.00059808
867.96331787,0.00061979
869.89212524,0.00077556
871.82093262,0.00076127
873.74973999,0.00055361
875.67854736,0.00077773
877.60735474,0.00058144
879.53616211,0.00047230
881.46496948,0.00051975
883.39377686,0.00025375
885.32258423,0.00064562
887.25139160,0.00045920
889.18019897,0.00031877
891.10900635,0.00063971
893.03781372,0.00026183
894.96662109,0.00037710
896.89542847,0.00071450
898.82423584,0.00055803
900.75304321,0.00056315
902.68185059,0.00058737
904.61065796,0.00042236
906.53946533,0.00062695
908.46827271,0.00079961
910.39708008,0.00078722
912.32588745,0.00098207
914.25469482,0.00131573
916.18350220,0.00157946
918.11230957,0.00136336
920.04111694,0.00151902
921.96992432,0.00185350
923.89873169,0.00189275
925.82753906,0.00209026
927.75634644,0.00223058
929.68515381,0.00256325
931.61396118,0.00271380
933.54276855,0.00288712
935.47157593,0.00318917
937.40038330,0.00340827
939.32919067,0.00368370
941.25799805,0.00353909
943.18680542,0.00380257
945.11561279,0.00388197
947.04442017,0.00351302
948.97322754,0.00373281
950.90203491,0.00372804
952.83084229,0.00353615
954.75964966,0.00336975
956.68845703,0.00339025
958.61726440,0.00350165
960.54607178,0.00356211
962.47487915,0.00369461
964.40368652,0.00351536
966.33249390,0.00381394
968.26130127,0.00401791
970.19010864,0.00405992
972.11891602,0.00449156
974.04772339,0.00470649
975.97653076,0.00517047
977.90533813,0.00564026
979.83414551,0.00621713
981.76295288,0.00664186
983.69176025,0.00717681
985.62056763,0.00810288
987.54937500,0.00891688
989.47818237,0.01018588
991.40698975,0.01092926
993.33579712,0.01223312
995.26460449,0.01366450
997.19341187,0.01430339
999.12221924,0.01587281
1001.05102661,0.01692398
1002.97983398,0.01814903
1004.90864136,0.01949899
1006.83744873,0.02038213
1008.76625610,0.02185533
1010.69506348,0.02299889
1012.62387085,0.02432568
1014.55267822,0.02543757
1016.48148560,0.02665030
1018.41029297,0.02814798
1020.33910034,0.02925283
1022.26790771,0.03087366
1024.19671509,0.03209348
1026.12552246,0.03312453
1028.05432983,0.03459900
1029.98313721,0.03540977
1031.91194458,0.03612519
1033.84075195,0.03717401
1035.76955933,0.03748100
1037.69836670,0.03787624
1039.62717407,0.03832475
1041.55598145,0.03789292
1043.48478882,0.03755507
1045.41359619,0.03725630
1047.34240356,0.03704035
1049.27121094,0.03641758
1051.20001831,0.03567916
1053.12882568,0.03511988
1055.05763306,0.03413419
1056.98644043,0.03371399
1058.91524780,0.03289486
1060.84405518,0.03176990
1062.77286255,0.03099579
1064.70166992,0.03009386
1066.63047729,0.02882460
1068.55928467,0.02735085
1070.48809204,0.02644525
1072.41689941,0.02510765
1074.34570679,0.02394806
1076.27451416,0.02293797
1078.20332153,0.02161113
1080.13212891,0.02064283
1082.06093628,0.01965012
1083.98974365,0.01895931
1085.91855103,0.01801845
1087.84735840,0.01710651
1089.77616577,0.01632365
1091.70497314,0.01551029
1093.63378052,0.01496037
1095.56258789,0.01439530
1097.49139526,0.01386032
1099.42020264,0.01344842
1101.34901001,0.01339545
1103.27781738,0.01282827
1105.20662476,0.01277947
1107.13543213,0.01262290
1109.06423950,0.01197472
1110.99304687,0.01228789
1112.92185425,0.01182485
1114.85066162,0.01181201
1116.77946899,0.01199197
1118.70827637,0.01164671
1120.63708374,0.01176604
1122.56589111,0.01161569
1124.49469849,0.01192816
1126.42350586,0.01216337
1128.35231323,0.01242599
1130.28112061,0.01262436
1132.20992798,0.01275136
1134.13873535,0.01338201
1136.06754272,0.01391439
1137.99635010,0.01475748
1139.92515747,0.01553550
1141.85396484,0.01667714
1143.78277222,0.01799254
1145.71157959,0.01889012
1147.64038696,0.01999928
1149.56919434,0.02118306
1151.49800171,0.02224096
1153.42680908,0.02329884
1155.35561646,0.02452217
1157.28442383,0.02538926
1159.21323120,0.02641553
1161.14203857,0.02749167
1163.07084595,0.02831341
1164.99965332,0.02945736
1166.92846069,0.03053873
1168.85726807,0.03173228
1170.78607544,0.03295399
1172.71488281,0.03420771
1174.64369019,0.03538501
1176.57249756,0.03657605
1178.50130493,0.03812674
1180.43011230,0.03967153
1182.35891968,0.04123526
1184.28772705,0.04300895
1186.21653442,0.04499747
1188.14534180,0.04701279
1190.07414917,0.04934410
1192.00295654,0.05163858
1193.93176392,0.05409657
1195.86057129,0.05658714
1197.78937866,0.05886067
1199.71818604,0.06174111
1201.64699341,0.06441838
1203.57580078,0.06715693
1205.50460815,0.06967198
1207.43341553,0.07212798
1209.36222290,0.07471612
1211.29103027,0.07663693
1213.21983765,0.07915334
1215.14864502,0.08112386
1217.07745239,0.08268771
1219.00625977,0.08441895
1220.93506714,0.08562496
1222.86387451,0.08683770
1224.79268188,0.08745696
1226.72148926,0.08814625
1228.65029663,0.08865446
1230.57910400,0.08878764
1232.50791138,0.08917128
1234.43671875,0.08938642
1236.36552612,0.08929996
1238.29433350,0.08900417
1240.22314087,0.08900478
1242.15194824,0.08858970
1244.08075562,0.08812174
1246.00956299,0.08781040
1247.93837036,0.08714071
1249.86717773,0.08673003
1251.79598511,0.08590990
1253.72479248,0.08483261
1255.65359985,0.08385742
1257.58240723,0.08271475
1259.51121460,0.08136614
1261.44002197,0.08009051
1263.36882935,0.07924983
1265.29763672,0.07808016
1267.22644409,0.07708460
1269.15525146,0.07618123
1271.08405884,0.07467702
1273.01286621,0.07361238
1274.94167358,0.07236916
1276.87048096,0.07071579
1278.79928833,0.06946364
1280.72809570,0.06811013
1282.65690308,0.06689412
1284.58571045,0.06567195
1286.51451782,0.06429350
1288.44332520,0.06324241
1290.37213257,0.06233731
1292.30093994,0.06176858
1294.22974731,0.06124107
1296.15855469,0.06065109
1298.08736206,0.06069245
1300.01616943,0.06109219
1301.94497681,0.06113421
1303.87378418,0.06149011
1305.80259155,0.06234474
1307.73139893,0.06299534
1309.66020630,0.06411500
1311.58901367,0.06499593
1313.51782104,0.06597990
1315.44662842,0.06800629
1317.37543579,0.06940366
1319.30424316,0.07096501
1321.23305054,0.07338696
1323.16185791,0.07584056
1325.09066528,0.07819016
1327.01947266,0.08020940
1328.94828003,0.08232661
1330.87708740,0.08434373
1332.80589478,0.08615081
1334.73470215,0.08805233
1336.66350952,0.08890507
1338.59231689,0.08799487
1340.52112427,0.08930226
1342.44993164,0.09296559
1344.37873901,0.09343401
1346.30754639,0.09308469
1348.23635376,0.09313673
1350.16516113,0.09242015
1352.09396851,0.09231392
1354.02277588,0.09115389
1355.95158325,0.09075014
1357.88039062,0.09023058
1359.80919800,0.08823687
1361.73800537,0.08489250
1363.66681274,0.08355704
1365.59562012,0.08721884
1367.52442749,0.08561057
1369.45323486,0.08443666
1371.38204224,0.08573295
1373.31084961,0.08137289
1375.23965698,0.08187863
1377.16846436,0.08395892
1379.09727173,0.08377042
1381.02607910,0.08370747
1382.95488647,0.08339380
1384.88369385,0.08357473
1386.81250122,0.07963853
1388.74130859,0.08067712
1390.67011597,0.08726203
1392.59892334,0.08526032
1394.52773071,0.07999708
1396.45653809,0.08374134
1398.38534546,0.08399040
1400.31415283,0.08319519
1402.24296021,0.08973421
1404.17176758,0.08494385
1406.10057495,0.08503161
1408.02938232,0.08879167
1409.95818970,0.08535452
1411.88699707,0.08709297
1413.81580444,0.08422544
1415.74461182,0.08534114
1417.67341919,0.07755492
1419.60222656,0.06939963
1421.53103394,0.07948897
1423.45984131,0.07708213
1425.38864868,0.07456543
1427.31745605,0.07558279
1429.24626343,0.06985445
1431.17507080,0.06771952
1433.10387817,0.06886773
1435.03268555,0.06327465
1436.96149292,0.05350968
1438.89030029,0.06031647
1440.81910767,0.06183761
1442.74791504,0.05722514
1444.67672241,0.05995426
1446.60552979,0.05522148
1448.53433716,0.05606364
1450.46314453,0.05761166
1452.39195190,0.05876266
1454.32075928,0.06115085
1456.24956665,0.05106172
1458.17837402,0.05311851
1460.10718140,0.06962791
1462.03598877,0.07447122
1463.96479614,0.07410811
1465.89360352,0.07725623
1467.82241089,0.08799447
1469.75121826,0.09463090
1471.68002563,0.08481608
1473.60883301,0.08906709
1475.53764038,0.10173547
1477.46644775,0.10908522
1479.39525513,0.11955916
1481.32406250,0.12184769
1483.25286987,0.12916726
1485.18167725,0.13347051
1487.11048462,0.13168696
1489.03929199,0.13149852
1490.96809937,0.13221739
1492.89690674,0.15286876
1494.82571411,0.15015610
1496.75452148,0.13548754
1498.68332886,0.15272418
1500.61213623,0.15750793
1502.54094360,0.16825271
1504.46975098,0.15998493
1506.39855835,0.11790209
1508.32736572,0.14251098
1510.25617310,0.16703418
1512.18498047,0.16158885
1514.11378784,0.17465714
1516.04259521,0.15832327
1517.97140259,0.16480207
1519.90020996,0.15958701
1521.82901733,0.13858987
1523.75782471,0.16811401
1525.68663208,0.16546747
1527.61543945,0.16457608
1529.54424683,0.18119492
1531.47305420,0.17454967
1533.40186157,0.16038212
1535.33066895,0.16897117
1537.25947632,0.18088393
1539.18828369,0.13135216
1541.11709106,0.13610503
1543.04589844,0.16275409
1544.97470581,0.15617169
1546.90351318,0.18307389
1548.83232056,0.17142543
1550.76112793,0.17602751
1552.68993530,0.17507085
1554.61874268,0.15932742
1556.54755005,0.17018747
1558.47635742,0.12203158
1560.40516479,0.12977701
1562.33397217,0.18230882
1564.26277954,0.17309156
1566.19158691,0.17716523
1568.12039429,0.17538553
1570.04920166,0.15574986
1571.97800903,0.17810431
1573.90681641,0.18059273
1575.83562378,0.14371154
1577.76443115,0.16074827
1579.69323853,0.18152657
1581.62204590,0.17298561
1583.55085327,0.17651090
1585.47966064,0.17369886
1587.40846802,0.17420813
1589.33727539,0.17255035
1591.26608276,0.17156175
1593.19489014,0.17123622
1595.12369751,0.16881080
1597.05250488,0.17042622
1598.98131226,0.16840750
1600.91011963,0.16839893
1602.83892700,0.16482437
1604.76773437,0.16647364
1606.69654175,0.16338673
1608.62534912,0.16201258
1610.55415649,0.16107468
1612.48296387,0.16085947
1614.41177124,0.16191974
1616.34057861,0.13267675
1618.26938599,0.14202532
1620.19819336,0.16387358
1622.12700073,0.14512438
1624.05580811,0.14488406
1625.98461548,0.15097186
1627.91342285,0.14968693
1629.84223022,0.14829922
1631.77103760,0.15737131
1633.69984497,0.14549063
1635.62865234,0.12066565
1637.55745972,0.13948002
1639.48626709,0.15306370
1641.41507446,0.14950998
1643.34388184,0.15374228
1645.27268921,0.13965908
1647.20149658,0.12327331
1649.13030396,0.15259448
1651.05911133,0.14599301
1652.98791870,0.09549631
1654.91672607,0.12849230
1656.84553345,0.16121824
1658.77434082,0.15487012
1660.70314819,0.16025093
1662.63195557,0.14694715
1664.56076294,0.15516740
1666.48957031,0.16727789
1668.41837769,0.14769661
1670.34718506,0.14431319
1672.27599243,0.16357300
1674.20479980,0.15260565
1676.13360718,0.14693275
1678.06241455,0.16926894
1679.99122192,0.16450873
1681.92002930,0.16358821
1683.84883667,0.13520832
1685.77764404,0.13338345
1687.70645142,0.18215650
1689.63525879,0.16013819
1691.56406616,0.17537743
1693.49287354,0.18035194
1695.42168091,0.13312852
1697.35048828,0.16365650
1699.27929565,0.14619821
1701.20810303,0.13149527
1703.13691040,0.17815095
1705.06571777,0.16488153
1706.99452515,0.16617507
1708.92333252,0.18087623
1710.85213989,0.17447031
1712.78094727,0.17799649
1714.70975464,0.16645405
1716.63856201,0.14990515
1718.56736938,0.14744905
1720.49617676,0.17456335
1722.42498413,0.18138076
1724.35379150,0.16888104
1726.28259888,0.18352371
1728.21140625,0.17042486
1730.14021362,0.17180604
1732.06902100,0.16814852
1733.99782837,0.12957811
1735.92663574,0.15921891
1737.85544312,0.17654890
1739.78425049,0.15759173
1741.71305786,0.17132303
1743.64186523,0.17422660
1745.57067261,0.17422952
1747.49947998,0.17630507
1749.42828735,0.16918020
1751.35709473,0.16203676
1753.28590210,0.17876506
1755.21470947,0.18727463
1757.14351685,0.17146648
1759.07232422,0.18784165
1761.00113159,0.17742588
1762.92993896,0.17090137
1764.85874634,0.19507629
1766.78755371,0.17657423
1768.71636108,0.17794380
1770.64516846,0.17711900
1772.57397583,0.15949827
1774.50278320,0.17732385
1776.43159058,0.18708132
1778.36039795,0.18483672
1780.28920532,0.18288153
1782.21801270,0.18399389
1784.14682007,0.18405248
1786.07562744,0.18050250
1788.00443481,0.18911698
1789.93324219,0.18506485
1791.86204956,0.16821529
1793.79085693,0.17471009
1795.71966431,0.18729171
1797.64847168,0.18492617
1799.57727905,0.18231530
1801.50608643,0.17943051
1803.43489380,0.18475997
1805.36370117,0.18872699
1807.29250854,0.18624151
1809.22131592,0.18708999
1811.15012329,0.18214130
1813.07893066,0.18756361
1815.00773804,0.18870296
1816.93654541,0.18626720
1818.86535278,0.18777511
1820.79416016,0.18702352
1822.72296753,0.18977568
1824.65177490,0.17789090
1826.58058228,0.18396592
1828.50938965,0.18450490
1830.43819702,0.17324950
1832.36700439,0.18795523
1834.29581177,0.18686794
1836.22461914,0.18657261
1838.15342651,0.18594214
1840.08223389,0.18686971
1842.01104126,0.18733734
1843.93984863,0.16690817
1845.86865601,0.17738418
1847.79746338,0.18699980
1849.72627075,0.18279228
1851.65507812,0.18804389
1853.58388550,0.18441759
1855.51269287,0.18608843
1857.44150024,0.18499622
1859.37030762,0.18371288
1861.29911499,0.18516091
1863.22792236,0.18319684
1865.15672974,0.18501978
1867.08553711,0.17920610
1869.01434448,0.17204404
1870.94315186,0.17836344
1872.87195923,0.18475002
1874.80076660,0.18199912
1876.72957397,0.18289302
1878.65838135,0.18239468
1880.58718872,0.18139032
1882.51599609,0.18262735
1884.44480347,0.17987627
1886.37361084,0.18237722
1888.30241821,0.17843822
1890.23122559,0.17506625
1892.16003296,0.18129900
1894.08884033,0.17898470
1896.01764771,0.17800365
1897.94645508,0.17987993
1899.87526245,0.17907071
1901.80406982,0.17939043
1903.73287720,0.17835709
1905.66168457,0.17888711
1907.59049194,0.17724624
1909.51929932,0.17625567
1911.44810669,0.17722754
1913.37691406,0.17736152
1915.30572144,0.17868036
1917.23452881,0.17129357
1919.16333618,0.17139152
1921.09214355,0.17759602
1923.02095093,0.17216250
1924.94975830,0.17537081
1926.87856567,0.17713815
1928.80737305,0.17482927
1930.73618042,0.17691764
1932.66498779,0.17464767
1934.59379517,0.17621094
1936.52260254,0.17505136
1938.45140991,0.17536202
1940.38021729,0.17519376
1942.30902466,0.16986263
1944.23783203,0.17285284
1946.16663940,0.17444272
1948.09544678,0.17408019
1950.02425415,0.17458822
1951.95306152,0.17414999
1953.88186890,0.17430322
1955.81067627,0.17346448
1957.73948364,0.17402196
1959.66829102,0.17351863
1961.59709839,0.17316347
1963.52590576,0.17349748
1965.45471313,0.17254201
1967.38352051,0.17103255
1969.31232788,0.17222974
1971.24113525,0.17341447
1973.16994263,0.17207885
1975.09875000,0.17258683
1977.02755737,0.17171849
1978.95636475,0.17181364
1980.88517212,0.17178524
1982.81397949,0.17095430
1984.74278687,0.17163089
1986.67159424,0.17007858
1988.60040161,0.17029375
1990.52920898,0.16892666
1992.45801636,0.16708726
1994.38682373,0.16919439
1996.31563110,0.16934499
1998.24443848,0.16851074
2000.17324585,0.16855104
2002.10205322,0.16815394
2004.03086060,0.16779867
2005.95966797,0.16758104
2007.88847534,0.16686112
2009.81728271,0.16670638
2011.74609009,0.16647506
2013.67489746,0.16626871
2015.60370483,0.16524237
2017.53251221,0.16370350
2019.46131958,0.16473719
2021.39012695,0.16439529
2023.31893433,0.16375002
2025.24774170,0.16390738
2027.17654907,0.16324449
2029.10535645,0.16313568
2031.03416382,0.16251314
2032.96297119,0.16244119
2034.89177856,0.16186473
2036.82058594,0.16143239
2038.74939331,0.16121519
2040.67820068,0.16016594
2042.60700806,0.16016807
2044.53581543,0.16001967
2046.46462280,0.15969443
2048.39343018,0.15935144
2050.32223755,0.15895477
2052.25104492,0.15864226
2054.17985229,0.15829660
2056.10865967,0.15796833
2058.03746704,0.15753071
2059.96627441,0.15720746
2061.89508179,0.15694185
2063.82388916,0.15640596
2065.75269653,0.15566173
2067.68150391,0.15611467
2069.61031128,0.15586829
2071.53911865,0.15523887
2073.46792603,0.15514493
2075.39673340,0.15457873
2077.32554077,0.15464929
2079.25434814,0.15399444
2081.18315552,0.15374759
2083.11196289,0.15362400
2085.04077026,0.15302588
2086.96957764,0.15288612
2088.89838501,0.15229429
2090.82719238,0.15218657
2092.75599976,0.15192118
2094.68480713,0.15181702
2096.61361450,0.15153927
2098.54242187,0.15111935
2100.47122925,0.15098938
2102.40003662,0.15053569
2104.32884399,0.15047401
2106.25765137,0.15004829
2108.18645874,0.14984244
2110.11526611,0.14961091
2112.04407349,0.14939326
2113.97288086,0.14911440
2115.90168823,0.14862549
2117.83049561,0.14869329
2119.75930298,0.14824003
2121.68811035,0.14803392
2123.61691772,0.14779438
2125.54572510,0.14758989
2127.47453247,0.14758244
2129.40333984,0.14729197
2131.33214722,0.14716448
2133.26095459,0.14694223
2135.18976196,0.14680530
2137.11856934,0.14637592
2139.04737671,0.14631028
2140.97618408,0.14611509
2142.90499146,0.14594883
2144.83379883,0.14594385
2146.76260620,0.14541997
2148.69141357,0.14548795
2150.62022095,0.14524725
2152.54902832,0.14504269
2154.47783569,0.14490105
2156.40664307,0.14455482
2158.33545044,0.14448869
2160.26425781,0.14432497
2162.19306519,0.14426088
2164.12187256,0.14406157
2166.05067993,0.14392796
2167.97948730,0.14362690
2169.90829468,0.14355987
2171.83710205,0.14340740
2173.76590942,0.14314041
2175.69471680,0.14312083
2177.62352417,0.14289841
2179.55233154,0.14289695
2181.48113892,0.14251697
2183.40994629,0.14247021
2185.33875366,0.14235248
2187.26756104,0.14208749
2189.19636841,0.14213505
2191.12517578,0.14175892
2193.05398315,0.14167742
2194.98279053,0.14136478
2196.91159790,0.14126560
2198.84040527,0.14120048
2200.76921265,0.14102367
2202.69802002,0.14100187
2204.62682739,0.14063023
2206.55563477,0.14054114
2208.48444214,0.14032698
2210.41324951,0.14029473
2212.34205688,0.14020395
2214.27086426,0.13999575
2216.19967163,0.13988492
2218.12847900,0.13962238
2220.05728638,0.13952890
2221.98609375,0.13938119
2223.91490112,0.13924152
2225.84370850,0.13893768
2227.77251587,0.13887611
2229.70132324,0.13858947
2231.63013062,0.13837644
2233.55893799,0.13836575
2235.48774536,0.13799752
2237.41655273,0.13789213
2239.34536011,0.13745588
2241.27416748,0.13740098
2243.20297485,0.13725185
2245.13178223,0.13688926
2247.06058960,0.13682152
2248.98939697,0.13654780
2250.91820435,0.13658412
2252.84701172,0.13621846
2254.77581909,0.13604742
2256.70462646,0.13599932
2258.63343384,0.13573131
2260.56224121,0.13553885
2262.49104858,0.13532495
2264.41985596,0.13528708
2266.34866333,0.13499339
2268.27747070,0.13491306
2270.20627808,0.13468717
2272.13508545,0.13453892
2274.06389282,0.13436829
2275.99270020,0.13415223
2277.92150757,0.13423723
2279.85031494,0.13397598
2281.77912231,0.13401330
2283.70792969,0.13379827
2285.63673706,0.13352165
2287.56554443,0.13333580
2289.49435181,0.13301861
2291.42315918,0.13276353
2293.35196655,0.13233671
2295.28077393,0.13210893
2297.20958130,0.13155720
2299.13838867,0.13118848
2301.06719604,0.13072829
2302.99600342,0.13008060
2304.92481079,0.12956187
2306.85361816,0.12862419
2308.78242554,0.12768054
2310.71123291,0.12666613
2312.64004028,0.12561235
2314.56884766,0.12420970
2316.49765503,0.12281464
2318.42646240,0.12122336
2320.35526978,0.11950405
2322.28407715,0.11802146
2324.21288452,0.11638078
2326.14169189,0.11517517
2328.07049927,0.11376481
2329.99930664,0.11241452
2331.92811401,0.11144821
2333.85692139,0.11105254
2335.78572876,0.11062497
2337.71453613,0.11008665
2339.64334351,0.11019710
2341.57215088,0.11054726
2343.50095825,0.11235737
2345.42976562,0.11433104
2347.35857300,0.11902218
2349.28738037,0.12329012
2351.21618774,0.11891104
2353.14499512,0.11281170
2355.07380249,0.10863718
2357.00260986,0.10516854
2358.93141724,0.10337178
2360.86022461,0.10194640
2362.78903198,0.10187468
2364.71783936,0.10252715
2366.64664673,0.10376079
2368.57545410,0.10600129
2370.50426147,0.10865702
2372.43306885,0.11171128
2374.36187622,0.11491032
2376.29068359,0.11790623
2378.21949097,0.12043448
2380.14829834,0.12251972
2382.07710571,0.12387968
2384.00591309,0.12476958
2385.93472046,0.12504129
2387.86352783,0.12521708
2389.79233521,0.12526204
2391.72114258,0.12495114
2393.64994995,0.12497555
2395.57875732,0.12466951
2397.50756470,0.12449374
2399.43637207,0.12440917
2401.36517944,0.12425786
2403.29398682,0.12409808
2405.22279419,0.12376906
2407.15160156,0.12380829
2409.08040894,0.12365992
2411.00921631,0.12350646
2412.93802368,0.12327699
2414.86683105,0.12305772
2416.79563843,0.12305359
2418.72444580,0.12274341
2420.65325317,0.12257481
2422.58206055,0.12247799
2424.51086792,0.12225026
2426.43967529,0.12205248
2428.36848267,0.12194782
2430.29729004,0.12182401
2432.22609741,0.12165441
2434.15490479,0.12148535
2436.08371216,0.12125830
2438.01251953,0.12109308
2439.94132690,0.12103780
2441.87013428,0.12090366
2443.79894165,0.12064451
2445.72774902,0.12060414
2447.65655640,0.12050972
2449.58536377,0.12027006
2451.51417114,0.12002435
2453.44297852,0.11992823
2455.37178589,0.11981981
2457.30059326,0.11957370
2459.22940063,0.11963703
2461.15820801,0.11943924
2463.08701538,0.11924756
2465.01582275,0.11904986
2466.94463013,0.11880998
2468.87343750,0.11880872
2470.80224487,0.11846785
2472.73105225,0.11828952
2474.65985962,0.11810839
2476.58866699,0.11807077
2478.51747437,0.11796759
2480.44628174,0.11772744
2482.37508911,0.11774993
2484.30389648,0.11737993
2486.23270386,0.11724732
2488.16151123,0.11712970
2490.09031860,0.11698877
2492.01912598,0.11691462
2493.94793335,0.11661584
2495.87674072,0.11654909
2497.80554810,0.11644593
2499.73435547,0.11627254
2501.66316284,0.11601472
2503.59197021,0.11598134
2505.52077759,0.11580233
2507.44958496,0.11559941
2509.37839233,0.11557633
2511.30719971,0.11520626
2513.23600708,0.11527879
2515.16481445,0.11528227
2517.09362183,0.11491495
2519.02242920,0.11476061
2520.95123657,0.11469285
2522.88004395,0.11440153
2524.80885132,0.11414292
2526.73765869,0.11419556
2528.66646606,0.11405490
2530.59527344,0.11400002
2532.52408081,0.11382607
2534.45288818,0.11355731
2536.38169556,0.11340353
2538.31050293,0.11324437
2540.23931030,0.11314300
2542.16811768,0.11291867
2544.09692505,0.11284742
2546.02573242,0.11260659
2547.95453979,0.11252947
2549.88334717,0.11247918
2551.81215454,0.11214958
2553.74096191,0.11205734
2555.66976929,0.11189191
2557.59857666,0.11174725
2559.52738403,0.11153259
2561.45619141,0.11151549
2563.38499878,0.11140250
2565.31380615,0.11104178
2567.24261353,0.11103291
2569.17142090,0.11082101
2571.10022827,0.11063600
2573.02903564,0.11063661
2574.95784302,0.11051269
2576.88665039,0.11030772
2578.81545776,0.11012417
2580.74426514,0.11001334
2582.67307251,0.10982600
2584.60187988,0.10954881
2586.53068726,0.10946976
2588.45949463,0.10949038
2590.38830200,0.10920601
2592.31710937,0.10913049
2594.24591675,0.10890184
2596.17472412,0.10860968
2598.10353149,0.10863240
2600.03233887,0.10842329
2601.96114624,0.10841300
2603.88995361,0.10824913
2605.81876099,0.10799001
2607.74756836,0.10787995
2609.67637573,0.10759466
2611.60518311,0.10742062
2613.53399048,0.10737099
2615.46279785,0.10725651
2617.39160522,0.10699699
2619.32041260,0.10696813
2621.24921997,0.10674091
2623.17802734,0.10647514
2625.10683472,0.10653961
2627.03564209,0.10632600
2628.96444946,0.10612277
2630.89325684,0.10597733
2632.82206421,0.10581516
2634.75087158,0.10566522
2636.67967895,0.10549754
2638.60848633,0.10531415
2640.53729370,0.10517772
2642.46610107,0.10506217
2644.39490845,0.10490608
2646.32371582,0.10478002
2648.25252319,0.10454480
2650.18133057,0.10450850
2652.11013794,0.10423093
2654.03894531,0.10404482
2655.96775269,0.10409382
2657.89656006,0.10370550
2659.82536743,0.10360922
2661.75417480,0.10348039
2663.68298218,0.10336499
2665.61178955,0.10326704
2667.54059692,0.10293868
2669.46940430,0.10287850
2671.39821167,0.10278703
2673.32701904,0.10270551
2675.25582642,0.10247941
2677.18463379,0.10224624
2679.11344116,0.10213650
2681.04224854,0.10205800
2682.97105591,0.10192817
2684.89986328,0.10162961
2686.82867065,0.10158096
2688.75747803,0.10134424
2690.68628540,0.10108882
2692.61509277,0.10108022
2694.54390015,0.10081044
2696.47270752,0.10057411
2698.40151489,0.10056074
2700.33032227,0.10036451
2702.25912964,0.10015948
2704.18793701,0.10017838
2706.11674438,0.09996565
2708.04555176,0.09984344
2709.97435913,0.09968112
2711.90316650,0.09935622
2713.83197388,0.09938617
2715.76078125,0.09925653
2717.68958862,0.09894172
2719.61839600,0.09888543
2721.54720337,0.09883870
2723.47601074,0.09848087
2725.40481812,0.09827327
2727.33362549,0.09812089
2729.26243286,0.09786072
2731.19124023,0.09786053
2733.12004761,0.09764364
2735.04885498,0.09740904
2736.97766235,0.09737866
2738.90646973,0.09728016
2740.83527710,0.09702957
2742.76408447,0.09683638
2744.69289185,0.09681571
2746.62169922,0.09656154
2748.55050659,0.09633283
2750.47931396,0.09615162
2752.40812134,0.09595961
2754.33692871,0.09586438
2756.26573608,0.09576355
2758.19454346,0.09554820
2760.12335083,0.09529254
2762.05215820,0.09528014
2763.98096558,0.09509046
2765.90977295,0.09479603
2767.83858032,0.09462756
2769.76738770,0.09447952
2771.69619507,0.09427188
2773.62500244,0.09404838
2775.55380981,0.09400751
2777.48261719,0.09377870
2779.41142456,0.09355131
2781.34023193,0.09342803
2783.26903931,0.09325464
2785.19784668,0.09307805
2787.12665405,0.09285954
2789.05546143,0.09266837
2790.98426880,0.09244203
2792.91307617,0.09232324
2794.84188354,0.09215498
2796.77069092,0.09194688
2798.69949829,0.09173154
2800.62830566,0.09157982
2802.55711304,0.09142828
2804.48592041,0.09111446
2806.41472778,0.09107393
2808.34353516,0.09086277
2810.27234253,0.09060116
2812.20114990,0.09043994
2814.12995728,0.09013562
2816.05876465,0.09011630
2817.98757202,0.08991058
2819.91637939,0.08960553
2821.84518677,0.08952278
2823.77399414,0.08932559
2825.70280151,0.08907731
2827.63160889,0.08889107
2829.56041626,0.08869998
2831.48922363,0.08848085
2833.41803101,0.08829127
2835.34683838,0.08804952
2837.27564575,0.08774328
2839.20445312,0.08746174
2841.13326050,0.08723709
2843.06206787,0.08690362
2844.99087524,0.08649316
2846.91968262,0.08594114
2848.84848999,0.08538578
2850.77729736,0.08519515
2852.70610474,0.08513607
2854.63491211,0.08508465
2856.56371948,0.08476609
2858.49252686,0.08463834
2860.42133423,0.08466654
2862.35014160,0.08432634
2864.27894897,0.08431488
2866.20775635,0.08416691
2868.13656372,0.08388472
2870.06537109,0.08380720
2871.99417847,0.08353585
2873.92298584,0.08342922
2875.85179321,0.08330484
2877.78060059,0.08301745
2879.70940796,0.08286349
2881.63821533,0.08277997
2883.56702270,0.08263212
2885.49583008,0.08247600
2887.42463745,0.08225669
2889.35344482,0.08206682
2891.28225220,0.08191770
2893.21105957,0.08165698
2895.13986694,0.08144701
2897.06867432,0.08109827
2898.99748169,0.08085109
2900.92628906,0.08069409
2902.85509644,0.08035503
2904.78390381,0.08013229
2906.71271118,0.07987998
2908.64151855,0.07954323
2910.57032593,0.07924107
2912.49913330,0.07892238
2914.42794067,0.07838032
2916.35674805,0.07792103
2918.28555542,0.07765591
2920.21436279,0.07740138
2922.14317017,0.07731412
2924.07197754,0.07709740
2926.00078491,0.07692251
2927.92959229,0.07680575
2929.85839966,0.07671519
2931.78720703,0.07666692
2933.71601440,0.07646845
2935.64482178,0.07640375
2937.57362915,0.07626794
2939.50243652,0.07618409
2941.43124390,0.07623654
2943.36005127,0.07603732
2945.28885864,0.07569237
2947.21766602,0.07560314
2949.14647339,0.07553935
2951.07528076,0.07521028
2953.00408813,0.07501092
2954.93289551,0.07473880
2956.86170288,0.07447419
2958.79051025,0.07415931
2960.71931763,0.07382920
2962.64812500,0.07375920
2964.57693237,0.07342465
2966.50573975,0.07314938
2968.43454712,0.07311293
2970.36335449,0.07323962
2972.29216187,0.07326569
2974.22096924,0.07297849
2976.14977661,0.07290018
2978.07858398,0.07286111
2980.00739136,0.07279625
2981.93619873,0.07277302
2983.86500610,0.07260440
2985.79381348,0.07229604
2987.72262085,0.07216108
2989.65142822,0.07213311
2991.58023560,0.07194522
2993.50904297,0.07169256
2995.43785034,0.07133541
2997.36665771,0.07117166
2999.29546509,0.07102609
3001.22427246,0.07078861
3003.15307983,0.07057467
3005.08188721,0.07029891
3007.01069458,0.07012400
3008.93950195,0.06985097
3010.86830933,0.06944817
3012.79711670,0.06903925
3014.72592407,0.06894805
3016.65473145,0.06881712
3018.58353882,0.06846049
3020.51234619,0.06829047
3022.44115356,0.06806811
3024.36996094,0.06784114
3026.29876831,0.06740002
3028.22757568,0.06714509
3030.15638306,0.06697178
3032.08519043,0.06647541
3034.01399780,0.06632814
3035.94280518,0.06615760
3037.87161255,0.06587126
3039.80041992,0.06552708
3041.72922729,0.06519691
3043.65803467,0.06501962
3045.58684204,0.06467721
3047.51564941,0.06436642
3049.44445679,0.06413818
3051.37326416,0.06396810
3053.30207153,0.06368202
3055.23087891,0.06332488
3057.15968628,0.06299396
3059.08849365,0.06277339
3061.01730103,0.06261098
3062.94610840,0.06221382
3064.87491577,0.06189945
3066.80372314,0.06161741
3068.73253052,0.06145003
3070.66133789,0.06123532
3072.59014526,0.06085345
3074.51895264,0.06062290
3076.44776001,0.06024232
3078.37656738,0.05993004
3080.30537476,0.05969450
3082.23418213,0.05940331
3084.16298950,0.05910578
3086.09179687,0.05876814
3088.02060425,0.05853011
3089.94941162,0.05821051
3091.87821899,0.05793976
3093.80702637,0.05766647
3095.73583374,0.05726565
3097.66464111,0.05696785
3099.59344849,0.05661549
3101.52225586,0.05627691
3103.45106323,0.05610196
3105.37987061,0.05574731
3107.30867798,0.05535124
3109.23748535,0.05500947
3111.16629272,0.05468981
3113.09510010,0.05450999
3115.02390747,0.05398173
3116.95271484,0.05356068
3118.88152222,0.05334805
3120.81032959,0.05289988
3122.73913696,0.05269280
3124.66794434,0.05241059
3126.59675171,0.05195598
3128.52555908,0.05167909
3130.45436645,0.05141307
3132.38317383,0.05086803
3134.31198120,0.05052184
3136.24078857,0.05041697
3138.16959595,0.04999817
3140.09840332,0.04971343
3142.02721069,0.04932537
3143.95601807,0.04899678
3145.88482544,0.04870523
3147.81363281,0.04823048
3149.74244019,0.04805069
3151.67124756,0.04762039
3153.60005493,0.04726589
3155.52886230,0.04700336
3157.45766968,0.04664186
3159.38647705,0.04640594
3161.31528442,0.04598621
3163.24409180,0.04557065
3165.17289917,0.04523506
3167.10170654,0.04505534
3169.03051392,0.04472753
3170.95932129,0.04441282
3172.88812866,0.04412996
3174.81693604,0.04375623
3176.74574341,0.04355950
3178.67455078,0.04308720
3180.60335815,0.04286643
3182.53216553,0.04276942
3184.46097290,0.04238367
3186.38978027,0.04208166
3188.31858765,0.04169590
3190.24739502,0.04137291
3192.17620239,0.04118710
3194.10500977,0.04099558
3196.03381714,0.04070382
3197.96262451,0.04047802
3199.89143188,0.04022229
3201.82023926,0.03999148
3203.74904663,0.03980114
3205.67785400,0.03954924
3207.60666138,0.03939160
3209.53546875,0.03903844
3211.46427612,0.03890568
3213.39308350,0.03874844
3215.32189087,0.03849488
3217.25069824,0.03840483
3219.17950562,0.03808414
3221.10831299,0.03795581
3223.03712036,0.03779637
3224.96592773,0.03768165
3226.89473511,0.03755055
3228.82354248,0.03730347
3230.75234985,0.03722128
3232.68115723,0.03698994
3234.60996460,0.03695672
3236.53877197,0.03684987
3238.46757935,0.03662920
3240.39638672,0.03660238
3242.32519409,0.03651481
3244.25400146,0.03630999
3246.18280884,0.03613331
3248.11161621,0.03614096
3250.04042358,0.03613160
3251.96923096,0.03608784
3253.89803833,0.03586289
3255.82684570,0.03573368
3257.75565308,0.03572707
3259.68446045,0.03569509
3261.61326782,0.03567948
3263.54207520,0.03545800
3265.47088257,0.03546610
3267.39968994,0.03536598
3269.32849731,0.03525551
3271.25730469,0.03527110
3273.18611206,0.03509394
3275.11491943,0.03504437
3277.04372681,0.03493835
3278.97253418,0.03501689
3280.90134155,0.03499136
3282.83014893,0.03482562
3284.75895630,0.03485959
3286.68776367,0.03472187
3288.61657104,0.03465185
3290.54537842,0.03465296
3292.47418579,0.03455804
3294.40299316,0.03443313
3296.33180054,0.03435978
3298.26060791,0.03437031
3300.18941528,0.03435689
3302.11822266,0.03412273
3304.04703003,0.03400103
3305.97583740,0.03405781
3307.90464478,0.03394575
3309.83345215,0.03397199
3311.76225952,0.03384306
3313.69106689,0.03374436
3315.61987427,0.03383785
3317.54868164,0.03375157
3319.47748901,0.03363463
3321.40629639,0.03357593
3323.33510376,0.03363191
3325.26391113,0.03345551
3327.19271851,0.03339995
3329.12152588,0.03343024
3331.05033325,0.03329391
3332.97914062,0.03331723
3334.90794800,0.03318340
3336.83675537,0.03302787
3338.76556274,0.03305503
3340.69437012,0.03312261
3342.62317749,0.03296698
3344.55198486,0.03290654
3346.48079224,0.03297282
3348.40959961,0.03284469
3350.33840698,0.03278867
3352.26721436,0.03279354
3354.19602173,0.03273553
3356.12482910,0.03253995
3358.05363647,0.03262608
3359.98244385,0.03252305
3361.91125122,0.03237779
3363.84005859,0.03247411
3365.76886597,0.03220384
3367.69767334,0.03226300
3369.62648071,0.03233112
3371.55528809,0.03234322
3373.48409546,0.03232800
3375.41290283,0.03224107
3377.34171020,0.03225992
3379.27051758,0.03219340
3381.19932495,0.03234643
3383.12813232,0.03212622
3385.05693970,0.03212490
3386.98574707,0.03220730
3388.91455444,0.03217226
3390.84336182,0.03222504
3392.77216919,0.03200864
3394.70097656,0.03226087
3396.62978394,0.03215792
3398.55859131,0.03207533
3400.48739868,0.03221297
3402.41620605,0.03226277
3404.34501343,0.03241070
3406.27382080,0.03224336
3408.20262817,0.03237236
3410.13143555,0.03233460
3412.06024292,0.03242292
3413.98905029,0.03247643
3415.91785767,0.03242753
3417.84666504,0.03261348
3419.77547241,0.03244307
3421.70427979,0.03244256
3423.63308716,0.03256720
3425.56189453,0.03282576
3427.49070190,0.03276206
3429.41950928,0.03278209
3431.34831665,0.03283977
3433.27712402,0.03278430
3435.20593140,0.03298216
3437.13473877,0.03268433
3439.06354614,0.03305523
3440.99235352,0.03309026
3442.92116089,0.03292046
3444.84996826,0.03326898
3446.77877563,0.03286598
3448.70758301,0.03302194
3450.63639038,0.03341904
3452.56519775,0.03350427
3454.49400513,0.03353123
3456.42281250,0.03357058
3458.35161987,0.03367081
3460.28042725,0.03368074
3462.20923462,0.03369800
3464.13804199,0.03375357
3466.06684937,0.03394226
3467.99565674,0.03381129
3469.92446411,0.03406960
3471.85327148,0.03422843
3473.78207886,0.03411632
3475.71088623,0.03422565
3477.63969360,0.03431299
3479.56850098,0.03444493
3481.49730835,0.03411727
3483.42611572,0.03447147
3485.35492310,0.03469799
3487.28373047,0.03452177
3489.21253784,0.03472362
3491.14134521,0.03486192
3493.07015259,0.03520226
3494.99895996,0.03497846
3496.92776733,0.03500737
3498.85657471,0.03526824
3500.78538208,0.03532546
3502.71418945,0.03495121
3504.64299683,0.03492343
3506.57180420,0.03580970
3508.50061157,0.03547813
3510.42941895,0.03541223
3512.35822632,0.03580900
3514.28703369,0.03601379
3516.21584106,0.03616041
3518.14464844,0.03596751
3520.07345581,0.03641583
3522.00226318,0.03617433
3523.93107056,0.03581835
3525.85987793,0.03615891
3527.78868530,0.03624120
3529.71749268,0.03626293
3531.64630005,0.03670944
3533.57510742,0.03711620
3535.50391479,0.03691074
3537.43272217,0.03691681
3539.36152954,0.03720062
3541.29033691,0.03738739
3543.21914429,0.03715225
3545.14795166,0.03654689
3547.07675903,0.03623751
3549.00556641,0.03733090
3550.93437378,0.03774992
3552.86318115,0.03701134
3554.79198853,0.03784085
3556.72079590,0.03804504
3558.64960327,0.03801273
3560.57841064,0.03787856
3562.50721802,0.03776152
3564.43602539,0.03819380
3566.36483276,0.03589510
3568.29364014,0.03524232
3570.22244751,0.03787600
3572.15125488,0.03879064
3574.08006226,0.03847001
3576.00886963,0.03877512
3577.93767700,0.03869317
3579.86648437,0.03871201
3581.79529175,0.03900447
3583.72409912,0.03901841
3585.65290649,0.03840104
3587.58171387,0.03565278
3589.51052124,0.03665797
3591.43932861,0.03970043
3593.36813599,0.03861650
3595.29694336,0.03818349
3597.22575073,0.03889949
3599.15455811,0.03926889
3601.08336548,0.03906085
3603.01217285,0.03939016
3604.94098022,0.04019779
3606.86978760,0.03908198
3608.79859497,0.03690886
3610.72740234,0.03776141
3612.65620972,0.03875621
3614.58501709,0.03759203
3616.51382446,0.04023873
3618.44263184,0.03759723
3620.37143921,0.03639646
3622.30024658,0.04077382
3624.22905395,0.03978902
3626.15786133,0.04172625
3628.08666870,0.03587281
3630.01547607,0.03287020
3631.94428345,0.04075325
3633.87309082,0.03988121
3635.80189819,0.04061808
3637.73070557,0.04144769
3639.65951294,0.04095025
3641.58832031,0.04147863
3643.51712769,0.04104316
3645.44593506,0.04150473
3647.37474243,0.03773803
3649.30354980,0.03485844
3651.23235718,0.03524363
3653.16116455,0.04148706
3655.08997192,0.04113112
3657.01877930,0.03728130
3658.94758667,0.04256115
3660.87639404,0.04175069
3662.80520142,0.04242969
3664.73400879,0.04242151
3666.66281616,0.04206766
3668.59162354,0.04111876
3670.52043091,0.03406151
3672.44923828,0.04060085
3674.37804565,0.03906051
3676.30685303,0.03276456
3678.23566040,0.04067309
3680.16446777,0.04175019
3682.09327515,0.04166783
3684.02208252,0.04295485
3685.95088989,0.04237860
3687.87969727,0.03842569
3689.80850464,0.03546280
3691.73731201,0.04027232
3693.66611938,0.04147865
3695.59492676,0.04231405
3697.52373413,0.04233372
3699.45254150,0.04194842
3701.38134888,0.04110345
3703.31015625,0.03958386
3705.23896362,0.04326099
3707.16777100,0.04131986
3709.09657837,0.04040845
3711.02538574,0.03833882
3712.95419312,0.03587506
3714.88300049,0.04173653
3716.81180786,0.04123251
3718.74061523,0.04146885
3720.66942261,0.04074979
3722.59822998,0.03934213
3724.52703735,0.04078219
3726.45584473,0.03794499
3728.38465210,0.04086290
3730.31345947,0.04043150
3732.24226685,0.03743256
3734.17107422,0.03671075
3736.09988159,0.03482946
3738.02868896,0.03674736
3739.95749634,0.03956699
3741.88630371,0.04138911
3743.81511108,0.03273575
3745.74391846,0.03082011
3747.67272583,0.03940473
3749.60153320,0.03426630
3751.53034058,0.03169904
3753.45914795,0.03607297
3755.38795532,0.03871996
3757.31676270,0.04022776
3759.24557007,0.03737686
3761.17437744,0.03853680
3763.10318481,0.04071012
3765.03199219,0.03822227
3766.96079956,0.03900102
3768.88960693,0.03862957
3770.81841431,0.03684650
3772.74722168,0.03963526
3774.67602905,0.03983633
3776.60483643,0.03975312
3778.53364380,0.03881989
3780.46245117,0.03738328
3782.39125854,0.03965443
3784.32006592,0.03884088
3786.24887329,0.03850874
3788.17768066,0.03935501
3790.10648804,0.03921542
3792.03529541,0.03888007
3793.96410278,0.03939723
3795.89291016,0.03723657
3797.82171753,0.03675800
3799.75052490,0.03862411
3801.67933228,0.03111368
3803.60813965,0.03598787
3805.53694702,0.03899223
3807.46575439,0.03210416
3809.39456177,0.03842358
3811.32336914,0.03777185
3813.25217651,0.03895594
3815.18098389,0.03547602
3817.10979126,0.03120817
3819.03859863,0.03896365
3820.96740601,0.03208995
3822.89621338,0.03346250
3824.82502075,0.03863037
3826.75382812,0.03513836
3828.68263550,0.03769680
3830.61144287,0.03625476
3832.54025024,0.03513466
3834.46905762,0.03589682
3836.39786499,0.03421843
3838.32667236,0.03102906
3840.25547974,0.03344421
3842.18428711,0.03604738
3844.11309448,0.03438477
3846.04190186,0.03701630
3847.97070923,0.03649969
3849.89951660,0.03657390
3851.82832397,0.03320396
3853.75713135,0.02525631
3855.68593872,0.02947021
3857.61474609,0.03655917
3859.54355347,0.03564584
3861.47236084,0.03516986
3863.40116821,0.03450250
3865.32997559,0.03217424
3867.25878296,0.03566641
3869.18759033,0.03289062
3871.11639770,0.03050428
3873.04520508,0.03576297
3874.97401245,0.03306140
3876.90281982,0.03540311
3878.83162720,0.03613431
3880.76043457,0.03135416
3882.68924194,0.03556261
3884.61804932,0.03340230
3886.54685669,0.03077105
3888.47566406,0.03555896
3890.40447144,0.03386355
3892.33327881,0.03183483
3894.26208618,0.03467250
3896.19089355,0.03526510
3898.11970093,0.03375173
3900.04850830,0.03203847
3901.97731567,0.03165201
3903.90612305,0.03147056
3905.83493042,0.03178383
3907.76373779,0.03459100
3909.69254517,0.03462317
3911.62135254,0.03420205
3913.55015991,0.03478192
3915.47896728,0.03357288
3917.40777466,0.03281107
3919.33658203,0.03269363
3921.26538940,0.03375727
3923.19419678,0.03361610
3925.12300415,0.03296752
3927.05181152,0.03342117
3928.98061890,0.03369542
3930.90942627,0.03318457
3932.83823364,0.03212665
3934.76704102,0.03324113
3936.69584839,0.03359769
3938.62465576,0.03334254
3940.55346313,0.03352900
3942.48227051,0.03235032
3944.41107788,0.03257964
3946.33988525,0.03305428
3948.26869263,0.03238755
3950.19750000,0.03242220
3952.12630737,0.03286803
3954.05511475,0.03274005
3955.98392212,0.03271503
3957.91272949,0.03268000
3959.84153687,0.03266106
3961.77034424,0.03248077
3963.69915161,0.03211986
3965.62795898,0.03250099
3967.55676636,0.03229148
3969.48557373,0.03228526
3971.41438110,0.03224916
3973.34318848,0.03195804
3975.27199585,0.03203700
3977.20080322,0.03186171
3979.12961060,0.03207224
3981.05841797,0.03173907
3982.98722534,0.03179423
3984.91603271,0.03183631
3986.84484009,0.03162139
3988.77364746,0.03167640
3990.70245483,0.03134598
3992.63126221,0.03159303
3994.56006958,0.03137591
3996.48887695,0.03138681
3998.41768433,0.03145665
4000.34649170,0.03122058
4002.27529907,0.03120965
4004.20410645,0.03103936
4006.13291382,0.03117407
4008.06172119,0.03088129
4009.99052856,0.03096274
4011.91933594,0.03091723
4013.84814331,0.03070447
4015.77695068,0.03081104
4017.70575806,0.03066890
4019.63456543,0.03057418
4021.56337280,0.03038876
4023.49218018,0.03060304
4025.42098755,0.03034203
4027.34979492,0.03030946
4029.27860229,0.03043089
4031.20740967,0.03015490
4033.13621704,0.03021743
4035.06502441,0.03000831
4036.99383179,0.03007561
4038.92263916,0.02994857
4040.85144653,0.02987855
4042.78025391,0.02978204
4044.70906128,0.02962765
4046.63786865,0.02976162
4048.56667603,0.02961734
4050.49548340,0.02960840
4052.42429077,0.02946024
4054.35309814,0.02960676
4056.28190552,0.02943398
4058.21071289,0.02924302
4060.13952026,0.02930222
4062.06832764,0.02912687
4063.99713501,0.02917271
4065.92594238,0.02893055
4067.85474976,0.02906671
4069.78355713,0.02892336
4071.71236450,0.02883795
4073.64117187,0.02889090
4075.56997925,0.02866545
4077.49878662,0.02881157
4079.42759399,0.02856476
4081.35640137,0.02863188
4083.28520874,0.02853537
4085.21401611,0.02839389
4087.14282349,0.02837767
4089.07163086,0.02819856
4091.00043823,0.02829440
4092.92924561,0.02815492
4094.85805298,0.02815476
4096.78686035,0.02796870
4098.71566772,0.02801889
4100.64447510,0.02794064
4102.57328247,0.02780619
4104.50208984,0.02792744
4106.43089722,0.02767662
4108.35970459,0.02780735
4110.28851196,0.02765299
4112.21731934,0.02761379
4114.14612671,0.02758655
4116.07493408,0.02743639
4118.00374145,0.02752605
4119.93254883,0.02733595
4121.86135620,0.02730946
4123.79016357,0.02713775
4125.71897095,0.02712350
4127.64777832,0.02709446
4129.57658569,0.02713269
4131.50539307,0.02707906
4133.43420044,0.02683400
4135.36300781,0.02692744
4137.29181519,0.02680891
4139.22062256,0.02687473
4141.14942993,0.02667325
4143.07823730,0.02662163
4145.00704468,0.02663409
4146.93585205,0.02634187
4148.86465942,0.02645531
4150.79346680,0.02632374
4152.72227417,0.02630143
4154.65108154,0.02622913
4156.57988892,0.02619114
4158.50869629,0.02625199
4160.43750366,0.02612837
4162.36631103,0.02607431
4164.29511841,0.02596490
4166.22392578,0.02596777
4168.15273315,0.02584956
4170.08154053,0.02583298
4172.01034790,0.02572391
4173.93915527,0.02571596
4175.86796265,0.02572956
4177.79677002,0.02554922
4179.72557739,0.02560902
4181.65438477,0.02540835
4183.58319214,0.02541590
4185.51199951,0.02541311
4187.44080688,0.02524878
4189.36961426,0.02521384
4191.29842163,0.02511989
4193.22722900,0.02504739
4195.15603638,0.02500055
4197.08484375,0.02505686
4199.01365112,0.02489992
4200.94245850,0.02498942
4202.87126587,0.02494616
4204.80007324,0.02478493
4206.72888062,0.02480265
4208.65768799,0.02458461
4210.58649536,0.02466910
4212.51530273,0.02459099
4214.44411011,0.02449593
4216.37291748,0.02451795
4218.30172485,0.02441865
4220.23053223,0.02436112
4222.15933960,0.02427980
4224.08814697,0.02425433
4226.01695435,0.02414192
4227.94576172,0.02415460
4229.87456909,0.02412581
4231.80337646,0.02405589
4233.73218384,0.02389579
4235.66099121,0.02391722
4237.58979858,0.02398477
4239.51860596,0.02379175
4241.44741333,0.02383536
4243.37622070,0.02369656
4245.30502808,0.02367425
4247.23383545,0.02356608
4249.16264282,0.02349325
4251.09145020,0.02357367
4253.02025757,0.02341325
4254.94906494,0.02343450
4256.87787231,0.02326152
4258.80667969,0.02332164
4260.73548706,0.02325785
4262.66429443,0.02314830
4264.59310181,0.02315483
4266.52190918,0.02296939
4268.45071655,0.02311855
4270.37952393,0.02292001
4272.30833130,0.02287719
4274.23713867,0.02288216
4276.16594604,0.02275976
4278.09475342,0.02277256
4280.02356079,0.02265470
4281.95236816,0.02268867
4283.88117554,0.02251233
4285.80998291,0.02256063
4287.73879028,0.02253504
4289.66759766,0.02243222
4291.59640503,0.02242993
4293.52521240,0.02222171
4295.45401978,0.02227844
4297.38282715,0.02228457
4299.31163452,0.02229838
4301.24044189,0.02220632
4303.16924927,0.02210497
4305.09805664,0.02208092
4307.02686401,0.02198992
4308.95567139,0.02193967
4310.88447876,0.02187002
4312.81328613,0.02188378
4314.74209351,0.02173715
4316.67090088,0.02173280
4318.59970825,0.02168285
4320.52851562,0.02158578
4322.45732300,0.02158079
4324.38613037,0.02154180
4326.31493774,0.02152640
4328.24374512,0.02137343
4330.17255249,0.02148969
4332.10135986,0.02137010
4334.03016724,0.02131746
4335.95897461,0.02134907
4337.88778198,0.02114148
4339.81658936,0.02119240
4341.74539673,0.02104023
4343.67420410,0.02110170
4345.60301147,0.02105906
4347.53181885,0.02089571
4349.46062622,0.02088978
4351.38943359,0.02075185
4353.31824097,0.02083346
4355.24704834,0.02074523
4357.17585571,0.02074058
4359.10466309,0.02073769
4361.03347046,0.02060825
4362.96227783,0.02062871
4364.89108520,0.02058170
4366.81989258,0.02049737
4368.74869995,0.02040851
4370.67750732,0.02039807
4372.60631470,0.02029046
4374.53512207,0.02029708
4376.46392944,0.02032192
4378.39273682,0.02017239
4380.32154419,0.02015516
4382.25035156,0.02015607
4384.17915894,0.02004163
4386.10796631,0.01999672
4388.03677368,0.02000603
4389.96558105,0.01981025
4391.89438843,0.01983639
4393.82319580,0.01989973
4395.75200317,0.01980841
4397.68081055,0.01978095
4399.60961792,0.01972780
4401.53842529,0.01971845
4403.46723267,0.01954326
4405.39604004,0.01957513
4407.32484741,0.01955019
4409.25365478,0.01939605
4411.18246216,0.01949226
4413.11126953,0.01942910
4415.04007690,0.01936504
4416.96888428,0.01929465
4418.89769165,0.01924190
4420.82649902,0.01919028
4422.75530640,0.01915184
4424.68411377,0.01916653
4426.61292114,0.01914063
4428.54172852,0.01908696
4430.47053589,0.01891664
4432.39934326,0.01892856
4434.32815063,0.01891525
4436.25695801,0.01882463
4438.18576538,0.01879778
4440.11457275,0.01873437
4442.04338013,0.01866444
4443.97218750,0.01863955
4445.90099487,0.01862711
4447.82980225,0.01849457
4449.75860962,0.01849415
4451.68741699,0.01844540
4453.61622437,0.01846435
4455.54503174,0.01838633
4457.47383911,0.01822397
4459.40264648,0.01835279
4461.33145386,0.01821737
4463.26026123,0.01820899
4465.18906860,0.01818174
4467.11787598,0.01806069
4469.04668335,0.01813224
4470.97549072,0.01803708
4472.90429810,0.01803949
4474.83310547,0.01798977
4476.76191284,0.01789458
4478.69072021,0.01786511
4480.61952759,0.01780750
4482.54833496,0.01771893
4484.47714233,0.01771398
4486.40594971,0.01767176
4488.33475708,0.01765076
4490.26356445,0.01776102
4492.19237183,0.01755382
4494.12117920,0.01755867
4496.04998657,0.01747339
4497.97879395,0.01734089
4499.90760132,0.01753119
4501.83640869,0.01732796
4503.76521606,0.01729462
4505.69402344,0.01729957
4507.62283081,0.01714302
4509.55163818,0.01712865
4511.48044556,0.01712884
4513.40925293,0.01712231
4515.33806030,0.01704985
4517.26686768,0.01707083
4519.19567505,0.01700368
4521.12448242,0.01695014
4523.05328979,0.01692710
4524.98209717,0.01685519
4526.91090454,0.01677895
4528.83971191,0.01675742
4530.76851929,0.01677249
4532.69732666,0.01663181
4534.62613403,0.01667038
4536.55494141,0.01666439
4538.48374878,0.01657528
4540.41255615,0.01654333
4542.34136353,0.01644106
4544.27017090,0.01643967
4546.19897827,0.01642730
4548.12778564,0.01634220
4550.05659302,0.01627275
4551.98540039,0.01632544
4553.91420776,0.01626856
4555.84301514,0.01618744
4557.77182251,0.01612766
4559.70062988,0.01607857
4561.62943726,0.01614365
4563.55824463,0.01602359
4565.48705200,0.01598866
4567.41585937,0.01600245
4569.34466675,0.01601208
4571.27347412,0.01597247
4573.20228149,0.01586808
4575.13108887,0.01587452
4577.05989624,0.01576931
4578.98870361,0.01576230
4580.91751099,0.01572518
4582.84631836,0.01567289
4584.77512573,0.01569195
4586.70393311,0.01563200
4588.63274048,0.01553723
4590.56154785,0.01546931
4592.49035522,0.01542918
4594.41916260,0.01534319
4596.34796997,0.01545036
4598.27677734,0.01535124
4600.20558472,0.01528853
4602.13439209,0.01536331
4604.06319946,0.01520367
4605.99200684,0.01521110
4607.92081421,0.01511504
4609.84962158,0.01506372
4611.77842895,0.01504104
4613.70723633,0.01504518
4615.63604370,0.01507548
4617.56485107,0.01489461
4619.49365845,0.01491180
4621.42246582,0.01487828
4623.35127319,0.01486433
4625.28008057,0.01485467
4627.20888794,0.01477046
4629.13769531,0.01475568
4631.06650269,0.01469146
4632.99531006,0.01469692
4634.92411743,0.01463801
4636.85292480,0.01459543
4638.78173218,0.01455217
4640.71053955,0.01451905
4642.63934692,0.01451319
4644.56815430,0.01446479
4646.49696167,0.01440288
4648.42576904,0.01434760
4650.35457642,0.01439175
4652.28338379,0.01432161
4654.21219116,0.01425935
4656.14099853,0.01424662
4658.06980591,0.01424913
4659.99861328,0.01420739
4661.92742065,0.01411013
4663.85622803,0.01412980
4665.78503540,0.01413268
4667.71384277,0.01411724
4669.64265015,0.01396601
4671.57145752,0.01391868
4673.50026489,0.01397679
4675.42907227,0.01392932
4677.35787964,0.01385924
4679.28668701,0.01379510
4681.21549438,0.01379368
4683.14430176,0.01370925
4685.07310913,0.01377552
4687.00191650,0.01376312
4688.93072388,0.01368245
4690.85953125,0.01366928
4692.78833862,0.01353215
4694.71714600,0.01356676
4696.64595337,0.01352772
4698.57476074,0.01344127
4700.50356812,0.01339589
4702.43237549,0.01340166
4704.36118286,0.01342371
4706.28999023,0.01338664
4708.21879761,0.01333972
4710.14760498,0.01324438
4712.07641235,0.01333096
4714.00521973,0.01329910
4715.93402710,0.01326775
4717.86283447,0.01321993
4719.79164185,0.01315632
4721.72044922,0.01312045
4723.64925659,0.01298307
4725.57806396,0.01314470
4727.50687134,0.01306931
4729.43567871,0.01302282
4731.36448608,0.01297089
4733.29329346,0.01281856
4735.22210083,0.01293526
4737.15090820,0.01278437
4739.07971558,0.01283133
4741.00852295,0.01282037
4742.93733032,0.01275286
4744.86613770,0.01277805
4746.79494507,0.01263083
4748.72375244,0.01267496
4750.65255981,0.01262249
4752.58136719,0.01263343
4754.51017456,0.01254439
4756.43898193,0.01248557
4758.36778931,0.01259306
4760.29659668,0.01248468
4762.22540405,0.01251406
4764.15421143,0.01248930
4766.08301880,0.01238439
4768.01182617,0.01239398
4769.94063354,0.01242520
4771.86944092,0.01237558
4773.79824829,0.01226174
4775.72705566,0.01224584
4777.65586304,0.01221904
4779.58467041,0.01215348
4781.51347778,0.01219135
4783.44228516,0.01220294
4785.37109253,0.01207774
4787.29989990,0.01206645
4789.22870728,0.01206167
4791.15751465,0.01203267
4793.08632202,0.01200196
4795.01512939,0.01198271
4796.94393677,0.01193597
4798.87274414,0.01181841
4800.80155151,0.01185878
4802.73035889,0.01178651
4804.65916626,0.01184757
4806.58797363,0.01180719
4808.51678101,0.01164089
4810.44558838,0.01174597
4812.37439575,0.01165548
4814.30320312,0.01169861
4816.23201050,0.01165069
4818.16081787,0.01157257
4820.08962524,0.01162467
4822.01843262,0.01152116
4823.94723999,0.01150230
4825.87604736,0.01146329
4827.80485474,0.01153508
4829.73366211,0.01142928
4831.66246948,0.01137364
4833.59127686,0.01140375
4835.52008423,0.01134330
4837.44889160,0.01138931
4839.37769897,0.01121171
4841.30650635,0.01127855
4843.23531372,0.01133962
4845.16412109,0.01121585
4847.09292847,0.01119526
4849.02173584,0.01113321
4850.95054321,0.01109583
4852.87935059,0.01103956
4854.80815796,0.01108714
4856.73696533,0.01107921
4858.66577270,0.01105358
4860.59458008,0.01098226
4862.52338745,0.01095978
4864.45219482,0.01094842
4866.38100220,0.01081705
4868.30980957,0.01086316
4870.23861694,0.01085636
4872.16742432,0.01085734
4874.09623169,0.01077525
4876.02503906,0.01073148
4877.95384644,0.01072872
4879.88265381,0.01070774
4881.81146118,0.01075916
4883.74026855,0.01057476
4885.66907593,0.01063531
4887.59788330,0.01061776
4889.52669067,0.01051273
4891.45549805,0.01053070
4893.38430542,0.01046592
4895.31311279,0.01056894
4897.24192017,0.01045335
4899.17072754,0.01043019
4901.09953491,0.01047344
4903.02834228,0.01040073
4904.95714966,0.01036865
4906.88595703,0.01028190
4908.81476440,0.01033851
4910.74357178,0.01033312
4912.67237915,0.01027003
4914.60118652,0.01017072
4916.52999390,0.01017421
4918.45880127,0.01024122
4920.38760864,0.01015127
4922.31641602,0.01008900
4924.24522339,0.01012956
4926.17403076,0.01012044
4928.10283813,0.00998700
4930.03164551,0.01002764
4931.96045288,0.00996967
4933.88926025,0.00991667
4935.81806763,0.00995335
4937.74687500,0.00988115
4939.67568237,0.00993702
4941.60448975,0.00987087
4943.53329712,0.00983750
4945.46210449,0.00980059
4947.39091187,0.00977903
4949.31971924,0.00978029
4951.24852661,0.00968178
4953.17733398,0.00974209
4955.10614136,0.00966639
4957.03494873,0.00960045
4958.96375610,0.00959050
4960.89256348,0.00956652
4962.82137085,0.00956731
4964.75017822,0.00953567
4966.67898560,0.00958520
4968.60779297,0.00954441
4970.53660034,0.00950688
4972.46540771,0.00944946
4974.39421509,0.00944627
4976.32302246,0.00947110
4978.25182983,0.00941230
4980.18063721,0.00938640
4982.10944458,0.00929844
4984.03825195,0.00931811
4985.96705933,0.00935183
4987.89586670,0.00925562
4989.82467407,0.00917994
4991.75348145,0.00919216
4993.68228882,0.00917293
4995.61109619,0.00912059
4997.53990356,0.00912955
4999.46871094,0.00909512
5001.39751831,0.00902554
5003.32632568,0.00897921
5005.25513306,0.00903625
5007.18394043,0.00900079
5009.11274780,0.00894125
5011.04155518,0.00893409
5012.97036255,0.00892443
5014.89916992,0.00897572
5016.82797729,0.00887769
5018.75678467,0.00892801
5020.68559204,0.00891417
5022.61439941,0.00876099
5024.54320679,0.00884261
5026.47201416,0.00881578
5028.40082153,0.00874686
5030.32962891,0.00876243
5032.25843628,0.00873479
5034.18724365,0.00866839
5036.11605103,0.00867758
5038.04485840,0.00862021
5039.97366577,0.00857577
5041.90247314,0.00864234
5043.83128052,0.00858481
5045.76008789,0.00859948
5047.68889526,0.00854089
5049.61770264,0.00849926
5051.54651001,0.00851918
5053.47531738,0.00845409
5055.40412476,0.00847990
5057.33293213,0.00840726
5059.26173950,0.00838288
5061.19054687,0.00837200
5063.11935425,0.00829798
5065.04816162,0.00833708
5066.97696899,0.00832710
5068.90577637,0.00824091
5070.83458374,0.00824677
5072.76339111,0.00827505
5074.69219849,0.00822963
5076.62100586,0.00823424
5078.54981323,0.00816503
5080.47862061,0.00810789
5082.40742798,0.00813244
5084.33623535,0.00816505
5086.26504272,0.00816088
5088.19385010,0.00808080
5090.12265747,0.00804434
5092.05146484,0.00795390
5093.98027222,0.00793983
5095.90907959,0.00796703
5097.83788696,0.00801594
5099.76669434,0.00798066
5101.69550171,0.00791597
5103.62430908,0.00804446
5105.55311645,0.00796297
5107.48192383,0.00791601
5109.41073120,0.00785375
5111.33953857,0.00779243
5113.26834595,0.00784263
5115.19715332,0.00776198
5117.12596069,0.00780085
5119.05476807,0.00769287
5120.98357544,0.00770226
5122.91238281,0.00781376
5124.84119019,0.00773835
5126.76999756,0.00770400
5128.69880493,0.00766343
5130.62761230,0.00768212
5132.55641968,0.00756264
5134.48522705,0.00752055
5136.41403442,0.00757953
5138.34284180,0.00762515
5140.27164917,0.00764804
5142.20045654,0.00749440
5144.12926392,0.00750391
5146.05807129,0.00750241
5147.98687866,0.00741612
5149.91568603,0.00743335
5151.84449341,0.00744452
5153.77330078,0.00735170
5155.70210815,0.00731984
5157.63091553,0.00734513
5159.55972290,0.00726301
5161.48853027,0.00731508
5163.41733765,0.00729574
5165.34614502,0.00727873
5167.27495239,0.00735230
5169.20375977,0.00726265
5171.13256714,0.00724270
5173.06137451,0.00726248
5174.99018188,0.00721040
5176.91898926,0.00719413
5178.84779663,0.00714591
5180.77660400,0.00706249
5182.70541138,0.00713354
5184.63421875,0.00705811
5186.56302612,0.00697592
5188.49183350,0.00706463
5190.42064087,0.00698525
5192.34944824,0.00705438
5194.27825562,0.00706413
5196.20706299,0.00690313
5198.13587036,0.00688629
5200.06467773,0.00692163
5201.99348511,0.00689156
5203.92229248,0.00688228
5205.85109985,0.00686668
5207.77990723,0.00670255
5209.70871460,0.00678265
5211.63752197,0.00678820
5213.56632935,0.00677655
5215.49513672,0.00689544
5217.42394409,0.00673304
5219.35275146,0.00670632
5221.28155884,0.00673239
5223.21036621,0.00672972
5225.13917358,0.00661386
5227.06798096,0.00663566
5228.99678833,0.00677242
5230.92559570,0.00665307
5232.85440308,0.00669388
5234.78321045,0.00661501
5236.71201782,0.00660605
5238.64082520,0.00657267
5240.56963257,0.00654193
5242.49843994,0.00661032
5244.42724731,0.00636137
5246.35605469,0.00646919
5248.28486206,0.00644810
5250.21366943,0.00637165
5252.14247681,0.00657434
5254.07128418,0.00644081
5256.00009155,0.00637845
5257.92889893,0.00642725
5259.85770630,0.00642599
5261.78651367,0.00632322
5263.71532104,0.00625254
5265.64412842,0.00628469
5267.57293579,0.00635136
5269.50174316,0.00634377
5271.43055054,0.00627757
5273.35935791,0.00639519
5275.28816528,0.00628175
5277.21697266,0.00625969
5279.14578003,0.00630161
5281.07458740,0.00618983
5283.00339478,0.00625458
5284.93220215,0.00616829
5286.86100952,0.00620756
5288.78981689,0.00617966
5290.71862427,0.00603714
5292.64743164,0.00615744
5294.57623901,0.00616858
5296.50504639,0.00613030
5298.43385376,0.00612871
5300.36266113,0.00613883
5302.29146851,0.00604283
5304.22027588,0.00602963
5306.14908325,0.00611254
5308.07789062,0.00598111
5310.00669800,0.00600099
5311.93550537,0.00599927
5313.86431274,0.00596575
5315.79312012,0.00601799
5317.72192749,0.00586945
5319.65073486,0.00590338
5321.57954224,0.00597661
5323.50834961,0.00589940
5325.43715698,0.00590900
5327.36596436,0.00580721
5329.29477173,0.00578761
5331.22357910,0.00588778
5333.15238647,0.00579156
5335.08119385,0.00586144
5337.01000122,0.00587132
5338.93880859,0.00548621
5340.86761597,0.00567045
5342.79642334,0.00582791
5344.72523071,0.00542977
5346.65403809,0.00562104
5348.58284546,0.00573713
5350.51165283,0.00568088
5352.44046020,0.00567572
5354.36926758,0.00540109
5356.29807495,0.00560572
5358.22688232,0.00568090
5360.15568970,0.00560646
5362.08449707,0.00570179
5364.01330444,0.00556246
5365.94211182,0.00557784
5367.87091919,0.00557356
5369.79972656,0.00553045
5371.72853394,0.00547767
5373.65734131,0.00547722
5375.58614868,0.00545113
5377.51495605,0.00528445
5379.44376343,0.00543344
5381.37257080,0.00552243
5383.30137817,0.00542409
5385.23018555,0.00531265
5387.15899292,0.00529611
5389.08780029,0.00542284
5391.01660767,0.00542895
5392.94541504,0.00531996
5394.87422241,0.00520146
5396.80302978,0.00527181
5398.73183716,0.00527105
5400.66064453,0.00530227
5402.58945190,0.00534196
5404.51825928,0.00523639
5406.44706665,0.00533925
5408.37587402,0.00521840
5410.30468140,0.00510581
5412.23348877,0.00515097
5414.16229614,0.00505140
5416.09110352,0.00511981
5418.01991089,0.00519959
5419.94871826,0.00522790
5421.87752563,0.00520034
5423.80633301,0.00510493
5425.73514038,0.00512005
5427.66394775,0.00511883
5429.59275513,0.00497134
5431.52156250,0.00501121
5433.45036987,0.00510613
5435.37917725,0.00487798
5437.30798462,0.00492901
5439.23679199,0.00500133
5441.16559936,0.00483064
5443.09440674,0.00495991
5445.02321411,0.00494831
5446.95202148,0.00491205
5448.88082886,0.00501571
5450.80963623,0.00492051
5452.73844360,0.00496047
5454.66725098,0.00492380
5456.59605835,0.00482182
5458.52486572,0.00491675
5460.45367310,0.00484160
5462.38248047,0.00482326
5464.31128784,0.00483729
5466.24009521,0.00478332
5468.16890259,0.00486110
5470.09770996,0.00480161
5472.02651733,0.00482395
5473.95532471,0.00484925
5475.88413208,0.00467865
5477.81293945,0.00472011
5479.74174683,0.00481467
5481.67055420,0.00474314
5483.59936157,0.00471165
5485.52816895,0.00473220
5487.45697632,0.00464552
5489.38578369,0.00463828
5491.31459106,0.00469793
5493.24339844,0.00462632
5495.17220581,0.00460798
5497.10101318,0.00465252
5499.02982056,0.00468748
5500.95862793,0.00464773
5502.88743530,0.00455944
5504.81624268,0.00455543
5506.74505005,0.00458819
5508.67385742,0.00454262
5510.60266479,0.00447598
5512.53147217,0.00451890
5514.46027954,0.00450704
5516.38908691,0.00448318
5518.31789429,0.00449950
5520.24670166,0.00447599
5522.17550903,0.00447537
5524.10431641,0.00445670
5526.03312378,0.00448063
5527.96193115,0.00443987
5529.89073853,0.00439215
5531.81954590,0.00444802
5533.74835327,0.00441374
5535.67716064,0.00437564
5537.60596802,0.00436617
5539.53477539,0.00439660
5541.46358276,0.00443107
5543.39239014,0.00440181
5545.32119751,0.00439424
5547.25000488,0.00433755
5549.17881226,0.00433975
5551.10761963,0.00434926
5553.03642700,0.00424718
5554.96523437,0.00422363
5556.89404175,0.00424352
5558.82284912,0.00427932
5560.75165649,0.00428089
5562.68046387,0.00422924
5564.60927124,0.00422203
5566.53807861,0.00426760
5568.46688599,0.00434246
5570.39569336,0.00428303
5572.32450073,0.00422229
5574.25330811,0.00420171
5576.18211548,0.00416158
5578.11092285,0.00416964
5580.03973022,0.00412295
5581.96853760,0.00416403
5583.89734497,0.00415485
5585.82615234,0.00413321
5587.75495972,0.00419792
5589.68376709,0.00413781
5591.61257446,0.00413617
5593.54138184,0.00409112
5595.47018921,0.00404941
5597.39899658,0.00406962
5599.32780395,0.00405158
5601.25661133,0.00407890
5603.18541870,0.00405545
5605.11422607,0.00402990
5607.04303345,0.00396014
5608.97184082,0.00395278
5610.90064819,0.00398550
5612.82945557,0.00394547
5614.75826294,0.00396142
5616.68707031,0.00394640
5618.61587769,0.00394393
5620.54468506,0.00392958
5622.47349243,0.00388978
5624.40229980,0.00389140
5626.33110718,0.00392771
5628.25991455,0.00393747
5630.18872192,0.00389616
5632.11752930,0.00383692
5634.04633667,0.00380896
5635.97514404,0.00388530
5637.90395142,0.00384389
5639.83275879,0.00384467
5641.76156616,0.00386163
5643.69037353,0.00381418
5645.61918091,0.00388676
5647.54798828,0.00377957
5649.47679565,0.00371521
5651.40560303,0.00375337
5653.33441040,0.00379164
5655.26321777,0.00377531
5657.19202515,0.00365591
5659.12083252,0.00375898
5661.04963989,0.00374728
5662.97844727,0.00364410
5664.90725464,0.00363797
5666.83606201,0.00361533
5668.76486938,0.00365114
5670.69367676,0.00365656
5672.62248413,0.00367452
5674.55129150,0.00366007
5676.48009888,0.00365172
5678.40890625,0.00362798
5680.33771362,0.00357208
5682.26652100,0.00359369
5684.19532837,0.00359395
5686.12413574,0.00356295
5688.05294311,0.00355965
5689.98175049,0.00358196
5691.91055786,0.00352810
5693.83936523,0.00349472
5695.76817261,0.00352829
5697.69697998,0.00355630
5699.62578735,0.00351900
5701.55459473,0.00348639
5703.48340210,0.00356530
5705.41220947,0.00350730
5707.34101685,0.00345121
5709.26982422,0.00344646
5711.19863159,0.00346235
5713.12743896,0.00352036
5715.05624634,0.00338408
5716.98505371,0.00335307
5718.91386108,0.00341100
5720.84266846,0.00339373
5722.77147583,0.00342850
5724.70028320,0.00338876
5726.62909058,0.00334665
5728.55789795,0.00337621
5730.48670532,0.00333546
5732.41551270,0.00328071
5734.34432007,0.00331413
5736.27312744,0.00327376
5738.20193481,0.00322544
5740.13074219,0.00328647
5742.05954956,0.00329820
5743.98835693,0.00325081
5745.91716431,0.00327123
5747.84597168,0.00327057
5749.77477905,0.00315828
5751.70358643,0.00316804
5753.63239380,0.00326677
5755.56120117,0.00329200
5757.49000854,0.00322074
5759.41881592,0.00317998
5761.34762329,0.00320153
5763.27643066,0.00313465
5765.20523804,0.00317600
5767.13404541,0.00317387
5769.06285278,0.00312666
5770.99166016,0.00314856
5772.92046753,0.00308627
5774.84927490,0.00314221
5776.77808228,0.00314474
5778.70688965,0.00309603
5780.63569702,0.00311013
5782.56450439,0.00308639
5784.49331177,0.00308841
5786.42211914,0.00303815
5788.35092651,0.00304754
5790.27973389,0.00306194
5792.20854126,0.00304243
5794.13734863,0.00305295
5796.06615601,0.00302357
5797.99496338,0.00307744
5799.92377075,0.00303668
5801.85257812,0.00290089
5803.78138550,0.00294209
5805.71019287,0.00297733
5807.63900024,0.00294171
5809.56780762,0.00294393
5811.49661499,0.00297693
5813.42542236,0.00297856
5815.35422974,0.00290484
5817.28303711,0.00293103
5819.21184448,0.00293058
5821.14065186,0.00286891
5823.06945923,0.00291909
5824.99826660,0.00289554
5826.92707397,0.00290722
5828.85588135,0.00290774
5830.78468872,0.00281144
5832.71349609,0.00282858
5834.64230347,0.00282966
5836.57111084,0.00277259
5838.49991821,0.00277412
5840.42872559,0.00283513
5842.35753296,0.00284256
5844.28634033,0.00279543
5846.21514770,0.00273092
5848.14395508,0.00274064
5850.07276245,0.00284006
5852.00156982,0.00280580
5853.93037720,0.00278433
5855.85918457,0.00279821
5857.78799194,0.00274829
5859.71679932,0.00276307
5861.64560669,0.00277971
5863.57441406,0.00273316
5865.50322144,0.00268923
5867.43202881,0.00267561
5869.36083618,0.00268691
5871.28964355,0.00273594
5873.21845093,0.00269997
5875.14725830,0.00264237
5877.07606567,0.00263077
5879.00487305,0.00265207
5880.93368042,0.00265324
5882.86248779,0.00256546
5884.79129517,0.00263235
5886.72010254,0.00261617
5888.64890991,0.00256223
5890.57771728,0.00261517
5892.50652466,0.00252678
5894.43533203,0.00261169
5896.36413940,0.00269267
5898.29294678,0.00258751
5900.22175415,0.00255059
5902.15056152,0.00256054
5904.07936890,0.00254906
5906.00817627,0.00253115
5907.93698364,0.00251695
5909.86579102,0.00246688
5911.79459839,0.00250634
5913.72340576,0.00252032
5915.65221313,0.00252256
5917.58102051,0.00253251
5919.50982788,0.00249953
5921.43863525,0.00251849
5923.36744263,0.00244857
5925.29625000,0.00246153
5927.22505737,0.00243970
5929.15386475,0.00238222
5931.08267212,0.00246542
5933.01147949,0.00248451
5934.94028686,0.00248959
5936.86909424,0.00241521
5938.79790161,0.00241234
5940.72670898,0.00243703
5942.65551636,0.00239028
5944.58432373,0.00244857
5946.51313110,0.00242852
5948.44193848,0.00242859
5950.37074585,0.00244700
5952.29955322,0.00236309
5954.22836060,0.00232166
5956.15716797,0.00236048
5958.08597534,0.00240238
5960.01478271,0.00236524
5961.94359009,0.00236365
5963.87239746,0.00238153
5965.80120483,0.00232642
5967.73001221,0.00233687
5969.65881958,0.00230456
5971.58762695,0.00220888
5973.51643433,0.00231179
5975.44524170,0.00235578
5977.37404907,0.00226855
5979.30285645,0.00226573
5981.23166382,0.00225386
5983.16047119,0.00224049
5985.08927856,0.00222357
5987.01808594,0.00226984
5988.94689331,0.00224199
5990.87570068,0.00219255
5992.80450806,0.00226775
5994.73331543,0.00220299
5996.66212280,0.00221745
5998.59093018,0.00228980
6000.51973755,0.00224245
