399.26312622,0.00034825
401.19193359,0.00004252
403.12074097,0.00019908
405.04954834,0.00019593
406.97835571,0.00013547
408.90716309,0.00014791
410.83597046,0.00015996
412.76477783,0.00024668
414.69358521,0.00026890
416.62239258,0.00005989
418.55119995,-0.00001314
420.48000732,0.00006416
422.40881470,-0.00007235
424.33762207,0.00017513
426.26642944,0.00016347
428.19523682,-0.00004224
430.12404419,-0.00002855
432.05285156,0.00002965
433.98165894,0.00020829
435.91046631,0.00000642
437.83927368,0.00008311
439.76808105,0.00027683
441.69688843,0.00025729
443.62569580,0.00025525
445.55450317,-0.00014181
447.48331055,0.00004249
449.41211792,0.00039063
451.34092529,0.00013967
453.26973267,0.00007228
455.19854004,0.00009056
457.12734741,0.00023277
459.05615479,0.00030792
460.98496216,0.00015868
462.91376953,0.00016107
464.84257690,0.00020340
466.77138428,0.00019130
468.70019165,0.00025580
470.62899902,0.00019343
472.55780640,0.00010601
474.48661377,0.00013164
476.41542114,-0.00010458
478.34422852,-0.00000149
480.27303589,0.00019617
482.20184326,0.00017265
484.13065063,0.00020852
486.05945801,-0.00001110
487.98826538,0.00002817
489.91707275,0.00003934
491.84588013,0.00016433
493.77468750,0.00034133
495.70349487,0.00007161
497.63230225,0.00019466
499.56110962,0.00033598
501.48991699,0.00006202
503.41872437,-0.00005008
505.34753174,0.00012601
507.27633911,0.00012682
509.20514648,-0.00013167
511.13395386,0.00005821
513.06276123,0.00015941
514.99156860,-0.00003236
516.92037598,0.00019398
518.84918335,0.00018256
520.77799072,0.00012381
522.70679810,0.00006593
524.63560547,-0.00012244
526.56441284,0.00010973
528.49322021,0.00006212
530.42202759,0.00021972
532.35083496,0.00032440
534.27964233,-0.00009241
536.20844971,-0.00001190
538.13725708,0.00008879
540.06606445,0.00034929
541.99487183,0.00035143
543.92367920,0.00001893
545.85248657,0.00018870
547.78129395,0.00009178
549.71010132,0.00015413
551.63890869,0.00019412
553.56771606,0.00001024
555.49652344,0.00015956
557.42533081,0.00002094
559.35413818,0.00001081
561.28294556,0.00000034
563.21175293,-0.00007360
565.14056030,0.00029877
567.06936768,0.00032965
568.99817505,0.00008107
570.92698242,0.00012868
572.85578979,0.00002256
574.78459717,0.00012412
576.71340454,0.00033276
578.64221191,0.00004299
580.57101929,0.00011127
582.49982666,0.00006779
584.42863403,0.00002766
586.35744141,0.00035812
588.28624878,0.00009712
590.21505615,0.00003471
592.14386353,0.00010126
594.07267090,0.00002572
596.00147827,0.00029635
597.93028564,0.00020674
599.85909302,-0.00018545
601.78790039,-0.00003746
603.71670776,0.00019055
605.64551514,0.00023152
607.57432251,0.00013410
609.50312988,0.00002562
611.43193726,0.00013317
613.36074463,0.00015429
615.28955200,0.00018722
617.21835938,0.00012513
619.14716675,0.00008008
621.07597412,0.00024712
623.00478149,0.00014231
624.93358887,0.00005137
626.86239624,0.00028747
628.79120361,0.00041511
630.72001099,0.00018289
632.64881836,0.00003543
634.57762573,0.00010468
636.50643311,0.00014609
638.43524048,0.00023034
640.36404785,0.00012176
642.29285522,-0.00000655
644.22166260,0.00008651
646.15046997,0.00010750
648.07927734,0.00033896
650.00808472,0.00030187
651.93689209,0.00002964
653.86569946,0.00019228
655.79450684,0.00024123
657.72331421,0.00008003
659.65212158,0.00015141
661.58092896,0.00027171
663.50973633,0.00004893
665.43854370,0.00011135
667.36735107,0.00030400
669.29615845,0.00027270
671.22496582,0.00026673
673.15377319,0.00007316
675.08258057,0.00028175
677.01138794,0.00042691
678.94019531,0.00020368
680.86900269,0.00031820
682.79781006,0.00038778
684.72661743,0.00034633
686.65542480,0.00031844
688.58423218,0.00009900
690.51303955,0.00018858
692.44184692,0.00029196
694.37065430,0.00006091
696.29946167,0.00041954
698.22826904,0.00056043
700.15707642,0.00039371
702.08588379,0.00046832
704.01469116,0.00043208
705.94349854,0.00061998
707.87230591,0.00045122
709.80111328,0.00036883
711.72992065,0.00020394
713.65872803,-0.00001051
715.58753540,0.00016599
717.51634277,0.00000002
719.44515015,0.00016962
721.37395752,0.00011951
723.30276489,0.00016137
725.23157227,0.00031821
727.16037964,0.00005341
729.08918701,0.00016523
731.01799438,0.00009417
732.94680176,-0.00007060
734.87560913,0.00011733
736.80441650,0.00020743
738.73322388,0.00010754
740.66203125,0.00015012
742.59083862,0.00030299
744.51964600,0.00018727
746.44845337,0.00029715
748.37726074,0.00043119
750.30606812,0.00005449
752.23487549,0.00013280
754.16368286,0.00035376
756.09249023,0.00010862
758.02129761,0.00013409
759.95010498,0.00021794
761.87891235,0.00025463
763.80771973,0.00030528
765.73652710,0.00017224
767.66533447,0.00028025
769.59414185,0.00019181
771.52294922,0.00001752
773.45175659,0.00028952
775.38056396,0.00016071
777.30937134,0.00008427
779.23817871,0.00039473
781.16698608,0.00024734
783.09579346,0.00009870
785.02460083,0.00029836
786.95340820,0.00020953
788.88221558,0.00008288
790.81102295,0.00031814
792.73983032,0.00025272
794.66863770,0.00026165
796.59744507,0.00042075
798.52625244,0.00031357
800.45505981,0.00036932
802.38386719,0.00023078
804.31267456,0.00024650
806.24148193,0.00038925
808.17028931,0.00020605
810.09909668,0.00027249
812.02790405,0.00011703
813.95671143,0.00002776
815.88551880,0.00022032
817.81432617,0.00015047
819.74313354,0.00032057
821.67194092,0.00026771
823.60074829,0.00011123
825.52955566,0.00033181
827.45836304,0.00022462
829.38717041,0.00010225
831.31597778,0.00032102
833.24478516,0.00037570
835.17359253,0.00018254
837.10239990,0.00017244
839.03120728,0.00008625
840.96001465,0.00004449
842.88882202,0.00031283
844.81762939,0.00037821
846.74643677,0.00033857
848.67524414,0.00012792
850.60405151,0.00014841
852.53285889,0.00044112
854.46166626,0.00029131
856.39047363,0.00036878
858.31928101,0.00056021
860.24808838,0.00034174
862.17689575,0.00021038
864.10570313,0.00024862
866.03451050,0.00020454
867.96331787,0.00026747
869.89212524,0.00034072
871.82093262,0.00016042
873.74973999,0.00021834
875.67854736,0.00024181
877.60735474,0.00022770
879.53616211,0.00027892
881.46496948,0.00013549
883.39377686,0.00031939
885.32258423,0.00035653
887.25139160,0.00020011
889.18019897,0.00021485
891.10900635,0.00022892
893.03781372,0.00044437
894.96662109,0.00058000
896.89542847,0.00034903
898.82423584,0.00014140
900.75304321,0.00028690
902.68185059,0.00036580
904.61065796,0.00038797
906.53946533,0.00035966
908.46827271,0.00023081
910.39708008,0.00033884
912.32588745,0.00034296
914.25469482,0.00034200
916.18350220,0.00026645
918.11230957,0.00017631
920.04111694,0.00041163
921.96992432,0.00045917
923.89873169,0.00041461
925.82753906,0.00042053
927.75634644,0.00042699
929.68515381,0.00044161
931.61396118,0.00034403
933.54276855,0.00027907
935.47157593,0.00037872
937.40038330,0.00050537
939.32919067,0.00045962
941.25799805,0.00042395
943.18680542,0.00043280
945.11561279,0.00057370
947.04442017,0.00046738
948.97322754,0.00024917
950.90203491,0.00037777
952.83084229,0.00033904
954.75964966,0.00042360
956.68845703,0.00041114
958.61726440,0.00045025
960.54607178,0.00065379
962.47487915,0.00036005
964.40368652,0.00029510
966.33249390,0.00045497
968.26130127,0.00060523
970.19010864,0.00057062
972.11891602,0.00043067
974.04772339,0.00053461
975.97653076,0.00047230
977.90533813,0.00054393
979.83414551,0.00057877
981.76295288,0.00050699
983.69176025,0.00049330
985.62056763,0.00048609
987.54937500,0.00054098
989.47818237,0.00048406
991.40698975,0.00065685
993.33579712,0.00061511
995.26460449,0.00053788
997.19341187,0.00071360
999.12221924,0.00073434
1001.05102661,0.00085206
1002.97983398,0.00101664
1004.90864136,0.00115229
1006.83744873,0.00086337
1008.76625610,0.00081473
1010.69506348,0.00106102
1012.62387085,0.00092125
1014.55267822,0.00110613
1016.48148560,0.00108023
1018.41029297,0.00096322
1020.33910034,0.00120576
1022.26790771,0.00130438
1024.19671509,0.00138425
1026.12552246,0.00129722
1028.05432983,0.00132556
1029.98313721,0.00159283
1031.91194458,0.00141330
1033.84075195,0.00123910
1035.76955933,0.00149855
1037.69836670,0.00145769
1039.62717407,0.00144224
1041.55598145,0.00155172
1043.48478882,0.00144765
1045.41359619,0.00144749
1047.34240356,0.00136666
1049.27121094,0.00128612
1051.20001831,0.00114416
1053.12882568,0.00114027
1055.05763306,0.00127230
1056.98644043,0.00129246
1058.91524780,0.00140970
1060.84405518,0.00137662
1062.77286255,0.00131349
1064.70166992,0.00118965
1066.63047729,0.00118076
1068.55928467,0.00113605
1070.48809204,0.00095368
1072.41689941,0.00100999
1074.34570679,0.00118202
1076.27451416,0.00134262
1078.20332153,0.00099187
1080.13212891,0.00099952
1082.06093628,0.00114360
1083.98974365,0.00090282
1085.91855103,0.00107897
1087.84735840,0.00086468
1089.77616577,0.00088241
1091.70497314,0.00117652
1093.63378052,0.00090909
1095.56258789,0.00083651
1097.49139526,0.00085135
1099.42020264,0.00072390
1101.34901001,0.00081430
1103.27781738,0.00098722
1105.20662476,0.00082540
1107.13543213,0.00082688
1109.06423950,0.00080612
1110.99304687,0.00073244
1112.92185425,0.00096636
1114.85066162,0.00079303
1116.77946899,0.00078370
1118.70827637,0.00098847
1120.63708374,0.00098505
1122.56589111,0.00092661
1124.49469849,0.00082205
1126.42350586,0.00093768
1128.35231323,0.00088721
1130.28112061,0.00093116
1132.20992798,0.00101354
1134.13873535,0.00082108
1136.06754272,0.00084501
1137.99635010,0.00098382
1139.92515747,0.00104535
1141.85396484,0.00100741
1143.78277222,0.00107720
1145.71157959,0.00111704
1147.64038696,0.00111617
1149.56919434,0.00114046
1151.49800171,0.00106771
1153.42680908,0.00116584
1155.35561646,0.00115318
1157.28442383,0.00123713
1159.21323120,0.00136156
1161.14203857,0.00131227
1163.07084595,0.00149538
1164.99965332,0.00144560
1166.92846069,0.00140951
1168.85726807,0.00150470
1170.78607544,0.00142502
1172.71488281,0.00150514
1174.64369019,0.00146645
1176.57249756,0.00157119
1178.50130493,0.00178692
1180.43011230,0.00171384
1182.35891968,0.00173434
1184.28772705,0.00175924
1186.21653442,0.00195194
1188.14534180,0.00207565
1190.07414917,0.00188463
1192.00295654,0.00199900
1193.93176392,0.00224348
1195.86057129,0.00237088
1197.78937866,0.00235036
1199.71818604,0.00234935
1201.64699341,0.00240691
1203.57580078,0.00244789
1205.50460815,0.00268284
1207.43341553,0.00268869
1209.36222290,0.00269881
1211.29103027,0.00284167
1213.21983765,0.00281256
1215.14864502,0.00294324
1217.07745239,0.00293314
1219.00625977,0.00287562
1220.93506714,0.00302131
1222.86387451,0.00299651
1224.79268188,0.00311327
1226.72148926,0.00335438
1228.65029663,0.00320206
1230.57910400,0.00309095
1232.50791138,0.00312845
1234.43671875,0.00304339
1236.36552612,0.00307844
1238.29433350,0.00311611
1240.22314087,0.00314233
1242.15194824,0.00314312
1244.08075562,0.00319063
1246.00956299,0.00328664
1247.93837036,0.00321213
1249.86717773,0.00317774
1251.79598511,0.00307053
1253.72479248,0.00307345
1255.65359985,0.00319610
1257.58240723,0.00310477
1259.51121460,0.00306666
1261.44002197,0.00309817
1263.36882935,0.00298286
1265.29763672,0.00285299
1267.22644409,0.00289280
1269.15525146,0.00282374
1271.08405884,0.00285673
1273.01286621,0.00297043
1274.94167358,0.00281120
1276.87048096,0.00281117
1278.79928833,0.00285900
1280.72809570,0.00269844
1282.65690308,0.00257026
1284.58571045,0.00267840
1286.51451782,0.00260859
1288.44332520,0.00249762
1290.37213257,0.00259861
1292.30093994,0.00236206
1294.22974731,0.00236539
1296.15855469,0.00252112
1298.08736206,0.00256984
1300.01616943,0.00275573
1301.94497681,0.00272614
1303.87378418,0.00270911
1305.80259155,0.00255990
1307.73139893,0.00249801
1309.66020630,0.00260932
1311.58901367,0.00257526
1313.51782104,0.00262294
1315.44662842,0.00269407
1317.37543579,0.00280346
1319.30424316,0.00280624
1321.23305054,0.00291986
1323.16185791,0.00302069
1325.09066528,0.00309079
1327.01947266,0.00323369
1328.94828003,0.00298069
1330.87708740,0.00311583
1332.80589478,0.00332591
1334.73470215,0.00328207
1336.66350952,0.00346565
1338.59231689,0.00338814
1340.52112427,0.00350464
1342.44993164,0.00356298
1344.37873901,0.00348606
1346.30754639,0.00363053
1348.23635376,0.00339436
1350.16516113,0.00344051
1352.09396851,0.00369018
1354.02277588,0.00359693
1355.95158325,0.00352559
1357.88039062,0.00338333
1359.80919800,0.00339655
1361.73800537,0.00335146
1363.66681274,0.00327924
1365.59562012,0.00349800
1367.52442749,0.00343498
1369.45323486,0.00337474
1371.38204224,0.00334348
1373.31084961,0.00317117
1375.23965698,0.00322524
1377.16846436,0.00319287
1379.09727173,0.00322149
1381.02607910,0.00324843
1382.95488647,0.00313249
1384.88369385,0.00325998
1386.81250122,0.00326628
1388.74130859,0.00314483
1390.67011597,0.00328394
1392.59892334,0.00329817
1394.52773071,0.00321829
1396.45653809,0.00352435
1398.38534546,0.00344857
1400.31415283,0.00330086
1402.24296021,0.00361393
1404.17176758,0.00332269
1406.10057495,0.00333552
1408.02938232,0.00351344
1409.95818970,0.00332438
1411.88699707,0.00357631
1413.81580444,0.00334470
1415.74461182,0.00326685
1417.67341919,0.00321157
1419.60222656,0.00281555
1421.53103394,0.00312833
1423.45984131,0.00307905
1425.38864868,0.00310005
1427.31745605,0.00331953
1429.24626343,0.00300028
1431.17507080,0.00292285
1433.10387817,0.00296403
1435.03268555,0.00277140
1436.96149292,0.00248342
1438.89030029,0.00267963
1440.81910767,0.00277265
1442.74791504,0.00269504
1444.67672241,0.00291693
1446.60552979,0.00269319
1448.53433716,0.00276204
1450.46314453,0.00286432
1452.39195190,0.00271229
1454.32075928,0.00269707
1456.24956665,0.00237872
1458.17837402,0.00262436
1460.10718140,0.00312932
1462.03598877,0.00327343
1463.96479614,0.00318548
1465.89360352,0.00309409
1467.82241089,0.00356871
1469.75121826,0.00370971
1471.68002563,0.00339216
1473.60883301,0.00348537
1475.53764038,0.00385674
1477.46644775,0.00417705
1479.39525513,0.00438757
1481.32406250,0.00452959
1483.25286987,0.00467595
1485.18167725,0.00486603
1487.11048462,0.00480638
1489.03929199,0.00470654
1490.96809937,0.00496482
1492.89690674,0.00540010
1494.82571411,0.00528330
1496.75452148,0.00496525
1498.68332886,0.00536481
1500.61213623,0.00548608
1502.54094360,0.00580957
1504.46975098,0.00556631
1506.39855835,0.00435208
1508.32736572,0.00519564
1510.25617310,0.00579351
1512.18498047,0.00564097
1514.11378784,0.00592239
1516.04259521,0.00529318
1517.97140259,0.00585190
1519.90020996,0.00562097
1521.82901733,0.00491312
1523.75782471,0.00578553
1525.68663208,0.00563369
1527.61543945,0.00575047
1529.54424683,0.00616167
1531.47305420,0.00604123
1533.40186157,0.00561762
1535.33066895,0.00588594
1537.25947632,0.00625494
1539.18828369,0.00459410
1541.11709106,0.00484438
1543.04589844,0.00563640
1544.97470581,0.00546346
1546.90351318,0.00624638
1548.83232056,0.00583060
1550.76112793,0.00610977
1552.68993530,0.00610863
1554.61874268,0.00573375
1556.54755005,0.00595500
1558.47635742,0.00438684
1560.40516479,0.00470632
1562.33397217,0.00625845
1564.26277954,0.00608371
1566.19158691,0.00630220
1568.12039429,0.00610465
1570.04920166,0.00545317
1571.97800903,0.00630816
1573.90681641,0.00627476
1575.83562378,0.00510241
1577.76443115,0.00584472
1579.69323853,0.00632105
1581.62204590,0.00603604
1583.55085327,0.00619126
1585.47966064,0.00613684
1587.40846802,0.00636727
1589.33727539,0.00619662
1591.26608276,0.00623943
1593.19489014,0.00634273
1595.12369751,0.00607268
1597.05250488,0.00620681
1598.98131226,0.00619671
1600.91011963,0.00615238
1602.83892700,0.00605814
1604.76773437,0.00607587
1606.69654175,0.00616167
1608.62534912,0.00617431
1610.55415649,0.00603021
1612.48296387,0.00612177
1614.41177124,0.00607487
1616.34057861,0.00510804
1618.26938599,0.00560978
1620.19819336,0.00639806
1622.12700073,0.00575736
1624.05580811,0.00578179
1625.98461548,0.00615954
1627.91342285,0.00602887
1629.84223022,0.00614002
1631.77103760,0.00668927
1633.69984497,0.00604687
1635.62865234,0.00522653
1637.55745972,0.00586932
1639.48626709,0.00642366
1641.41507446,0.00643921
1643.34388184,0.00643926
1645.27268921,0.00599275
1647.20149658,0.00540506
1649.13030396,0.00653112
1651.05911133,0.00635481
1652.98791870,0.00444022
1654.91672607,0.00564515
1656.84553345,0.00684807
1658.77434082,0.00666000
1660.70314819,0.00686820
1662.63195557,0.00639970
1664.56076294,0.00669038
1666.48957031,0.00715851
1668.41837769,0.00640352
1670.34718506,0.00624462
1672.27599243,0.00693355
1674.20479980,0.00646438
1676.13360718,0.00636205
1678.06241455,0.00709946
1679.99122192,0.00691923
1681.92002930,0.00689053
1683.84883667,0.00577694
1685.77764404,0.00582070
1687.70645142,0.00749705
1689.63525879,0.00674687
1691.56406616,0.00730319
1693.49287354,0.00733707
1695.42168091,0.00563655
1697.35048828,0.00672733
1699.27929565,0.00609633
1701.20810303,0.00546494
1703.13691040,0.00713805
1705.06571777,0.00671059
1706.99452515,0.00679296
1708.92333252,0.00717847
1710.85213989,0.00687188
1712.78094727,0.00714584
1714.70975464,0.00653305
1716.63856201,0.00593234
1718.56736938,0.00587207
1720.49617676,0.00679134
1722.42498413,0.00718177
1724.35379150,0.00659828
1726.28259888,0.00706109
1728.21140625,0.00667020
1730.14021362,0.00666619
1732.06902100,0.00641353
1733.99782837,0.00512121
1735.92663574,0.00635565
1737.85544312,0.00689752
1739.78425049,0.00611282
1741.71305786,0.00646047
1743.64186523,0.00656389
1745.57067261,0.00669480
1747.49947998,0.00671129
1749.42828735,0.00631964
1751.35709473,0.00606342
1753.28590210,0.00664461
1755.21470947,0.00689024
1757.14351685,0.00639370
1759.07232422,0.00692244
1761.00113159,0.00657776
1762.92993896,0.00643175
1764.85874634,0.00729768
1766.78755371,0.00667598
1768.71636108,0.00660846
1770.64516846,0.00656204
1772.57397583,0.00600282
1774.50278320,0.00659833
1776.43159058,0.00687929
1778.36039795,0.00675590
1780.28920532,0.00661334
1782.21801270,0.00660975
1784.14682007,0.00671541
1786.07562744,0.00666758
1788.00443481,0.00694236
1789.93324219,0.00675669
1791.86204956,0.00629276
1793.79085693,0.00643511
1795.71966431,0.00678239
1797.64847168,0.00682666
1799.57727905,0.00658608
1801.50608643,0.00644388
1803.43489380,0.00659165
1805.36370117,0.00679690
1807.29250854,0.00684940
1809.22131592,0.00677332
1811.15012329,0.00657775
1813.07893066,0.00667770
1815.00773804,0.00680354
1816.93654541,0.00671311
1818.86535278,0.00670403
1820.79416016,0.00670538
1822.72296753,0.00669406
1824.65177490,0.00640746
1826.58058228,0.00659281
1828.50938965,0.00664572
1830.43819702,0.00626954
1832.36700439,0.00671158
1834.29581177,0.00680791
1836.22461914,0.00665851
1838.15342651,0.00660933
1840.08223389,0.00671725
1842.01104126,0.00682541
1843.93984863,0.00610688
1845.86865601,0.00624896
1847.79746338,0.00662689
1849.72627075,0.00656867
1851.65507812,0.00674916
1853.58388550,0.00654125
1855.51269287,0.00657942
1857.44150024,0.00655755
1859.37030762,0.00652839
1861.29911499,0.00662589
1863.22792236,0.00650614
1865.15672974,0.00664238
1867.08553711,0.00645782
1869.01434448,0.00630987
1870.94315186,0.00658790
1872.87195923,0.00661622
1874.80076660,0.00649044
1876.72957397,0.00653140
1878.65838135,0.00652807
1880.58718872,0.00647566
1882.51599609,0.00653350
1884.44480347,0.00649924
1886.37361084,0.00657813
1888.30241821,0.00634208
1890.23122559,0.00619564
1892.16003296,0.00657819
1894.08884033,0.00636980
1896.01764771,0.00632757
1897.94645508,0.00646630
1899.87526245,0.00626368
1901.80406982,0.00636011
1903.73287720,0.00635615
1905.66168457,0.00637703
1907.59049194,0.00631015
1909.51929932,0.00620499
1911.44810669,0.00625292
1913.37691406,0.00628101
1915.30572144,0.00643253
1917.23452881,0.00605548
1919.16333618,0.00601910
1921.09214355,0.00642140
1923.02095093,0.00623226
1924.94975830,0.00621134
1926.87856567,0.00624010
1928.80737305,0.00627728
1930.73618042,0.00635317
1932.66498779,0.00617588
1934.59379517,0.00612422
1936.52260254,0.00619778
1938.45140991,0.00618656
1940.38021729,0.00601145
1942.30902466,0.00601404
1944.23783203,0.00603655
1946.16663940,0.00611259
1948.09544678,0.00623746
1950.02425415,0.00608263
1951.95306152,0.00608147
1953.88186890,0.00604642
1955.81067627,0.00612805
1957.73948364,0.00627808
1959.66829102,0.00614529
1961.59709839,0.00610478
1963.52590576,0.00606780
1965.45471313,0.00603543
1967.38352051,0.00605880
1969.31232788,0.00619781
1971.24113525,0.00615196
1973.16994263,0.00602473
1975.09875000,0.00612784
1977.02755737,0.00604228
1978.95636475,0.00610179
1980.88517212,0.00615218
1982.81397949,0.00601840
1984.74278687,0.00603116
1986.67159424,0.00599247
1988.60040161,0.00600716
1990.52920898,0.00597526
1992.45801636,0.00589985
1994.38682373,0.00597923
1996.31563110,0.00592105
1998.24443848,0.00589851
2000.17324585,0.00602771
2002.10205322,0.00583928
2004.03086060,0.00582816
2005.95966797,0.00600591
2007.88847534,0.00584854
2009.81728271,0.00587004
2011.74609009,0.00589529
2013.67489746,0.00583674
2015.60370483,0.00575396
2017.53251221,0.00568373
2019.46131958,0.00592251
2021.39012695,0.00590236
2023.31893433,0.00572510
2025.24774170,0.00575125
2027.17654907,0.00580001
2029.10535645,0.00576194
2031.03416382,0.00572267
2032.96297119,0.00579655
2034.89177856,0.00574673
2036.82058594,0.00562751
2038.74939331,0.00564260
2040.67820068,0.00572027
2042.60700806,0.00565743
2044.53581543,0.00568042
2046.46462280,0.00574446
2048.39343018,0.00564014
2050.32223755,0.00566144
2052.25104492,0.00566954
2054.17985229,0.00560245
2056.10865967,0.00553126
2058.03746704,0.00560065
2059.96627441,0.00563497
2061.89508179,0.00551340
2063.82388916,0.00555414
2065.75269653,0.00554433
2067.68150391,0.00551501
2069.61031128,0.00548007
2071.53911865,0.00548865
2073.46792603,0.00547069
2075.39673340,0.00545172
2077.32554077,0.00557393
2079.25434814,0.00546153
2081.18315552,0.00548739
2083.11196289,0.00553715
2085.04077026,0.00540329
2086.96957764,0.00543049
2088.89838501,0.00545488
2090.82719238,0.00537894
2092.75599976,0.00533077
2094.68480713,0.00540889
2096.61361450,0.00537967
2098.54242187,0.00543611
2100.47122925,0.00543787
2102.40003662,0.00533660
2104.32884399,0.00539077
2106.25765137,0.00530809
2108.18645874,0.00526986
2110.11526611,0.00526272
2112.04407349,0.00538235
2113.97288086,0.00534490
2115.90168823,0.00528640
2117.83049561,0.00544746
2119.75930298,0.00522814
2121.68811035,0.00526076
2123.61691772,0.00527343
2125.54572510,0.00523574
2127.47453247,0.00544898
2129.40333984,0.00529487
2131.33214722,0.00525546
2133.26095459,0.00525523
2135.18976196,0.00531104
2137.11856934,0.00538174
2139.04737671,0.00526519
2140.97618408,0.00533251
2142.90499146,0.00523667
2144.83379883,0.00519440
2146.76260620,0.00534211
2148.69141357,0.00527500
2150.62022095,0.00520248
2152.54902832,0.00523661
2154.47783569,0.00520447
2156.40664307,0.00515184
2158.33545044,0.00511937
2160.26425781,0.00510029
2162.19306519,0.00516908
2164.12187256,0.00521471
2166.05067993,0.00514313
2167.97948730,0.00503757
2169.90829468,0.00511775
2171.83710205,0.00515585
2173.76590942,0.00506791
2175.69471680,0.00509211
2177.62352417,0.00502002
2179.55233154,0.00506062
2181.48113892,0.00512591
2183.40994629,0.00501712
2185.33875366,0.00507919
2187.26756104,0.00512807
2189.19636841,0.00507367
2191.12517578,0.00514633
2193.05398315,0.00511050
2194.98279053,0.00498937
2196.91159790,0.00510573
2198.84040527,0.00507522
2200.76921265,0.00497212
2202.69802002,0.00504221
2204.62682739,0.00505678
2206.55563477,0.00499757
2208.48444214,0.00491840
2210.41324951,0.00511613
2212.34205688,0.00505615
2214.27086426,0.00484139
2216.19967163,0.00501186
2218.12847900,0.00493373
2220.05728638,0.00492330
2221.98609375,0.00504352
2223.91490112,0.00496477
2225.84370850,0.00487375
2227.77251587,0.00489379
2229.70132324,0.00494450
2231.63013062,0.00480936
2233.55893799,0.00493166
2235.48774536,0.00493376
2237.41655273,0.00479709
2239.34536011,0.00494380
2241.27416748,0.00482926
2243.20297485,0.00488724
2245.13178223,0.00500560
2247.06058960,0.00487771
2248.98939697,0.00491484
2250.91820435,0.00484449
2252.84701172,0.00477541
2254.77581909,0.00480073
2256.70462646,0.00483345
2258.63343384,0.00483827
2260.56224121,0.00480015
2262.49104858,0.00487724
2264.41985596,0.00473401
2266.34866333,0.00461463
2268.27747070,0.00474931
2270.20627808,0.00479848
2272.13508545,0.00486071
2274.06389282,0.00478626
2275.99270020,0.00473120
2277.92150757,0.00481264
2279.85031494,0.00480619
2281.77912231,0.00481160
2283.70792969,0.00472203
2285.63673706,0.00477502
2287.56554443,0.00479894
2289.49435181,0.00458670
2291.42315918,0.00467520
2293.35196655,0.00472107
2295.28077393,0.00455456
2297.20958130,0.00457346
2299.13838867,0.00462585
2301.06719604,0.00462927
2302.99600342,0.00459155
2304.92481079,0.00450168
2306.85361816,0.00458816
2308.78242554,0.00465621
2310.71123291,0.00441882
2312.64004028,0.00436476
2314.56884766,0.00443187
2316.49765503,0.00426846
2318.42646240,0.00426106
2320.35526978,0.00424544
2322.28407715,0.00407330
2324.21288452,0.00406929
2326.14169189,0.00405307
2328.07049927,0.00395552
2329.99930664,0.00389660
2331.92811401,0.00387208
2333.85692139,0.00392227
2335.78572876,0.00394104
2337.71453613,0.00391998
2339.64334351,0.00389722
2341.57215088,0.00390850
2343.50095825,0.00395031
2345.42976562,0.00400556
2347.35857300,0.00426167
2349.28738037,0.00439790
2351.21618774,0.00422970
2353.14499512,0.00411964
2355.07380249,0.00394062
2357.00260986,0.00365187
2358.93141724,0.00362917
2360.86022461,0.00369920
2362.78903198,0.00355426
2364.71783936,0.00359324
2366.64664673,0.00376068
2368.57545410,0.00374198
2370.50426147,0.00376587
2372.43306885,0.00387031
2374.36187622,0.00400901
2376.29068359,0.00412317
2378.21949097,0.00428211
2380.14829834,0.00437363
2382.07710571,0.00424476
2384.00591309,0.00420020
2385.93472046,0.00439200
2387.86352783,0.00446038
2389.79233521,0.00422787
2391.72114258,0.00430957
2393.64994995,0.00440954
2395.57875732,0.00427288
2397.50756470,0.00431238
2399.43637207,0.00429326
2401.36517944,0.00434877
2403.29398682,0.00431504
2405.22279419,0.00433335
2407.15160156,0.00436821
2409.08040894,0.00418895
2411.00921631,0.00431737
2412.93802368,0.00426401
2414.86683105,0.00420265
2416.79563843,0.00432847
2418.72444580,0.00424748
2420.65325317,0.00421355
2422.58206055,0.00417977
2424.51086792,0.00426788
2426.43967529,0.00425436
2428.36848267,0.00413375
2430.29729004,0.00420501
2432.22609741,0.00428469
2434.15490479,0.00420069
2436.08371216,0.00407034
2438.01251953,0.00426116
2439.94132690,0.00433041
2441.87013428,0.00418346
2443.79894165,0.00418244
2445.72774902,0.00412452
2447.65655640,0.00404828
2449.58536377,0.00410579
2451.51417114,0.00418667
2453.44297852,0.00408657
2455.37178589,0.00412487
2457.30059326,0.00424676
2459.22940063,0.00411372
2461.15820801,0.00404780
2463.08701538,0.00405679
2465.01582275,0.00407889
2466.94463013,0.00413646
2468.87343750,0.00409428
2470.80224487,0.00403779
2472.73105225,0.00404195
2474.65985962,0.00400740
2476.58866699,0.00402533
2478.51747437,0.00411901
2480.44628174,0.00407836
2482.37508911,0.00399529
2484.30389648,0.00394997
2486.23270386,0.00396413
2488.16151123,0.00405125
2490.09031860,0.00406728
2492.01912598,0.00397922
2493.94793335,0.00396010
2495.87674072,0.00397727
2497.80554810,0.00389439
2499.73435547,0.00395457
2501.66316284,0.00399694
2503.59197021,0.00392719
2505.52077759,0.00389734
2507.44958496,0.00390631
2509.37839233,0.00404178
2511.30719971,0.00399915
2513.23600708,0.00391389
2515.16481445,0.00388236
2517.09362183,0.00381909
2519.02242920,0.00389544
2520.95123657,0.00389620
2522.88004395,0.00387764
2524.80885132,0.00384171
2526.73765869,0.00388955
2528.66646606,0.00394351
2530.59527344,0.00385874
2532.52408081,0.00390891
2534.45288818,0.00386471
2536.38169556,0.00384079
2538.31050293,0.00385531
2540.23931030,0.00381834
2542.16811768,0.00383301
2544.09692505,0.00380207
2546.02573242,0.00390869
2547.95453979,0.00385488
2549.88334717,0.00372711
2551.81215454,0.00382330
2553.74096191,0.00385457
2555.66976929,0.00375282
2557.59857666,0.00373749
2559.52738403,0.00392507
2561.45619141,0.00386712
2563.38499878,0.00375629
2565.31380615,0.00381009
2567.24261353,0.00373744
2569.17142090,0.00371527
2571.10022827,0.00376761
2573.02903564,0.00381292
2574.95784302,0.00369412
2576.88665039,0.00365728
2578.81545776,0.00371664
2580.74426514,0.00366257
2582.67307251,0.00366492
2584.60187988,0.00359740
2586.53068726,0.00369987
2588.45949463,0.00371392
2590.38830200,0.00363535
2592.31710937,0.00375271
2594.24591675,0.00365358
2596.17472412,0.00358446
2598.10353149,0.00355483
2600.03233887,0.00358321
2601.96114624,0.00364202
2603.88995361,0.00362170
2605.81876099,0.00369468
2607.74756836,0.00361226
2609.67637573,0.00360927
2611.60518311,0.00362566
2613.53399048,0.00356176
2615.46279785,0.00357665
2617.39160522,0.00355258
2619.32041260,0.00356573
2621.24921997,0.00351422
2623.17802734,0.00352484
2625.10683472,0.00360826
2627.03564209,0.00354535
2628.96444946,0.00339743
2630.89325684,0.00346632
2632.82206421,0.00359438
2634.75087158,0.00349681
2636.67967895,0.00355771
2638.60848633,0.00357341
2640.53729370,0.00353926
2642.46610107,0.00363456
2644.39490845,0.00354585
2646.32371582,0.00344718
2648.25252319,0.00350503
2650.18133057,0.00353689
2652.11013794,0.00343631
2654.03894531,0.00349790
2655.96775269,0.00352631
2657.89656006,0.00341668
2659.82536743,0.00346510
2661.75417480,0.00344349
2663.68298218,0.00347617
2665.61178955,0.00351029
2667.54059692,0.00339258
2669.46940430,0.00336569
2671.39821167,0.00342494
2673.32701904,0.00343365
2675.25582642,0.00344533
2677.18463379,0.00351920
2679.11344116,0.00343791
2681.04224854,0.00329532
2682.97105591,0.00329970
2684.89986328,0.00333334
2686.82867065,0.00330538
2688.75747803,0.00340545
2690.68628540,0.00341194
2692.61509277,0.00329868
2694.54390015,0.00343162
2696.47270752,0.00335769
2698.40151489,0.00326604
2700.33032227,0.00330387
2702.25912964,0.00330804
2704.18793701,0.00340436
2706.11674438,0.00328268
2708.04555176,0.00323152
2709.97435913,0.00325514
2711.90316650,0.00327333
2713.83197388,0.00327007
2715.76078125,0.00320705
2717.68958862,0.00328009
2719.61839600,0.00324315
2721.54720337,0.00325743
2723.47601074,0.00322318
2725.40481812,0.00319860
2727.33362549,0.00325208
2729.26243286,0.00320659
2731.19124023,0.00319511
2733.12004761,0.00311666
2735.04885498,0.00322798
2736.97766235,0.00327626
2738.90646973,0.00315381
2740.83527710,0.00310668
2742.76408447,0.00311424
2744.69289185,0.00312942
2746.62169922,0.00305160
2748.55050659,0.00319329
2750.47931396,0.00321023
2752.40812134,0.00311713
2754.33692871,0.00312529
2756.26573608,0.00311188
2758.19454346,0.00316244
2760.12335083,0.00309080
2762.05215820,0.00314978
2763.98096558,0.00315483
2765.90977295,0.00309901
2767.83858032,0.00307521
2769.76738770,0.00300668
2771.69619507,0.00309160
2773.62500244,0.00302194
2775.55380981,0.00302670
2777.48261719,0.00309169
2779.41142456,0.00306970
2781.34023193,0.00305913
2783.26903931,0.00300853
2785.19784668,0.00302765
2787.12665405,0.00301315
2789.05546143,0.00301817
2790.98426880,0.00297916
2792.91307617,0.00298069
2794.84188354,0.00297995
2796.77069092,0.00297476
2798.69949829,0.00301772
2800.62830566,0.00296991
2802.55711304,0.00304437
2804.48592041,0.00296087
2806.41472778,0.00290499
2808.34353516,0.00295066
2810.27234253,0.00284312
2812.20114990,0.00284626
2814.12995728,0.00284723
2816.05876465,0.00289486
2817.98757202,0.00289919
2819.91637939,0.00291095
2821.84518677,0.00294599
2823.77399414,0.00286570
2825.70280151,0.00291456
2827.63160889,0.00293444
2829.56041626,0.00287483
2831.48922363,0.00285939
2833.41803101,0.00283497
2835.34683838,0.00278526
2837.27564575,0.00285328
2839.20445312,0.00289078
2841.13326050,0.00280947
2843.06206787,0.00284521
2844.99087524,0.00278988
2846.91968262,0.00265378
2848.84848999,0.00262992
2850.77729736,0.00270762
2852.70610474,0.00272886
2854.63491211,0.00269952
2856.56371948,0.00266268
2858.49252686,0.00265886
2860.42133423,0.00280735
2862.35014160,0.00275313
2864.27894897,0.00278103
2866.20775635,0.00280162
2868.13656372,0.00267442
2870.06537109,0.00286154
2871.99417847,0.00277397
2873.92298584,0.00264768
2875.85179321,0.00268141
2877.78060059,0.00258436
2879.70940796,0.00267164
2881.63821533,0.00267938
2883.56702270,0.00265571
2885.49583008,0.00261303
2887.42463745,0.00254956
2889.35344482,0.00267104
2891.28225220,0.00264785
2893.21105957,0.00260260
2895.13986694,0.00260215
2897.06867432,0.00249464
2898.99748169,0.00257880
2900.92628906,0.00264782
2902.85509644,0.00250050
2904.78390381,0.00250698
2906.71271118,0.00253230
2908.64151855,0.00249268
2910.57032593,0.00253953
2912.49913330,0.00248098
2914.42794067,0.00247163
2916.35674805,0.00254068
2918.28555542,0.00246049
2920.21436279,0.00248664
2922.14317017,0.00253282
2924.07197754,0.00248140
2926.00078491,0.00253802
2927.92959229,0.00244080
2929.85839966,0.00239883
2931.78720703,0.00248529
2933.71601440,0.00241233
2935.64482178,0.00246128
2937.57362915,0.00242701
2939.50243652,0.00232315
2941.43124390,0.00239517
2943.36005127,0.00243926
2945.28885864,0.00237758
2947.21766602,0.00232543
2949.14647339,0.00237342
2951.07528076,0.00235326
2953.00408813,0.00238294
2954.93289551,0.00237465
2956.86170288,0.00234311
2958.79051025,0.00235824
2960.71931763,0.00228683
2962.64812500,0.00235912
2964.57693237,0.00228055
2966.50573975,0.00226798
2968.43454712,0.00232971
2970.36335449,0.00227213
2972.29216187,0.00241820
2974.22096924,0.00233835
2976.14977661,0.00234788
2978.07858398,0.00243497
2980.00739136,0.00227371
2981.93619873,0.00219336
2983.86500610,0.00218255
2985.79381348,0.00233801
2987.72262085,0.00231199
2989.65142822,0.00218491
2991.58023560,0.00217608
2993.50904297,0.00216640
2995.43785034,0.00227419
2997.36665771,0.00227929
2999.29546509,0.00224841
3001.22427246,0.00216342
3003.15307983,0.00214591
3005.08188721,0.00229057
3007.01069458,0.00225977
3008.93950195,0.00221393
3010.86830933,0.00222139
3012.79711670,0.00223893
3014.72592407,0.00223397
3016.65473145,0.00217246
3018.58353882,0.00217653
3020.51234619,0.00214708
3022.44115356,0.00214247
3024.36996094,0.00218622
3026.29876831,0.00211365
3028.22757568,0.00212939
3030.15638306,0.00217660
3032.08519043,0.00207728
3034.01399780,0.00208128
3035.94280518,0.00214899
3037.87161255,0.00221117
3039.80041992,0.00219200
3041.72922729,0.00213484
3043.65803467,0.00216601
3045.58684204,0.00208280
3047.51564941,0.00210414
3049.44445679,0.00213191
3051.37326416,0.00206799
3053.30207153,0.00209905
3055.23087891,0.00202725
3057.15968628,0.00203989
3059.08849365,0.00206311
3061.01730103,0.00202214
3062.94610840,0.00207192
3064.87491577,0.00206731
3066.80372314,0.00200144
3068.73253052,0.00195524
3070.66133789,0.00200969
3072.59014526,0.00197034
3074.51895264,0.00198018
3076.44776001,0.00211156
3078.37656738,0.00202027
3080.30537476,0.00197944
3082.23418213,0.00204129
3084.16298950,0.00200969
3086.09179687,0.00201297
3088.02060425,0.00199590
3089.94941162,0.00190817
3091.87821899,0.00193510
3093.80702637,0.00196143
3095.73583374,0.00194462
3097.66464111,0.00202357
3099.59344849,0.00189551
3101.52225586,0.00181460
3103.45106323,0.00195739
3105.37987061,0.00193814
3107.30867798,0.00191438
3109.23748535,0.00200542
3111.16629272,0.00202128
3113.09510010,0.00183799
3115.02390747,0.00182603
3116.95271484,0.00192552
3118.88152222,0.00183123
3120.81032959,0.00184570
3122.73913696,0.00178759
3124.66794434,0.00184273
3126.59675171,0.00193464
3128.52555908,0.00176575
3130.45436645,0.00185797
3132.38317383,0.00186735
3134.31198120,0.00179244
3136.24078857,0.00185403
3138.16959595,0.00174056
3140.09840332,0.00178671
3142.02721069,0.00182434
3143.95601807,0.00172639
3145.88482544,0.00180856
3147.81363281,0.00178320
3149.74244019,0.00164347
3151.67124756,0.00175195
3153.60005493,0.00185535
3155.52886230,0.00173681
3157.45766968,0.00175135
3159.38647705,0.00183118
3161.31528442,0.00179397
3163.24409180,0.00175296
3165.17289917,0.00174190
3167.10170654,0.00180365
3169.03051392,0.00178195
3170.95932129,0.00168476
3172.88812866,0.00166704
3174.81693604,0.00167458
3176.74574341,0.00169421
3178.67455078,0.00172002
3180.60335815,0.00170831
3182.53216553,0.00164573
3184.46097290,0.00167864
3186.38978027,0.00172549
3188.31858765,0.00168245
3190.24739502,0.00174304
3192.17620239,0.00177075
3194.10500977,0.00171164
3196.03381714,0.00165117
3197.96262451,0.00159556
3199.89143188,0.00164443
3201.82023926,0.00166674
3203.74904663,0.00165376
3205.67785400,0.00165334
3207.60666138,0.00167960
3209.53546875,0.00174139
3211.46427612,0.00165135
3213.39308350,0.00161722
3215.32189087,0.00170815
3217.25069824,0.00170883
3219.17950562,0.00168311
3221.10831299,0.00159963
3223.03712036,0.00158836
3224.96592773,0.00168214
3226.89473511,0.00170493
3228.82354248,0.00169049
3230.75234985,0.00164422
3232.68115723,0.00167976
3234.60996460,0.00167571
3236.53877197,0.00158364
3238.46757935,0.00164853
3240.39638672,0.00168355
3242.32519409,0.00171701
3244.25400146,0.00168391
3246.18280884,0.00154967
3248.11161621,0.00169277
3250.04042358,0.00173467
3251.96923096,0.00168996
3253.89803833,0.00174525
3255.82684570,0.00164832
3257.75565308,0.00170636
3259.68446045,0.00170584
3261.61326782,0.00167199
3263.54207520,0.00176985
3265.47088257,0.00167617
3267.39968994,0.00169755
3269.32849731,0.00169170
3271.25730469,0.00167964
3273.18611206,0.00180801
3275.11491943,0.00171406
3277.04372681,0.00172826
3278.97253418,0.00180111
3280.90134155,0.00175231
3282.83014893,0.00180466
3284.75895630,0.00180650
3286.68776367,0.00174428
3288.61657104,0.00169783
3290.54537842,0.00174118
3292.47418579,0.00178128
3294.40299316,0.00171906
3296.33180054,0.00179033
3298.26060791,0.00180992
3300.18941528,0.00172856
3302.11822266,0.00175427
3304.04703003,0.00166702
3305.97583740,0.00165261
3307.90464478,0.00175954
3309.83345215,0.00174824
3311.76225952,0.00175772
3313.69106689,0.00181646
3315.61987427,0.00188824
3317.54868164,0.00176939
3319.47748901,0.00174034
3321.40629639,0.00186837
3323.33510376,0.00177248
3325.26391113,0.00181332
3327.19271851,0.00182751
3329.12152588,0.00182797
3331.05033325,0.00184652
3332.97914062,0.00172734
3334.90794800,0.00187813
3336.83675537,0.00185997
3338.76556274,0.00176923
3340.69437012,0.00177995
3342.62317749,0.00171620
3344.55198486,0.00186228
3346.48079224,0.00180184
3348.40959961,0.00176757
3350.33840698,0.00192984
3352.26721436,0.00182455
3354.19602173,0.00180205
3356.12482910,0.00192012
3358.05363647,0.00186592
3359.98244385,0.00184524
3361.91125122,0.00191179
3363.84005859,0.00188418
3365.76886597,0.00193202
3367.69767334,0.00194199
3369.62648071,0.00189373
3371.55528809,0.00195359
3373.48409546,0.00194531
3375.41290283,0.00193807
3377.34171020,0.00189260
3379.27051758,0.00189394
3381.19932495,0.00204109
3383.12813232,0.00204251
3385.05693970,0.00193303
3386.98574707,0.00188634
3388.91455444,0.00194525
3390.84336182,0.00201344
3392.77216919,0.00193721
3394.70097656,0.00188388
3396.62978394,0.00198120
3398.55859131,0.00198026
3400.48739868,0.00192216
3402.41620605,0.00190362
3404.34501343,0.00193292
3406.27382080,0.00201567
3408.20262817,0.00196630
3410.13143555,0.00202842
3412.06024292,0.00204258
3413.98905029,0.00190619
3415.91785767,0.00196938
3417.84666504,0.00199792
3419.77547241,0.00200231
3421.70427979,0.00201821
3423.63308716,0.00202101
3425.56189453,0.00204473
3427.49070190,0.00205351
3429.41950928,0.00205848
3431.34831665,0.00198056
3433.27712402,0.00200672
3435.20593140,0.00203789
3437.13473877,0.00205635
3439.06354614,0.00210008
3440.99235352,0.00205241
3442.92116089,0.00207466
3444.84996826,0.00206457
3446.77877563,0.00206688
3448.70758301,0.00209328
3450.63639038,0.00208377
3452.56519775,0.00213437
3454.49400513,0.00212705
3456.42281250,0.00207655
3458.35161987,0.00207430
3460.28042725,0.00210546
3462.20923462,0.00209713
3464.13804199,0.00201438
3466.06684937,0.00199516
3467.99565674,0.00214702
3469.92446411,0.00219233
3471.85327148,0.00216429
3473.78207886,0.00215787
3475.71088623,0.00207242
3477.63969360,0.00221007
3479.56850098,0.00218385
3481.49730835,0.00204355
3483.42611572,0.00211027
3485.35492310,0.00202104
3487.28373047,0.00209511
3489.21253784,0.00216829
3491.14134521,0.00214564
3493.07015259,0.00220377
3494.99895996,0.00210883
3496.92776733,0.00215558
3498.85657471,0.00225904
3500.78538208,0.00222767
3502.71418945,0.00214487
3504.64299683,0.00212334
3506.57180420,0.00220539
3508.50061157,0.00218206
3510.42941895,0.00216796
3512.35822632,0.00215398
3514.28703369,0.00214586
3516.21584106,0.00221789
3518.14464844,0.00218813
3520.07345581,0.00218228
3522.00226318,0.00219885
3523.93107056,0.00211346
3525.85987793,0.00210506
3527.78868530,0.00216919
3529.71749268,0.00218412
3531.64630005,0.00219808
3533.57510742,0.00228113
3535.50391479,0.00226962
3537.43272217,0.00211991
3539.36152954,0.00215613
3541.29033691,0.00220893
3543.21914429,0.00208594
3545.14795166,0.00204163
3547.07675903,0.00209910
3549.00556641,0.00221892
3550.93437378,0.00220247
3552.86318115,0.00211283
3554.79198853,0.00222439
3556.72079590,0.00227866
3558.64960327,0.00224084
3560.57841064,0.00221443
3562.50721802,0.00214676
3564.43602539,0.00219031
3566.36483276,0.00209494
3568.29364014,0.00196029
3570.22244751,0.00224589
3572.15125488,0.00230009
3574.08006226,0.00217038
3576.00886963,0.00227716
3577.93767700,0.00219002
3579.86648437,0.00223063
3581.79529175,0.00231073
3583.72409912,0.00223268
3585.65290649,0.00217066
3587.58171387,0.00200398
3589.51052124,0.00203993
3591.43932861,0.00214693
3593.36813599,0.00217792
3595.29694336,0.00216919
3597.22575073,0.00215768
3599.15455811,0.00220361
3601.08336548,0.00213983
3603.01217285,0.00219799
3604.94098022,0.00224505
3606.86978760,0.00212125
3608.79859497,0.00202694
3610.72740234,0.00206555
3612.65620972,0.00209593
3614.58501709,0.00215153
3616.51382446,0.00229262
3618.44263184,0.00206078
3620.37143921,0.00205897
3622.30024658,0.00226945
3624.22905395,0.00221497
3626.15786133,0.00222833
3628.08666870,0.00191975
3630.01547607,0.00194726
3631.94428345,0.00228159
3633.87309082,0.00218223
3635.80189819,0.00222582
3637.73070557,0.00224718
3639.65951294,0.00219329
3641.58832031,0.00220716
3643.51712769,0.00216960
3645.44593506,0.00212002
3647.37474243,0.00201396
3649.30354980,0.00185114
3651.23235718,0.00184437
3653.16116455,0.00219468
3655.08997192,0.00215239
3657.01877930,0.00201925
3658.94758667,0.00227653
3660.87639404,0.00218622
3662.80520142,0.00209730
3664.73400879,0.00209400
3666.66281616,0.00211012
3668.59162354,0.00201956
3670.52043091,0.00174620
3672.44923828,0.00195721
3674.37804565,0.00190372
3676.30685303,0.00172201
3678.23566040,0.00198999
3680.16446777,0.00208687
3682.09327515,0.00217893
3684.02208252,0.00217208
3685.95088989,0.00204776
3687.87969727,0.00187787
3689.80850464,0.00179947
3691.73731201,0.00193726
3693.66611938,0.00193557
3695.59492676,0.00200682
3697.52373413,0.00199164
3699.45254150,0.00193314
3701.38134888,0.00190307
3703.31015625,0.00191242
3705.23896362,0.00203111
3707.16777100,0.00190656
3709.09657837,0.00195570
3711.02538574,0.00181941
3712.95419312,0.00168228
3714.88300049,0.00193828
3716.81180786,0.00189507
3718.74061523,0.00191140
3720.66942261,0.00190063
3722.59822998,0.00189703
3724.52703735,0.00189129
3726.45584473,0.00182187
3728.38465210,0.00204749
3730.31345947,0.00194352
3732.24226685,0.00174093
3734.17107422,0.00170103
3736.09988159,0.00163033
3738.02868896,0.00171404
3739.95749634,0.00191588
3741.88630371,0.00190572
3743.81511108,0.00152710
3745.74391846,0.00153940
3747.67272583,0.00173027
3749.60153320,0.00149663
3751.53034058,0.00144205
3753.45914795,0.00167648
3755.38795532,0.00176073
3757.31676270,0.00181591
3759.24557007,0.00177916
3761.17437744,0.00169772
3763.10318481,0.00182406
3765.03199219,0.00171572
3766.96079956,0.00173342
3768.88960693,0.00174460
3770.81841431,0.00161534
3772.74722168,0.00185931
3774.67602905,0.00184325
3776.60483643,0.00179760
3778.53364380,0.00170438
3780.46245117,0.00165551
3782.39125854,0.00182019
3784.32006592,0.00174220
3786.24887329,0.00181228
3788.17768066,0.00175470
3790.10648804,0.00178296
3792.03529541,0.00184398
3793.96410278,0.00176421
3795.89291016,0.00172836
3797.82171753,0.00164773
3799.75052490,0.00171839
3801.67933228,0.00143865
3803.60813965,0.00159131
3805.53694702,0.00172790
3807.46575439,0.00151518
3809.39456177,0.00181404
3811.32336914,0.00171253
3813.25217651,0.00176884
3815.18098389,0.00158027
3817.10979126,0.00141730
3819.03859863,0.00179453
3820.96740601,0.00144595
3822.89621338,0.00154858
3824.82502075,0.00175129
3826.75382812,0.00162183
3828.68263550,0.00172783
3830.61144287,0.00158364
3832.54025024,0.00165013
3834.46905762,0.00163150
3836.39786499,0.00149269
3838.32667236,0.00150748
3840.25547974,0.00153781
3842.18428711,0.00160923
3844.11309448,0.00154661
3846.04190186,0.00156272
3847.97070923,0.00159695
3849.89951660,0.00157715
3851.82832397,0.00144448
3853.75713135,0.00122589
3855.68593872,0.00133490
3857.61474609,0.00154756
3859.54355347,0.00156378
3861.47236084,0.00155860
3863.40116821,0.00149924
3865.32997559,0.00143243
3867.25878296,0.00150188
3869.18759033,0.00140484
3871.11639770,0.00138541
3873.04520508,0.00158010
3874.97401245,0.00154495
3876.90281982,0.00160120
3878.83162720,0.00156598
3880.76043457,0.00136897
3882.68924194,0.00158023
3884.61804932,0.00153448
3886.54685669,0.00132364
3888.47566406,0.00150312
3890.40447144,0.00147814
3892.33327881,0.00145913
3894.26208618,0.00157895
3896.19089355,0.00154513
3898.11970093,0.00147753
3900.04850830,0.00140203
3901.97731567,0.00144585
3903.90612305,0.00142477
3905.83493042,0.00140879
3907.76373779,0.00153204
3909.69254517,0.00155455
3911.62135254,0.00156186
3913.55015991,0.00156070
3915.47896728,0.00147779
3917.40777466,0.00140930
3919.33658203,0.00151019
3921.26538940,0.00154622
3923.19419678,0.00148346
3925.12300415,0.00150779
3927.05181152,0.00149006
3928.98061890,0.00152393
3930.90942627,0.00146901
3932.83823364,0.00140109
3934.76704102,0.00149066
3936.69584839,0.00152879
3938.62465576,0.00149879
3940.55346313,0.00147980
3942.48227051,0.00145000
3944.41107788,0.00136286
3946.33988525,0.00139637
3948.26869263,0.00139811
3950.19750000,0.00144935
3952.12630737,0.00150236
3954.05511475,0.00137571
3955.98392212,0.00145012
3957.91272949,0.00137379
3959.84153687,0.00135976
3961.77034424,0.00147598
3963.69915161,0.00135602
3965.62795898,0.00140539
3967.55676636,0.00136390
3969.48557373,0.00138783
3971.41438110,0.00150209
3973.34318848,0.00140758
3975.27199585,0.00144738
3977.20080322,0.00144011
3979.12961060,0.00138955
3981.05841797,0.00140411
3982.98722534,0.00136774
3984.91603271,0.00140188
3986.84484009,0.00140378
3988.77364746,0.00136741
3990.70245483,0.00142842
3992.63126221,0.00141122
3994.56006958,0.00135513
3996.48887695,0.00139219
3998.41768433,0.00143942
4000.34649170,0.00139025
4002.27529907,0.00129332
4004.20410645,0.00144316
4006.13291382,0.00147659
4008.06172119,0.00134946
4009.99052856,0.00139818
4011.91933594,0.00131977
4013.84814331,0.00131900
4015.77695068,0.00136939
4017.70575806,0.00132510
4019.63456543,0.00134640
4021.56337280,0.00129932
4023.49218018,0.00130085
4025.42098755,0.00136105
4027.34979492,0.00136679
4029.27860229,0.00137670
4031.20740967,0.00139864
4033.13621704,0.00133785
4035.06502441,0.00131928
4036.99383179,0.00136762
4038.92263916,0.00137781
4040.85144653,0.00139781
4042.78025391,0.00131578
4044.70906128,0.00133539
4046.63786865,0.00136799
4048.56667603,0.00126481
4050.49548340,0.00132411
4052.42429077,0.00133418
4054.35309814,0.00124822
4056.28190552,0.00132321
4058.21071289,0.00131961
4060.13952026,0.00119885
4062.06832764,0.00125287
4063.99713501,0.00126057
4065.92594238,0.00128139
4067.85474976,0.00130472
4069.78355713,0.00122484
4071.71236450,0.00131102
4073.64117187,0.00124117
4075.56997925,0.00125296
4077.49878662,0.00131840
4079.42759399,0.00122031
4081.35640137,0.00128079
4083.28520874,0.00123162
4085.21401611,0.00127643
4087.14282349,0.00134452
4089.07163086,0.00131739
4091.00043823,0.00128084
4092.92924561,0.00122435
4094.85805298,0.00129103
4096.78686035,0.00118705
4098.71566772,0.00125602
4100.64447510,0.00133312
4102.57328247,0.00121412
4104.50208984,0.00129301
4106.43089722,0.00131875
4108.35970459,0.00127016
4110.28851196,0.00118326
4112.21731934,0.00124049
4114.14612671,0.00126848
4116.07493408,0.00119058
4118.00374145,0.00126939
4119.93254883,0.00122627
4121.86135620,0.00119796
4123.79016357,0.00117215
4125.71897095,0.00116216
4127.64777832,0.00125858
4129.57658569,0.00117483
4131.50539307,0.00112645
4133.43420044,0.00124002
4135.36300781,0.00124523
4137.29181519,0.00119132
4139.22062256,0.00121302
4141.14942993,0.00119473
4143.07823730,0.00119684
4145.00704468,0.00118010
4146.93585205,0.00114288
4148.86465942,0.00115130
4150.79346680,0.00113768
4152.72227417,0.00118127
4154.65108154,0.00115775
4156.57988892,0.00117720
4158.50869629,0.00116094
4160.43750366,0.00112214
4162.36631103,0.00119489
4164.29511841,0.00108272
4166.22392578,0.00120459
4168.15273315,0.00126500
4170.08154053,0.00104964
4172.01034790,0.00116112
4173.93915527,0.00117782
4175.86796265,0.00115416
4177.79677002,0.00120389
4179.72557739,0.00113105
4181.65438477,0.00113278
4183.58319214,0.00109920
4185.51199951,0.00112726
4187.44080688,0.00113735
4189.36961426,0.00110339
4191.29842163,0.00113804
4193.22722900,0.00110557
4195.15603638,0.00111265
4197.08484375,0.00108516
4199.01365112,0.00113922
4200.94245850,0.00113706
4202.87126587,0.00103141
4204.80007324,0.00116871
4206.72888062,0.00109889
4208.65768799,0.00106611
4210.58649536,0.00116879
4212.51530273,0.00107193
4214.44411011,0.00116068
4216.37291748,0.00113163
4218.30172485,0.00103204
4220.23053223,0.00108811
4222.15933960,0.00110867
4224.08814697,0.00106561
4226.01695435,0.00095150
4227.94576172,0.00102517
4229.87456909,0.00107343
4231.80337646,0.00104520
4233.73218384,0.00103200
4235.66099121,0.00100424
4237.58979858,0.00103979
4239.51860596,0.00099391
4241.44741333,0.00105085
4243.37622070,0.00107271
4245.30502808,0.00107684
4247.23383545,0.00110028
4249.16264282,0.00100542
4251.09145020,0.00105099
4253.02025757,0.00103807
4254.94906494,0.00106133
4256.87787231,0.00106151
4258.80667969,0.00102464
4260.73548706,0.00113715
4262.66429443,0.00102607
4264.59310181,0.00101580
4266.52190918,0.00107721
4268.45071655,0.00102825
4270.37952393,0.00108927
4272.30833130,0.00102866
4274.23713867,0.00100482
4276.16594604,0.00102660
4278.09475342,0.00105984
4280.02356079,0.00114499
4281.95236816,0.00107065
4283.88117554,0.00105335
4285.80998291,0.00103015
4287.73879028,0.00094256
4289.66759766,0.00100568
4291.59640503,0.00103007
4293.52521240,0.00099543
4295.45401978,0.00098716
4297.38282715,0.00096277
4299.31163452,0.00097209
4301.24044189,0.00097400
4303.16924927,0.00095424
4305.09805664,0.00098581
4307.02686401,0.00098939
4308.95567139,0.00097735
4310.88447876,0.00102152
4312.81328613,0.00094653
4314.74209351,0.00090934
4316.67090088,0.00102319
4318.59970825,0.00099475
4320.52851562,0.00094036
4322.45732300,0.00100602
4324.38613037,0.00102449
4326.31493774,0.00095771
4328.24374512,0.00099344
4330.17255249,0.00102604
4332.10135986,0.00094076
4334.03016724,0.00098375
4335.95897461,0.00103626
4337.88778198,0.00100121
4339.81658936,0.00092054
4341.74539673,0.00093877
4343.67420410,0.00102381
4345.60301147,0.00091817
4347.53181885,0.00092928
4349.46062622,0.00097130
4351.38943359,0.00092759
4353.31824097,0.00089034
4355.24704834,0.00086389
4357.17585571,0.00097962
4359.10466309,0.00094205
4361.03347046,0.00092113
4362.96227783,0.00093200
4364.89108520,0.00088487
4366.81989258,0.00097173
4368.74869995,0.00092086
4370.67750732,0.00091439
4372.60631470,0.00091330
4374.53512207,0.00085089
4376.46392944,0.00090241
4378.39273682,0.00089007
4380.32154419,0.00087356
4382.25035156,0.00089955
4384.17915894,0.00097733
4386.10796631,0.00095209
4388.03677368,0.00090677
4389.96558105,0.00094853
4391.89438843,0.00084673
4393.82319580,0.00081810
4395.75200317,0.00086078
4397.68081055,0.00086057
4399.60961792,0.00086513
4401.53842529,0.00086708
4403.46723267,0.00094835
4405.39604004,0.00092096
4407.32484741,0.00085077
4409.25365478,0.00086994
4411.18246216,0.00081324
4413.11126953,0.00083115
4415.04007690,0.00090042
4416.96888428,0.00086689
4418.89769165,0.00085078
4420.82649902,0.00085674
4422.75530640,0.00086829
4424.68411377,0.00083285
4426.61292114,0.00085343
4428.54172852,0.00092133
4430.47053589,0.00088175
4432.39934326,0.00092602
4434.32815063,0.00087182
4436.25695801,0.00081929
4438.18576538,0.00092108
4440.11457275,0.00083163
4442.04338013,0.00082625
4443.97218750,0.00086329
4445.90099487,0.00080456
4447.82980225,0.00083155
4449.75860962,0.00080041
4451.68741699,0.00079702
4453.61622437,0.00084302
4455.54503174,0.00086148
4457.47383911,0.00085708
4459.40264648,0.00084447
4461.33145386,0.00085630
4463.26026123,0.00085543
4465.18906860,0.00082741
4467.11787598,0.00080449
4469.04668335,0.00086054
4470.97549072,0.00086631
4472.90429810,0.00086538
4474.83310547,0.00088523
4476.76191284,0.00082099
4478.69072021,0.00081707
4480.61952759,0.00080727
4482.54833496,0.00080845
4484.47714233,0.00081362
4486.40594971,0.00080643
4488.33475708,0.00084039
4490.26356445,0.00079581
4492.19237183,0.00081713
4494.12117920,0.00084170
4496.04998657,0.00082005
4497.97879395,0.00081058
4499.90760132,0.00077549
4501.83640869,0.00077386
4503.76521606,0.00073607
4505.69402344,0.00078867
4507.62283081,0.00078877
4509.55163818,0.00076104
4511.48044556,0.00084491
4513.40925293,0.00081553
4515.33806030,0.00086186
4517.26686768,0.00082223
4519.19567505,0.00082436
4521.12448242,0.00095038
4523.05328979,0.00078289
4524.98209717,0.00072155
4526.91090454,0.00079670
4528.83971191,0.00086462
4530.76851929,0.00080879
4532.69732666,0.00066934
4534.62613403,0.00080959
4536.55494141,0.00080632
4538.48374878,0.00076299
4540.41255615,0.00080928
4542.34136353,0.00075248
4544.27017090,0.00076454
4546.19897827,0.00073466
4548.12778564,0.00075964
4550.05659302,0.00076536
4551.98540039,0.00076715
4553.91420776,0.00079235
4555.84301514,0.00076674
4557.77182251,0.00084834
4559.70062988,0.00077161
4561.62943726,0.00072194
4563.55824463,0.00080917
4565.48705200,0.00077488
4567.41585937,0.00070646
4569.34466675,0.00068854
4571.27347412,0.00075644
4573.20228149,0.00073674
4575.13108887,0.00074926
4577.05989624,0.00080785
4578.98870361,0.00075566
4580.91751099,0.00071847
4582.84631836,0.00074371
4584.77512573,0.00077932
4586.70393311,0.00069543
4588.63274048,0.00072135
4590.56154785,0.00078227
4592.49035522,0.00076419
4594.41916260,0.00077460
4596.34796997,0.00066202
4598.27677734,0.00071496
4600.20558472,0.00073809
4602.13439209,0.00067235
4604.06319946,0.00079388
4605.99200684,0.00071667
4607.92081421,0.00068629
4609.84962158,0.00076911
4611.77842895,0.00068210
4613.70723633,0.00071300
4615.63604370,0.00071268
4617.56485107,0.00063776
4619.49365845,0.00072553
4621.42246582,0.00073196
4623.35127319,0.00068692
4625.28008057,0.00069160
4627.20888794,0.00065473
4629.13769531,0.00067767
4631.06650269,0.00071828
4632.99531006,0.00070216
4634.92411743,0.00065285
4636.85292480,0.00070409
4638.78173218,0.00071678
4640.71053955,0.00070883
4642.63934692,0.00081483
4644.56815430,0.00068274
4646.49696167,0.00066245
4648.42576904,0.00072496
4650.35457642,0.00062731
4652.28338379,0.00073438
4654.21219116,0.00071213
4656.14099853,0.00062981
4658.06980591,0.00067295
4659.99861328,0.00065626
4661.92742065,0.00060567
4663.85622803,0.00062621
4665.78503540,0.00067901
4667.71384277,0.00058143
4669.64265015,0.00062571
4671.57145752,0.00063870
4673.50026489,0.00060064
4675.42907227,0.00073425
4677.35787964,0.00074135
4679.28668701,0.00070013
4681.21549438,0.00061467
4683.14430176,0.00063139
4685.07310913,0.00067793
4687.00191650,0.00061953
4688.93072388,0.00063823
4690.85953125,0.00060329
4692.78833862,0.00058456
4694.71714600,0.00061054
4696.64595337,0.00067096
4698.57476074,0.00064985
4700.50356812,0.00061560
4702.43237549,0.00065385
4704.36118286,0.00062089
4706.28999023,0.00063563
4708.21879761,0.00058499
4710.14760498,0.00060247
4712.07641235,0.00065966
4714.00521973,0.00066072
4715.93402710,0.00062110
4717.86283447,0.00054209
4719.79164185,0.00069526
4721.72044922,0.00065189
4723.64925659,0.00062846
4725.57806396,0.00075421
4727.50687134,0.00061500
4729.43567871,0.00062312
4731.36448608,0.00057983
4733.29329346,0.00052156
4735.22210083,0.00065427
4737.15090820,0.00063010
4739.07971558,0.00058929
4741.00852295,0.00064138
4742.93733032,0.00063597
4744.86613770,0.00060912
4746.79494507,0.00064508
4748.72375244,0.00060256
4750.65255981,0.00058953
4752.58136719,0.00060790
4754.51017456,0.00056870
4756.43898193,0.00062362
4758.36778931,0.00057549
4760.29659668,0.00049849
4762.22540405,0.00056941
4764.15421143,0.00062250
4766.08301880,0.00058739
4768.01182617,0.00057874
4769.94063354,0.00065306
4771.86944092,0.00064919
4773.79824829,0.00059209
4775.72705566,0.00059635
4777.65586304,0.00063803
4779.58467041,0.00061531
4781.51347778,0.00057100
4783.44228516,0.00056549
4785.37109253,0.00054477
4787.29989990,0.00057793
4789.22870728,0.00060297
4791.15751465,0.00060985
4793.08632202,0.00057994
4795.01512939,0.00052026
4796.94393677,0.00058962
4798.87274414,0.00060466
4800.80155151,0.00054959
4802.73035889,0.00054613
4804.65916626,0.00051647
4806.58797363,0.00053036
4808.51678101,0.00053307
4810.44558838,0.00054031
4812.37439575,0.00060187
4814.30320312,0.00055907
4816.23201050,0.00054430
4818.16081787,0.00057184
4820.08962524,0.00053434
4822.01843262,0.00053188
4823.94723999,0.00056330
4825.87604736,0.00060473
4827.80485474,0.00055397
4829.73366211,0.00054938
4831.66246948,0.00056914
4833.59127686,0.00047705
4835.52008423,0.00054864
4837.44889160,0.00053954
4839.37769897,0.00049289
4841.30650635,0.00062123
4843.23531372,0.00051566
4845.16412109,0.00043588
4847.09292847,0.00056385
4849.02173584,0.00053267
4850.95054321,0.00046004
4852.87935059,0.00051223
4854.80815796,0.00053287
4856.73696533,0.00053746
4858.66577270,0.00056466
4860.59458008,0.00049354
4862.52338745,0.00046476
4864.45219482,0.00049412
4866.38100220,0.00049689
4868.30980957,0.00055243
4870.23861694,0.00051624
4872.16742432,0.00050135
4874.09623169,0.00056140
4876.02503906,0.00053010
4877.95384644,0.00055597
4879.88265381,0.00052598
4881.81146118,0.00051885
4883.74026855,0.00058656
4885.66907593,0.00053717
4887.59788330,0.00054829
4889.52669067,0.00052224
4891.45549805,0.00050258
4893.38430542,0.00047227
4895.31311279,0.00046915
4897.24192017,0.00058496
4899.17072754,0.00048081
4901.09953491,0.00047960
4903.02834228,0.00053936
4904.95714966,0.00054415
4906.88595703,0.00055953
4908.81476440,0.00045115
4910.74357178,0.00050156
4912.67237915,0.00044427
4914.60118652,0.00046777
4916.52999390,0.00051410
4918.45880127,0.00037938
4920.38760864,0.00047131
4922.31641602,0.00046569
4924.24522339,0.00049838
4926.17403076,0.00049781
4928.10283813,0.00047297
4930.03164551,0.00054721
4931.96045288,0.00042449
4933.88926025,0.00049487
4935.81806763,0.00050844
4937.74687500,0.00042997
4939.67568237,0.00047041
4941.60448975,0.00044697
4943.53329712,0.00045677
4945.46210449,0.00043420
4947.39091187,0.00049877
4949.31971924,0.00052680
4951.24852661,0.00046993
4953.17733398,0.00046842
4955.10614136,0.00049925
4957.03494873,0.00053492
4958.96375610,0.00043935
4960.89256348,0.00042453
4962.82137085,0.00048705
4964.75017822,0.00045207
4966.67898560,0.00044427
4968.60779297,0.00050229
4970.53660034,0.00052415
4972.46540771,0.00051597
4974.39421509,0.00053501
4976.32302246,0.00052244
4978.25182983,0.00047500
4980.18063721,0.00045291
4982.10944458,0.00049991
4984.03825195,0.00042392
4985.96705933,0.00038475
4987.89586670,0.00055150
4989.82467407,0.00054089
4991.75348145,0.00043244
4993.68228882,0.00039915
4995.61109619,0.00036880
4997.53990356,0.00038324
4999.46871094,0.00045670
5001.39751831,0.00047042
5003.32632568,0.00044752
5005.25513306,0.00044438
5007.18394043,0.00044669
5009.11274780,0.00051046
5011.04155518,0.00046967
5012.97036255,0.00045936
5014.89916992,0.00041444
5016.82797729,0.00036759
5018.75678467,0.00052465
5020.68559204,0.00044985
5022.61439941,0.00042649
5024.54320679,0.00048176
5026.47201416,0.00044347
5028.40082153,0.00048628
5030.32962891,0.00040576
5032.25843628,0.00047385
5034.18724365,0.00044610
5036.11605103,0.00032528
5038.04485840,0.00048930
5039.97366577,0.00043429
5041.90247314,0.00032424
5043.83128052,0.00042718
5045.76008789,0.00043835
5047.68889526,0.00042623
5049.61770264,0.00046454
5051.54651001,0.00046184
5053.47531738,0.00046416
5055.40412476,0.00043297
5057.33293213,0.00041631
5059.26173950,0.00046638
5061.19054687,0.00042455
5063.11935425,0.00038776
5065.04816162,0.00041854
5066.97696899,0.00044385
5068.90577637,0.00043364
5070.83458374,0.00039233
5072.76339111,0.00042988
5074.69219849,0.00044023
5076.62100586,0.00037794
5078.54981323,0.00037760
5080.47862061,0.00038474
5082.40742798,0.00036507
5084.33623535,0.00039235
5086.26504272,0.00039737
5088.19385010,0.00038823
5090.12265747,0.00041758
5092.05146484,0.00041593
5093.98027222,0.00045700
5095.90907959,0.00047260
5097.83788696,0.00041514
5099.76669434,0.00039693
5101.69550171,0.00039091
5103.62430908,0.00045136
5105.55311645,0.00047719
5107.48192383,0.00041991
5109.41073120,0.00046054
5111.33953857,0.00046681
5113.26834595,0.00041341
5115.19715332,0.00038663
5117.12596069,0.00032587
5119.05476807,0.00038376
5120.98357544,0.00043636
5122.91238281,0.00036970
5124.84119019,0.00038167
5126.76999756,0.00041379
5128.69880493,0.00041590
5130.62761230,0.00036091
5132.55641968,0.00031406
5134.48522705,0.00033332
5136.41403442,0.00040435
5138.34284180,0.00045613
5140.27164917,0.00041804
5142.20045654,0.00047259
5144.12926392,0.00041463
5146.05807129,0.00034231
5147.98687866,0.00042172
5149.91568603,0.00040969
5151.84449341,0.00042879
5153.77330078,0.00036228
5155.70210815,0.00032454
5157.63091553,0.00038506
5159.55972290,0.00034279
5161.48853027,0.00033927
5163.41733765,0.00035112
5165.34614502,0.00033700
5167.27495239,0.00034646
5169.20375977,0.00041795
5171.13256714,0.00037648
5173.06137451,0.00035729
5174.99018188,0.00041455
5176.91898926,0.00034332
5178.84779663,0.00039329
5180.77660400,0.00037944
5182.70541138,0.00031795
5184.63421875,0.00038266
5186.56302612,0.00042980
5188.49183350,0.00042500
5190.42064087,0.00033195
5192.34944824,0.00035601
5194.27825562,0.00038917
5196.20706299,0.00039160
5198.13587036,0.00037119
5200.06467773,0.00030418
5201.99348511,0.00034687
5203.92229248,0.00031096
5205.85109985,0.00030594
5207.77990723,0.00033491
5209.70871460,0.00030879
5211.63752197,0.00034931
5213.56632935,0.00036435
5215.49513672,0.00035831
5217.42394409,0.00033846
5219.35275146,0.00029940
5221.28155884,0.00028515
5223.21036621,0.00036091
5225.13917358,0.00037451
5227.06798096,0.00034409
5228.99678833,0.00037765
5230.92559570,0.00031180
5232.85440308,0.00034835
5234.78321045,0.00039767
5236.71201782,0.00033137
5238.64082520,0.00031325
5240.56963257,0.00026629
5242.49843994,0.00031110
5244.42724731,0.00037064
5246.35605469,0.00035003
5248.28486206,0.00035733
5250.21366943,0.00033241
5252.14247681,0.00032941
5254.07128418,0.00034883
5256.00009155,0.00035138
5257.92889893,0.00032249
5259.85770630,0.00030720
5261.78651367,0.00036533
5263.71532104,0.00032966
5265.64412842,0.00036819
5267.57293579,0.00044996
5269.50174316,0.00027945
5271.43055054,0.00028532
5273.35935791,0.00037873
5275.28816528,0.00033250
5277.21697266,0.00037773
5279.14578003,0.00024565
5281.07458740,0.00023993
5283.00339478,0.00038591
5284.93220215,0.00026837
5286.86100952,0.00029430
5288.78981689,0.00036655
5290.71862427,0.00031086
5292.64743164,0.00032828
5294.57623901,0.00036012
5296.50504639,0.00034000
5298.43385376,0.00030494
5300.36266113,0.00035489
5302.29146851,0.00032515
5304.22027588,0.00030096
5306.14908325,0.00033567
5308.07789062,0.00028629
5310.00669800,0.00031964
5311.93550537,0.00032459
5313.86431274,0.00033322
5315.79312012,0.00035478
5317.72192749,0.00032160
5319.65073486,0.00035380
5321.57954224,0.00034367
5323.50834961,0.00034902
5325.43715698,0.00029755
5327.36596436,0.00029809
5329.29477173,0.00038190
5331.22357910,0.00029937
5333.15238647,0.00026643
5335.08119385,0.00023557
5337.01000122,0.00025605
5338.93880859,0.00031627
5340.86761597,0.00027197
5342.79642334,0.00029813
5344.72523071,0.00026560
5346.65403809,0.00028764
5348.58284546,0.00032278
5350.51165283,0.00024748
5352.44046020,0.00025565
5354.36926758,0.00023601
5356.29807495,0.00024914
5358.22688232,0.00030818
5360.15568970,0.00028136
5362.08449707,0.00027901
5364.01330444,0.00033096
5365.94211182,0.00028715
5367.87091919,0.00021588
5369.79972656,0.00024785
5371.72853394,0.00025981
5373.65734131,0.00030388
5375.58614868,0.00032615
5377.51495605,0.00029174
5379.44376343,0.00032104
5381.37257080,0.00030014
5383.30137817,0.00031815
5385.23018555,0.00034081
5387.15899292,0.00026579
5389.08780029,0.00026412
5391.01660767,0.00029462
5392.94541504,0.00030148
5394.87422241,0.00030860
5396.80302978,0.00031981
5398.73183716,0.00030203
5400.66064453,0.00026253
5402.58945190,0.00033634
5404.51825928,0.00032541
5406.44706665,0.00020144
5408.37587402,0.00023511
5410.30468140,0.00028932
5412.23348877,0.00027933
5414.16229614,0.00024401
5416.09110352,0.00022442
5418.01991089,0.00024716
5419.94871826,0.00024030
5421.87752563,0.00022982
5423.80633301,0.00025397
5425.73514038,0.00033948
5427.66394775,0.00031322
5429.59275513,0.00025859
5431.52156250,0.00028836
5433.45036987,0.00027035
5435.37917725,0.00034735
5437.30798462,0.00033135
5439.23679199,0.00023235
5441.16559936,0.00023366
5443.09440674,0.00022925
5445.02321411,0.00026854
5446.95202148,0.00024861
5448.88082886,0.00025332
5450.80963623,0.00029879
5452.73844360,0.00026790
5454.66725098,0.00027150
5456.59605835,0.00026416
5458.52486572,0.00023493
5460.45367310,0.00026518
5462.38248047,0.00030323
5464.31128784,0.00029859
5466.24009521,0.00030269
5468.16890259,0.00025299
5470.09770996,0.00023958
5472.02651733,0.00023740
5473.95532471,0.00016581
5475.88413208,0.00024734
5477.81293945,0.00030424
5479.74174683,0.00026784
5481.67055420,0.00025686
5483.59936157,0.00025055
5485.52816895,0.00027099
5487.45697632,0.00029229
5489.38578369,0.00026833
5491.31459106,0.00020332
5493.24339844,0.00028436
5495.17220581,0.00029548
5497.10101318,0.00021710
5499.02982056,0.00024769
5500.95862793,0.00023220
5502.88743530,0.00025764
5504.81624268,0.00026219
5506.74505005,0.00024725
5508.67385742,0.00025952
5510.60266479,0.00025015
5512.53147217,0.00027554
5514.46027954,0.00026186
5516.38908691,0.00025175
5518.31789429,0.00031018
5520.24670166,0.00031657
5522.17550903,0.00023182
5524.10431641,0.00023523
5526.03312378,0.00022861
5527.96193115,0.00025324
5529.89073853,0.00032966
5531.81954590,0.00029289
5533.74835327,0.00031611
5535.67716064,0.00025457
5537.60596802,0.00020253
5539.53477539,0.00020621
5541.46358276,0.00022989
5543.39239014,0.00029657
5545.32119751,0.00017584
5547.25000488,0.00020536
5549.17881226,0.00022379
5551.10761963,0.00020133
5553.03642700,0.00028291
5554.96523437,0.00022716
5556.89404175,0.00029717
5558.82284912,0.00028802
5560.75165649,0.00022586
5562.68046387,0.00026362
5564.60927124,0.00023156
5566.53807861,0.00022921
5568.46688599,0.00023318
5570.39569336,0.00023335
5572.32450073,0.00020013
5574.25330811,0.00023132
5576.18211548,0.00022876
5578.11092285,0.00017085
5580.03973022,0.00021474
5581.96853760,0.00022914
5583.89734497,0.00026723
5585.82615234,0.00030734
5587.75495972,0.00028619
5589.68376709,0.00023877
5591.61257446,0.00023751
5593.54138184,0.00025692
5595.47018921,0.00019834
5597.39899658,0.00021735
5599.32780395,0.00022018
5601.25661133,0.00012087
5603.18541870,0.00021757
5605.11422607,0.00034577
5607.04303345,0.00027900
5608.97184082,0.00028629
5610.90064819,0.00021105
5612.82945557,0.00015969
5614.75826294,0.00026041
5616.68707031,0.00017841
5618.61587769,0.00021736
5620.54468506,0.00022665
5622.47349243,0.00016177
5624.40229980,0.00027767
5626.33110718,0.00027253
5628.25991455,0.00023651
5630.18872192,0.00020985
5632.11752930,0.00021986
5634.04633667,0.00024292
5635.97514404,0.00025751
5637.90395142,0.00026842
5639.83275879,0.00019372
5641.76156616,0.00021014
5643.69037353,0.00021237
5645.61918091,0.00027801
5647.54798828,0.00029773
5649.47679565,0.00017352
5651.40560303,0.00018177
5653.33441040,0.00017415
5655.26321777,0.00020189
5657.19202515,0.00023366
5659.12083252,0.00023520
5661.04963989,0.00029623
5662.97844727,0.00025650
5664.90725464,0.00024117
5666.83606201,0.00023328
5668.76486938,0.00015040
5670.69367676,0.00017682
5672.62248413,0.00021730
5674.55129150,0.00018465
5676.48009888,0.00022475
5678.40890625,0.00023348
5680.33771362,0.00019705
5682.26652100,0.00023105
5684.19532837,0.00020816
5686.12413574,0.00018113
5688.05294311,0.00022558
5689.98175049,0.00027158
5691.91055786,0.00029335
5693.83936523,0.00023856
5695.76817261,0.00018992
5697.69697998,0.00018874
5699.62578735,0.00015924
5701.55459473,0.00021023
5703.48340210,0.00025558
5705.41220947,0.00019475
5707.34101685,0.00020434
5709.26982422,0.00020616
5711.19863159,0.00021495
5713.12743896,0.00022671
5715.05624634,0.00018528
5716.98505371,0.00021724
5718.91386108,0.00026410
5720.84266846,0.00029720
5722.77147583,0.00020261
5724.70028320,0.00017001
5726.62909058,0.00021564
5728.55789795,0.00019278
5730.48670532,0.00024262
5732.41551270,0.00014169
5734.34432007,0.00018199
5736.27312744,0.00021811
5738.20193481,0.00010301
5740.13074219,0.00025357
5742.05954956,0.00021234
5743.98835693,0.00015479
5745.91716431,0.00020857
5747.84597168,0.00016759
5749.77477905,0.00022219
5751.70358643,0.00019956
5753.63239380,0.00014838
5755.56120117,0.00014375
5757.49000854,0.00021938
5759.41881592,0.00022897
5761.34762329,0.00018424
5763.27643066,0.00021748
5765.20523804,0.00013815
5767.13404541,0.00019563
5769.06285278,0.00022975
5770.99166016,0.00012127
5772.92046753,0.00017948
5774.84927490,0.00018816
5776.77808228,0.00014549
5778.70688965,0.00018708
5780.63569702,0.00020677
5782.56450439,0.00019916
5784.49331177,0.00019129
5786.42211914,0.00017669
5788.35092651,0.00018020
5790.27973389,0.00015208
5792.20854126,0.00018449
5794.13734863,0.00025683
5796.06615601,0.00018548
5797.99496338,0.00017501
5799.92377075,0.00020152
5801.85257812,0.00018984
5803.78138550,0.00016835
5805.71019287,0.00014050
5807.63900024,0.00019139
5809.56780762,0.00012642
5811.49661499,0.00012454
5813.42542236,0.00019547
5815.35422974,0.00018238
5817.28303711,0.00025467
5819.21184448,0.00022785
5821.14065186,0.00014528
5823.06945923,0.00014889
5824.99826660,0.00019976
5826.92707397,0.00020417
5828.85588135,0.00016413
5830.78468872,0.00018567
5832.71349609,0.00016001
5834.64230347,0.00019722
5836.57111084,0.00019719
5838.49991821,0.00013251
5840.42872559,0.00022882
5842.35753296,0.00022909
5844.28634033,0.00013344
5846.21514770,0.00018921
5848.14395508,0.00025338
5850.07276245,0.00021055
5852.00156982,0.00018182
5853.93037720,0.00017258
5855.85918457,0.00019836
5857.78799194,0.00020672
5859.71679932,0.00017244
5861.64560669,0.00020360
5863.57441406,0.00015705
5865.50322144,0.00012675
5867.43202881,0.00016632
5869.36083618,0.00018023
5871.28964355,0.00016377
5873.21845093,0.00011499
5875.14725830,0.00018434
5877.07606567,0.00020963
5879.00487305,0.00020118
5880.93368042,0.00022903
5882.86248779,0.00022311
5884.79129517,0.00020967
5886.72010254,0.00011366
5888.64890991,0.00012865
5890.57771728,0.00015341
5892.50652466,0.00014902
5894.43533203,0.00021371
5896.36413940,0.00014915
5898.29294678,0.00013494
5900.22175415,0.00019418
5902.15056152,0.00019773
5904.07936890,0.00016783
5906.00817627,0.00012412
5907.93698364,0.00014674
5909.86579102,0.00013575
5911.79459839,0.00011770
5913.72340576,0.00018666
5915.65221313,0.00015788
5917.58102051,0.00014621
5919.50982788,0.00020575
5921.43863525,0.00010960
5923.36744263,0.00011289
5925.29625000,0.00016969
5927.22505737,0.00012028
5929.15386475,0.00012816
5931.08267212,0.00012829
5933.01147949,0.00013926
5934.94028686,0.00014145
5936.86909424,0.00016996
5938.79790161,0.00016724
5940.72670898,0.00016007
5942.65551636,0.00014818
5944.58432373,0.00005045
5946.51313110,0.00016051
5948.44193848,0.00019942
5950.37074585,0.00014536
5952.29955322,0.00015747
5954.22836060,0.00008603
5956.15716797,0.00012890
5958.08597534,0.00013158
5960.01478271,0.00017021
5961.94359009,0.00024247
5963.87239746,0.00015720
5965.80120483,0.00010803
5967.73001221,0.00014627
5969.65881958,0.00016369
5971.58762695,0.00008639
5973.51643433,0.00014387
5975.44524170,0.00017083
5977.37404907,0.00012428
5979.30285645,0.00019671
5981.23166382,0.00019732
5983.16047119,0.00021499
5985.08927856,0.00017211
5987.01808594,0.00013248
5988.94689331,0.00018527
5990.87570068,0.00014327
5992.80450806,0.00007311
5994.73331543,0.00010600
5996.66212280,0.00020484
5998.59093018,0.00015494
6000.51973755,0.00010916
