399.26312622,0.00079129
401.19193359,0.00067287
403.12074097,0.00057230
405.04954834,0.00045314
406.97835571,0.00087009
408.90716309,0.00060158
410.83597046,0.00074764
412.76477783,0.00128884
414.69358521,0.00115971
416.62239258,0.00111840
418.55119995,0.00056449
420.48000732,0.00074383
422.40881470,0.00098586
424.33762207,0.00086185
426.26642944,0.00090581
428.19523682,0.00068564
430.12404419,0.00091579
432.05285156,0.00088335
433.98165894,0.00134359
435.91046631,0.00135675
437.83927368,0.00089470
439.76808105,0.00082356
441.69688843,0.00037749
443.62569580,0.00069499
445.55450317,0.00047934
447.48331055,0.00066377
449.41211792,0.00102626
451.34092529,0.00028490
453.26973267,0.00056329
455.19854004,0.00085576
457.12734741,0.00073200
459.05615479,0.00059894
460.98496216,0.00048905
462.91376953,0.00065090
464.84257690,0.00086992
466.77138428,0.00061002
468.70019165,0.00043575
470.62899902,0.00098742
472.55780640,0.00034083
474.48661377,0.00017124
476.41542114,0.00097817
478.34422852,0.00037012
480.27303589,0.00004709
482.20184326,0.00077325
484.13065063,0.00066647
486.05945801,0.00011631
487.98826538,0.00065840
489.91707275,0.00057633
491.84588013,0.00025186
493.77468750,0.00081241
495.70349487,0.00040322
497.63230225,0.00015797
499.56110962,0.00056391
501.48991699,0.00058200
503.41872437,0.00032004
505.34753174,0.00038261
507.27633911,0.00106584
509.20514648,0.00095802
511.13395386,0.00041967
513.06276123,0.00037536
514.99156860,0.00035734
516.92037598,0.00071069
518.84918335,0.00107230
520.77799072,0.00067905
522.70679810,0.00047873
524.63560547,0.00054216
526.56441284,0.00036791
528.49322021,0.00055246
530.42202759,0.00046204
532.35083496,0.00028984
534.27964233,0.00060202
536.20844971,0.00060211
538.13725708,0.00035647
540.06606445,0.00010937
541.99487183,0.00032604
543.92367920,0.00052893
545.85248657,0.00017812
547.78129395,0.00032921
549.71010132,0.00072004
551.63890869,0.00058906
553.56771606,0.00029190
555.49652344,0.00017776
557.42533081,0.00021730
559.35413818,0.00045806
561.28294556,0.00021402
563.21175293,0.00032591
565.14056030,0.00062397
567.06936768,0.00001014
568.99817505,0.00019191
570.92698242,0.00019033
572.85578979,0.00035158
574.78459717,0.00069698
576.71340454,0.00031758
578.64221191,0.00068091
580.57101929,0.00019979
582.49982666,0.00007750
584.42863403,0.00030319
586.35744141,0.00009104
588.28624878,0.00069459
590.21505615,0.00037807
592.14386353,0.00032673
594.07267090,0.00060089
596.00147827,0.00010829
597.93028564,0.00018440
599.85909302,0.00060338
601.78790039,0.00053879
603.71670776,0.00034256
605.64551514,0.00030901
607.57432251,0.00029345
609.50312988,0.00027404
611.43193726,0.00018395
613.36074463,0.00073111
615.28955200,0.00028468
617.21835938,-0.00016831
619.14716675,0.00032427
621.07597412,0.00029523
623.00478149,0.00048794
624.93358887,0.00019805
626.86239624,0.00034775
628.79120361,0.00063139
630.72001099,0.00030578
632.64881836,0.00055900
634.57762573,0.00089356
636.50643311,0.00104047
638.43524048,0.00105495
640.36404785,0.00112722
642.29285522,0.00110757
644.22166260,0.00121777
646.15046997,0.00142805
648.07927734,0.00172633
650.00808472,0.00209917
651.93689209,0.00207093
653.86569946,0.00190897
655.79450684,0.00173959
657.72331421,0.00181747
659.65212158,0.00193779
661.58092896,0.00227502
663.50973633,0.00268448
665.43854370,0.00243976
667.36735107,0.00223459
669.29615845,0.00232725
671.22496582,0.00249214
673.15377319,0.00271898
675.08258057,0.00291492
677.01138794,0.00303014
678.94019531,0.00313265
680.86900269,0.00338355
682.79781006,0.00363240
684.72661743,0.00328058
686.65542480,0.00303368
688.58423218,0.00334290
690.51303955,0.00350768
692.44184692,0.00391784
694.37065430,0.00387494
696.29946167,0.00441191
698.22826904,0.00545622
700.15707642,0.00534935
702.08588379,0.00541001
704.01469116,0.00476729
705.94349854,0.00436797
707.87230591,0.00401061
709.80111328,0.00260243
711.72992065,0.00219526
713.65872803,0.00143418
715.58753540,0.00076598
717.51634277,0.00040739
719.44515015,-0.00009526
721.37395752,0.00017270
723.30276489,0.00027165
725.23157227,0.00028678
727.16037964,0.00017281
729.08918701,0.00007296
731.01799438,-0.00007945
732.94680176,0.00026570
734.87560913,0.00019546
736.80441650,-0.00025421
738.73322388,0.00038240
740.66203125,-0.00004267
742.59083862,-0.00015264
744.51964600,0.00007425
746.44845337,-0.00000208
748.37726074,0.00047354
750.30606812,0.00006259
752.23487549,0.00028475
754.16368286,0.00031537
756.09249023,0.00026005
758.02129761,0.00043975
759.95010498,-0.00000894
761.87891235,0.00038544
763.80771973,0.00017810
765.73652710,0.00031155
767.66533447,0.00062831
769.59414185,0.00032204
771.52294922,0.00061680
773.45175659,0.00019253
775.38056396,0.00028870
777.30937134,0.00056849
779.23817871,0.00036954
781.16698608,0.00039042
783.09579346,0.00038079
785.02460083,0.00052430
786.95340820,0.00021015
788.88221558,0.00014827
790.81102295,0.00035799
792.73983032,0.00049755
794.66863770,0.00050479
796.59744507,0.00066049
798.52625244,0.00106951
800.45505981,0.00095774
802.38386719,0.00103019
804.31267456,0.00066082
806.24148193,0.00053815
808.17028931,0.00085957
810.09909668,0.00045501
812.02790405,0.00030632
813.95671143,0.00034368
815.88551880,0.00063881
817.81432617,0.00044815
819.74313354,0.00025464
821.67194092,0.00082599
823.60074829,0.00071942
825.52955566,0.00063195
827.45836304,0.00074716
829.38717041,0.00100290
831.31597778,0.00145684
833.24478516,0.00150983
835.17359253,0.00177978
837.10239990,0.00186447
839.03120728,0.00144430
840.96001465,0.00161205
842.88882202,0.00179450
844.81762939,0.00142333
846.74643677,0.00160754
848.67524414,0.00150151
850.60405151,0.00115207
852.53285889,0.00123255
854.46166626,0.00083885
856.39047363,0.00077485
858.31928101,0.00103249
860.24808838,0.00091098
862.17689575,0.00062417
864.10570313,0.00060290
866.03451050,0.00053245
867.96331787,0.00029443
869.89212524,0.00033310
871.82093262,0.00025943
873.74973999,0.00043971
875.67854736,0.00028707
877.60735474,0.00020847
879.53616211,0.00058556
881.46496948,0.00033050
883.39377686,0.00046651
885.32258423,0.00048424
887.25139160,0.00021653
889.18019897,0.00051705
891.10900635,0.00047887
893.03781372,0.00030912
894.96662109,0.00058040
896.89542847,0.00051344
898.82423584,0.00033957
900.75304321,0.00066499
902.68185059,0.00078522
904.61065796,0.00081145
906.53946533,0.00054421
908.46827271,0.00040734
910.39708008,0.00081820
912.32588745,0.00081996
914.25469482,0.00119857
916.18350220,0.00149919
918.11230957,0.00122813
920.04111694,0.00127657
921.96992432,0.00171971
923.89873169,0.00222517
925.82753906,0.00200202
927.75634644,0.00191311
929.68515381,0.00240356
931.61396118,0.00259790
933.54276855,0.00260880
935.47157593,0.00286090
937.40038330,0.00304938
939.32919067,0.00301293
941.25799805,0.00335969
943.18680542,0.00350337
945.11561279,0.00331325
947.04442017,0.00317888
948.97322754,0.00314665
950.90203491,0.00336090
952.83084229,0.00325319
954.75964966,0.00305329
956.68845703,0.00315677
958.61726440,0.00320560
960.54607178,0.00310492
962.47487915,0.00342984
964.40368652,0.00356797
966.33249390,0.00310185
968.26130127,0.00350266
970.19010864,0.00410377
972.11891602,0.00400325
974.04772339,0.00421914
975.97653076,0.00451161
977.90533813,0.00460124
979.83414551,0.00527710
981.76295288,0.00590219
983.69176025,0.00639312
985.62056763,0.00717937
987.54937500,0.00775896
989.47818237,0.00876808
991.40698975,0.00957564
993.33579712,0.01045483
995.26460449,0.01187571
997.19341187,0.01262397
999.12221924,0.01357390
1001.05102661,0.01466700
1002.97983398,0.01578588
1004.90864136,0.01680645
1006.83744873,0.01756492
1008.76625610,0.01902234
1010.69506348,0.02022379
1012.62387085,0.02111167
1014.55267822,0.02212982
1016.48148560,0.02313129
1018.41029297,0.02443664
1020.33910034,0.02562919
1022.26790771,0.02649454
1024.19671509,0.02740950
1026.12552246,0.02840133
1028.05432983,0.02940753
1029.98313721,0.03044722
1031.91194458,0.03106760
1033.84075195,0.03163309
1035.76955933,0.03217044
1037.69836670,0.03241231
1039.62717407,0.03257474
1041.55598145,0.03241138
1043.48478882,0.03220940
1045.41359619,0.03188161
1047.34240356,0.03149526
1049.27121094,0.03097643
1051.20001831,0.03034572
1053.12882568,0.02979354
1055.05763306,0.02905993
1056.98644043,0.02858908
1058.91524780,0.02783724
1060.84405518,0.02691587
1062.77286255,0.02615412
1064.70166992,0.02516980
1066.63047729,0.02429791
1068.55928467,0.02344424
1070.48809204,0.02238433
1072.41689941,0.02121005
1074.34570679,0.02036708
1076.27451416,0.01940097
1078.20332153,0.01841350
1080.13212891,0.01756874
1082.06093628,0.01661829
1083.98974365,0.01600432
1085.91855103,0.01508157
1087.84735840,0.01421045
1089.77616577,0.01355041
1091.70497314,0.01300068
1093.63378052,0.01259959
1095.56258789,0.01199578
1097.49139526,0.01177089
1099.42020264,0.01134528
1101.34901001,0.01097696
1103.27781738,0.01088435
1105.20662476,0.01069501
1107.13543213,0.01067073
1109.06423950,0.01030759
1110.99304687,0.00990818
1112.92185425,0.00989298
1114.85066162,0.00997734
1116.77946899,0.00986741
1118.70827637,0.00995956
1120.63708374,0.01001872
1122.56589111,0.00996526
1124.49469849,0.01013603
1126.42350586,0.01004156
1128.35231323,0.01039622
1130.28112061,0.01072758
1132.20992798,0.01088410
1134.13873535,0.01137833
1136.06754272,0.01164217
1137.99635010,0.01232274
1139.92515747,0.01313461
1141.85396484,0.01388711
1143.78277222,0.01482944
1145.71157959,0.01581000
1147.64038696,0.01673690
1149.56919434,0.01748117
1151.49800171,0.01855114
1153.42680908,0.01938637
1155.35561646,0.02003325
1157.28442383,0.02092640
1159.21323120,0.02172383
1161.14203857,0.02266213
1163.07084595,0.02354129
1164.99965332,0.02432776
1166.92846069,0.02514919
1168.85726807,0.02610091
1170.78607544,0.02715208
1172.71488281,0.02808755
1174.64369019,0.02900650
1176.57249756,0.02992226
1178.50130493,0.03114838
1180.43011230,0.03226096
1182.35891968,0.03352253
1184.28772705,0.03538416
1186.21653442,0.03667875
1188.14534180,0.03825776
1190.07414917,0.04029560
1192.00295654,0.04197146
1193.93176392,0.04400211
1195.86057129,0.04577265
1197.78937866,0.04776299
1199.71818604,0.05015519
1201.64699341,0.05192610
1203.57580078,0.05396341
1205.50460815,0.05625091
1207.43341553,0.05813479
1209.36222290,0.05997266
1211.29103027,0.06199079
1213.21983765,0.06364406
1215.14864502,0.06509919
1217.07745239,0.06660406
1219.00625977,0.06735475
1220.93506714,0.06817313
1222.86387451,0.06935933
1224.79268188,0.06998612
1226.72148926,0.07048108
1228.65029663,0.07088070
1230.57910400,0.07098517
1232.50791138,0.07120612
1234.43671875,0.07125249
1236.36552612,0.07114190
1238.29433350,0.07120568
1240.22314087,0.07091225
1242.15194824,0.07045881
1244.08075562,0.07020405
1246.00956299,0.06990387
1247.93837036,0.06935120
1249.86717773,0.06878515
1251.79598511,0.06845525
1253.72479248,0.06763168
1255.65359985,0.06676605
1257.58240723,0.06601866
1259.51121460,0.06471077
1261.44002197,0.06381162
1263.36882935,0.06318815
1265.29763672,0.06216871
1267.22644409,0.06140472
1269.15525146,0.06054595
1271.08405884,0.05944191
1273.01286621,0.05863553
1274.94167358,0.05754167
1276.87048096,0.05636331
1278.79928833,0.05526910
1280.72809570,0.05412936
1282.65690308,0.05327957
1284.58571045,0.05225062
1286.51451782,0.05115790
1288.44332520,0.05017279
1290.37213257,0.04955130
1292.30093994,0.04909685
1294.22974731,0.04863449
1296.15855469,0.04836304
1298.08736206,0.04809599
1300.01616943,0.04835333
1301.94497681,0.04848720
1303.87378418,0.04881636
1305.80259155,0.04932934
1307.73139893,0.04993213
1309.66020630,0.05115837
1311.58901367,0.05152338
1313.51782104,0.05248011
1315.44662842,0.05401165
1317.37543579,0.05473192
1319.30424316,0.05605489
1321.23305054,0.05812775
1323.16185791,0.06006575
1325.09066528,0.06150434
1327.01947266,0.06341034
1328.94828003,0.06502874
1330.87708740,0.06641369
1332.80589478,0.06814729
1334.73470215,0.06927572
1336.66350952,0.07001643
1338.59231689,0.06935430
1340.52112427,0.07009271
1342.44993164,0.07293940
1344.37873901,0.07323998
1346.30754639,0.07300745
1348.23635376,0.07308359
1350.16516113,0.07240992
1352.09396851,0.07239777
1354.02277588,0.07156387
1355.95158325,0.07076442
1357.88039062,0.07041471
1359.80919800,0.06929338
1361.73800537,0.06635475
1363.66681274,0.06505261
1365.59562012,0.06826709
1367.52442749,0.06710397
1369.45323486,0.06605776
1371.38204224,0.06720544
1373.31084961,0.06349581
1375.23965698,0.06403102
1377.16846436,0.06562282
1379.09727173,0.06503017
1381.02607910,0.06545746
1382.95488647,0.06502819
1384.88369385,0.06499349
1386.81250122,0.06223694
1388.74130859,0.06302030
1390.67011597,0.06795986
1392.59892334,0.06608748
1394.52773071,0.06225321
1396.45653809,0.06503364
1398.38534546,0.06495146
1400.31415283,0.06449764
1402.24296021,0.06945752
1404.17176758,0.06593856
1406.10057495,0.06610315
1408.02938232,0.06872711
1409.95818970,0.06608610
1411.88699707,0.06740344
1413.81580444,0.06515288
1415.74461182,0.06610191
1417.67341919,0.05989002
1419.60222656,0.05379520
1421.53103394,0.06159489
1423.45984131,0.05940096
1425.38864868,0.05768386
1427.31745605,0.05838413
1429.24626343,0.05400130
1431.17507080,0.05251632
1433.10387817,0.05303778
1435.03268555,0.04868974
1436.96149292,0.04124921
1438.89030029,0.04630192
1440.81910767,0.04762679
1442.74791504,0.04421527
1444.67672241,0.04611842
1446.60552979,0.04243506
1448.53433716,0.04303790
1450.46314453,0.04446651
1452.39195190,0.04533770
1454.32075928,0.04678880
1456.24956665,0.03897731
1458.17837402,0.04077118
1460.10718140,0.05381496
1462.03598877,0.05716765
1463.96479614,0.05673580
1465.89360352,0.05926253
1467.82241089,0.06711887
1469.75121826,0.07190992
1471.68002563,0.06446290
1473.60883301,0.06792274
1475.53764038,0.07707805
1477.46644775,0.08282697
1479.39525513,0.09071358
1481.32406250,0.09190117
1483.25286987,0.09751486
1485.18167725,0.10025337
1487.11048462,0.09909867
1489.03929199,0.09874149
1490.96809937,0.09915757
1492.89690674,0.11466986
1494.82571411,0.11174133
1496.75452148,0.10132102
1498.68332886,0.11394022
1500.61213623,0.11718985
1502.54094360,0.12520492
1504.46975098,0.11814621
1506.39855835,0.08777741
1508.32736572,0.10607170
1510.25617310,0.12322538
1512.18498047,0.11933259
1514.11378784,0.12850134
1516.04259521,0.11632796
1517.97140259,0.12099138
1519.90020996,0.11656916
1521.82901733,0.10159285
1523.75782471,0.12298743
1525.68663208,0.12066099
1527.61543945,0.12011856
1529.54424683,0.13197349
1531.47305420,0.12684983
1533.40186157,0.11612077
1535.33066895,0.12267070
1537.25947632,0.13029012
1539.18828369,0.09421949
1541.11709106,0.09884997
1543.04589844,0.11694933
1544.97470581,0.11215008
1546.90351318,0.13108543
1548.83232056,0.12233342
1550.76112793,0.12592685
1552.68993530,0.12420348
1554.61874268,0.11340368
1556.54755005,0.12032791
1558.47635742,0.08574770
1560.40516479,0.09231889
1562.33397217,0.12832564
1564.26277954,0.12109936
1566.19158691,0.12381361
1568.12039429,0.12191619
1570.04920166,0.10827287
1571.97800903,0.12363909
1573.90681641,0.12390398
1575.83562378,0.09859155
1577.76443115,0.11059085
1579.69323853,0.12348703
1581.62204590,0.11767241
1583.55085327,0.11958244
1585.47966064,0.11695029
1587.40846802,0.11704484
1589.33727539,0.11515247
1591.26608276,0.11427911
1593.19489014,0.11354854
1595.12369751,0.11120874
1597.05250488,0.11169703
1598.98131226,0.11005466
1600.91011963,0.10966092
1602.83892700,0.10674649
1604.76773437,0.10746257
1606.69654175,0.10503849
1608.62534912,0.10375994
1610.55415649,0.10253377
1612.48296387,0.10234528
1614.41177124,0.10273800
1616.34057861,0.08397572
1618.26938599,0.09041876
1620.19819336,0.10365652
1622.12700073,0.09181030
1624.05580811,0.09215131
1625.98461548,0.09612118
1627.91342285,0.09552182
1629.84223022,0.09515707
1631.77103760,0.10135126
1633.69984497,0.09377673
1635.62865234,0.07889824
1637.55745972,0.09157696
1639.48626709,0.10094637
1641.41507446,0.09945466
1643.34388184,0.10263857
1645.27268921,0.09391454
1647.20149658,0.08403654
1649.13030396,0.10480498
1651.05911133,0.09969225
1652.98791870,0.06634919
1654.91672607,0.09050623
1656.84553345,0.11347717
1658.77434082,0.11021531
1660.70314819,0.11447110
1662.63195557,0.10591144
1664.56076294,0.11253898
1666.48957031,0.12189271
1668.41837769,0.10825524
1670.34718506,0.10690417
1672.27599243,0.12204105
1674.20479980,0.11389464
1676.13360718,0.11106241
1678.06241455,0.12820214
1679.99122192,0.12528735
1681.92002930,0.12531680
1683.84883667,0.10359886
1685.77764404,0.10412679
1687.70645142,0.14201081
1689.63525879,0.12504275
1691.56406616,0.13836905
1693.49287354,0.14194566
1695.42168091,0.10580087
1697.35048828,0.13090022
1699.27929565,0.11633220
1701.20810303,0.10631770
1703.13691040,0.14413980
1705.06571777,0.13296023
1706.99452515,0.13535646
1708.92333252,0.14717181
1710.85213989,0.14238320
1712.78094727,0.14572920
1714.70975464,0.13628727
1716.63856201,0.12340120
1718.56736938,0.12203318
1720.49617676,0.14489125
1722.42498413,0.14992927
1724.35379150,0.14041144
1726.28259888,0.15274847
1728.21140625,0.14143525
1730.14021362,0.14353925
1732.06902100,0.13966006
1733.99782837,0.10814163
1735.92663574,0.13383704
1737.85544312,0.14740810
1739.78425049,0.13209018
1741.71305786,0.14379451
1743.64186523,0.14591415
1745.57067261,0.14624733
1747.49947998,0.14799701
1749.42828735,0.14184608
1751.35709473,0.13612041
1753.28590210,0.15035166
1755.21470947,0.15715954
1757.14351685,0.14407706
1759.07232422,0.15776764
1761.00113159,0.14872634
1762.92993896,0.14392312
1764.85874634,0.16387692
1766.78755371,0.14802769
1768.71636108,0.14983216
1770.64516846,0.14871648
1772.57397583,0.13406348
1774.50278320,0.14939311
1776.43159058,0.15724945
1778.36039795,0.15514393
1780.28920532,0.15338829
1782.21801270,0.15453614
1784.14682007,0.15419501
1786.07562744,0.15141481
1788.00443481,0.15895972
1789.93324219,0.15478241
1791.86204956,0.14084333
1793.79085693,0.14662509
1795.71966431,0.15687871
1797.64847168,0.15481086
1799.57727905,0.15256548
1801.50608643,0.15004936
1803.43489380,0.15436547
1805.36370117,0.15776403
1807.29250854,0.15575188
1809.22131592,0.15622327
1811.15012329,0.15216509
1813.07893066,0.15664309
1815.00773804,0.15731311
1816.93654541,0.15540376
1818.86535278,0.15660506
1820.79416016,0.15596062
1822.72296753,0.15805492
1824.65177490,0.14808767
1826.58058228,0.15320233
1828.50938965,0.15321513
1830.43819702,0.14422435
1832.36700439,0.15643343
1834.29581177,0.15519267
1836.22461914,0.15498458
1838.15342651,0.15432990
1840.08223389,0.15511684
1842.01104126,0.15499477
1843.93984863,0.13829610
1845.86865601,0.14709574
1847.79746338,0.15473759
1849.72627075,0.15148227
1851.65507812,0.15549372
1853.58388550,0.15251935
1855.51269287,0.15378493
1857.44150024,0.15283459
1859.37030762,0.15186390
1861.29911499,0.15270177
1863.22792236,0.15113732
1865.15672974,0.15239522
1867.08553711,0.14748916
1869.01434448,0.14163513
1870.94315186,0.14685765
1872.87195923,0.15202639
1874.80076660,0.14950156
1876.72957397,0.15028116
1878.65838135,0.14958189
1880.58718872,0.14887011
1882.51599609,0.14994448
1884.44480347,0.14733015
1886.37361084,0.14935029
1888.30241821,0.14596117
1890.23122559,0.14333145
1892.16003296,0.14813973
1894.08884033,0.14587528
1896.01764771,0.14542075
1897.94645508,0.14672193
1899.87526245,0.14588073
1901.80406982,0.14621606
1903.73287720,0.14510161
1905.66168457,0.14553379
1907.59049194,0.14422308
1909.51929932,0.14321704
1911.44810669,0.14384556
1913.37691406,0.14398906
1915.30572144,0.14492828
1917.23452881,0.13875507
1919.16333618,0.13902748
1921.09214355,0.14386162
1923.02095093,0.13925752
1924.94975830,0.14186825
1926.87856567,0.14305657
1928.80737305,0.14115378
1930.73618042,0.14288157
1932.66498779,0.14096120
1934.59379517,0.14200079
1936.52260254,0.14099532
1938.45140991,0.14126655
1940.38021729,0.14095497
1942.30902466,0.13662484
1944.23783203,0.13897237
1946.16663940,0.14001067
1948.09544678,0.13964391
1950.02425415,0.14016747
1951.95306152,0.13953805
1953.88186890,0.13940822
1955.81067627,0.13871372
1957.73948364,0.13901474
1959.66829102,0.13864967
1961.59709839,0.13836920
1963.52590576,0.13871068
1965.45471313,0.13767031
1967.38352051,0.13605784
1969.31232788,0.13696250
1971.24113525,0.13765338
1973.16994263,0.13670167
1975.09875000,0.13724892
1977.02755737,0.13635895
1978.95636475,0.13631810
1980.88517212,0.13622639
1982.81397949,0.13546242
1984.74278687,0.13583097
1986.67159424,0.13456830
1988.60040161,0.13459904
1990.52920898,0.13331673
1992.45801636,0.13179366
1994.38682373,0.13353409
1996.31563110,0.13361809
1998.24443848,0.13281341
2000.17324585,0.13279778
2002.10205322,0.13228613
2004.03086060,0.13184725
2005.95966797,0.13153413
2007.88847534,0.13099608
2009.81728271,0.13075016
2011.74609009,0.13024521
2013.67489746,0.13009441
2015.60370483,0.12928849
2017.53251221,0.12803666
2019.46131958,0.12865609
2021.39012695,0.12852554
2023.31893433,0.12802002
2025.24774170,0.12765118
2027.17654907,0.12721977
2029.10535645,0.12725878
2031.03416382,0.12654459
2032.96297119,0.12619400
2034.89177856,0.12573643
2036.82058594,0.12546271
2038.74939331,0.12513098
2040.67820068,0.12425824
2042.60700806,0.12424336
2044.53581543,0.12407162
2046.46462280,0.12358336
2048.39343018,0.12334385
2050.32223755,0.12300354
2052.25104492,0.12260613
2054.17985229,0.12234706
2056.10865967,0.12184678
2058.03746704,0.12164219
2059.96627441,0.12146724
2061.89508179,0.12108451
2063.82388916,0.12061702
2065.75269653,0.11984155
2067.68150391,0.12014177
2069.61031128,0.11986416
2071.53911865,0.11935098
2073.46792603,0.11937676
2075.39673340,0.11872587
2077.32554077,0.11868978
2079.25434814,0.11842211
2081.18315552,0.11802207
2083.11196289,0.11773490
2085.04077026,0.11754277
2086.96957764,0.11738960
2088.89838501,0.11677052
2090.82719238,0.11670868
2092.75599976,0.11648088
2094.68480713,0.11620387
2096.61361450,0.11606783
2098.54242187,0.11578486
2100.47122925,0.11549085
2102.40003662,0.11527298
2104.32884399,0.11516069
2106.25765137,0.11479121
2108.18645874,0.11452140
2110.11526611,0.11429527
2112.04407349,0.11434799
2113.97288086,0.11406010
2115.90168823,0.11369657
2117.83049561,0.11365676
2119.75930298,0.11342660
2121.68811035,0.11335093
2123.61691772,0.11297552
2125.54572510,0.11288322
2127.47453247,0.11285022
2129.40333984,0.11259951
2131.33214722,0.11237096
2133.26095459,0.11220992
2135.18976196,0.11209980
2137.11856934,0.11173296
2139.04737671,0.11188012
2140.97618408,0.11178820
2142.90499146,0.11158535
2144.83379883,0.11132763
2146.76260620,0.11108940
2148.69141357,0.11116932
2150.62022095,0.11085683
2152.54902832,0.11096513
2154.47783569,0.11081024
2156.40664307,0.11064716
2158.33545044,0.11058488
2160.26425781,0.11029992
2162.19306519,0.11032633
2164.12187256,0.11016986
2166.05067993,0.11012796
2167.97948730,0.10992195
2169.90829468,0.10981292
2171.83710205,0.10968351
2173.76590942,0.10960810
2175.69471680,0.10959972
2177.62352417,0.10946050
2179.55233154,0.10949007
2181.48113892,0.10911959
2183.40994629,0.10919387
2185.33875366,0.10906497
2187.26756104,0.10883099
2189.19636841,0.10894318
2191.12517578,0.10875303
2193.05398315,0.10869921
2194.98279053,0.10849190
2196.91159790,0.10848637
2198.84040527,0.10821693
2200.76921265,0.10816891
2202.69802002,0.10824859
2204.62682739,0.10791386
2206.55563477,0.10794835
2208.48444214,0.10779473
2210.41324951,0.10782142
2212.34205688,0.10772225
2214.27086426,0.10751765
2216.19967163,0.10742427
2218.12847900,0.10731336
2220.05728638,0.10715675
2221.98609375,0.10692636
2223.91490112,0.10705741
2225.84370850,0.10671547
2227.77251587,0.10666692
2229.70132324,0.10670273
2231.63013062,0.10642806
2233.55893799,0.10634392
2235.48774536,0.10608378
2237.41655273,0.10603814
2239.34536011,0.10580690
2241.27416748,0.10586024
2243.20297485,0.10579085
2245.13178223,0.10541456
2247.06058960,0.10533550
2248.98939697,0.10529499
2250.91820435,0.10528494
2252.84701172,0.10492004
2254.77581909,0.10485319
2256.70462646,0.10472318
2258.63343384,0.10448926
2260.56224121,0.10431729
2262.49104858,0.10404758
2264.41985596,0.10413459
2266.34866333,0.10406908
2268.27747070,0.10396934
2270.20627808,0.10365164
2272.13508545,0.10360754
2274.06389282,0.10367454
2275.99270020,0.10352202
2277.92150757,0.10363424
2279.85031494,0.10339960
2281.77912231,0.10322441
2283.70792969,0.10312743
2285.63673706,0.10293624
2287.56554443,0.10270023
2289.49435181,0.10253726
2291.42315918,0.10236163
2293.35196655,0.10200609
2295.28077393,0.10175443
2297.20958130,0.10135658
2299.13838867,0.10103130
2301.06719604,0.10061882
2302.99600342,0.10033694
2304.92481079,0.09987190
2306.85361816,0.09899978
2308.78242554,0.09830830
2310.71123291,0.09748696
2312.64004028,0.09661219
2314.56884766,0.09560208
2316.49765503,0.09452119
2318.42646240,0.09306380
2320.35526978,0.09179544
2322.28407715,0.09065804
2324.21288452,0.08926183
2326.14169189,0.08851242
2328.07049927,0.08737434
2329.99930664,0.08606685
2331.92811401,0.08545065
2333.85692139,0.08524802
2335.78572876,0.08471557
2337.71453613,0.08444688
2339.64334351,0.08458262
2341.57215088,0.08473492
2343.50095825,0.08623454
2345.42976562,0.08779293
2347.35857300,0.09154729
2349.28738037,0.09466742
2351.21618774,0.09117761
2353.14499512,0.08655717
2355.07380249,0.08316365
2357.00260986,0.08044851
2358.93141724,0.07896143
2360.86022461,0.07804930
2362.78903198,0.07808383
2364.71783936,0.07842186
2366.64664673,0.07951847
2368.57545410,0.08112744
2370.50426147,0.08326800
2372.43306885,0.08570386
2374.36187622,0.08801341
2376.29068359,0.09055324
2378.21949097,0.09252711
2380.14829834,0.09413008
2382.07710571,0.09524717
2384.00591309,0.09590178
2385.93472046,0.09618965
2387.86352783,0.09616788
2389.79233521,0.09616907
2391.72114258,0.09603013
2393.64994995,0.09592335
2395.57875732,0.09575161
2397.50756470,0.09568176
2399.43637207,0.09550926
2401.36517944,0.09534165
2403.29398682,0.09530623
2405.22279419,0.09512754
2407.15160156,0.09496763
2409.08040894,0.09477077
2411.00921631,0.09473045
2412.93802368,0.09455980
2414.86683105,0.09434921
2416.79563843,0.09427734
2418.72444580,0.09414808
2420.65325317,0.09405181
2422.58206055,0.09389438
2424.51086792,0.09377719
2426.43967529,0.09359615
2428.36848267,0.09347427
2430.29729004,0.09338844
2432.22609741,0.09311614
2434.15490479,0.09295893
2436.08371216,0.09294610
2438.01251953,0.09277944
2439.94132690,0.09265240
2441.87013428,0.09255703
2443.79894165,0.09230632
2445.72774902,0.09222464
2447.65655640,0.09204881
2449.58536377,0.09193246
2451.51417114,0.09188344
2453.44297852,0.09166396
2455.37178589,0.09151758
2457.30059326,0.09132915
2459.22940063,0.09132741
2461.15820801,0.09119122
2463.08701538,0.09090447
2465.01582275,0.09072028
2466.94463013,0.09057516
2468.87343750,0.09050034
2470.80224487,0.09034635
2472.73105225,0.09028354
2474.65985962,0.09012504
2476.58866699,0.09004843
2478.51747437,0.08997105
2480.44628174,0.08977754
2482.37508911,0.08963175
2484.30389648,0.08934838
2486.23270386,0.08919126
2488.16151123,0.08905935
2490.09031860,0.08894619
2492.01912598,0.08889851
2493.94793335,0.08882551
2495.87674072,0.08854978
2497.80554810,0.08843141
2499.73435547,0.08840954
2501.66316284,0.08809632
2503.59197021,0.08815731
2505.52077759,0.08799606
2507.44958496,0.08776824
2509.37839233,0.08764787
2511.30719971,0.08736928
2513.23600708,0.08736406
2515.16481445,0.08714677
2517.09362183,0.08710057
2519.02242920,0.08703534
2520.95123657,0.08677885
2522.88004395,0.08659446
2524.80885132,0.08644663
2526.73765869,0.08633799
2528.66646606,0.08610599
2530.59527344,0.08611450
2532.52408081,0.08592766
2534.45288818,0.08590015
2536.38169556,0.08582269
2538.31050293,0.08546072
2540.23931030,0.08545664
2542.16811768,0.08528373
2544.09692505,0.08526129
2546.02573242,0.08509313
2547.95453979,0.08477049
2549.88334717,0.08464930
2551.81215454,0.08448090
2553.74096191,0.08439346
2555.66976929,0.08426736
2557.59857666,0.08419216
2559.52738403,0.08395475
2561.45619141,0.08384942
2563.38499878,0.08372424
2565.31380615,0.08345746
2567.24261353,0.08336437
2569.17142090,0.08319511
2571.10022827,0.08309992
2573.02903564,0.08295980
2574.95784302,0.08286603
2576.88665039,0.08260518
2578.81545776,0.08240809
2580.74426514,0.08239573
2582.67307251,0.08216761
2584.60187988,0.08200374
2586.53068726,0.08182214
2588.45949463,0.08183522
2590.38830200,0.08166350
2592.31710937,0.08139327
2594.24591675,0.08130038
2596.17472412,0.08116144
2598.10353149,0.08112512
2600.03233887,0.08090942
2601.96114624,0.08088598
2603.88995361,0.08064900
2605.81876099,0.08028284
2607.74756836,0.08030921
2609.67637573,0.08017558
2611.60518311,0.08004978
2613.53399048,0.07981965
2615.46279785,0.07957934
2617.39160522,0.07947066
2619.32041260,0.07939559
2621.24921997,0.07925820
2623.17802734,0.07892549
2625.10683472,0.07882757
2627.03564209,0.07880676
2628.96444946,0.07860269
2630.89325684,0.07844147
2632.82206421,0.07828887
2634.75087158,0.07810336
2636.67967895,0.07798825
2638.60848633,0.07770260
2640.53729370,0.07752185
2642.46610107,0.07752394
2644.39490845,0.07731216
2646.32371582,0.07721341
2648.25252319,0.07704200
2650.18133057,0.07683666
2652.11013794,0.07675818
2654.03894531,0.07662030
2655.96775269,0.07639553
2657.89656006,0.07613799
2659.82536743,0.07606871
2661.75417480,0.07591079
2663.68298218,0.07587123
2665.61178955,0.07571326
2667.54059692,0.07540682
2669.46940430,0.07541540
2671.39821167,0.07506523
2673.32701904,0.07478026
2675.25582642,0.07482336
2677.18463379,0.07465592
2679.11344116,0.07449485
2681.04224854,0.07432280
2682.97105591,0.07410058
2684.89986328,0.07396264
2686.82867065,0.07388263
2688.75747803,0.07371094
2690.68628540,0.07341927
2692.61509277,0.07340014
2694.54390015,0.07335416
2696.47270752,0.07286870
2698.40151489,0.07270886
2700.33032227,0.07261594
2702.25912964,0.07239383
2704.18793701,0.07238833
2706.11674438,0.07221036
2708.04555176,0.07206017
2709.97435913,0.07179812
2711.90316650,0.07173311
2713.83197388,0.07163239
2715.76078125,0.07119656
2717.68958862,0.07115258
2719.61839600,0.07096517
2721.54720337,0.07081284
2723.47601074,0.07062896
2725.40481812,0.07035075
2727.33362549,0.07035040
2729.26243286,0.07013021
2731.19124023,0.06998946
2733.12004761,0.06977588
2735.04885498,0.06946427
2736.97766235,0.06936036
2738.90646973,0.06927758
2740.83527710,0.06907713
2742.76408447,0.06884892
2744.69289185,0.06870854
2746.62169922,0.06853412
2748.55050659,0.06845358
2750.47931396,0.06807461
2752.40812134,0.06776334
2754.33692871,0.06778120
2756.26573608,0.06760606
2758.19454346,0.06746761
2760.12335083,0.06721589
2762.05215820,0.06698547
2763.98096558,0.06683698
2765.90977295,0.06657971
2767.83858032,0.06636424
2769.76738770,0.06626597
2771.69619507,0.06616215
2773.62500244,0.06587621
2775.55380981,0.06565915
2777.48261719,0.06547916
2779.41142456,0.06525955
2781.34023193,0.06494609
2783.26903931,0.06477371
2785.19784668,0.06471901
2787.12665405,0.06444070
2789.05546143,0.06425177
2790.98426880,0.06402753
2792.91307617,0.06384975
2794.84188354,0.06367396
2796.77069092,0.06338681
2798.69949829,0.06322987
2800.62830566,0.06300594
2802.55711304,0.06282322
2804.48592041,0.06264378
2806.41472778,0.06239120
2808.34353516,0.06217122
2810.27234253,0.06196777
2812.20114990,0.06179748
2814.12995728,0.06161210
2816.05876465,0.06132115
2817.98757202,0.06113307
2819.91637939,0.06100722
2821.84518677,0.06064984
2823.77399414,0.06047202
2825.70280151,0.06028280
2827.63160889,0.06004794
2829.56041626,0.05993512
2831.48922363,0.05962810
2833.41803101,0.05939434
2835.34683838,0.05917248
2837.27564575,0.05893842
2839.20445312,0.05862166
2841.13326050,0.05833880
2843.06206787,0.05808259
2844.99087524,0.05768643
2846.91968262,0.05739505
2848.84848999,0.05681669
2850.77729736,0.05646377
2852.70610474,0.05642539
2854.63491211,0.05619374
2856.56371948,0.05609094
2858.49252686,0.05591327
2860.42133423,0.05572167
2862.35014160,0.05557512
2864.27894897,0.05532794
2866.20775635,0.05512249
2868.13656372,0.05495227
2870.06537109,0.05456134
2871.99417847,0.05430884
2873.92298584,0.05428673
2875.85179321,0.05394286
2877.78060059,0.05380997
2879.70940796,0.05375123
2881.63821533,0.05350604
2883.56702270,0.05332117
2885.49583008,0.05299141
2887.42463745,0.05275344
2889.35344482,0.05254741
2891.28225220,0.05236436
2893.21105957,0.05213462
2895.13986694,0.05184758
2897.06867432,0.05168661
2898.99748169,0.05137331
2900.92628906,0.05102800
2902.85509644,0.05075357
2904.78390381,0.05053121
2906.71271118,0.05032862
2908.64151855,0.04992345
2910.57032593,0.04952202
2912.49913330,0.04918803
2914.42794067,0.04868797
2916.35674805,0.04837482
2918.28555542,0.04824037
2920.21436279,0.04797547
2922.14317017,0.04775108
2924.07197754,0.04754076
2926.00078491,0.04733733
2927.92959229,0.04704637
2929.85839966,0.04688211
2931.78720703,0.04679820
2933.71601440,0.04661547
2935.64482178,0.04655445
2937.57362915,0.04629595
2939.50243652,0.04616392
2941.43124390,0.04604619
2943.36005127,0.04573321
2945.28885864,0.04551660
2947.21766602,0.04521359
2949.14647339,0.04507303
2951.07528076,0.04481766
2953.00408813,0.04450112
2954.93289551,0.04430880
2956.86170288,0.04408357
2958.79051025,0.04382032
2960.71931763,0.04340027
2962.64812500,0.04323470
2964.57693237,0.04304402
2966.50573975,0.04269502
2968.43454712,0.04254876
2970.36335449,0.04251123
2972.29216187,0.04227800
2974.22096924,0.04202703
2976.14977661,0.04203055
2978.07858398,0.04177147
2980.00739136,0.04166517
2981.93619873,0.04151029
2983.86500610,0.04106053
2985.79381348,0.04097369
2987.72262085,0.04081534
2989.65142822,0.04064505
2991.58023560,0.04037899
2993.50904297,0.03998573
2995.43785034,0.03983181
2997.36665771,0.03964021
2999.29546509,0.03942309
3001.22427246,0.03913615
3003.15307983,0.03883921
3005.08188721,0.03866574
3007.01069458,0.03838817
3008.93950195,0.03808530
3010.86830933,0.03786712
3012.79711670,0.03747793
3014.72592407,0.03720527
3016.65473145,0.03710559
3018.58353882,0.03684556
3020.51234619,0.03662681
3022.44115356,0.03634020
3024.36996094,0.03601091
3026.29876831,0.03576155
3028.22757568,0.03555125
3030.15638306,0.03525180
3032.08519043,0.03498418
3034.01399780,0.03481156
3035.94280518,0.03447700
3037.87161255,0.03430498
3039.80041992,0.03397086
3041.72922729,0.03369638
3043.65803467,0.03360879
3045.58684204,0.03328969
3047.51564941,0.03307555
3049.44445679,0.03266123
3051.37326416,0.03254286
3053.30207153,0.03237328
3055.23087891,0.03189876
3057.15968628,0.03188514
3059.08849365,0.03161334
3061.01730103,0.03132360
3062.94610840,0.03110587
3064.87491577,0.03076271
3066.80372314,0.03055029
3068.73253052,0.03034437
3070.66133789,0.03020239
3072.59014526,0.02987267
3074.51895264,0.02961417
3076.44776001,0.02949277
3078.37656738,0.02922035
3080.30537476,0.02891953
3082.23418213,0.02878275
3084.16298950,0.02863452
3086.09179687,0.02829722
3088.02060425,0.02816240
3089.94941162,0.02800047
3091.87821899,0.02766953
3093.80702637,0.02740845
3095.73583374,0.02719742
3097.66464111,0.02697500
3099.59344849,0.02665690
3101.52225586,0.02643626
3103.45106323,0.02635119
3105.37987061,0.02618328
3107.30867798,0.02592134
3109.23748535,0.02571614
3111.16629272,0.02551681
3113.09510010,0.02535113
3115.02390747,0.02505177
3116.95271484,0.02475208
3118.88152222,0.02467251
3120.81032959,0.02440209
3122.73913696,0.02422287
3124.66794434,0.02408653
3126.59675171,0.02390327
3128.52555908,0.02373765
3130.45436645,0.02345485
3132.38317383,0.02334311
3134.31198120,0.02311822
3136.24078857,0.02299437
3138.16959595,0.02288953
3140.09840332,0.02259314
3142.02721069,0.02248578
3143.95601807,0.02229938
3145.88482544,0.02212648
3147.81363281,0.02199234
3149.74244019,0.02177671
3151.67124756,0.02157651
3153.60005493,0.02144881
3155.52886230,0.02134955
3157.45766968,0.02126125
3159.38647705,0.02113442
3161.31528442,0.02083476
3163.24409180,0.02070644
3165.17289917,0.02070389
3167.10170654,0.02061613
3169.03051392,0.02034517
3170.95932129,0.02018184
3172.88812866,0.02024008
3174.81693604,0.02001950
3176.74574341,0.01989138
3178.67455078,0.01979423
3180.60335815,0.01956249
3182.53216553,0.01952587
3184.46097290,0.01949079
3186.38978027,0.01939687
3188.31858765,0.01933634
3190.24739502,0.01915586
3192.17620239,0.01898032
3194.10500977,0.01905734
3196.03381714,0.01895371
3197.96262451,0.01885448
3199.89143188,0.01888887
3201.82023926,0.01877411
3203.74904663,0.01873817
3205.67785400,0.01867612
3207.60666138,0.01859615
3209.53546875,0.01849372
3211.46427612,0.01843487
3213.39308350,0.01834056
3215.32189087,0.01833999
3217.25069824,0.01837879
3219.17950562,0.01817961
3221.10831299,0.01825923
3223.03712036,0.01818778
3224.96592773,0.01808845
3226.89473511,0.01821955
3228.82354248,0.01811544
3230.75234985,0.01811161
3232.68115723,0.01810728
3234.60996460,0.01800987
3236.53877197,0.01804374
3238.46757935,0.01812170
3240.39638672,0.01799528
3242.32519409,0.01802125
3244.25400146,0.01803997
3246.18280884,0.01796109
3248.11161621,0.01812732
3250.04042358,0.01798251
3251.96923096,0.01803679
3253.89803833,0.01806688
3255.82684570,0.01793295
3257.75565308,0.01807505
3259.68446045,0.01801351
3261.61326782,0.01818424
3263.54207520,0.01817015
3265.47088257,0.01802160
3267.39968994,0.01815256
3269.32849731,0.01809484
3271.25730469,0.01808712
3273.18611206,0.01812170
3275.11491943,0.01814156
3277.04372681,0.01821827
3278.97253418,0.01826468
3280.90134155,0.01821022
3282.83014893,0.01824436
3284.75895630,0.01825907
3286.68776367,0.01824774
3288.61657104,0.01832712
3290.54537842,0.01822642
3292.47418579,0.01819114
3294.40299316,0.01825893
3296.33180054,0.01829550
3298.26060791,0.01823800
3300.18941528,0.01830303
3302.11822266,0.01830786
3304.04703003,0.01821998
3305.97583740,0.01839974
3307.90464478,0.01829160
3309.83345215,0.01826795
3311.76225952,0.01834133
3313.69106689,0.01830778
3315.61987427,0.01837222
3317.54868164,0.01835296
3319.47748901,0.01849519
3321.40629639,0.01848280
3323.33510376,0.01842367
3325.26391113,0.01837924
3327.19271851,0.01838890
3329.12152588,0.01852937
3331.05033325,0.01842745
3332.97914062,0.01847323
3334.90794800,0.01858602
3336.83675537,0.01849905
3338.76556274,0.01846363
3340.69437012,0.01855632
3342.62317749,0.01859692
3344.55198486,0.01869806
3346.48079224,0.01867919
3348.40959961,0.01855681
3350.33840698,0.01864599
3352.26721436,0.01870631
3354.19602173,0.01881032
3356.12482910,0.01873465
3358.05363647,0.01876337
3359.98244385,0.01873781
3361.91125122,0.01867504
3363.84005859,0.01894398
3365.76886597,0.01888514
3367.69767334,0.01892653
3369.62648071,0.01892680
3371.55528809,0.01909712
3373.48409546,0.01922334
3375.41290283,0.01902235
3377.34171020,0.01922382
3379.27051758,0.01912098
3381.19932495,0.01923275
3383.12813232,0.01937114
3385.05693970,0.01927515
3386.98574707,0.01949732
3388.91455444,0.01947766
3390.84336182,0.01944299
3392.77216919,0.01955512
3394.70097656,0.01960859
3396.62978394,0.01958823
3398.55859131,0.01980287
3400.48739868,0.01985924
3402.41620605,0.01991293
3404.34501343,0.02008426
3406.27382080,0.02003760
3408.20262817,0.02020998
3410.13143555,0.02024495
3412.06024292,0.02040859
3413.98905029,0.02038858
3415.91785767,0.02045662
3417.84666504,0.02079198
3419.77547241,0.02066338
3421.70427979,0.02075185
3423.63308716,0.02086024
3425.56189453,0.02101573
3427.49070190,0.02106621
3429.41950928,0.02116994
3431.34831665,0.02122056
3433.27712402,0.02114238
3435.20593140,0.02142215
3437.13473877,0.02138757
3439.06354614,0.02161106
3440.99235352,0.02164997
3442.92116089,0.02176424
3444.84996826,0.02200433
3446.77877563,0.02173785
3448.70758301,0.02210476
3450.63639038,0.02231394
3452.56519775,0.02233930
3454.49400513,0.02255339
3456.42281250,0.02259169
3458.35161987,0.02254429
3460.28042725,0.02267077
3462.20923462,0.02281597
3464.13804199,0.02279655
3466.06684937,0.02302138
3467.99565674,0.02303127
3469.92446411,0.02327774
3471.85327148,0.02341568
3473.78207886,0.02342533
3475.71088623,0.02358896
3477.63969360,0.02360150
3479.56850098,0.02376237
3481.49730835,0.02360809
3483.42611572,0.02392649
3485.35492310,0.02409071
3487.28373047,0.02404511
3489.21253784,0.02424430
3491.14134521,0.02438676
3493.07015259,0.02477504
3494.99895996,0.02461969
3496.92776733,0.02478810
3498.85657471,0.02494437
3500.78538208,0.02497302
3502.71418945,0.02487757
3504.64299683,0.02488994
3506.57180420,0.02559793
3508.50061157,0.02534978
3510.42941895,0.02545178
3512.35822632,0.02577591
3514.28703369,0.02591102
3516.21584106,0.02617794
3518.14464844,0.02609786
3520.07345581,0.02642238
3522.00226318,0.02623848
3523.93107056,0.02615014
3525.85987793,0.02636449
3527.78868530,0.02647809
3529.71749268,0.02664745
3531.64630005,0.02696154
3533.57510742,0.02734876
3535.50391479,0.02710836
3537.43272217,0.02728819
3539.36152954,0.02768444
3541.29033691,0.02778660
3543.21914429,0.02773421
3545.14795166,0.02726559
3547.07675903,0.02701315
3549.00556641,0.02800624
3550.93437378,0.02835066
3552.86318115,0.02769660
3554.79198853,0.02858102
3556.72079590,0.02880285
3558.64960327,0.02872054
3560.57841064,0.02873164
3562.50721802,0.02861385
3564.43602539,0.02911491
3566.36483276,0.02738102
3568.29364014,0.02694804
3570.22244751,0.02908091
3572.15125488,0.02975409
3574.08006226,0.02965834
3576.00886963,0.02988675
3577.93767700,0.02988258
3579.86648437,0.02996286
3581.79529175,0.03028407
3583.72409912,0.03040686
3585.65290649,0.02987274
3587.58171387,0.02777909
3589.51052124,0.02860625
3591.43932861,0.03117261
3593.36813599,0.03040408
3595.29694336,0.02999351
3597.22575073,0.03065677
3599.15455811,0.03099784
3601.08336548,0.03082746
3603.01217285,0.03117217
3604.94098022,0.03193150
3606.86978760,0.03102065
3608.79859497,0.02933175
3610.72740234,0.03016005
3612.65620972,0.03098934
3614.58501709,0.03011891
3616.51382446,0.03236287
3618.44263184,0.03015368
3620.37143921,0.02922239
3622.30024658,0.03308528
3624.22905395,0.03228875
3626.15786133,0.03381597
3628.08666870,0.02912796
3630.01547607,0.02675506
3631.94428345,0.03338872
3633.87309082,0.03270033
3635.80189819,0.03331178
3637.73070557,0.03411170
3639.65951294,0.03388348
3641.58832031,0.03434416
3643.51712769,0.03405909
3645.44593506,0.03465300
3647.37474243,0.03150049
3649.30354980,0.02913811
3651.23235718,0.02954030
3653.16116455,0.03502731
3655.08997192,0.03472458
3657.01877930,0.03137456
3658.94758667,0.03619359
3660.87639404,0.03551362
3662.80520142,0.03618842
3664.73400879,0.03638181
3666.66281616,0.03614869
3668.59162354,0.03546868
3670.52043091,0.02938919
3672.44923828,0.03528308
3674.37804565,0.03397363
3676.30685303,0.02848410
3678.23566040,0.03557892
3680.16446777,0.03658783
3682.09327515,0.03663265
3684.02208252,0.03781874
3685.95088989,0.03739547
3687.87969727,0.03390799
3689.80850464,0.03132350
3691.73731201,0.03560711
3693.66611938,0.03661476
3695.59492676,0.03749608
3697.52373413,0.03757812
3699.45254150,0.03723327
3701.38134888,0.03643339
3703.31015625,0.03519421
3705.23896362,0.03855640
3707.16777100,0.03677765
3709.09657837,0.03597981
3711.02538574,0.03401802
3712.95419312,0.03200160
3714.88300049,0.03721285
3716.81180786,0.03661285
3718.74061523,0.03693673
3720.66942261,0.03622141
3722.59822998,0.03495062
3724.52703735,0.03616080
3726.45584473,0.03374778
3728.38465210,0.03648530
3730.31345947,0.03597438
3732.24226685,0.03324496
3734.17107422,0.03257804
3736.09988159,0.03096197
3738.02868896,0.03255305
3739.95749634,0.03512240
3741.88630371,0.03681588
3743.81511108,0.02895469
3745.74391846,0.02737537
3747.67272583,0.03494529
3749.60153320,0.03021920
3751.53034058,0.02802520
3753.45914795,0.03188045
3755.38795532,0.03413428
3757.31676270,0.03546688
3759.24557007,0.03293006
3761.17437744,0.03404655
3763.10318481,0.03600015
3765.03199219,0.03369250
3766.96079956,0.03435338
3768.88960693,0.03398495
3770.81841431,0.03252732
3772.74722168,0.03488917
3774.67602905,0.03493728
3776.60483643,0.03500701
3778.53364380,0.03400194
3780.46245117,0.03274273
3782.39125854,0.03482816
3784.32006592,0.03402712
3786.24887329,0.03382625
3788.17768066,0.03448485
3790.10648804,0.03422364
3792.03529541,0.03400782
3793.96410278,0.03446558
3795.89291016,0.03251503
3797.82171753,0.03219543
3799.75052490,0.03371719
3801.67933228,0.02710680
3803.60813965,0.03137622
3805.53694702,0.03386005
3807.46575439,0.02804209
3809.39456177,0.03353440
3811.32336914,0.03290364
3813.25217651,0.03383656
3815.18098389,0.03070445
3817.10979126,0.02727689
3819.03859863,0.03379923
3820.96740601,0.02775089
3822.89621338,0.02911280
3824.82502075,0.03341980
3826.75382812,0.03045246
3828.68263550,0.03266045
3830.61144287,0.03132291
3832.54025024,0.03040332
3834.46905762,0.03106842
3836.39786499,0.02954333
3838.32667236,0.02680349
3840.25547974,0.02893819
3842.18428711,0.03105590
3844.11309448,0.02962450
3846.04190186,0.03190823
3847.97070923,0.03143239
3849.89951660,0.03148657
3851.82832397,0.02846079
3853.75713135,0.02164355
3855.68593872,0.02535910
3857.61474609,0.03140224
3859.54355347,0.03057804
3861.47236084,0.03021253
3863.40116821,0.02958008
3865.32997559,0.02754412
3867.25878296,0.03057961
3869.18759033,0.02816955
3871.11639770,0.02617036
3873.04520508,0.03061022
3874.97401245,0.02824128
3876.90281982,0.03029699
3878.83162720,0.03085402
3880.76043457,0.02682220
3882.68924194,0.03042140
3884.61804932,0.02859503
3886.54685669,0.02641798
3888.47566406,0.03031307
3890.40447144,0.02884762
3892.33327881,0.02709598
3894.26208618,0.02943928
3896.19089355,0.03003177
3898.11970093,0.02862538
3900.04850830,0.02717496
3901.97731567,0.02688102
3903.90612305,0.02661378
3905.83493042,0.02696621
3907.76373779,0.02936558
3909.69254517,0.02930991
3911.62135254,0.02887455
3913.55015991,0.02939095
3915.47896728,0.02849649
3917.40777466,0.02773256
3919.33658203,0.02753821
3921.26538940,0.02854836
3923.19419678,0.02834329
3925.12300415,0.02775184
3927.05181152,0.02829519
3928.98061890,0.02842413
3930.90942627,0.02784983
3932.83823364,0.02700854
3934.76704102,0.02798419
3936.69584839,0.02831514
3938.62465576,0.02807288
3940.55346313,0.02817319
3942.48227051,0.02716821
3944.41107788,0.02739581
3946.33988525,0.02779578
3948.26869263,0.02722316
3950.19750000,0.02720622
3952.12630737,0.02757728
3954.05511475,0.02761849
3955.98392212,0.02747711
3957.91272949,0.02731738
3959.84153687,0.02732150
3961.77034424,0.02716140
3963.69915161,0.02693627
3965.62795898,0.02720570
3967.55676636,0.02703858
3969.48557373,0.02695040
3971.41438110,0.02690998
3973.34318848,0.02676782
3975.27199585,0.02667097
3977.20080322,0.02659190
3979.12961060,0.02677521
3981.05841797,0.02653245
3982.98722534,0.02663485
3984.91603271,0.02652232
3986.84484009,0.02642250
3988.77364746,0.02636845
3990.70245483,0.02608912
3992.63126221,0.02629567
3994.56006958,0.02608664
3996.48887695,0.02626595
3998.41768433,0.02611496
4000.34649170,0.02595398
4002.27529907,0.02602388
4004.20410645,0.02573448
4006.13291382,0.02588476
4008.06172119,0.02558848
4009.99052856,0.02573284
4011.91933594,0.02576262
4013.84814331,0.02557633
4015.77695068,0.02559995
4017.70575806,0.02542591
4019.63456543,0.02545058
4021.56337280,0.02519414
4023.49218018,0.02532211
4025.42098755,0.02513734
4027.34979492,0.02510946
4029.27860229,0.02525356
4031.20740967,0.02495890
4033.13621704,0.02497574
4035.06502441,0.02483809
4036.99383179,0.02489236
4038.92263916,0.02469995
4040.85144653,0.02475957
4042.78025391,0.02475099
4044.70906128,0.02446272
4046.63786865,0.02458991
4048.56667603,0.02442732
4050.49548340,0.02448875
4052.42429077,0.02436527
4054.35309814,0.02433537
4056.28190552,0.02438630
4058.21071289,0.02422416
4060.13952026,0.02415593
4062.06832764,0.02405458
4063.99713501,0.02405873
4065.92594238,0.02382146
4067.85474976,0.02396410
4069.78355713,0.02389445
4071.71236450,0.02372898
4073.64117187,0.02375963
4075.56997925,0.02360000
4077.49878662,0.02372408
4079.42759399,0.02354734
4081.35640137,0.02348033
4083.28520874,0.02339890
4085.21401611,0.02334270
4087.14282349,0.02333783
4089.07163086,0.02324770
4091.00043823,0.02331713
4092.92924561,0.02307458
4094.85805298,0.02313498
4096.78686035,0.02313083
4098.71566772,0.02294454
4100.64447510,0.02281072
4102.57328247,0.02282294
4104.50208984,0.02286693
4106.43089722,0.02259171
4108.35970459,0.02272774
4110.28851196,0.02273103
4112.21731934,0.02259692
4114.14612671,0.02252479
4116.07493408,0.02243726
4118.00374145,0.02245123
4119.93254883,0.02233160
4121.86135620,0.02231667
4123.79016357,0.02222179
4125.71897095,0.02220188
4127.64777832,0.02215252
4129.57658569,0.02208031
4131.50539307,0.02205404
4133.43420044,0.02198379
4135.36300781,0.02196780
4137.29181519,0.02188998
4139.22062256,0.02185580
4141.14942993,0.02175747
4143.07823730,0.02173512
4145.00704468,0.02165691
4146.93585205,0.02167797
4148.86465942,0.02165082
4150.79346680,0.02151383
4152.72227417,0.02147846
4154.65108154,0.02129455
4156.57988892,0.02136544
4158.50869629,0.02127161
4160.43750366,0.02125370
4162.36631103,0.02126284
4164.29511841,0.02110336
4166.22392578,0.02109414
4168.15273315,0.02100559
4170.08154053,0.02113056
4172.01034790,0.02091401
4173.93915527,0.02085824
4175.86796265,0.02084842
4177.79677002,0.02068124
4179.72557739,0.02083894
4181.65438477,0.02070005
4183.58319214,0.02067237
4185.51199951,0.02053514
4187.44080688,0.02047059
4189.36961426,0.02042568
4191.29842163,0.02031571
4193.22722900,0.02039457
4195.15603638,0.02027034
4197.08484375,0.02030162
4199.01365112,0.02022010
4200.94245850,0.02017300
4202.87126587,0.02003301
4204.80007324,0.02000197
4206.72888062,0.02005873
4208.65768799,0.01987658
4210.58649536,0.01993084
4212.51530273,0.01977226
4214.44411011,0.01982539
4216.37291748,0.01979339
4218.30172485,0.01969508
4220.23053223,0.01969622
4222.15933960,0.01947820
4224.08814697,0.01955220
4226.01695435,0.01943691
4227.94576172,0.01946396
4229.87456909,0.01946274
4231.80337646,0.01930250
4233.73218384,0.01929719
4235.66099121,0.01928011
4237.58979858,0.01929306
4239.51860596,0.01906937
4241.44741333,0.01905875
4243.37622070,0.01906250
4245.30502808,0.01901641
4247.23383545,0.01901248
4249.16264282,0.01893632
4251.09145020,0.01888356
4253.02025757,0.01878220
4254.94906494,0.01881776
4256.87787231,0.01877574
4258.80667969,0.01875321
4260.73548706,0.01861034
4262.66429443,0.01859923
4264.59310181,0.01860400
4266.52190918,0.01848998
4268.45071655,0.01857445
4270.37952393,0.01834857
4272.30833130,0.01834468
4274.23713867,0.01834625
4276.16594604,0.01825939
4278.09475342,0.01829180
4280.02356079,0.01815276
4281.95236816,0.01811295
4283.88117554,0.01805505
4285.80998291,0.01811697
4287.73879028,0.01805392
4289.66759766,0.01801125
4291.59640503,0.01793203
4293.52521240,0.01785972
4295.45401978,0.01794023
4297.38282715,0.01777883
4299.31163452,0.01782916
4301.24044189,0.01777856
4303.16924927,0.01771736
4305.09805664,0.01763183
4307.02686401,0.01752168
4308.95567139,0.01761609
4310.88447876,0.01745138
4312.81328613,0.01744044
4314.74209351,0.01744430
4316.67090088,0.01735795
4318.59970825,0.01722478
4320.52851562,0.01716111
4322.45732300,0.01720413
4324.38613037,0.01712073
4326.31493774,0.01714636
4328.24374512,0.01704973
4330.17255249,0.01703913
4332.10135986,0.01704782
4334.03016724,0.01696110
4335.95897461,0.01694694
4337.88778198,0.01692746
4339.81658936,0.01688121
4341.74539673,0.01674794
4343.67420410,0.01676782
4345.60301147,0.01675596
4347.53181885,0.01670837
4349.46062622,0.01661578
4351.38943359,0.01651523
4353.31824097,0.01648589
4355.24704834,0.01644999
4357.17585571,0.01647208
4359.10466309,0.01640667
4361.03347046,0.01638986
4362.96227783,0.01623682
4364.89108520,0.01619904
4366.81989258,0.01626232
4368.74869995,0.01623035
4370.67750732,0.01622584
4372.60631470,0.01606201
4374.53512207,0.01606327
4376.46392944,0.01600116
4378.39273682,0.01599373
4380.32154419,0.01594971
4382.25035156,0.01583343
4384.17915894,0.01589013
4386.10796631,0.01577521
4388.03677368,0.01579379
4389.96558105,0.01570811
4391.89438843,0.01566524
4393.82319580,0.01568259
4395.75200317,0.01559325
4397.68081055,0.01556095
4399.60961792,0.01546816
4401.53842529,0.01552039
4403.46723267,0.01542317
4405.39604004,0.01540042
4407.32484741,0.01537382
4409.25365478,0.01529632
4411.18246216,0.01532025
4413.11126953,0.01523835
4415.04007690,0.01521760
4416.96888428,0.01508253
4418.89769165,0.01512406
4420.82649902,0.01515368
4422.75530640,0.01509485
4424.68411377,0.01499711
4426.61292114,0.01489494
4428.54172852,0.01500934
4430.47053589,0.01490131
4432.39934326,0.01487493
4434.32815063,0.01480957
4436.25695801,0.01479558
4438.18576538,0.01479540
4440.11457275,0.01465288
4442.04338013,0.01471843
4443.97218750,0.01455007
4445.90099487,0.01455320
4447.82980225,0.01462691
4449.75860962,0.01449136
4451.68741699,0.01450532
4453.61622437,0.01445210
4455.54503174,0.01431904
4457.47383911,0.01434507
4459.40264648,0.01438273
4461.33145386,0.01421048
4463.26026123,0.01423977
4465.18906860,0.01427957
4467.11787598,0.01425371
4469.04668335,0.01418970
4470.97549072,0.01404520
4472.90429810,0.01411007
4474.83310547,0.01408880
4476.76191284,0.01408838
4478.69072021,0.01397314
4480.61952759,0.01387195
4482.54833496,0.01393309
4484.47714233,0.01382269
4486.40594971,0.01376806
4488.33475708,0.01376286
4490.26356445,0.01374118
4492.19237183,0.01369703
4494.12117920,0.01370158
4496.04998657,0.01364469
4497.97879395,0.01359089
4499.90760132,0.01353637
4501.83640869,0.01347250
4503.76521606,0.01347867
4505.69402344,0.01336272
4507.62283081,0.01344744
4509.55163818,0.01343661
4511.48044556,0.01336066
4513.40925293,0.01334080
4515.33806030,0.01324569
4517.26686768,0.01325256
4519.19567505,0.01319371
4521.12448242,0.01324713
4523.05328979,0.01309738
4524.98209717,0.01303592
4526.91090454,0.01311649
4528.83971191,0.01300821
4530.76851929,0.01299321
4532.69732666,0.01296483
4534.62613403,0.01308827
4536.55494141,0.01296474
4538.48374878,0.01279126
4540.41255615,0.01281373
4542.34136353,0.01283945
4544.27017090,0.01284473
4546.19897827,0.01268503
4548.12778564,0.01272146
4550.05659302,0.01264478
4551.98540039,0.01261404
4553.91420776,0.01263171
4555.84301514,0.01255640
4557.77182251,0.01254720
4559.70062988,0.01245962
4561.62943726,0.01256119
4563.55824463,0.01247187
4565.48705200,0.01236833
4567.41585937,0.01236049
4569.34466675,0.01233650
4571.27347412,0.01236249
4573.20228149,0.01223635
4575.13108887,0.01222435
4577.05989624,0.01216096
4578.98870361,0.01214149
4580.91751099,0.01217525
4582.84631836,0.01211537
4584.77512573,0.01199850
4586.70393311,0.01201663
4588.63274048,0.01208066
4590.56154785,0.01193512
4592.49035522,0.01198082
4594.41916260,0.01187448
4596.34796997,0.01182484
4598.27677734,0.01186153
4600.20558472,0.01178410
4602.13439209,0.01187637
4604.06319946,0.01173073
4605.99200684,0.01170423
4607.92081421,0.01174228
4609.84962158,0.01168541
4611.77842895,0.01164670
4613.70723633,0.01156393
4615.63604370,0.01159302
4617.56485107,0.01152639
4619.49365845,0.01148258
4621.42246582,0.01148683
4623.35127319,0.01148500
4625.28008057,0.01142291
4627.20888794,0.01132401
4629.13769531,0.01127476
4631.06650269,0.01129142
4632.99531006,0.01123833
4634.92411743,0.01112384
4636.85292480,0.01126227
4638.78173218,0.01123506
4640.71053955,0.01119637
4642.63934692,0.01118572
4644.56815430,0.01109178
4646.49696167,0.01106767
4648.42576904,0.01097023
4650.35457642,0.01111717
4652.28338379,0.01101383
4654.21219116,0.01090143
4656.14099853,0.01101748
4658.06980591,0.01084600
4659.99861328,0.01083133
4661.92742065,0.01088745
4663.85622803,0.01084856
4665.78503540,0.01082087
4667.71384277,0.01080967
4669.64265015,0.01074719
4671.57145752,0.01071440
4673.50026489,0.01073231
4675.42907227,0.01066607
4677.35787964,0.01061133
4679.28668701,0.01056354
4681.21549438,0.01057156
4683.14430176,0.01048819
4685.07310913,0.01047274
4687.00191650,0.01045376
4688.93072388,0.01040182
4690.85953125,0.01047607
4692.78833862,0.01038826
4694.71714600,0.01039024
4696.64595337,0.01034820
4698.57476074,0.01023455
4700.50356812,0.01024602
4702.43237549,0.01028673
4704.36118286,0.01028010
4706.28999023,0.01017247
4708.21879761,0.01017022
4710.14760498,0.01012918
4712.07641235,0.01008983
4714.00521973,0.01005537
4715.93402710,0.01004599
4717.86283447,0.01004923
4719.79164185,0.00997910
4721.72044922,0.00997083
4723.64925659,0.00996201
4725.57806396,0.00997278
4727.50687134,0.00982518
4729.43567871,0.00983513
4731.36448608,0.00989432
4733.29329346,0.00981766
4735.22210083,0.00982881
4737.15090820,0.00970458
4739.07971558,0.00971414
4741.00852295,0.00968983
4742.93733032,0.00970004
4744.86613770,0.00970222
4746.79494507,0.00962460
4748.72375244,0.00970568
4750.65255981,0.00957635
4752.58136719,0.00957230
4754.51017456,0.00961234
4756.43898193,0.00951746
4758.36778931,0.00947373
4760.29659668,0.00945409
4762.22540405,0.00943254
4764.15421143,0.00943422
4766.08301880,0.00949050
4768.01182617,0.00934506
4769.94063354,0.00932127
4771.86944092,0.00933205
4773.79824829,0.00931821
4775.72705566,0.00928132
4777.65586304,0.00914602
4779.58467041,0.00921939
4781.51347778,0.00917736
4783.44228516,0.00917432
4785.37109253,0.00912959
4787.29989990,0.00908506
4789.22870728,0.00912572
4791.15751465,0.00900838
4793.08632202,0.00898854
4795.01512939,0.00898647
4796.94393677,0.00906589
4798.87274414,0.00898844
4800.80155151,0.00896542
4802.73035889,0.00898374
4804.65916626,0.00879041
4806.58797363,0.00882890
4808.51678101,0.00881612
4810.44558838,0.00879510
4812.37439575,0.00875382
4814.30320312,0.00870402
4816.23201050,0.00874067
4818.16081787,0.00873239
4820.08962524,0.00872721
4822.01843262,0.00863730
4823.94723999,0.00868281
4825.87604736,0.00864365
4827.80485474,0.00854339
4829.73366211,0.00855340
4831.66246948,0.00855168
4833.59127686,0.00853787
4835.52008423,0.00849816
4837.44889160,0.00853056
4839.37769897,0.00844763
4841.30650635,0.00842438
4843.23531372,0.00845027
4845.16412109,0.00842150
4847.09292847,0.00837560
4849.02173584,0.00826138
4850.95054321,0.00831380
4852.87935059,0.00837246
4854.80815796,0.00835148
4856.73696533,0.00829472
4858.66577270,0.00827231
4860.59458008,0.00824529
4862.52338745,0.00816087
4864.45219482,0.00811720
4866.38100220,0.00812552
4868.30980957,0.00808881
4870.23861694,0.00797970
4872.16742432,0.00813152
4874.09623169,0.00809989
4876.02503906,0.00793508
4877.95384644,0.00802394
4879.88265381,0.00800759
4881.81146118,0.00797377
4883.74026855,0.00792798
4885.66907593,0.00791488
4887.59788330,0.00784924
4889.52669067,0.00786337
4891.45549805,0.00788282
4893.38430542,0.00782693
4895.31311279,0.00791431
4897.24192017,0.00776077
4899.17072754,0.00778499
4901.09953491,0.00779958
4903.02834228,0.00764415
4904.95714966,0.00775069
4906.88595703,0.00767912
4908.81476440,0.00766059
4910.74357178,0.00768006
4912.67237915,0.00754892
4914.60118652,0.00758369
4916.52999390,0.00759074
4918.45880127,0.00746014
4920.38760864,0.00749152
4922.31641602,0.00750998
4924.24522339,0.00747053
4926.17403076,0.00753101
4928.10283813,0.00742643
4930.03164551,0.00742656
4931.96045288,0.00740170
4933.88926025,0.00734052
4935.81806763,0.00741971
4937.74687500,0.00731957
4939.67568237,0.00732988
4941.60448975,0.00729873
4943.53329712,0.00721926
4945.46210449,0.00727695
4947.39091187,0.00724668
4949.31971924,0.00720914
4951.24852661,0.00722174
4953.17733398,0.00719223
4955.10614136,0.00710338
4957.03494873,0.00717005
4958.96375610,0.00716439
4960.89256348,0.00709323
4962.82137085,0.00712011
4964.75017822,0.00703934
4966.67898560,0.00702988
4968.60779297,0.00700332
4970.53660034,0.00695187
4972.46540771,0.00697759
4974.39421509,0.00689760
4976.32302246,0.00689775
4978.25182983,0.00695115
4980.18063721,0.00682408
4982.10944458,0.00682923
4984.03825195,0.00687908
4985.96705933,0.00680435
4987.89586670,0.00679944
4989.82467407,0.00673259
4991.75348145,0.00677660
4993.68228882,0.00678835
4995.61109619,0.00668747
4997.53990356,0.00669030
4999.46871094,0.00667227
5001.39751831,0.00666665
5003.32632568,0.00666437
5005.25513306,0.00671881
5007.18394043,0.00658414
5009.11274780,0.00652992
5011.04155518,0.00660635
5012.97036255,0.00651304
5014.89916992,0.00660969
5016.82797729,0.00656195
5018.75678467,0.00651013
5020.68559204,0.00648434
5022.61439941,0.00642173
5024.54320679,0.00650346
5026.47201416,0.00641165
5028.40082153,0.00643062
5030.32962891,0.00638738
5032.25843628,0.00634209
5034.18724365,0.00641440
5036.11605103,0.00639575
5038.04485840,0.00640292
5039.97366577,0.00628782
5041.90247314,0.00623568
5043.83128052,0.00624211
5045.76008789,0.00627898
5047.68889526,0.00627690
5049.61770264,0.00619424
5051.54651001,0.00617340
5053.47531738,0.00612243
5055.40412476,0.00616264
5057.33293213,0.00618265
5059.26173950,0.00613401
5061.19054687,0.00611001
5063.11935425,0.00614134
5065.04816162,0.00607180
5066.97696899,0.00595935
5068.90577637,0.00603721
5070.83458374,0.00598542
5072.76339111,0.00596105
5074.69219849,0.00604176
5076.62100586,0.00599054
5078.54981323,0.00596794
5080.47862061,0.00595781
5082.40742798,0.00587526
5084.33623535,0.00588457
5086.26504272,0.00593811
5088.19385010,0.00586041
5090.12265747,0.00581102
5092.05146484,0.00574615
5093.98027222,0.00573705
5095.90907959,0.00579688
5097.83788696,0.00578282
5099.76669434,0.00576594
5101.69550171,0.00573007
5103.62430908,0.00579338
5105.55311645,0.00575896
5107.48192383,0.00567756
5109.41073120,0.00571679
5111.33953857,0.00567365
5113.26834595,0.00562987
5115.19715332,0.00564929
5117.12596069,0.00564223
5119.05476807,0.00554634
5120.98357544,0.00555183
5122.91238281,0.00556758
5124.84119019,0.00552659
5126.76999756,0.00551468
5128.69880493,0.00541928
5130.62761230,0.00542449
5132.55641968,0.00547613
5134.48522705,0.00546298
5136.41403442,0.00548602
5138.34284180,0.00549437
5140.27164917,0.00537313
5142.20045654,0.00536626
5144.12926392,0.00542726
5146.05807129,0.00531715
5147.98687866,0.00532870
5149.91568603,0.00533298
5151.84449341,0.00533029
5153.77330078,0.00533619
5155.70210815,0.00528597
5157.63091553,0.00524617
5159.55972290,0.00520079
5161.48853027,0.00528373
5163.41733765,0.00522033
5165.34614502,0.00519767
5167.27495239,0.00520468
5169.20375977,0.00516676
5171.13256714,0.00524455
5173.06137451,0.00519780
5174.99018188,0.00521456
5176.91898926,0.00514968
5178.84779663,0.00512572
5180.77660400,0.00510423
5182.70541138,0.00501385
5184.63421875,0.00511513
5186.56302612,0.00505484
5188.49183350,0.00502774
5190.42064087,0.00498572
5192.34944824,0.00496341
5194.27825562,0.00504633
5196.20706299,0.00495567
5198.13587036,0.00494248
5200.06467773,0.00494220
5201.99348511,0.00496216
5203.92229248,0.00498405
5205.85109985,0.00485704
5207.77990723,0.00476806
5209.70871460,0.00484574
5211.63752197,0.00492662
5213.56632935,0.00488666
5215.49513672,0.00487778
5217.42394409,0.00487904
5219.35275146,0.00480847
5221.28155884,0.00477782
5223.21036621,0.00483679
5225.13917358,0.00473285
5227.06798096,0.00471987
5228.99678833,0.00479728
5230.92559570,0.00471963
5232.85440308,0.00478413
5234.78321045,0.00472000
5236.71201782,0.00473680
5238.64082520,0.00476359
5240.56963257,0.00463832
5242.49843994,0.00472914
5244.42724731,0.00464929
5246.35605469,0.00461362
5248.28486206,0.00459606
5250.21366943,0.00456930
5252.14247681,0.00467377
5254.07128418,0.00452244
5256.00009155,0.00450936
5257.92889893,0.00458081
5259.85770630,0.00448665
5261.78651367,0.00447594
5263.71532104,0.00446280
5265.64412842,0.00441489
5267.57293579,0.00448609
5269.50174316,0.00453591
5271.43055054,0.00449005
5273.35935791,0.00452452
5275.28816528,0.00450328
5277.21697266,0.00448482
5279.14578003,0.00449173
5281.07458740,0.00450429
5283.00339478,0.00453657
5284.93220215,0.00443023
5286.86100952,0.00443032
5288.78981689,0.00443593
5290.71862427,0.00432557
5292.64743164,0.00436114
5294.57623901,0.00442036
5296.50504639,0.00434574
5298.43385376,0.00432911
5300.36266113,0.00436542
5302.29146851,0.00429596
5304.22027588,0.00434408
5306.14908325,0.00432986
5308.07789062,0.00421669
5310.00669800,0.00429677
5311.93550537,0.00432867
5313.86431274,0.00430899
5315.79312012,0.00423645
5317.72192749,0.00418198
5319.65073486,0.00422858
5321.57954224,0.00415334
5323.50834961,0.00417121
5325.43715698,0.00420159
5327.36596436,0.00410891
5329.29477173,0.00413691
5331.22357910,0.00414702
5333.15238647,0.00411440
5335.08119385,0.00415681
5337.01000122,0.00412937
5338.93880859,0.00395225
5340.86761597,0.00396122
5342.79642334,0.00406189
5344.72523071,0.00394406
5346.65403809,0.00397765
5348.58284546,0.00398555
5350.51165283,0.00396996
5352.44046020,0.00398263
5354.36926758,0.00383026
5356.29807495,0.00400820
5358.22688232,0.00406892
5360.15568970,0.00400526
5362.08449707,0.00404240
5364.01330444,0.00384763
5365.94211182,0.00394541
5367.87091919,0.00399296
5369.79972656,0.00390296
5371.72853394,0.00395789
5373.65734131,0.00389038
5375.58614868,0.00386586
5377.51495605,0.00377665
5379.44376343,0.00380202
5381.37257080,0.00391075
5383.30137817,0.00383111
5385.23018555,0.00380726
5387.15899292,0.00383669
5389.08780029,0.00385337
5391.01660767,0.00382285
5392.94541504,0.00375962
5394.87422241,0.00368798
5396.80302978,0.00366799
5398.73183716,0.00370726
5400.66064453,0.00372038
5402.58945190,0.00375718
5404.51825928,0.00373529
5406.44706665,0.00370127
5408.37587402,0.00369870
5410.30468140,0.00366200
5412.23348877,0.00362500
5414.16229614,0.00349681
5416.09110352,0.00351451
5418.01991089,0.00374226
5419.94871826,0.00369739
5421.87752563,0.00354290
5423.80633301,0.00359434
5425.73514038,0.00368035
5427.66394775,0.00360291
5429.59275513,0.00345237
5431.52156250,0.00357677
5433.45036987,0.00362880
5435.37917725,0.00347727
5437.30798462,0.00357460
5439.23679199,0.00358957
5441.16559936,0.00342752
5443.09440674,0.00346338
5445.02321411,0.00350325
5446.95202148,0.00345103
5448.88082886,0.00345896
5450.80963623,0.00342899
5452.73844360,0.00352326
5454.66725098,0.00354766
5456.59605835,0.00335682
5458.52486572,0.00342667
5460.45367310,0.00342702
5462.38248047,0.00336907
5464.31128784,0.00338792
5466.24009521,0.00331633
5468.16890259,0.00340062
5470.09770996,0.00332819
5472.02651733,0.00332445
5473.95532471,0.00340732
5475.88413208,0.00323949
5477.81293945,0.00327101
5479.74174683,0.00334535
5481.67055420,0.00332453
5483.59936157,0.00332529
5485.52816895,0.00324997
5487.45697632,0.00321855
5489.38578369,0.00322526
5491.31459106,0.00321614
5493.24339844,0.00323666
5495.17220581,0.00319848
5497.10101318,0.00317761
5499.02982056,0.00324501
5500.95862793,0.00323674
5502.88743530,0.00319473
5504.81624268,0.00314194
5506.74505005,0.00320994
5508.67385742,0.00326079
5510.60266479,0.00314806
5512.53147217,0.00314480
5514.46027954,0.00310478
5516.38908691,0.00312216
5518.31789429,0.00316288
5520.24670166,0.00312123
5522.17550903,0.00313626
5524.10431641,0.00311134
5526.03312378,0.00314669
5527.96193115,0.00311450
5529.89073853,0.00309087
5531.81954590,0.00304531
5533.74835327,0.00297503
5535.67716064,0.00309800
5537.60596802,0.00306125
5539.53477539,0.00302477
5541.46358276,0.00304592
5543.39239014,0.00299122
5545.32119751,0.00302597
5547.25000488,0.00301340
5549.17881226,0.00297424
5551.10761963,0.00296100
5553.03642700,0.00296446
5554.96523437,0.00293886
5556.89404175,0.00293903
5558.82284912,0.00297870
5560.75165649,0.00294838
5562.68046387,0.00292540
5564.60927124,0.00286048
5566.53807861,0.00284683
5568.46688599,0.00292258
5570.39569336,0.00292192
5572.32450073,0.00290214
5574.25330811,0.00288012
5576.18211548,0.00288729
5578.11092285,0.00292036
5580.03973022,0.00288688
5581.96853760,0.00287297
5583.89734497,0.00283438
5585.82615234,0.00276567
5587.75495972,0.00285679
5589.68376709,0.00287835
5591.61257446,0.00271030
5593.54138184,0.00267968
5595.47018921,0.00276056
5597.39899658,0.00278530
5599.32780395,0.00276964
5601.25661133,0.00273423
5603.18541870,0.00275228
5605.11422607,0.00276583
5607.04303345,0.00275320
5608.97184082,0.00274901
5610.90064819,0.00270668
5612.82945557,0.00272984
5614.75826294,0.00273281
5616.68707031,0.00270186
5618.61587769,0.00270322
5620.54468506,0.00268109
5622.47349243,0.00271131
5624.40229980,0.00266776
5626.33110718,0.00265252
5628.25991455,0.00269707
5630.18872192,0.00268509
5632.11752930,0.00267332
5634.04633667,0.00259084
5635.97514404,0.00258737
5637.90395142,0.00260355
5639.83275879,0.00261325
5641.76156616,0.00259572
5643.69037353,0.00251538
5645.61918091,0.00254452
5647.54798828,0.00254051
5649.47679565,0.00255690
5651.40560303,0.00258739
5653.33441040,0.00258878
5655.26321777,0.00251577
5657.19202515,0.00249319
5659.12083252,0.00257697
5661.04963989,0.00247258
5662.97844727,0.00250400
5664.90725464,0.00248123
5666.83606201,0.00240511
5668.76486938,0.00253362
5670.69367676,0.00250033
5672.62248413,0.00248610
5674.55129150,0.00247837
5676.48009888,0.00247809
5678.40890625,0.00248529
5680.33771362,0.00249379
5682.26652100,0.00253665
5684.19532837,0.00242990
5686.12413574,0.00242066
5688.05294311,0.00237671
5689.98175049,0.00235446
5691.91055786,0.00241806
5693.83936523,0.00235332
5695.76817261,0.00236497
5697.69697998,0.00239757
5699.62578735,0.00238885
5701.55459473,0.00230257
5703.48340210,0.00228049
5705.41220947,0.00236173
5707.34101685,0.00234535
5709.26982422,0.00235581
5711.19863159,0.00235593
5713.12743896,0.00230133
5715.05624634,0.00226351
5716.98505371,0.00228392
5718.91386108,0.00230838
5720.84266846,0.00225847
5722.77147583,0.00226378
5724.70028320,0.00227299
5726.62909058,0.00219981
5728.55789795,0.00221507
5730.48670532,0.00223410
5732.41551270,0.00218807
5734.34432007,0.00223679
5736.27312744,0.00222487
5738.20193481,0.00221236
5740.13074219,0.00221640
5742.05954956,0.00210820
5743.98835693,0.00213942
5745.91716431,0.00220732
5747.84597168,0.00220061
5749.77477905,0.00222063
5751.70358643,0.00220692
5753.63239380,0.00213928
5755.56120117,0.00213094
5757.49000854,0.00219336
5759.41881592,0.00212221
5761.34762329,0.00211318
5763.27643066,0.00217848
5765.20523804,0.00210096
5767.13404541,0.00211916
5769.06285278,0.00214603
5770.99166016,0.00210835
5772.92046753,0.00212580
5774.84927490,0.00210506
5776.77808228,0.00209336
5778.70688965,0.00204724
5780.63569702,0.00204442
5782.56450439,0.00205661
5784.49331177,0.00199933
5786.42211914,0.00206727
5788.35092651,0.00205278
5790.27973389,0.00207329
5792.20854126,0.00211695
5794.13734863,0.00199900
5796.06615601,0.00205634
5797.99496338,0.00205563
5799.92377075,0.00199340
5801.85257812,0.00197596
5803.78138550,0.00195523
5805.71019287,0.00198003
5807.63900024,0.00192048
5809.56780762,0.00196059
5811.49661499,0.00196567
5813.42542236,0.00198077
5815.35422974,0.00197591
5817.28303711,0.00192165
5819.21184448,0.00200962
5821.14065186,0.00192529
5823.06945923,0.00193442
5824.99826660,0.00201048
5826.92707397,0.00197016
5828.85588135,0.00192151
5830.78468872,0.00186641
5832.71349609,0.00190610
5834.64230347,0.00184096
5836.57111084,0.00188372
5838.49991821,0.00190907
5840.42872559,0.00186201
5842.35753296,0.00190855
5844.28634033,0.00182714
5846.21514770,0.00185647
5848.14395508,0.00188216
5850.07276245,0.00189740
5852.00156982,0.00189993
5853.93037720,0.00179758
5855.85918457,0.00185842
5857.78799194,0.00186662
5859.71679932,0.00180690
5861.64560669,0.00183530
5863.57441406,0.00181910
5865.50322144,0.00175591
5867.43202881,0.00178552
5869.36083618,0.00184043
5871.28964355,0.00180904
5873.21845093,0.00178528
5875.14725830,0.00178264
5877.07606567,0.00176237
5879.00487305,0.00176271
5880.93368042,0.00178204
5882.86248779,0.00172110
5884.79129517,0.00173320
5886.72010254,0.00174370
5888.64890991,0.00171237
5890.57771728,0.00177834
5892.50652466,0.00168970
5894.43533203,0.00165791
5896.36413940,0.00168720
5898.29294678,0.00165118
5900.22175415,0.00168713
5902.15056152,0.00168371
5904.07936890,0.00171835
5906.00817627,0.00165892
5907.93698364,0.00160954
5909.86579102,0.00166884
5911.79459839,0.00164584
5913.72340576,0.00167426
5915.65221313,0.00168358
5917.58102051,0.00163010
5919.50982788,0.00161390
5921.43863525,0.00162720
5923.36744263,0.00162127
5925.29625000,0.00158287
5927.22505737,0.00158336
5929.15386475,0.00159794
5931.08267212,0.00156877
5933.01147949,0.00156618
5934.94028686,0.00161230
5936.86909424,0.00161626
5938.79790161,0.00156835
5940.72670898,0.00153914
5942.65551636,0.00159675
5944.58432373,0.00158205
5946.51313110,0.00155314
5948.44193848,0.00157385
5950.37074585,0.00153006
5952.29955322,0.00159862
5954.22836060,0.00156799
5956.15716797,0.00149807
5958.08597534,0.00151530
5960.01478271,0.00145184
5961.94359009,0.00153283
5963.87239746,0.00156008
5965.80120483,0.00150618
5967.73001221,0.00147856
5969.65881958,0.00141094
5971.58762695,0.00148557
5973.51643433,0.00154311
5975.44524170,0.00152849
5977.37404907,0.00148676
5979.30285645,0.00143561
5981.23166382,0.00150745
5983.16047119,0.00152512
5985.08927856,0.00143414
5987.01808594,0.00142858
5988.94689331,0.00149451
5990.87570068,0.00148444
5992.80450806,0.00144313
5994.73331543,0.00145609
5996.66212280,0.00141072
5998.59093018,0.00143127
6000.51973755,0.00146952
