399.26312622,0.00055026
401.19193359,0.00078264
403.12074097,0.00084499
405.04954834,0.00029274
406.97835571,0.00068452
408.90716309,0.00134511
410.83597046,0.00066766
412.76477783,0.00058430
414.69358521,0.00096576
416.62239258,0.00091646
418.55119995,0.00064248
420.48000732,0.00053145
422.40881470,0.00071865
424.33762207,0.00025368
426.26642944,0.00068843
428.19523682,0.00095567
430.12404419,0.00044575
432.05285156,0.00097793
433.98165894,0.00104352
435.91046631,0.00091368
437.83927368,0.00074774
439.76808105,0.00061188
441.69688843,0.00062586
443.62569580,0.00021628
445.55450317,0.00060489
447.48331055,0.00074213
449.41211792,0.00086105
451.34092529,0.00094151
453.26973267,0.00029958
455.19854004,0.00060189
457.12734741,0.00066455
459.05615479,0.00062380
460.98496216,0.00060919
462.91376953,0.00046544
464.84257690,0.00104830
466.77138428,0.00060261
468.70019165,0.00046093
470.62899902,0.00083899
472.55780640,0.00018399
474.48661377,0.00040685
476.41542114,0.00083426
478.34422852,0.00006525
480.27303589,-0.00003743
482.20184326,0.00061181
484.13065063,0.00030743
486.05945801,0.00020648
487.98826538,0.00072642
489.91707275,0.00032205
491.84588013,0.00005097
493.77468750,0.00049164
495.70349487,0.00034993
497.63230225,0.00020762
499.56110962,0.00036625
501.48991699,0.00027832
503.41872437,0.00040172
505.34753174,0.00034067
507.27633911,0.00019788
509.20514648,0.00005256
511.13395386,0.00004513
513.06276123,0.00045083
514.99156860,0.00040308
516.92037598,0.00043134
518.84918335,0.00040915
520.77799072,0.00021652
522.70679810,0.00029326
524.63560547,0.00023391
526.56441284,0.00020684
528.49322021,0.00006295
530.42202759,0.00001854
532.35083496,0.00011847
534.27964233,-0.00004369
536.20844971,0.00013144
538.13725708,0.00045666
540.06606445,0.00036353
541.99487183,0.00045979
543.92367920,0.00045357
545.85248657,0.00026083
547.78129395,0.00014701
549.71010132,0.00004391
551.63890869,0.00032788
553.56771606,0.00038689
555.49652344,0.00034214
557.42533081,0.00049583
559.35413818,0.00047134
561.28294556,0.00034479
563.21175293,0.00011035
565.14056030,0.00005313
567.06936768,0.00016191
568.99817505,0.00039590
570.92698242,0.00037333
572.85578979,0.00026119
574.78459717,0.00046033
576.71340454,0.00035009
578.64221191,0.00031128
580.57101929,0.00013349
582.49982666,-0.00018722
584.42863403,0.00037798
586.35744141,0.00039049
588.28624878,-0.00018596
590.21505615,0.00017148
592.14386353,0.00014888
594.07267090,-0.00008540
596.00147827,0.00014708
597.93028564,0.00000168
599.85909302,-0.00004322
601.78790039,0.00009921
603.71670776,0.00028378
605.64551514,0.00005635
607.57432251,-0.00016278
609.50312988,0.00009689
611.43193726,0.00022501
613.36074463,0.00021926
615.28955200,-0.00034329
617.21835938,-0.00035258
619.14716675,-0.00005700
621.07597412,-0.00017383
623.00478149,0.00000811
624.93358887,-0.00004002
626.86239624,-0.00037632
628.79120361,0.00010504
630.72001099,0.00046301
632.64881836,0.00065680
634.57762573,0.00089270
636.50643311,0.00047224
638.43524048,0.00092779
640.36404785,0.00114591
642.29285522,0.00106826
644.22166260,0.00132868
646.15046997,0.00089959
648.07927734,0.00122038
650.00808472,0.00174941
651.93689209,0.00155381
653.86569946,0.00170489
655.79450684,0.00207637
657.72331421,0.00173362
659.65212158,0.00161592
661.58092896,0.00202652
663.50973633,0.00222639
665.43854370,0.00229154
667.36735107,0.00180298
669.29615845,0.00215154
671.22496582,0.00266250
673.15377319,0.00249719
675.08258057,0.00240966
677.01138794,0.00226943
678.94019531,0.00291442
680.86900269,0.00291939
682.79781006,0.00286027
684.72661743,0.00306443
686.65542480,0.00282885
688.58423218,0.00302950
690.51303955,0.00271911
692.44184692,0.00312077
694.37065430,0.00338518
696.29946167,0.00343868
698.22826904,0.00445441
700.15707642,0.00454600
702.08588379,0.00461712
704.01469116,0.00435050
705.94349854,0.00386730
707.87230591,0.00358238
709.80111328,0.00244985
711.72992065,0.00201531
713.65872803,0.00147681
715.58753540,0.00047542
717.51634277,0.00044824
719.44515015,0.00018864
721.37395752,0.00012306
723.30276489,0.00050147
725.23157227,0.00002908
727.16037964,0.00007190
729.08918701,0.00046065
731.01799438,0.00024035
732.94680176,0.00023611
734.87560913,0.00008237
736.80441650,-0.00002530
738.73322388,0.00028833
740.66203125,0.00021109
742.59083862,-0.00007698
744.51964600,0.00009443
746.44845337,0.00009141
748.37726074,0.00036857
750.30606812,0.00060778
752.23487549,0.00008841
754.16368286,0.00006346
756.09249023,0.00024149
758.02129761,0.00027880
759.95010498,0.00025150
761.87891235,-0.00003011
763.80771973,0.00003772
765.73652710,0.00013792
767.66533447,0.00020884
769.59414185,0.00020904
771.52294922,0.00025184
773.45175659,0.00040372
775.38056396,0.00043131
777.30937134,0.00023200
779.23817871,0.00020855
781.16698608,0.00052692
783.09579346,0.00033639
785.02460083,0.00020108
786.95340820,0.00032911
788.88221558,0.00036757
790.81102295,0.00033470
792.73983032,0.00051355
794.66863770,0.00096184
796.59744507,0.00069122
798.52625244,0.00084925
800.45505981,0.00117233
802.38386719,0.00082278
804.31267456,0.00076688
806.24148193,0.00066395
808.17028931,0.00064063
810.09909668,0.00065534
812.02790405,0.00067029
813.95671143,0.00050826
815.88551880,0.00024978
817.81432617,0.00026787
819.74313354,0.00020703
821.67194092,0.00024241
823.60074829,0.00042041
825.52955566,0.00064499
827.45836304,0.00061554
829.38717041,0.00089868
831.31597778,0.00115143
833.24478516,0.00110868
835.17359253,0.00162552
837.10239990,0.00161104
839.03120728,0.00144652
840.96001465,0.00158187
842.88882202,0.00146404
844.81762939,0.00141805
846.74643677,0.00131107
848.67524414,0.00113553
850.60405151,0.00110992
852.53285889,0.00113484
854.46166626,0.00085145
856.39047363,0.00103724
858.31928101,0.00101273
860.24808838,0.00048009
862.17689575,0.00065253
864.10570313,0.00069306
866.03451050,0.00079642
867.96331787,0.00068545
869.89212524,0.00032032
871.82093262,0.00030285
873.74973999,0.00029911
875.67854736,0.00054751
877.60735474,0.00061009
879.53616211,0.00075710
881.46496948,0.00070532
883.39377686,0.00055618
885.32258423,0.00057714
887.25139160,0.00042585
889.18019897,0.00041490
891.10900635,0.00018868
893.03781372,0.00043929
894.96662109,0.00066729
896.89542847,0.00045549
898.82423584,0.00056259
900.75304321,0.00053954
902.68185059,0.00063054
904.61065796,0.00063568
906.53946533,0.00057823
908.46827271,0.00066064
910.39708008,0.00060537
912.32588745,0.00075451
914.25469482,0.00093376
916.18350220,0.00089746
918.11230957,0.00103517
920.04111694,0.00121146
921.96992432,0.00119716
923.89873169,0.00138191
925.82753906,0.00157344
927.75634644,0.00179681
929.68515381,0.00208623
931.61396118,0.00207084
933.54276855,0.00212268
935.47157593,0.00240169
937.40038330,0.00253701
939.32919067,0.00254377
941.25799805,0.00275061
943.18680542,0.00278453
945.11561279,0.00275572
947.04442017,0.00272662
948.97322754,0.00252070
950.90203491,0.00264024
952.83084229,0.00252511
954.75964966,0.00248306
956.68845703,0.00265272
958.61726440,0.00236553
960.54607178,0.00234049
962.47487915,0.00249374
964.40368652,0.00246440
966.33249390,0.00253168
968.26130127,0.00288190
970.19010864,0.00319407
972.11891602,0.00310766
974.04772339,0.00309054
975.97653076,0.00332342
977.90533813,0.00367079
979.83414551,0.00413128
981.76295288,0.00446561
983.69176025,0.00478607
985.62056763,0.00540906
987.54937500,0.00598404
989.47818237,0.00666554
991.40698975,0.00735779
993.33579712,0.00793967
995.26460449,0.00881557
997.19341187,0.00936472
999.12221924,0.01011333
1001.05102661,0.01102783
1002.97983398,0.01163286
1004.90864136,0.01256038
1006.83744873,0.01329190
1008.76625610,0.01405448
1010.69506348,0.01490158
1012.62387085,0.01557505
1014.55267822,0.01632953
1016.48148560,0.01728472
1018.41029297,0.01821430
1020.33910034,0.01869117
1022.26790771,0.01962415
1024.19671509,0.02060035
1026.12552246,0.02126018
1028.05432983,0.02177007
1029.98313721,0.02210920
1031.91194458,0.02309676
1033.84075195,0.02351205
1035.76955933,0.02353914
1037.69836670,0.02394874
1039.62717407,0.02401085
1041.55598145,0.02390075
1043.48478882,0.02368554
1045.41359619,0.02343810
1047.34240356,0.02297390
1049.27121094,0.02273311
1051.20001831,0.02221347
1053.12882568,0.02156335
1055.05763306,0.02173971
1056.98644043,0.02109376
1058.91524780,0.02017664
1060.84405518,0.01972760
1062.77286255,0.01901992
1064.70166992,0.01841190
1066.63047729,0.01777190
1068.55928467,0.01699287
1070.48809204,0.01606996
1072.41689941,0.01541324
1074.34570679,0.01487292
1076.27451416,0.01413608
1078.20332153,0.01334665
1080.13212891,0.01273429
1082.06093628,0.01226468
1083.98974365,0.01143759
1085.91855103,0.01102560
1087.84735840,0.01059038
1089.77616577,0.00999214
1091.70497314,0.00968021
1093.63378052,0.00897909
1095.56258789,0.00868723
1097.49139526,0.00861898
1099.42020264,0.00838330
1101.34901001,0.00811190
1103.27781738,0.00795716
1105.20662476,0.00801192
1107.13543213,0.00754902
1109.06423950,0.00747199
1110.99304687,0.00769901
1112.92185425,0.00739671
1114.85066162,0.00717625
1116.77946899,0.00713983
1118.70827637,0.00707579
1120.63708374,0.00714782
1122.56589111,0.00738183
1124.49469849,0.00736735
1126.42350586,0.00737499
1128.35231323,0.00751145
1130.28112061,0.00764326
1132.20992798,0.00785587
1134.13873535,0.00805010
1136.06754272,0.00839124
1137.99635010,0.00886825
1139.92515747,0.00935629
1141.85396484,0.00990439
1143.78277222,0.01080368
1145.71157959,0.01131515
1147.64038696,0.01166433
1149.56919434,0.01264255
1151.49800171,0.01320597
1153.42680908,0.01364094
1155.35561646,0.01432021
1157.28442383,0.01498724
1159.21323120,0.01558386
1161.14203857,0.01616667
1163.07084595,0.01675035
1164.99965332,0.01715641
1166.92846069,0.01792560
1168.85726807,0.01848996
1170.78607544,0.01911587
1172.71488281,0.01993090
1174.64369019,0.02051000
1176.57249756,0.02138426
1178.50130493,0.02189849
1180.43011230,0.02265042
1182.35891968,0.02381460
1184.28772705,0.02476999
1186.21653442,0.02582366
1188.14534180,0.02697166
1190.07414917,0.02827825
1192.00295654,0.02954515
1193.93176392,0.03088220
1195.86057129,0.03222865
1197.78937866,0.03362602
1199.71818604,0.03503126
1201.64699341,0.03655259
1203.57580078,0.03811593
1205.50460815,0.03933019
1207.43341553,0.04089627
1209.36222290,0.04229345
1211.29103027,0.04345657
1213.21983765,0.04467426
1215.14864502,0.04550105
1217.07745239,0.04643499
1219.00625977,0.04729470
1220.93506714,0.04793501
1222.86387451,0.04855932
1224.79268188,0.04898043
1226.72148926,0.04913960
1228.65029663,0.04945251
1230.57910400,0.04982955
1232.50791138,0.04980673
1234.43671875,0.04959339
1236.36552612,0.04951412
1238.29433350,0.04955170
1240.22314087,0.04936538
1242.15194824,0.04917168
1244.08075562,0.04883188
1246.00956299,0.04862819
1247.93837036,0.04846097
1249.86717773,0.04785402
1251.79598511,0.04767174
1253.72479248,0.04722010
1255.65359985,0.04651822
1257.58240723,0.04591444
1259.51121460,0.04499540
1261.44002197,0.04437442
1263.36882935,0.04371651
1265.29763672,0.04306567
1267.22644409,0.04267972
1269.15525146,0.04211552
1271.08405884,0.04132240
1273.01286621,0.04065520
1274.94167358,0.04000834
1276.87048096,0.03921061
1278.79928833,0.03832892
1280.72809570,0.03751863
1282.65690308,0.03697532
1284.58571045,0.03610712
1286.51451782,0.03537776
1288.44332520,0.03488782
1290.37213257,0.03434516
1292.30093994,0.03399236
1294.22974731,0.03374410
1296.15855469,0.03366290
1298.08736206,0.03327166
1300.01616943,0.03336297
1301.94497681,0.03366505
1303.87378418,0.03384911
1305.80259155,0.03433381
1307.73139893,0.03466116
1309.66020630,0.03535949
1311.58901367,0.03570362
1313.51782104,0.03637324
1315.44662842,0.03737023
1317.37543579,0.03786827
1319.30424316,0.03900911
1321.23305054,0.04025581
1323.16185791,0.04144805
1325.09066528,0.04251700
1327.01947266,0.04369025
1328.94828003,0.04473558
1330.87708740,0.04563711
1332.80589478,0.04693335
1334.73470215,0.04762600
1336.66350952,0.04814428
1338.59231689,0.04789944
1340.52112427,0.04831295
1342.44993164,0.05012479
1344.37873901,0.05034603
1346.30754639,0.05026910
1348.23635376,0.05003046
1350.16516113,0.04969247
1352.09396851,0.04981242
1354.02277588,0.04884719
1355.95158325,0.04863134
1357.88039062,0.04847540
1359.80919800,0.04749629
1361.73800537,0.04567357
1363.66681274,0.04474803
1365.59562012,0.04683404
1367.52442749,0.04600320
1369.45323486,0.04532123
1371.38204224,0.04601372
1373.31084961,0.04353067
1375.23965698,0.04391366
1377.16846436,0.04485644
1379.09727173,0.04462741
1381.02607910,0.04475948
1382.95488647,0.04432703
1384.88369385,0.04452927
1386.81250122,0.04259849
1388.74130859,0.04307451
1390.67011597,0.04641104
1392.59892334,0.04507884
1394.52773071,0.04256786
1396.45653809,0.04449650
1398.38534546,0.04449169
1400.31415283,0.04423566
1402.24296021,0.04725622
1404.17176758,0.04483533
1406.10057495,0.04515456
1408.02938232,0.04663819
1409.95818970,0.04500884
1411.88699707,0.04599293
1413.81580444,0.04417843
1415.74461182,0.04509336
1417.67341919,0.04093158
1419.60222656,0.03654335
1421.53103394,0.04182512
1423.45984131,0.04049258
1425.38864868,0.03921090
1427.31745605,0.03953831
1429.24626343,0.03659997
1431.17507080,0.03550074
1433.10387817,0.03609461
1435.03268555,0.03295746
1436.96149292,0.02793453
1438.89030029,0.03183474
1440.81910767,0.03227132
1442.74791504,0.03004038
1444.67672241,0.03138013
1446.60552979,0.02865452
1448.53433716,0.02934755
1450.46314453,0.02997352
1452.39195190,0.03075268
1454.32075928,0.03187354
1456.24956665,0.02632415
1458.17837402,0.02783430
1460.10718140,0.03635146
1462.03598877,0.03851312
1463.96479614,0.03836301
1465.89360352,0.03993972
1467.82241089,0.04543702
1469.75121826,0.04856892
1471.68002563,0.04335991
1473.60883301,0.04589576
1475.53764038,0.05222085
1477.46644775,0.05592827
1479.39525513,0.06115567
1481.32406250,0.06184331
1483.25286987,0.06550325
1485.18167725,0.06753102
1487.11048462,0.06646711
1489.03929199,0.06616080
1490.96809937,0.06669316
1492.89690674,0.07672598
1494.82571411,0.07467617
1496.75452148,0.06782506
1498.68332886,0.07619996
1500.61213623,0.07842137
1502.54094360,0.08375114
1504.46975098,0.07879916
1506.39855835,0.05848088
1508.32736572,0.07080485
1510.25617310,0.08197992
1512.18498047,0.07946158
1514.11378784,0.08564225
1516.04259521,0.07730987
1517.97140259,0.08063754
1519.90020996,0.07747641
1521.82901733,0.06762830
1523.75782471,0.08205484
1525.68663208,0.07999463
1527.61543945,0.07994786
1529.54424683,0.08761445
1531.47305420,0.08374766
1533.40186157,0.07720636
1535.33066895,0.08142041
1537.25947632,0.08618551
1539.18828369,0.06249186
1541.11709106,0.06552435
1543.04589844,0.07735725
1544.97470581,0.07414778
1546.90351318,0.08666764
1548.83232056,0.08069580
1550.76112793,0.08303145
1552.68993530,0.08190094
1554.61874268,0.07472866
1556.54755005,0.07923967
1558.47635742,0.05653596
1560.40516479,0.06124678
1562.33397217,0.08462606
1564.26277954,0.07954936
1566.19158691,0.08155140
1568.12039429,0.08008926
1570.04920166,0.07123032
1571.97800903,0.08135152
1573.90681641,0.08119036
1575.83562378,0.06490374
1577.76443115,0.07283749
1579.69323853,0.08104242
1581.62204590,0.07725304
1583.55085327,0.07855554
1585.47966064,0.07689811
1587.40846802,0.07677926
1589.33727539,0.07575358
1591.26608276,0.07528602
1593.19489014,0.07458071
1595.12369751,0.07332940
1597.05250488,0.07346731
1598.98131226,0.07241379
1600.91011963,0.07251274
1602.83892700,0.07066837
1604.76773437,0.07120867
1606.69654175,0.06960043
1608.62534912,0.06920218
1610.55415649,0.06848751
1612.48296387,0.06858155
1614.41177124,0.06913446
1616.34057861,0.05663301
1618.26938599,0.06148059
1620.19819336,0.07046250
1622.12700073,0.06273080
1624.05580811,0.06308888
1625.98461548,0.06592553
1627.91342285,0.06599574
1629.84223022,0.06586684
1631.77103760,0.07066759
1633.69984497,0.06548485
1635.62865234,0.05519227
1637.55745972,0.06458867
1639.48626709,0.07137139
1641.41507446,0.07052911
1643.34388184,0.07304099
1645.27268921,0.06690980
1647.20149658,0.05996418
1649.13030396,0.07517649
1651.05911133,0.07150201
1652.98791870,0.04772054
1654.91672607,0.06535709
1656.84553345,0.08166288
1658.77434082,0.07931809
1660.70314819,0.08239853
1662.63195557,0.07624967
1664.56076294,0.08133640
1666.48957031,0.08824901
1668.41837769,0.07830054
1670.34718506,0.07736764
1672.27599243,0.08825086
1674.20479980,0.08222789
1676.13360718,0.08053964
1678.06241455,0.09285514
1679.99122192,0.09058317
1681.92002930,0.09051606
1683.84883667,0.07466313
1685.77764404,0.07541716
1687.70645142,0.10240550
1689.63525879,0.09013996
1691.56406616,0.09997991
1693.49287354,0.10192603
1695.42168091,0.07619294
1697.35048828,0.09426846
1699.27929565,0.08349837
1701.20810303,0.07669213
1703.13691040,0.10365808
1705.06571777,0.09561436
1706.99452515,0.09733430
1708.92333252,0.10541673
1710.85213989,0.10210761
1712.78094727,0.10439664
1714.70975464,0.09726053
1716.63856201,0.08820002
1718.56736938,0.08726066
1720.49617676,0.10329445
1722.42498413,0.10691464
1724.35379150,0.10018119
1726.28259888,0.10870074
1728.21140625,0.10054618
1730.14021362,0.10197520
1732.06902100,0.09900314
1733.99782837,0.07689348
1735.92663574,0.09513236
1737.85544312,0.10446751
1739.78425049,0.09368370
1741.71305786,0.10174415
1743.64186523,0.10307381
1745.57067261,0.10317558
1747.49947998,0.10428905
1749.42828735,0.09995385
1751.35709473,0.09607486
1753.28590210,0.10607260
1755.21470947,0.11027451
1757.14351685,0.10136566
1759.07232422,0.11091688
1761.00113159,0.10413256
1762.92993896,0.10113899
1764.85874634,0.11474817
1766.78755371,0.10356225
1768.71636108,0.10486715
1770.64516846,0.10387221
1772.57397583,0.09390488
1774.50278320,0.10448153
1776.43159058,0.10982005
1778.36039795,0.10826015
1780.28920532,0.10697967
1782.21801270,0.10773946
1784.14682007,0.10735388
1786.07562744,0.10549892
1788.00443481,0.11072136
1789.93324219,0.10763191
1791.86204956,0.09795687
1793.79085693,0.10209261
1795.71966431,0.10890274
1797.64847168,0.10730142
1799.57727905,0.10577388
1801.50608643,0.10402140
1803.43489380,0.10718629
1805.36370117,0.10924730
1807.29250854,0.10765901
1809.22131592,0.10811778
1811.15012329,0.10530305
1813.07893066,0.10819775
1815.00773804,0.10849233
1816.93654541,0.10733718
1818.86535278,0.10810702
1820.79416016,0.10758013
1822.72296753,0.10899732
1824.65177490,0.10205197
1826.58058228,0.10556941
1828.50938965,0.10554133
1830.43819702,0.09943663
1832.36700439,0.10763797
1834.29581177,0.10668250
1836.22461914,0.10660510
1838.15342651,0.10600469
1840.08223389,0.10662514
1842.01104126,0.10643896
1843.93984863,0.09488342
1845.86865601,0.10102752
1847.79746338,0.10599646
1849.72627075,0.10380268
1851.65507812,0.10662371
1853.58388550,0.10430945
1855.51269287,0.10531214
1857.44150024,0.10462433
1859.37030762,0.10384633
1861.29911499,0.10438107
1863.22792236,0.10313816
1865.15672974,0.10414612
1867.08553711,0.10062698
1869.01434448,0.09664617
1870.94315186,0.10036693
1872.87195923,0.10348086
1874.80076660,0.10174376
1876.72957397,0.10245383
1878.65838135,0.10190193
1880.58718872,0.10118757
1882.51599609,0.10188478
1884.44480347,0.10021475
1886.37361084,0.10149848
1888.30241821,0.09920308
1890.23122559,0.09726121
1892.16003296,0.10061702
1894.08884033,0.09920257
1896.01764771,0.09864304
1897.94645508,0.09962593
1899.87526245,0.09900589
1901.80406982,0.09906400
1903.73287720,0.09837060
1905.66168457,0.09859589
1907.59049194,0.09771374
1909.51929932,0.09713668
1911.44810669,0.09751000
1913.37691406,0.09741174
1915.30572144,0.09802255
1917.23452881,0.09385782
1919.16333618,0.09392111
1921.09214355,0.09721333
1923.02095093,0.09402888
1924.94975830,0.09566011
1926.87856567,0.09661724
1928.80737305,0.09535864
1930.73618042,0.09635350
1932.66498779,0.09508887
1934.59379517,0.09572986
1936.52260254,0.09484507
1938.45140991,0.09511414
1940.38021729,0.09501755
1942.30902466,0.09197451
1944.23783203,0.09354798
1946.16663940,0.09429266
1948.09544678,0.09384700
1950.02425415,0.09412691
1951.95306152,0.09390256
1953.88186890,0.09379917
1955.81067627,0.09309137
1957.73948364,0.09319302
1959.66829102,0.09297233
1961.59709839,0.09277995
1963.52590576,0.09296896
1965.45471313,0.09229979
1967.38352051,0.09134056
1969.31232788,0.09188104
1971.24113525,0.09225728
1973.16994263,0.09165940
1975.09875000,0.09181456
1977.02755737,0.09116697
1978.95636475,0.09120182
1980.88517212,0.09092835
1982.81397949,0.09043878
1984.74278687,0.09081435
1986.67159424,0.08996140
1988.60040161,0.08991119
1990.52920898,0.08909035
1992.45801636,0.08814901
1994.38682373,0.08908936
1996.31563110,0.08906476
1998.24443848,0.08866131
2000.17324585,0.08862910
2002.10205322,0.08813479
2004.03086060,0.08790342
2005.95966797,0.08775929
2007.88847534,0.08727507
2009.81728271,0.08725964
2011.74609009,0.08686803
2013.67489746,0.08672251
2015.60370483,0.08620365
2017.53251221,0.08523367
2019.46131958,0.08580052
2021.39012695,0.08549982
2023.31893433,0.08508503
2025.24774170,0.08497824
2027.17654907,0.08450568
2029.10535645,0.08443314
2031.03416382,0.08402725
2032.96297119,0.08405227
2034.89177856,0.08358474
2036.82058594,0.08333173
2038.74939331,0.08317582
2040.67820068,0.08241936
2042.60700806,0.08247492
2044.53581543,0.08231437
2046.46462280,0.08214174
2048.39343018,0.08186480
2050.32223755,0.08144939
2052.25104492,0.08137415
2054.17985229,0.08108336
2056.10865967,0.08077437
2058.03746704,0.08060297
2059.96627441,0.08051640
2061.89508179,0.08026442
2063.82388916,0.07983544
2065.75269653,0.07950446
2067.68150391,0.07956640
2069.61031128,0.07940148
2071.53911865,0.07912225
2073.46792603,0.07889267
2075.39673340,0.07866852
2077.32554077,0.07873927
2079.25434814,0.07831256
2081.18315552,0.07820281
2083.11196289,0.07808606
2085.04077026,0.07773863
2086.96957764,0.07766904
2088.89838501,0.07721852
2090.82719238,0.07716310
2092.75599976,0.07709557
2094.68480713,0.07691334
2096.61361450,0.07684980
2098.54242187,0.07665457
2100.47122925,0.07648288
2102.40003662,0.07621108
2104.32884399,0.07611910
2106.25765137,0.07595205
2108.18645874,0.07585101
2110.11526611,0.07579762
2112.04407349,0.07559253
2113.97288086,0.07539270
2115.90168823,0.07529784
2117.83049561,0.07514688
2119.75930298,0.07490476
2121.68811035,0.07491870
2123.61691772,0.07477315
2125.54572510,0.07469073
2127.47453247,0.07453751
2129.40333984,0.07433058
2131.33214722,0.07429917
2133.26095459,0.07413435
2135.18976196,0.07412595
2137.11856934,0.07401571
2139.04737671,0.07396704
2140.97618408,0.07377845
2142.90499146,0.07365005
2144.83379883,0.07375544
2146.76260620,0.07354574
2148.69141357,0.07352902
2150.62022095,0.07346607
2152.54902832,0.07332382
2154.47783569,0.07331560
2156.40664307,0.07323538
2158.33545044,0.07301146
2160.26425781,0.07290196
2162.19306519,0.07289717
2164.12187256,0.07272923
2166.05067993,0.07272108
2167.97948730,0.07263501
2169.90829468,0.07259713
2171.83710205,0.07255784
2173.76590942,0.07255822
2175.69471680,0.07249162
2177.62352417,0.07214928
2179.55233154,0.07226020
2181.48113892,0.07228038
2183.40994629,0.07216253
2185.33875366,0.07204233
2187.26756104,0.07183272
2189.19636841,0.07180701
2191.12517578,0.07174484
2193.05398315,0.07176545
2194.98279053,0.07177126
2196.91159790,0.07172795
2198.84040527,0.07152598
2200.76921265,0.07148090
2202.69802002,0.07147883
2204.62682739,0.07134606
2206.55563477,0.07138240
2208.48444214,0.07125783
2210.41324951,0.07121016
2212.34205688,0.07105882
2214.27086426,0.07100061
2216.19967163,0.07100645
2218.12847900,0.07092497
2220.05728638,0.07093514
2221.98609375,0.07068664
2223.91490112,0.07072493
2225.84370850,0.07055372
2227.77251587,0.07039471
2229.70132324,0.07050437
2231.63013062,0.07020962
2233.55893799,0.07013600
2235.48774536,0.06998853
2237.41655273,0.06986438
2239.34536011,0.06989802
2241.27416748,0.06981099
2243.20297485,0.06977304
2245.13178223,0.06955294
2247.06058960,0.06941874
2248.98939697,0.06934702
2250.91820435,0.06925403
2252.84701172,0.06920767
2254.77581909,0.06903756
2256.70462646,0.06893617
2258.63343384,0.06885578
2260.56224121,0.06874287
2262.49104858,0.06875426
2264.41985596,0.06866065
2266.34866333,0.06848729
2268.27747070,0.06845920
2270.20627808,0.06847974
2272.13508545,0.06842820
2274.06389282,0.06819584
2275.99270020,0.06809956
2277.92150757,0.06819880
2279.85031494,0.06805967
2281.77912231,0.06792770
2283.70792969,0.06801152
2285.63673706,0.06784476
2287.56554443,0.06759753
2289.49435181,0.06746829
2291.42315918,0.06728495
2293.35196655,0.06718740
2295.28077393,0.06685319
2297.20958130,0.06667813
2299.13838867,0.06649770
2301.06719604,0.06607698
2302.99600342,0.06590866
2304.92481079,0.06545110
2306.85361816,0.06512705
2308.78242554,0.06457525
2310.71123291,0.06396223
2312.64004028,0.06351142
2314.56884766,0.06263450
2316.49765503,0.06218269
2318.42646240,0.06126851
2320.35526978,0.06026137
2322.28407715,0.05944930
2324.21288452,0.05849814
2326.14169189,0.05801434
2328.07049927,0.05728970
2329.99930664,0.05661495
2331.92811401,0.05596802
2333.85692139,0.05578299
2335.78572876,0.05558813
2337.71453613,0.05528492
2339.64334351,0.05547194
2341.57215088,0.05555452
2343.50095825,0.05646948
2345.42976562,0.05755515
2347.35857300,0.05998909
2349.28738037,0.06198493
2351.21618774,0.05967903
2353.14499512,0.05656889
2355.07380249,0.05432013
2357.00260986,0.05259185
2358.93141724,0.05155904
2360.86022461,0.05100853
2362.78903198,0.05098857
2364.71783936,0.05119396
2366.64664673,0.05209617
2368.57545410,0.05308484
2370.50426147,0.05437744
2372.43306885,0.05605400
2374.36187622,0.05756748
2376.29068359,0.05912811
2378.21949097,0.06053303
2380.14829834,0.06154098
2382.07710571,0.06209167
2384.00591309,0.06265593
2385.93472046,0.06282974
2387.86352783,0.06276878
2389.79233521,0.06281866
2391.72114258,0.06275084
2393.64994995,0.06276855
2395.57875732,0.06258684
2397.50756470,0.06250235
2399.43637207,0.06244273
2401.36517944,0.06232350
2403.29398682,0.06216922
2405.22279419,0.06192343
2407.15160156,0.06187088
2409.08040894,0.06178112
2411.00921631,0.06178291
2412.93802368,0.06169056
2414.86683105,0.06153670
2416.79563843,0.06150641
2418.72444580,0.06134935
2420.65325317,0.06123937
2422.58206055,0.06116626
2424.51086792,0.06097631
2426.43967529,0.06087472
2428.36848267,0.06093276
2430.29729004,0.06078962
2432.22609741,0.06062639
2434.15490479,0.06054307
2436.08371216,0.06050047
2438.01251953,0.06042679
2439.94132690,0.06016950
2441.87013428,0.06013174
2443.79894165,0.06016871
2445.72774902,0.06006384
2447.65655640,0.05977941
2449.58536377,0.05963238
2451.51417114,0.05966518
2453.44297852,0.05952128
2455.37178589,0.05949440
2457.30059326,0.05932904
2459.22940063,0.05915666
2461.15820801,0.05918257
2463.08701538,0.05906887
2465.01582275,0.05893589
2466.94463013,0.05884182
2468.87343750,0.05870732
2470.80224487,0.05856957
2472.73105225,0.05855743
2474.65985962,0.05844452
2476.58866699,0.05826220
2478.51747437,0.05819065
2480.44628174,0.05808876
2482.37508911,0.05802027
2484.30389648,0.05794540
2486.23270386,0.05777543
2488.16151123,0.05772091
2490.09031860,0.05762037
2492.01912598,0.05738916
2493.94793335,0.05744940
2495.87674072,0.05736136
2497.80554810,0.05717304
2499.73435547,0.05710660
2501.66316284,0.05703579
2503.59197021,0.05699658
2505.52077759,0.05668693
2507.44958496,0.05677780
2509.37839233,0.05667506
2511.30719971,0.05629623
2513.23600708,0.05637544
2515.16481445,0.05629224
2517.09362183,0.05633580
2519.02242920,0.05606969
2520.95123657,0.05589779
2522.88004395,0.05598810
2524.80885132,0.05570896
2526.73765869,0.05568785
2528.66646606,0.05555193
2530.59527344,0.05539948
2532.52408081,0.05524871
2534.45288818,0.05514551
2536.38169556,0.05518039
2538.31050293,0.05501932
2540.23931030,0.05499027
2542.16811768,0.05489570
2544.09692505,0.05482209
2546.02573242,0.05469774
2547.95453979,0.05453498
2549.88334717,0.05442804
2551.81215454,0.05424030
2553.74096191,0.05414880
2555.66976929,0.05411195
2557.59857666,0.05414337
2559.52738403,0.05387787
2561.45619141,0.05373172
2563.38499878,0.05380080
2565.31380615,0.05352564
2567.24261353,0.05337954
2569.17142090,0.05335318
2571.10022827,0.05319881
2573.02903564,0.05305801
2574.95784302,0.05301824
2576.88665039,0.05294475
2578.81545776,0.05283119
2580.74426514,0.05268975
2582.67307251,0.05256572
2584.60187988,0.05257107
2586.53068726,0.05239938
2588.45949463,0.05219572
2590.38830200,0.05221264
2592.31710937,0.05209405
2594.24591675,0.05184474
2596.17472412,0.05187591
2598.10353149,0.05174401
2600.03233887,0.05158580
2601.96114624,0.05161871
2603.88995361,0.05128011
2605.81876099,0.05120415
2607.74756836,0.05121212
2609.67637573,0.05107667
2611.60518311,0.05102137
2613.53399048,0.05077727
2615.46279785,0.05070176
2617.39160522,0.05060113
2619.32041260,0.05050212
2621.24921997,0.05038799
2623.17802734,0.05025487
2625.10683472,0.05022940
2627.03564209,0.04997451
2628.96444946,0.04981688
2630.89325684,0.04980759
2632.82206421,0.04970019
2634.75087158,0.04959010
2636.67967895,0.04956149
2638.60848633,0.04937327
2640.53729370,0.04919901
2642.46610107,0.04906605
2644.39490845,0.04891624
2646.32371582,0.04897477
2648.25252319,0.04870525
2650.18133057,0.04858511
2652.11013794,0.04856921
2654.03894531,0.04829561
2655.96775269,0.04828196
2657.89656006,0.04812971
2659.82536743,0.04796501
2661.75417480,0.04794354
2663.68298218,0.04792108
2665.61178955,0.04779647
2667.54059692,0.04756427
2669.46940430,0.04740965
2671.39821167,0.04740736
2673.32701904,0.04738014
2675.25582642,0.04706430
2677.18463379,0.04700220
2679.11344116,0.04687157
2681.04224854,0.04668664
2682.97105591,0.04666913
2684.89986328,0.04644764
2686.82867065,0.04643609
2688.75747803,0.04629581
2690.68628540,0.04611579
2692.61509277,0.04597696
2694.54390015,0.04583788
2696.47270752,0.04586662
2698.40151489,0.04568966
2700.33032227,0.04554882
2702.25912964,0.04536393
2704.18793701,0.04530607
2706.11674438,0.04531953
2708.04555176,0.04511233
2709.97435913,0.04494166
2711.90316650,0.04477812
2713.83197388,0.04470871
2715.76078125,0.04457453
2717.68958862,0.04440504
2719.61839600,0.04429682
2721.54720337,0.04423707
2723.47601074,0.04410703
2725.40481812,0.04386513
2727.33362549,0.04381285
2729.26243286,0.04369276
2731.19124023,0.04347308
2733.12004761,0.04334211
2735.04885498,0.04325537
2736.97766235,0.04314372
2738.90646973,0.04304465
2740.83527710,0.04297588
2742.76408447,0.04277663
2744.69289185,0.04253078
2746.62169922,0.04243935
2748.55050659,0.04249026
2750.47931396,0.04231640
2752.40812134,0.04207939
2754.33692871,0.04194637
2756.26573608,0.04179956
2758.19454346,0.04169948
2760.12335083,0.04148848
2762.05215820,0.04132368
2763.98096558,0.04116626
2765.90977295,0.04103613
2767.83858032,0.04097921
2769.76738770,0.04079705
2771.69619507,0.04059741
2773.62500244,0.04049205
2775.55380981,0.04042516
2777.48261719,0.04026725
2779.41142456,0.04024409
2781.34023193,0.04008058
2783.26903931,0.03978182
2785.19784668,0.03972316
2787.12665405,0.03963429
2789.05546143,0.03945980
2790.98426880,0.03921610
2792.91307617,0.03919332
2794.84188354,0.03905464
2796.77069092,0.03883659
2798.69949829,0.03889880
2800.62830566,0.03858759
2802.55711304,0.03838252
2804.48592041,0.03832313
2806.41472778,0.03802522
2808.34353516,0.03793496
2810.27234253,0.03779625
2812.20114990,0.03764565
2814.12995728,0.03765649
2816.05876465,0.03741892
2817.98757202,0.03710974
2819.91637939,0.03701583
2821.84518677,0.03691098
2823.77399414,0.03677566
2825.70280151,0.03658858
2827.63160889,0.03649653
2829.56041626,0.03641133
2831.48922363,0.03610253
2833.41803101,0.03596686
2835.34683838,0.03591299
2837.27564575,0.03570724
2839.20445312,0.03544152
2841.13326050,0.03528834
2843.06206787,0.03512686
2844.99087524,0.03479029
2846.91968262,0.03450629
2848.84848999,0.03426053
2850.77729736,0.03413870
2852.70610474,0.03400111
2854.63491211,0.03382289
2856.56371948,0.03373158
2858.49252686,0.03364983
2860.42133423,0.03355621
2862.35014160,0.03329873
2864.27894897,0.03310046
2866.20775635,0.03301230
2868.13656372,0.03300473
2870.06537109,0.03291848
2871.99417847,0.03273287
2873.92298584,0.03259916
2875.85179321,0.03240037
2877.78060059,0.03231666
2879.70940796,0.03207161
2881.63821533,0.03193066
2883.56702270,0.03185906
2885.49583008,0.03153053
2887.42463745,0.03147531
2889.35344482,0.03132116
2891.28225220,0.03112991
2893.21105957,0.03106971
2895.13986694,0.03090389
2897.06867432,0.03075100
2898.99748169,0.03050737
2900.92628906,0.03026436
2902.85509644,0.03007047
2904.78390381,0.02991317
2906.71271118,0.02973937
2908.64151855,0.02960209
2910.57032593,0.02942648
2912.49913330,0.02911959
2914.42794067,0.02876677
2916.35674805,0.02848958
2918.28555542,0.02843589
2920.21436279,0.02827644
2922.14317017,0.02812830
2924.07197754,0.02803800
2926.00078491,0.02789801
2927.92959229,0.02779880
2929.85839966,0.02764415
2931.78720703,0.02757245
2933.71601440,0.02741552
2935.64482178,0.02732945
2937.57362915,0.02723209
2939.50243652,0.02705223
2941.43124390,0.02702215
2943.36005127,0.02678971
2945.28885864,0.02661034
2947.21766602,0.02650113
2949.14647339,0.02636431
2951.07528076,0.02631658
2953.00408813,0.02617095
2954.93289551,0.02593336
2956.86170288,0.02566058
2958.79051025,0.02553406
2960.71931763,0.02539955
2962.64812500,0.02526056
2964.57693237,0.02509519
2966.50573975,0.02491911
2968.43454712,0.02486696
2970.36335449,0.02465677
2972.29216187,0.02465279
2974.22096924,0.02461599
2976.14977661,0.02438419
2978.07858398,0.02442358
2980.00739136,0.02434594
2981.93619873,0.02418390
2983.86500610,0.02397388
2985.79381348,0.02383339
2987.72262085,0.02381391
2989.65142822,0.02366778
2991.58023560,0.02357448
2993.50904297,0.02323995
2995.43785034,0.02316288
2997.36665771,0.02322295
2999.29546509,0.02279769
3001.22427246,0.02280271
3003.15307983,0.02278320
3005.08188721,0.02248599
3007.01069458,0.02239153
3008.93950195,0.02213327
3010.86830933,0.02198460
3012.79711670,0.02185433
3014.72592407,0.02166741
3016.65473145,0.02161240
3018.58353882,0.02149080
3020.51234619,0.02130310
3022.44115356,0.02112091
3024.36996094,0.02101789
3026.29876831,0.02094580
3028.22757568,0.02074033
3030.15638306,0.02048061
3032.08519043,0.02051632
3034.01399780,0.02038870
3035.94280518,0.02011747
3037.87161255,0.02016710
3039.80041992,0.01996869
3041.72922729,0.01974255
3043.65803467,0.01969369
3045.58684204,0.01964038
3047.51564941,0.01955656
3049.44445679,0.01933353
3051.37326416,0.01917801
3053.30207153,0.01906541
3055.23087891,0.01894106
3057.15968628,0.01875129
3059.08849365,0.01865111
3061.01730103,0.01854308
3062.94610840,0.01848907
3064.87491577,0.01840093
3066.80372314,0.01811038
3068.73253052,0.01824050
3070.66133789,0.01814085
3072.59014526,0.01782260
3074.51895264,0.01779040
3076.44776001,0.01770383
3078.37656738,0.01762062
3080.30537476,0.01743308
3082.23418213,0.01732964
3084.16298950,0.01713900
3086.09179687,0.01712032
3088.02060425,0.01713806
3089.94941162,0.01691571
3091.87821899,0.01690280
3093.80702637,0.01674817
3095.73583374,0.01672671
3097.66464111,0.01656098
3099.59344849,0.01638718
3101.52225586,0.01644707
3103.45106323,0.01629445
3105.37987061,0.01633708
3107.30867798,0.01612801
3109.23748535,0.01593887
3111.16629272,0.01589526
3113.09510010,0.01572722
3115.02390747,0.01572059
3116.95271484,0.01557181
3118.88152222,0.01547267
3120.81032959,0.01541687
3122.73913696,0.01536356
3124.66794434,0.01532368
3126.59675171,0.01525678
3128.52555908,0.01514401
3130.45436645,0.01502275
3132.38317383,0.01497452
3134.31198120,0.01481554
3136.24078857,0.01479920
3138.16959595,0.01473278
3140.09840332,0.01462889
3142.02721069,0.01453054
3143.95601807,0.01447575
3145.88482544,0.01454983
3147.81363281,0.01432896
3149.74244019,0.01428130
3151.67124756,0.01423419
3153.60005493,0.01405117
3155.52886230,0.01408493
3157.45766968,0.01409273
3159.38647705,0.01400980
3161.31528442,0.01382557
3163.24409180,0.01384841
3165.17289917,0.01390327
3167.10170654,0.01380509
3169.03051392,0.01370579
3170.95932129,0.01362426
3172.88812866,0.01359176
3174.81693604,0.01351318
3176.74574341,0.01345769
3178.67455078,0.01339824
3180.60335815,0.01342008
3182.53216553,0.01347241
3184.46097290,0.01343139
3186.38978027,0.01329670
3188.31858765,0.01323715
3190.24739502,0.01330568
3192.17620239,0.01329737
3194.10500977,0.01324664
3196.03381714,0.01312087
3197.96262451,0.01312771
3199.89143188,0.01308189
3201.82023926,0.01310598
3203.74904663,0.01316567
3205.67785400,0.01294164
3207.60666138,0.01307738
3209.53546875,0.01310847
3211.46427612,0.01300937
3213.39308350,0.01309746
3215.32189087,0.01300648
3217.25069824,0.01297478
3219.17950562,0.01299911
3221.10831299,0.01307391
3223.03712036,0.01299893
3224.96592773,0.01291115
3226.89473511,0.01299698
3228.82354248,0.01298810
3230.75234985,0.01297161
3232.68115723,0.01303303
3234.60996460,0.01305269
3236.53877197,0.01304633
3238.46757935,0.01308031
3240.39638672,0.01299372
3242.32519409,0.01309195
3244.25400146,0.01310268
3246.18280884,0.01299266
3248.11161621,0.01305728
3250.04042358,0.01301266
3251.96923096,0.01323550
3253.89803833,0.01319768
3255.82684570,0.01304671
3257.75565308,0.01320613
3259.68446045,0.01314981
3261.61326782,0.01323064
3263.54207520,0.01328910
3265.47088257,0.01326708
3267.39968994,0.01331348
3269.32849731,0.01332064
3271.25730469,0.01335650
3273.18611206,0.01333651
3275.11491943,0.01326556
3277.04372681,0.01338121
3278.97253418,0.01355479
3280.90134155,0.01347521
3282.83014893,0.01351542
3284.75895630,0.01353572
3286.68776367,0.01351881
3288.61657104,0.01352304
3290.54537842,0.01348582
3292.47418579,0.01352309
3294.40299316,0.01342161
3296.33180054,0.01357090
3298.26060791,0.01363400
3300.18941528,0.01359810
3302.11822266,0.01369994
3304.04703003,0.01364538
3305.97583740,0.01369412
3307.90464478,0.01365785
3309.83345215,0.01372253
3311.76225952,0.01380837
3313.69106689,0.01369124
3315.61987427,0.01374452
3317.54868164,0.01396567
3319.47748901,0.01395394
3321.40629639,0.01384610
3323.33510376,0.01394321
3325.26391113,0.01386971
3327.19271851,0.01390320
3329.12152588,0.01393995
3331.05033325,0.01395178
3332.97914062,0.01403133
3334.90794800,0.01394333
3336.83675537,0.01397231
3338.76556274,0.01395591
3340.69437012,0.01402735
3342.62317749,0.01407348
3344.55198486,0.01409580
3346.48079224,0.01408925
3348.40959961,0.01418989
3350.33840698,0.01437445
3352.26721436,0.01417275
3354.19602173,0.01426012
3356.12482910,0.01430584
3358.05363647,0.01437543
3359.98244385,0.01445672
3361.91125122,0.01437245
3363.84005859,0.01451617
3365.76886597,0.01442586
3367.69767334,0.01449880
3369.62648071,0.01443270
3371.55528809,0.01455063
3373.48409546,0.01474277
3375.41290283,0.01460203
3377.34171020,0.01477410
3379.27051758,0.01473522
3381.19932495,0.01483750
3383.12813232,0.01488700
3385.05693970,0.01492290
3386.98574707,0.01500915
3388.91455444,0.01497839
3390.84336182,0.01515253
3392.77216919,0.01509084
3394.70097656,0.01524034
3396.62978394,0.01527867
3398.55859131,0.01530598
3400.48739868,0.01536559
3402.41620605,0.01533633
3404.34501343,0.01558944
3406.27382080,0.01561882
3408.20262817,0.01577542
3410.13143555,0.01581029
3412.06024292,0.01584359
3413.98905029,0.01595554
3415.91785767,0.01602776
3417.84666504,0.01615686
3419.77547241,0.01598532
3421.70427979,0.01612592
3423.63308716,0.01630777
3425.56189453,0.01633898
3427.49070190,0.01643265
3429.41950928,0.01657924
3431.34831665,0.01654552
3433.27712402,0.01653276
3435.20593140,0.01679209
3437.13473877,0.01676233
3439.06354614,0.01691937
3440.99235352,0.01691997
3442.92116089,0.01693074
3444.84996826,0.01707951
3446.77877563,0.01693843
3448.70758301,0.01718475
3450.63639038,0.01746985
3452.56519775,0.01754350
3454.49400513,0.01743585
3456.42281250,0.01753787
3458.35161987,0.01767983
3460.28042725,0.01764049
3462.20923462,0.01779339
3464.13804199,0.01793752
3466.06684937,0.01802696
3467.99565674,0.01803908
3469.92446411,0.01825919
3471.85327148,0.01826841
3473.78207886,0.01834683
3475.71088623,0.01849448
3477.63969360,0.01855702
3479.56850098,0.01874281
3481.49730835,0.01843974
3483.42611572,0.01868469
3485.35492310,0.01896464
3487.28373047,0.01891193
3489.21253784,0.01905265
3491.14134521,0.01919169
3493.07015259,0.01941242
3494.99895996,0.01924666
3496.92776733,0.01933253
3498.85657471,0.01948187
3500.78538208,0.01957712
3502.71418945,0.01940985
3504.64299683,0.01950462
3506.57180420,0.02005656
3508.50061157,0.01980933
3510.42941895,0.02001083
3512.35822632,0.02013687
3514.28703369,0.02022067
3516.21584106,0.02054133
3518.14464844,0.02038411
3520.07345581,0.02060557
3522.00226318,0.02057985
3523.93107056,0.02050878
3525.85987793,0.02062263
3527.78868530,0.02073706
3529.71749268,0.02081670
3531.64630005,0.02110947
3533.57510742,0.02150115
3535.50391479,0.02129487
3537.43272217,0.02138999
3539.36152954,0.02166821
3541.29033691,0.02175329
3543.21914429,0.02160183
3545.14795166,0.02127421
3547.07675903,0.02124830
3549.00556641,0.02200970
3550.93437378,0.02229243
3552.86318115,0.02169638
3554.79198853,0.02228871
3556.72079590,0.02261195
3558.64960327,0.02247465
3560.57841064,0.02240140
3562.50721802,0.02240136
3564.43602539,0.02265732
3566.36483276,0.02129743
3568.29364014,0.02096540
3570.22244751,0.02257803
3572.15125488,0.02326204
3574.08006226,0.02317036
3576.00886963,0.02325081
3577.93767700,0.02333331
3579.86648437,0.02340408
3581.79529175,0.02351769
3583.72409912,0.02367982
3585.65290649,0.02328809
3587.58171387,0.02162969
3589.51052124,0.02236800
3591.43932861,0.02422501
3593.36813599,0.02367948
3595.29694336,0.02336022
3597.22575073,0.02369268
3599.15455811,0.02406744
3601.08336548,0.02401599
3603.01217285,0.02442135
3604.94098022,0.02497462
3606.86978760,0.02409832
3608.79859497,0.02290836
3610.72740234,0.02352119
3612.65620972,0.02403751
3614.58501709,0.02348911
3616.51382446,0.02517727
3618.44263184,0.02343244
3620.37143921,0.02292848
3622.30024658,0.02575614
3624.22905395,0.02511305
3626.15786133,0.02628451
3628.08666870,0.02249770
3630.01547607,0.02086664
3631.94428345,0.02592939
3633.87309082,0.02544908
3635.80189819,0.02598839
3637.73070557,0.02650729
3639.65951294,0.02642295
3641.58832031,0.02666856
3643.51712769,0.02647874
3645.44593506,0.02687798
3647.37474243,0.02436796
3649.30354980,0.02269785
3651.23235718,0.02310004
3653.16116455,0.02731491
3655.08997192,0.02698161
3657.01877930,0.02452668
3658.94758667,0.02817940
3660.87639404,0.02763981
3662.80520142,0.02821112
3664.73400879,0.02823927
3666.66281616,0.02813630
3668.59162354,0.02738420
3670.52043091,0.02274992
3672.44923828,0.02750080
3674.37804565,0.02628737
3676.30685303,0.02213053
3678.23566040,0.02759108
3680.16446777,0.02829190
3682.09327515,0.02840499
3684.02208252,0.02924915
3685.95088989,0.02882589
3687.87969727,0.02616340
3689.80850464,0.02424261
3691.73731201,0.02753787
3693.66611938,0.02829652
3695.59492676,0.02885426
3697.52373413,0.02887033
3699.45254150,0.02864137
3701.38134888,0.02796420
3703.31015625,0.02707131
3705.23896362,0.02960912
3707.16777100,0.02816572
3709.09657837,0.02758124
3711.02538574,0.02596073
3712.95419312,0.02438227
3714.88300049,0.02838643
3716.81180786,0.02787139
3718.74061523,0.02809749
3720.66942261,0.02755946
3722.59822998,0.02661322
3724.52703735,0.02750055
3726.45584473,0.02561473
3728.38465210,0.02759527
3730.31345947,0.02723403
3732.24226685,0.02527137
3734.17107422,0.02467064
3736.09988159,0.02347397
3738.02868896,0.02467251
3739.95749634,0.02649378
3741.88630371,0.02770329
3743.81511108,0.02168827
3745.74391846,0.02059465
3747.67272583,0.02631701
3749.60153320,0.02278327
3751.53034058,0.02116711
3753.45914795,0.02398716
3755.38795532,0.02573634
3757.31676270,0.02659813
3759.24557007,0.02462255
3761.17437744,0.02547106
3763.10318481,0.02682734
3765.03199219,0.02515475
3766.96079956,0.02557627
3768.88960693,0.02525235
3770.81841431,0.02417780
3772.74722168,0.02597959
3774.67602905,0.02610317
3776.60483643,0.02599924
3778.53364380,0.02522224
3780.46245117,0.02426157
3782.39125854,0.02573669
3784.32006592,0.02517348
3786.24887329,0.02493770
3788.17768066,0.02551178
3790.10648804,0.02528251
3792.03529541,0.02501198
3793.96410278,0.02547714
3795.89291016,0.02399943
3797.82171753,0.02374051
3799.75052490,0.02482751
3801.67933228,0.01997656
3803.60813965,0.02320706
3805.53694702,0.02487325
3807.46575439,0.02058963
3809.39456177,0.02463963
3811.32336914,0.02412573
3813.25217651,0.02485312
3815.18098389,0.02251767
3817.10979126,0.02001374
3819.03859863,0.02473002
3820.96740601,0.02035407
3822.89621338,0.02147456
3824.82502075,0.02453195
3826.75382812,0.02229249
3828.68263550,0.02383276
3830.61144287,0.02290623
3832.54025024,0.02230402
3834.46905762,0.02269677
3836.39786499,0.02155529
3838.32667236,0.01956948
3840.25547974,0.02117188
3842.18428711,0.02271940
3844.11309448,0.02163530
3846.04190186,0.02323894
3847.97070923,0.02283971
3849.89951660,0.02291931
3851.82832397,0.02062522
3853.75713135,0.01563919
3855.68593872,0.01851248
3857.61474609,0.02283636
3859.54355347,0.02216925
3861.47236084,0.02196321
3863.40116821,0.02139884
3865.32997559,0.02001588
3867.25878296,0.02226971
3869.18759033,0.02033003
3871.11639770,0.01899006
3873.04520508,0.02218402
3874.97401245,0.02035676
3876.90281982,0.02199801
3878.83162720,0.02223158
3880.76043457,0.01919777
3882.68924194,0.02194834
3884.61804932,0.02056351
3886.54685669,0.01902496
3888.47566406,0.02188716
3890.40447144,0.02075959
3892.33327881,0.01960593
3894.26208618,0.02133186
3896.19089355,0.02164729
3898.11970093,0.02062340
3900.04850830,0.01965749
3901.97731567,0.01944768
3903.90612305,0.01921336
3905.83493042,0.01950032
3907.76373779,0.02114612
3909.69254517,0.02101842
3911.62135254,0.02079950
3913.55015991,0.02119789
3915.47896728,0.02044843
3917.40777466,0.01993020
3919.33658203,0.01983058
3921.26538940,0.02044181
3923.19419678,0.02041042
3925.12300415,0.01997805
3927.05181152,0.02020417
3928.98061890,0.02040296
3930.90942627,0.01989527
3932.83823364,0.01935038
3934.76704102,0.02016659
3936.69584839,0.02011900
3938.62465576,0.01998586
3940.55346313,0.02023494
3942.48227051,0.01946031
3944.41107788,0.01959425
3946.33988525,0.01991073
3948.26869263,0.01944200
3950.19750000,0.01932795
3952.12630737,0.01963218
3954.05511475,0.01969635
3955.98392212,0.01967310
3957.91272949,0.01952150
3959.84153687,0.01943314
3961.77034424,0.01943104
3963.69915161,0.01928519
3965.62795898,0.01948539
3967.55676636,0.01934235
3969.48557373,0.01921487
3971.41438110,0.01919246
3973.34318848,0.01910133
3975.27199585,0.01907680
3977.20080322,0.01899806
3979.12961060,0.01919269
3981.05841797,0.01893615
3982.98722534,0.01884324
3984.91603271,0.01885331
3986.84484009,0.01880995
3988.77364746,0.01878794
3990.70245483,0.01857063
3992.63126221,0.01871705
3994.56006958,0.01852835
3996.48887695,0.01856391
3998.41768433,0.01858616
4000.34649170,0.01843892
4002.27529907,0.01846519
4004.20410645,0.01833016
4006.13291382,0.01839837
4008.06172119,0.01820999
4009.99052856,0.01818231
4011.91933594,0.01813260
4013.84814331,0.01813961
4015.77695068,0.01815136
4017.70575806,0.01793976
4019.63456543,0.01804471
4021.56337280,0.01786417
4023.49218018,0.01786850
4025.42098755,0.01782030
4027.34979492,0.01773379
4029.27860229,0.01784483
4031.20740967,0.01775070
4033.13621704,0.01771541
4035.06502441,0.01760936
4036.99383179,0.01760443
4038.92263916,0.01747885
4040.85144653,0.01750642
4042.78025391,0.01744774
4044.70906128,0.01730527
4046.63786865,0.01739250
4048.56667603,0.01722959
4050.49548340,0.01727613
4052.42429077,0.01724071
4054.35309814,0.01716212
4056.28190552,0.01713537
4058.21071289,0.01709206
4060.13952026,0.01706133
4062.06832764,0.01692557
4063.99713501,0.01699294
4065.92594238,0.01688220
4067.85474976,0.01680066
4069.78355713,0.01679767
4071.71236450,0.01676123
4073.64117187,0.01672656
4075.56997925,0.01665486
4077.49878662,0.01660888
4079.42759399,0.01658275
4081.35640137,0.01665012
4083.28520874,0.01645391
4085.21401611,0.01640458
4087.14282349,0.01634919
4089.07163086,0.01629262
4091.00043823,0.01640257
4092.92924561,0.01628096
4094.85805298,0.01627209
4096.78686035,0.01614892
4098.71566772,0.01608588
4100.64447510,0.01610907
4102.57328247,0.01608165
4104.50208984,0.01599917
4106.43089722,0.01593682
4108.35970459,0.01593013
4110.28851196,0.01579196
4112.21731934,0.01587291
4114.14612671,0.01572681
4116.07493408,0.01580209
4118.00374145,0.01585473
4119.93254883,0.01563603
4121.86135620,0.01578150
4123.79016357,0.01563310
4125.71897095,0.01559914
4127.64777832,0.01548688
4129.57658569,0.01543340
4131.50539307,0.01555988
4133.43420044,0.01541779
4135.36300781,0.01545323
4137.29181519,0.01533985
4139.22062256,0.01531308
4141.14942993,0.01527005
4143.07823730,0.01517198
4145.00704468,0.01514296
4146.93585205,0.01507460
4148.86465942,0.01517121
4150.79346680,0.01508169
4152.72227417,0.01499068
4154.65108154,0.01498910
4156.57988892,0.01498565
4158.50869629,0.01494716
4160.43750366,0.01493930
4162.36631103,0.01485454
4164.29511841,0.01475843
4166.22392578,0.01477059
4168.15273315,0.01461850
4170.08154053,0.01471167
4172.01034790,0.01465208
4173.93915527,0.01453206
4175.86796265,0.01459628
4177.79677002,0.01450167
4179.72557739,0.01454519
4181.65438477,0.01445471
4183.58319214,0.01437948
4185.51199951,0.01436230
4187.44080688,0.01430490
4189.36961426,0.01428862
4191.29842163,0.01424163
4193.22722900,0.01421139
4195.15603638,0.01415349
4197.08484375,0.01419727
4199.01365112,0.01412835
4200.94245850,0.01404337
4202.87126587,0.01401789
4204.80007324,0.01400186
4206.72888062,0.01401181
4208.65768799,0.01395042
4210.58649536,0.01387372
4212.51530273,0.01378742
4214.44411011,0.01382613
4216.37291748,0.01376230
4218.30172485,0.01376386
4220.23053223,0.01377136
4222.15933960,0.01365780
4224.08814697,0.01368568
4226.01695435,0.01361518
4227.94576172,0.01360732
4229.87456909,0.01358604
4231.80337646,0.01353567
4233.73218384,0.01353459
4235.66099121,0.01348089
4237.58979858,0.01338910
4239.51860596,0.01328668
4241.44741333,0.01324365
4243.37622070,0.01322433
4245.30502808,0.01329734
4247.23383545,0.01310525
4249.16264282,0.01308535
4251.09145020,0.01323638
4253.02025757,0.01306038
4254.94906494,0.01306138
4256.87787231,0.01303554
4258.80667969,0.01301148
4260.73548706,0.01299010
4262.66429443,0.01293702
4264.59310181,0.01295226
4266.52190918,0.01287983
4268.45071655,0.01283319
4270.37952393,0.01272981
4272.30833130,0.01273523
4274.23713867,0.01275409
4276.16594604,0.01275008
4278.09475342,0.01271316
4280.02356079,0.01265664
4281.95236816,0.01265874
4283.88117554,0.01253052
4285.80998291,0.01250630
4287.73879028,0.01247676
4289.66759766,0.01248284
4291.59640503,0.01251629
4293.52521240,0.01238825
4295.45401978,0.01231497
4297.38282715,0.01231734
4299.31163452,0.01227201
4301.24044189,0.01219345
4303.16924927,0.01219143
4305.09805664,0.01215875
4307.02686401,0.01222631
4308.95567139,0.01222660
4310.88447876,0.01212489
4312.81328613,0.01207545
4314.74209351,0.01203557
4316.67090088,0.01211085
4318.59970825,0.01199975
4320.52851562,0.01193812
4322.45732300,0.01187380
4324.38613037,0.01181070
4326.31493774,0.01188008
4328.24374512,0.01180619
4330.17255249,0.01182638
4332.10135986,0.01172778
4334.03016724,0.01169314
4335.95897461,0.01167841
4337.88778198,0.01158681
4339.81658936,0.01164506
4341.74539673,0.01151124
4343.67420410,0.01150973
4345.60301147,0.01165429
4347.53181885,0.01155621
4349.46062622,0.01146929
4351.38943359,0.01154240
4353.31824097,0.01143643
4355.24704834,0.01137835
4357.17585571,0.01141175
4359.10466309,0.01133800
4361.03347046,0.01134400
4362.96227783,0.01125331
4364.89108520,0.01126077
4366.81989258,0.01119876
4368.74869995,0.01121440
4370.67750732,0.01118022
4372.60631470,0.01101125
4374.53512207,0.01117638
4376.46392944,0.01099735
4378.39273682,0.01098579
4380.32154419,0.01101852
4382.25035156,0.01094996
4384.17915894,0.01111441
4386.10796631,0.01089922
4388.03677368,0.01096187
4389.96558105,0.01096442
4391.89438843,0.01080257
4393.82319580,0.01083979
4395.75200317,0.01077399
4397.68081055,0.01080673
4399.60961792,0.01077222
4401.53842529,0.01070021
4403.46723267,0.01065489
4405.39604004,0.01071078
4407.32484741,0.01066914
4409.25365478,0.01060054
4411.18246216,0.01058390
4413.11126953,0.01047514
4415.04007690,0.01050326
4416.96888428,0.01042720
4418.89769165,0.01038676
4420.82649902,0.01037609
4422.75530640,0.01040716
4424.68411377,0.01043677
4426.61292114,0.01031600
4428.54172852,0.01029809
4430.47053589,0.01022707
4432.39934326,0.01024264
4434.32815063,0.01028558
4436.25695801,0.01024721
4438.18576538,0.01015174
4440.11457275,0.01010455
4442.04338013,0.01010779
4443.97218750,0.00999283
4445.90099487,0.01001577
4447.82980225,0.01002751
4449.75860962,0.00999566
4451.68741699,0.00996834
4453.61622437,0.01000970
4455.54503174,0.00995274
4457.47383911,0.00983537
4459.40264648,0.00989327
4461.33145386,0.00980841
4463.26026123,0.00984948
4465.18906860,0.00976318
4467.11787598,0.00970935
4469.04668335,0.00983228
4470.97549072,0.00965866
4472.90429810,0.00966053
4474.83310547,0.00965162
4476.76191284,0.00959616
4478.69072021,0.00961395
4480.61952759,0.00954071
4482.54833496,0.00952734
4484.47714233,0.00952212
4486.40594971,0.00948897
4488.33475708,0.00944917
4490.26356445,0.00944348
4492.19237183,0.00939586
4494.12117920,0.00937727
4496.04998657,0.00934436
4497.97879395,0.00932770
4499.90760132,0.00931321
4501.83640869,0.00929346
4503.76521606,0.00931729
4505.69402344,0.00924007
4507.62283081,0.00930380
4509.55163818,0.00921818
4511.48044556,0.00905583
4513.40925293,0.00910066
4515.33806030,0.00913964
4517.26686768,0.00917118
4519.19567505,0.00911541
4521.12448242,0.00909595
4523.05328979,0.00901136
4524.98209717,0.00898311
4526.91090454,0.00895557
4528.83971191,0.00891141
4530.76851929,0.00894321
4532.69732666,0.00883868
4534.62613403,0.00892503
4536.55494141,0.00893018
4538.48374878,0.00884966
4540.41255615,0.00881596
4542.34136353,0.00873543
4544.27017090,0.00879785
4546.19897827,0.00875504
4548.12778564,0.00867156
4550.05659302,0.00870079
4551.98540039,0.00870778
4553.91420776,0.00853923
4555.84301514,0.00860385
4557.77182251,0.00867759
4559.70062988,0.00853833
4561.62943726,0.00862159
4563.55824463,0.00849397
4565.48705200,0.00846592
4567.41585937,0.00848588
4569.34466675,0.00841169
4571.27347412,0.00854225
4573.20228149,0.00841504
4575.13108887,0.00836061
4577.05989624,0.00836155
4578.98870361,0.00826360
4580.91751099,0.00830749
4582.84631836,0.00825772
4584.77512573,0.00823886
4586.70393311,0.00829596
4588.63274048,0.00820950
4590.56154785,0.00824962
4592.49035522,0.00829230
4594.41916260,0.00812739
4596.34796997,0.00818917
4598.27677734,0.00816805
4600.20558472,0.00804502
4602.13439209,0.00808028
4604.06319946,0.00808284
4605.99200684,0.00808411
4607.92081421,0.00798687
4609.84962158,0.00795487
4611.77842895,0.00791689
4613.70723633,0.00791787
4615.63604370,0.00795327
4617.56485107,0.00789442
4619.49365845,0.00790874
4621.42246582,0.00783055
4623.35127319,0.00783844
4625.28008057,0.00780241
4627.20888794,0.00770707
4629.13769531,0.00776591
4631.06650269,0.00770883
4632.99531006,0.00765730
4634.92411743,0.00769753
4636.85292480,0.00765760
4638.78173218,0.00763627
4640.71053955,0.00764161
4642.63934692,0.00751885
4644.56815430,0.00758853
4646.49696167,0.00760709
4648.42576904,0.00748770
4650.35457642,0.00752715
4652.28338379,0.00748330
4654.21219116,0.00749236
4656.14099853,0.00743418
4658.06980591,0.00750338
4659.99861328,0.00748959
4661.92742065,0.00736584
4663.85622803,0.00747653
4665.78503540,0.00728371
4667.71384277,0.00732468
4669.64265015,0.00732888
4671.57145752,0.00717328
4673.50026489,0.00729774
4675.42907227,0.00716181
4677.35787964,0.00719013
4679.28668701,0.00726487
4681.21549438,0.00715257
4683.14430176,0.00710280
4685.07310913,0.00712224
4687.00191650,0.00720144
4688.93072388,0.00712130
4690.85953125,0.00707083
4692.78833862,0.00709133
4694.71714600,0.00709706
4696.64595337,0.00707213
4698.57476074,0.00702333
4700.50356812,0.00700802
4702.43237549,0.00695462
4704.36118286,0.00699809
4706.28999023,0.00704178
4708.21879761,0.00688126
4710.14760498,0.00689242
4712.07641235,0.00697627
4714.00521973,0.00681243
4715.93402710,0.00681308
4717.86283447,0.00686991
4719.79164185,0.00689137
4721.72044922,0.00682132
4723.64925659,0.00668289
4725.57806396,0.00679149
4727.50687134,0.00675749
4729.43567871,0.00669345
4731.36448608,0.00666065
4733.29329346,0.00664466
4735.22210083,0.00668627
4737.15090820,0.00662333
4739.07971558,0.00666853
4741.00852295,0.00663623
4742.93733032,0.00660043
4744.86613770,0.00659816
4746.79494507,0.00661434
4748.72375244,0.00658498
4750.65255981,0.00650473
4752.58136719,0.00657042
4754.51017456,0.00651165
4756.43898193,0.00649987
4758.36778931,0.00654103
4760.29659668,0.00656176
4762.22540405,0.00647380
4764.15421143,0.00634939
4766.08301880,0.00634905
4768.01182617,0.00633593
4769.94063354,0.00642750
4771.86944092,0.00635946
4773.79824829,0.00635542
4775.72705566,0.00631419
4777.65586304,0.00625655
4779.58467041,0.00634430
4781.51347778,0.00626057
4783.44228516,0.00632940
4785.37109253,0.00620794
4787.29989990,0.00616534
4789.22870728,0.00621772
4791.15751465,0.00615623
4793.08632202,0.00619841
4795.01512939,0.00607089
4796.94393677,0.00618642
4798.87274414,0.00612233
4800.80155151,0.00598551
4802.73035889,0.00603728
4804.65916626,0.00598916
4806.58797363,0.00608222
4808.51678101,0.00598959
4810.44558838,0.00591157
4812.37439575,0.00596021
4814.30320312,0.00602157
4816.23201050,0.00600741
4818.16081787,0.00592918
4820.08962524,0.00590075
4822.01843262,0.00584556
4823.94723999,0.00586753
4825.87604736,0.00583600
4827.80485474,0.00589094
4829.73366211,0.00580859
4831.66246948,0.00571541
4833.59127686,0.00575246
4835.52008423,0.00571360
4837.44889160,0.00581507
4839.37769897,0.00575886
4841.30650635,0.00573781
4843.23531372,0.00571066
4845.16412109,0.00563956
4847.09292847,0.00568518
4849.02173584,0.00564922
4850.95054321,0.00562573
4852.87935059,0.00559070
4854.80815796,0.00567832
4856.73696533,0.00556536
4858.66577270,0.00546350
4860.59458008,0.00556066
4862.52338745,0.00549899
4864.45219482,0.00554889
4866.38100220,0.00555905
4868.30980957,0.00551833
4870.23861694,0.00549683
4872.16742432,0.00549413
4874.09623169,0.00545279
4876.02503906,0.00540581
4877.95384644,0.00550651
4879.88265381,0.00544850
4881.81146118,0.00536204
4883.74026855,0.00536897
4885.66907593,0.00537171
4887.59788330,0.00533303
4889.52669067,0.00532023
4891.45549805,0.00533460
4893.38430542,0.00527549
4895.31311279,0.00525734
4897.24192017,0.00526037
4899.17072754,0.00526704
4901.09953491,0.00521123
4903.02834228,0.00520638
4904.95714966,0.00520330
4906.88595703,0.00517642
4908.81476440,0.00522241
4910.74357178,0.00518927
4912.67237915,0.00519855
4914.60118652,0.00517068
4916.52999390,0.00513152
4918.45880127,0.00510605
4920.38760864,0.00509499
4922.31641602,0.00515029
4924.24522339,0.00510500
4926.17403076,0.00505413
4928.10283813,0.00506477
4930.03164551,0.00511098
4931.96045288,0.00502946
4933.88926025,0.00497852
4935.81806763,0.00499802
4937.74687500,0.00493905
4939.67568237,0.00492807
4941.60448975,0.00492135
4943.53329712,0.00496154
4945.46210449,0.00493979
4947.39091187,0.00493021
4949.31971924,0.00491202
4951.24852661,0.00491007
4953.17733398,0.00490731
4955.10614136,0.00478618
4957.03494873,0.00487233
4958.96375610,0.00487182
4960.89256348,0.00481375
4962.82137085,0.00476914
4964.75017822,0.00472224
4966.67898560,0.00477236
4968.60779297,0.00468540
4970.53660034,0.00476919
4972.46540771,0.00476907
4974.39421509,0.00463874
4976.32302246,0.00464277
4978.25182983,0.00466926
4980.18063721,0.00470580
4982.10944458,0.00464778
4984.03825195,0.00466750
4985.96705933,0.00463583
4987.89586670,0.00457224
4989.82467407,0.00460929
4991.75348145,0.00465428
4993.68228882,0.00464579
4995.61109619,0.00458903
4997.53990356,0.00459709
4999.46871094,0.00451858
5001.39751831,0.00450343
5003.32632568,0.00453038
5005.25513306,0.00452891
5007.18394043,0.00452661
5009.11274780,0.00443445
5011.04155518,0.00445375
5012.97036255,0.00447877
5014.89916992,0.00443130
5016.82797729,0.00440479
5018.75678467,0.00440069
5020.68559204,0.00435897
5022.61439941,0.00438620
5024.54320679,0.00443298
5026.47201416,0.00434569
5028.40082153,0.00434771
5030.32962891,0.00437330
5032.25843628,0.00435413
5034.18724365,0.00429919
5036.11605103,0.00425908
5038.04485840,0.00423405
5039.97366577,0.00423423
5041.90247314,0.00427144
5043.83128052,0.00419592
5045.76008789,0.00423068
5047.68889526,0.00421664
5049.61770264,0.00413341
5051.54651001,0.00412494
5053.47531738,0.00413015
5055.40412476,0.00419504
5057.33293213,0.00414097
5059.26173950,0.00415972
5061.19054687,0.00413680
5063.11935425,0.00408605
5065.04816162,0.00419037
5066.97696899,0.00413749
5068.90577637,0.00407315
5070.83458374,0.00405643
5072.76339111,0.00398958
5074.69219849,0.00397763
5076.62100586,0.00402904
5078.54981323,0.00403049
5080.47862061,0.00399744
5082.40742798,0.00399668
5084.33623535,0.00401034
5086.26504272,0.00398230
5088.19385010,0.00391981
5090.12265747,0.00395658
5092.05146484,0.00392995
5093.98027222,0.00389216
5095.90907959,0.00394168
5097.83788696,0.00394022
5099.76669434,0.00391819
5101.69550171,0.00393586
5103.62430908,0.00393058
5105.55311645,0.00387349
5107.48192383,0.00390006
5109.41073120,0.00383346
5111.33953857,0.00386194
5113.26834595,0.00393162
5115.19715332,0.00382904
5117.12596069,0.00380641
5119.05476807,0.00371312
5120.98357544,0.00381453
5122.91238281,0.00385267
5124.84119019,0.00370487
5126.76999756,0.00374639
5128.69880493,0.00371320
5130.62761230,0.00373590
5132.55641968,0.00374780
5134.48522705,0.00373390
5136.41403442,0.00372742
5138.34284180,0.00371354
5140.27164917,0.00368502
5142.20045654,0.00361771
5144.12926392,0.00366223
5146.05807129,0.00360173
5147.98687866,0.00365076
5149.91568603,0.00363690
5151.84449341,0.00354278
5153.77330078,0.00362016
5155.70210815,0.00356988
5157.63091553,0.00360285
5159.55972290,0.00359504
5161.48853027,0.00354281
5163.41733765,0.00354636
5165.34614502,0.00354284
5167.27495239,0.00353498
5169.20375977,0.00343335
5171.13256714,0.00348470
5173.06137451,0.00350724
5174.99018188,0.00347820
5176.91898926,0.00344824
5178.84779663,0.00341196
5180.77660400,0.00349706
5182.70541138,0.00342311
5184.63421875,0.00336938
5186.56302612,0.00345299
5188.49183350,0.00346848
5190.42064087,0.00341999
5192.34944824,0.00336788
5194.27825562,0.00339652
5196.20706299,0.00339266
5198.13587036,0.00335516
5200.06467773,0.00339203
5201.99348511,0.00340716
5203.92229248,0.00338842
5205.85109985,0.00332242
5207.77990723,0.00321803
5209.70871460,0.00322765
5211.63752197,0.00326520
5213.56632935,0.00327996
5215.49513672,0.00327501
5217.42394409,0.00321782
5219.35275146,0.00316486
5221.28155884,0.00320593
5223.21036621,0.00329563
5225.13917358,0.00322711
5227.06798096,0.00324817
5228.99678833,0.00325865
5230.92559570,0.00317021
5232.85440308,0.00323931
5234.78321045,0.00319896
5236.71201782,0.00314926
5238.64082520,0.00317128
5240.56963257,0.00322072
5242.49843994,0.00319429
5244.42724731,0.00310779
5246.35605469,0.00319526
5248.28486206,0.00312523
5250.21366943,0.00309451
5252.14247681,0.00321873
5254.07128418,0.00310768
5256.00009155,0.00300728
5257.92889893,0.00311019
5259.85770630,0.00311096
5261.78651367,0.00304306
5263.71532104,0.00302418
5265.64412842,0.00298105
5267.57293579,0.00307594
5269.50174316,0.00298669
5271.43055054,0.00294644
5273.35935791,0.00310964
5275.28816528,0.00301827
5277.21697266,0.00308866
5279.14578003,0.00311798
5281.07458740,0.00302007
5283.00339478,0.00302861
5284.93220215,0.00298252
5286.86100952,0.00301216
5288.78981689,0.00299143
5290.71862427,0.00296855
5292.64743164,0.00294677
5294.57623901,0.00292802
5296.50504639,0.00298873
5298.43385376,0.00300309
5300.36266113,0.00296654
5302.29146851,0.00294637
5304.22027588,0.00300904
5306.14908325,0.00293174
5308.07789062,0.00282135
5310.00669800,0.00285346
5311.93550537,0.00288591
5313.86431274,0.00295860
5315.79312012,0.00295340
5317.72192749,0.00285754
5319.65073486,0.00285205
5321.57954224,0.00286080
5323.50834961,0.00287932
5325.43715698,0.00287665
5327.36596436,0.00274510
5329.29477173,0.00277437
5331.22357910,0.00281933
5333.15238647,0.00273018
5335.08119385,0.00277117
5337.01000122,0.00269733
5338.93880859,0.00257929
5340.86761597,0.00269447
5342.79642334,0.00275238
5344.72523071,0.00261987
5346.65403809,0.00271450
5348.58284546,0.00279261
5350.51165283,0.00266540
5352.44046020,0.00270497
5354.36926758,0.00261334
5356.29807495,0.00263014
5358.22688232,0.00272443
5360.15568970,0.00264989
5362.08449707,0.00264393
5364.01330444,0.00262047
5365.94211182,0.00271560
5367.87091919,0.00264741
5369.79972656,0.00261022
5371.72853394,0.00267880
5373.65734131,0.00259278
5375.58614868,0.00261472
5377.51495605,0.00254662
5379.44376343,0.00256329
5381.37257080,0.00259361
5383.30137817,0.00257409
5385.23018555,0.00259474
5387.15899292,0.00254392
5389.08780029,0.00259797
5391.01660767,0.00259438
5392.94541504,0.00255723
5394.87422241,0.00248139
5396.80302978,0.00255538
5398.73183716,0.00259839
5400.66064453,0.00244581
5402.58945190,0.00252592
5404.51825928,0.00250327
5406.44706665,0.00253682
5408.37587402,0.00256075
5410.30468140,0.00242309
5412.23348877,0.00248499
5414.16229614,0.00241891
5416.09110352,0.00239560
5418.01991089,0.00247120
5419.94871826,0.00242564
5421.87752563,0.00242072
5423.80633301,0.00241360
5425.73514038,0.00242233
5427.66394775,0.00241355
5429.59275513,0.00233889
5431.52156250,0.00238092
5433.45036987,0.00244823
5435.37917725,0.00234341
5437.30798462,0.00238141
5439.23679199,0.00243214
5441.16559936,0.00230451
5443.09440674,0.00237630
5445.02321411,0.00236036
5446.95202148,0.00226846
5448.88082886,0.00233309
5450.80963623,0.00229441
5452.73844360,0.00235880
5454.66725098,0.00236805
5456.59605835,0.00228586
5458.52486572,0.00236177
5460.45367310,0.00226836
5462.38248047,0.00220672
5464.31128784,0.00226806
5466.24009521,0.00231783
5468.16890259,0.00234800
5470.09770996,0.00222933
5472.02651733,0.00226717
5473.95532471,0.00228785
5475.88413208,0.00221904
5477.81293945,0.00229447
5479.74174683,0.00227027
5481.67055420,0.00221728
5483.59936157,0.00225500
5485.52816895,0.00228180
5487.45697632,0.00220193
5489.38578369,0.00221108
5491.31459106,0.00228875
5493.24339844,0.00219407
5495.17220581,0.00218089
5497.10101318,0.00226138
5499.02982056,0.00221291
5500.95862793,0.00209152
5502.88743530,0.00211014
5504.81624268,0.00217996
5506.74505005,0.00215793
5508.67385742,0.00210702
5510.60266479,0.00210143
5512.53147217,0.00220426
5514.46027954,0.00216074
5516.38908691,0.00207674
5518.31789429,0.00213239
5520.24670166,0.00215520
5522.17550903,0.00211291
5524.10431641,0.00203628
5526.03312378,0.00206223
5527.96193115,0.00211118
5529.89073853,0.00206578
5531.81954590,0.00205132
5533.74835327,0.00213406
5535.67716064,0.00206402
5537.60596802,0.00199577
5539.53477539,0.00212364
5541.46358276,0.00203823
5543.39239014,0.00199535
5545.32119751,0.00202941
5547.25000488,0.00198962
5549.17881226,0.00204968
5551.10761963,0.00198635
5553.03642700,0.00198613
5554.96523437,0.00202539
5556.89404175,0.00200908
5558.82284912,0.00208645
5560.75165649,0.00200559
5562.68046387,0.00194138
5564.60927124,0.00202421
5566.53807861,0.00195052
5568.46688599,0.00191297
5570.39569336,0.00198462
5572.32450073,0.00193615
5574.25330811,0.00187871
5576.18211548,0.00189147
5578.11092285,0.00196517
5580.03973022,0.00193988
5581.96853760,0.00191553
5583.89734497,0.00197916
5585.82615234,0.00191989
5587.75495972,0.00190412
5589.68376709,0.00189453
5591.61257446,0.00189404
5593.54138184,0.00185127
5595.47018921,0.00183375
5597.39899658,0.00191110
5599.32780395,0.00185051
5601.25661133,0.00194572
5603.18541870,0.00192050
5605.11422607,0.00182051
5607.04303345,0.00190641
5608.97184082,0.00185756
5610.90064819,0.00183412
5612.82945557,0.00179839
5614.75826294,0.00181062
5616.68707031,0.00179933
5618.61587769,0.00177381
5620.54468506,0.00180911
5622.47349243,0.00177580
5624.40229980,0.00185355
5626.33110718,0.00183993
5628.25991455,0.00182083
5630.18872192,0.00183724
5632.11752930,0.00180238
5634.04633667,0.00177433
5635.97514404,0.00170571
5637.90395142,0.00177826
5639.83275879,0.00179173
5641.76156616,0.00172513
5643.69037353,0.00172261
5645.61918091,0.00175380
5647.54798828,0.00176059
5649.47679565,0.00175447
5651.40560303,0.00176507
5653.33441040,0.00169361
5655.26321777,0.00172667
5657.19202515,0.00173202
5659.12083252,0.00169354
5661.04963989,0.00168648
5662.97844727,0.00165889
5664.90725464,0.00169682
5666.83606201,0.00164880
5668.76486938,0.00168203
5670.69367676,0.00170824
5672.62248413,0.00165410
5674.55129150,0.00168230
5676.48009888,0.00171119
5678.40890625,0.00171241
5680.33771362,0.00162321
5682.26652100,0.00165321
5684.19532837,0.00168613
5686.12413574,0.00159484
5688.05294311,0.00159737
5689.98175049,0.00163620
5691.91055786,0.00165049
5693.83936523,0.00161140
5695.76817261,0.00159656
5697.69697998,0.00161422
5699.62578735,0.00161695
5701.55459473,0.00161059
5703.48340210,0.00158760
5705.41220947,0.00155216
5707.34101685,0.00154428
5709.26982422,0.00156985
5711.19863159,0.00154986
5713.12743896,0.00158475
5715.05624634,0.00161707
5716.98505371,0.00160094
5718.91386108,0.00153750
5720.84266846,0.00148807
5722.77147583,0.00152434
5724.70028320,0.00148197
5726.62909058,0.00157969
5728.55789795,0.00161430
5730.48670532,0.00147530
5732.41551270,0.00151196
5734.34432007,0.00152985
5736.27312744,0.00155120
5738.20193481,0.00153195
5740.13074219,0.00149799
5742.05954956,0.00150902
5743.98835693,0.00144491
5745.91716431,0.00149698
5747.84597168,0.00147435
5749.77477905,0.00143430
5751.70358643,0.00147639
5753.63239380,0.00143852
5755.56120117,0.00149750
5757.49000854,0.00147352
5759.41881592,0.00142542
5761.34762329,0.00150554
5763.27643066,0.00149183
5765.20523804,0.00144441
5767.13404541,0.00141362
5769.06285278,0.00143549
5770.99166016,0.00142091
5772.92046753,0.00137131
5774.84927490,0.00142177
5776.77808228,0.00142967
5778.70688965,0.00143878
5780.63569702,0.00142714
5782.56450439,0.00137719
5784.49331177,0.00139906
5786.42211914,0.00138762
5788.35092651,0.00136106
5790.27973389,0.00137434
5792.20854126,0.00140459
5794.13734863,0.00141270
5796.06615601,0.00139479
5797.99496338,0.00136781
5799.92377075,0.00132549
5801.85257812,0.00132581
5803.78138550,0.00137449
5805.71019287,0.00135457
5807.63900024,0.00130046
5809.56780762,0.00136307
5811.49661499,0.00134125
5813.42542236,0.00131132
5815.35422974,0.00138443
5817.28303711,0.00132996
5819.21184448,0.00132451
5821.14065186,0.00129335
5823.06945923,0.00125108
5824.99826660,0.00131223
5826.92707397,0.00126320
5828.85588135,0.00130156
5830.78468872,0.00134148
5832.71349609,0.00128758
5834.64230347,0.00133206
5836.57111084,0.00131607
5838.49991821,0.00124624
5840.42872559,0.00127178
5842.35753296,0.00130254
5844.28634033,0.00123823
5846.21514770,0.00124226
5848.14395508,0.00129716
5850.07276245,0.00124257
5852.00156982,0.00129789
5853.93037720,0.00133751
5855.85918457,0.00120664
5857.78799194,0.00125466
5859.71679932,0.00126646
5861.64560669,0.00118130
5863.57441406,0.00128094
5865.50322144,0.00124954
5867.43202881,0.00122187
5869.36083618,0.00126674
5871.28964355,0.00119031
5873.21845093,0.00120922
5875.14725830,0.00117703
5877.07606567,0.00117212
5879.00487305,0.00119177
5880.93368042,0.00111035
5882.86248779,0.00118123
5884.79129517,0.00117321
5886.72010254,0.00112369
5888.64890991,0.00117598
5890.57771728,0.00118902
5892.50652466,0.00122427
5894.43533203,0.00118678
5896.36413940,0.00118925
5898.29294678,0.00118004
5900.22175415,0.00113910
5902.15056152,0.00118583
5904.07936890,0.00110637
5906.00817627,0.00116552
5907.93698364,0.00119341
5909.86579102,0.00108493
5911.79459839,0.00116517
5913.72340576,0.00109070
5915.65221313,0.00106178
5917.58102051,0.00107619
5919.50982788,0.00103672
5921.43863525,0.00114041
5923.36744263,0.00109463
5925.29625000,0.00111487
5927.22505737,0.00113444
5929.15386475,0.00108812
5931.08267212,0.00112576
5933.01147949,0.00107125
5934.94028686,0.00107949
5936.86909424,0.00107996
5938.79790161,0.00106017
5940.72670898,0.00106704
5942.65551636,0.00108618
5944.58432373,0.00109559
5946.51313110,0.00106077
5948.44193848,0.00106464
5950.37074585,0.00102790
5952.29955322,0.00109413
5954.22836060,0.00111414
5956.15716797,0.00106131
5958.08597534,0.00107147
5960.01478271,0.00103813
5961.94359009,0.00105203
5963.87239746,0.00100314
5965.80120483,0.00106617
5967.73001221,0.00109818
5969.65881958,0.00100249
5971.58762695,0.00104912
5973.51643433,0.00101075
5975.44524170,0.00101090
5977.37404907,0.00103470
5979.30285645,0.00107029
5981.23166382,0.00109947
5983.16047119,0.00099317
5985.08927856,0.00101406
5987.01808594,0.00097646
5988.94689331,0.00094621
5990.87570068,0.00102669
5992.80450806,0.00101207
5994.73331543,0.00101773
5996.66212280,0.00098255
5998.59093018,0.00095369
6000.51973755,0.00100516
