399.26312622,0.00122906
401.19193359,0.00158493
403.12074097,0.00128527
405.04954834,0.00142212
406.97835571,0.00138553
408.90716309,0.00117218
410.83597046,0.00155450
412.76477783,0.00181828
414.69358521,0.00198154
416.62239258,0.00225593
418.55119995,0.00161585
420.48000732,0.00162680
422.40881470,0.00167373
424.33762207,0.00157516
426.26642944,0.00207245
428.19523682,0.00181266
430.12404419,0.00198924
432.05285156,0.00171115
433.98165894,0.00180005
435.91046631,0.00221201
437.83927368,0.00166799
439.76808105,0.00180117
441.69688843,0.00130260
443.62569580,0.00140537
445.55450317,0.00197368
447.48331055,0.00183911
449.41211792,0.00171368
451.34092529,0.00143000
453.26973267,0.00168950
455.19854004,0.00132569
457.12734741,0.00100677
459.05615479,0.00099194
460.98496216,0.00104590
462.91376953,0.00098118
464.84257690,0.00058868
466.77138428,0.00103598
468.70019165,0.00089575
470.62899902,0.00088514
472.55780640,0.00076273
474.48661377,0.00059261
476.41542114,0.00112919
478.34422852,0.00067746
480.27303589,0.00044731
482.20184326,0.00044237
484.13065063,0.00038986
486.05945801,0.00029023
487.98826538,0.00012975
489.91707275,0.00032830
491.84588013,0.00046673
493.77468750,0.00041615
495.70349487,0.00032187
497.63230225,0.00078126
499.56110962,0.00065741
501.48991699,0.00044812
503.41872437,0.00060255
505.34753174,0.00068621
507.27633911,0.00065450
509.20514648,0.00024275
511.13395386,0.00049493
513.06276123,0.00050244
514.99156860,0.00050832
516.92037598,0.00046825
518.84918335,0.00016019
520.77799072,0.00045787
522.70679810,0.00036313
524.63560547,0.00019897
526.56441284,0.00030879
528.49322021,0.00055929
530.42202759,0.00053117
532.35083496,0.00047210
534.27964233,0.00075525
536.20844971,0.00039414
538.13725708,0.00034673
540.06606445,0.00071209
541.99487183,0.00082316
543.92367920,0.00084280
545.85248657,0.00046811
547.78129395,0.00025486
549.71010132,0.00018882
551.63890869,0.00019301
553.56771606,0.00015593
555.49652344,0.00035901
557.42533081,0.00100032
559.35413818,0.00062475
561.28294556,0.00041729
563.21175293,0.00061237
565.14056030,0.00028031
567.06936768,0.00026903
568.99817505,0.00027872
570.92698242,0.00028734
572.85578979,0.00012808
574.78459717,0.00005434
576.71340454,0.00024463
578.64221191,0.00044131
580.57101929,0.00041009
582.49982666,0.00016512
584.42863403,0.00033181
586.35744141,0.00024212
588.28624878,0.00035834
590.21505615,0.00034978
592.14386353,0.00030797
594.07267090,0.00055490
596.00147827,0.00015141
597.93028564,0.00036355
599.85909302,0.00044106
601.78790039,0.00023245
603.71670776,0.00040976
605.64551514,0.00049865
607.57432251,0.00026915
609.50312988,-0.00018904
611.43193726,0.00042504
613.36074463,0.00028228
615.28955200,0.00003902
617.21835938,0.00008604
619.14716675,0.00006546
621.07597412,0.00047031
623.00478149,-0.00003011
624.93358887,-0.00002184
626.86239624,0.00013197
628.79120361,0.00005121
630.72001099,0.00072526
632.64881836,0.00107225
634.57762573,0.00121707
636.50643311,0.00125010
638.43524048,0.00136095
640.36404785,0.00160992
642.29285522,0.00141053
644.22166260,0.00186612
646.15046997,0.00254191
648.07927734,0.00249509
650.00808472,0.00254519
651.93689209,0.00271680
653.86569946,0.00257659
655.79450684,0.00261063
657.72331421,0.00306456
659.65212158,0.00300418
661.58092896,0.00309311
663.50973633,0.00363035
665.43854370,0.00346079
667.36735107,0.00302359
669.29615845,0.00331833
671.22496582,0.00389704
673.15377319,0.00394385
675.08258057,0.00431816
677.01138794,0.00447841
678.94019531,0.00436212
680.86900269,0.00464571
682.79781006,0.00421120
684.72661743,0.00441778
686.65542480,0.00470381
688.58423218,0.00418024
690.51303955,0.00476015
692.44184692,0.00520994
694.37065430,0.00529067
696.29946167,0.00597375
698.22826904,0.00673494
700.15707642,0.00737239
702.08588379,0.00701985
704.01469116,0.00639329
705.94349854,0.00614228
707.87230591,0.00500541
709.80111328,0.00385900
711.72992065,0.00318768
713.65872803,0.00189855
715.58753540,0.00069943
717.51634277,0.00050643
719.44515015,0.00052171
721.37395752,0.00016774
723.30276489,0.00022536
725.23157227,0.00017824
727.16037964,-0.00003668
729.08918701,0.00010949
731.01799438,-0.00005491
732.94680176,0.00008704
734.87560913,0.00008118
736.80441650,-0.00011290
738.73322388,0.00017749
740.66203125,0.00015547
742.59083862,0.00025356
744.51964600,0.00020081
746.44845337,0.00007013
748.37726074,0.00026052
750.30606812,0.00024962
752.23487549,0.00018546
754.16368286,0.00019430
756.09249023,0.00031775
758.02129761,0.00022442
759.95010498,0.00044701
761.87891235,0.00032998
763.80771973,-0.00004747
765.73652710,0.00028005
767.66533447,0.00008335
769.59414185,0.00026067
771.52294922,0.00051730
773.45175659,0.00013255
775.38056396,0.00038965
777.30937134,0.00064192
779.23817871,0.00055948
781.16698608,0.00051033
783.09579346,0.00039581
785.02460083,0.00023798
786.95340820,0.00030399
788.88221558,0.00051755
790.81102295,0.00035318
792.73983032,0.00032360
794.66863770,0.00059364
796.59744507,0.00064541
798.52625244,0.00088555
800.45505981,0.00113859
802.38386719,0.00083837
804.31267456,0.00058642
806.24148193,0.00060453
808.17028931,0.00036207
810.09909668,0.00028971
812.02790405,0.00053780
813.95671143,0.00024284
815.88551880,0.00023588
817.81432617,0.00039756
819.74313354,0.00012650
821.67194092,0.00064402
823.60074829,0.00074964
825.52955566,0.00054838
827.45836304,0.00085965
829.38717041,0.00094299
831.31597778,0.00130711
833.24478516,0.00149904
835.17359253,0.00176339
837.10239990,0.00180816
839.03120728,0.00169063
840.96001465,0.00178873
842.88882202,0.00140323
844.81762939,0.00164988
846.74643677,0.00158008
848.67524414,0.00111008
850.60405151,0.00113161
852.53285889,0.00096656
854.46166626,0.00106171
856.39047363,0.00105773
858.31928101,0.00085279
860.24808838,0.00064954
862.17689575,0.00066906
864.10570313,0.00052577
866.03451050,0.00032799
867.96331787,0.00060581
869.89212524,0.00031214
871.82093262,0.00046917
873.74973999,0.00084991
875.67854736,0.00055632
877.60735474,0.00044643
879.53616211,0.00030053
881.46496948,0.00035532
883.39377686,0.00041480
885.32258423,0.00037701
887.25139160,0.00039569
889.18019897,0.00041402
891.10900635,0.00038039
893.03781372,0.00032247
894.96662109,0.00060470
896.89542847,0.00050683
898.82423584,0.00038720
900.75304321,0.00059685
902.68185059,0.00045576
904.61065796,0.00029503
906.53946533,0.00045325
908.46827271,0.00054824
910.39708008,0.00055113
912.32588745,0.00076033
914.25469482,0.00091124
916.18350220,0.00136612
918.11230957,0.00144347
920.04111694,0.00108173
921.96992432,0.00138074
923.89873169,0.00161396
925.82753906,0.00182011
927.75634644,0.00181690
929.68515381,0.00180101
931.61396118,0.00219971
933.54276855,0.00240740
935.47157593,0.00269718
937.40038330,0.00266038
939.32919067,0.00264359
941.25799805,0.00291591
943.18680542,0.00301112
945.11561279,0.00312700
947.04442017,0.00299193
948.97322754,0.00278160
950.90203491,0.00256839
952.83084229,0.00266858
954.75964966,0.00292141
956.68845703,0.00280715
958.61726440,0.00275501
960.54607178,0.00280433
962.47487915,0.00285599
964.40368652,0.00281428
966.33249390,0.00296347
968.26130127,0.00307998
970.19010864,0.00323184
972.11891602,0.00353275
974.04772339,0.00349143
975.97653076,0.00389892
977.90533813,0.00435380
979.83414551,0.00468900
981.76295288,0.00531814
983.69176025,0.00587488
985.62056763,0.00645417
987.54937500,0.00703425
989.47818237,0.00803733
991.40698975,0.00877847
993.33579712,0.00937420
995.26460449,0.01048594
997.19341187,0.01146705
999.12221924,0.01241752
1001.05102661,0.01317618
1002.97983398,0.01403600
1004.90864136,0.01512153
1006.83744873,0.01628271
1008.76625610,0.01721530
1010.69506348,0.01799596
1012.62387085,0.01909408
1014.55267822,0.01976879
1016.48148560,0.02087850
1018.41029297,0.02216054
1020.33910034,0.02290922
1022.26790771,0.02404170
1024.19671509,0.02506074
1026.12552246,0.02601695
1028.05432983,0.02703166
1029.98313721,0.02769049
1031.91194458,0.02815725
1033.84075195,0.02895639
1035.76955933,0.02958842
1037.69836670,0.02973634
1039.62717407,0.02994522
1041.55598145,0.02984058
1043.48478882,0.02967424
1045.41359619,0.02929120
1047.34240356,0.02891294
1049.27121094,0.02857652
1051.20001831,0.02790930
1053.12882568,0.02751592
1055.05763306,0.02689899
1056.98644043,0.02634057
1058.91524780,0.02554920
1060.84405518,0.02471382
1062.77286255,0.02429423
1064.70166992,0.02330581
1066.63047729,0.02256217
1068.55928467,0.02165525
1070.48809204,0.02056712
1072.41689941,0.01979020
1074.34570679,0.01865124
1076.27451416,0.01795207
1078.20332153,0.01723375
1080.13212891,0.01618532
1082.06093628,0.01561325
1083.98974365,0.01509070
1085.91855103,0.01426669
1087.84735840,0.01344009
1089.77616577,0.01284563
1091.70497314,0.01230397
1093.63378052,0.01172786
1095.56258789,0.01123537
1097.49139526,0.01091079
1099.42020264,0.01077644
1101.34901001,0.01040054
1103.27781738,0.00997245
1105.20662476,0.01002788
1107.13543213,0.00980618
1109.06423950,0.00949726
1110.99304687,0.00952238
1112.92185425,0.00921817
1114.85066162,0.00913219
1116.77946899,0.00928774
1118.70827637,0.00910896
1120.63708374,0.00900921
1122.56589111,0.00923381
1124.49469849,0.00940329
1126.42350586,0.00941910
1128.35231323,0.00952660
1130.28112061,0.00974416
1132.20992798,0.01026235
1134.13873535,0.01063502
1136.06754272,0.01094577
1137.99635010,0.01168312
1139.92515747,0.01225249
1141.85396484,0.01293452
1143.78277222,0.01396757
1145.71157959,0.01488200
1147.64038696,0.01583905
1149.56919434,0.01668278
1151.49800171,0.01733355
1153.42680908,0.01842489
1155.35561646,0.01942760
1157.28442383,0.02010134
1159.21323120,0.02093298
1161.14203857,0.02160507
1163.07084595,0.02237359
1164.99965332,0.02305893
1166.92846069,0.02393590
1168.85726807,0.02503258
1170.78607544,0.02578064
1172.71488281,0.02692893
1174.64369019,0.02793899
1176.57249756,0.02871500
1178.50130493,0.02998475
1180.43011230,0.03137902
1182.35891968,0.03247171
1184.28772705,0.03386522
1186.21653442,0.03579301
1188.14534180,0.03710173
1190.07414917,0.03866076
1192.00295654,0.04072302
1193.93176392,0.04238585
1195.86057129,0.04433621
1197.78937866,0.04664970
1199.71818604,0.04884972
1201.64699341,0.05080138
1203.57580078,0.05285206
1205.50460815,0.05490680
1207.43341553,0.05688886
1209.36222290,0.05878032
1211.29103027,0.06048562
1213.21983765,0.06231929
1215.14864502,0.06386396
1217.07745239,0.06505339
1219.00625977,0.06630740
1220.93506714,0.06758168
1222.86387451,0.06841803
1224.79268188,0.06896110
1226.72148926,0.06947386
1228.65029663,0.06986269
1230.57910400,0.07024318
1232.50791138,0.07040861
1234.43671875,0.07037995
1236.36552612,0.07016209
1238.29433350,0.07028612
1240.22314087,0.07024704
1242.15194824,0.06962478
1244.08075562,0.06954092
1246.00956299,0.06918196
1247.93837036,0.06847779
1249.86717773,0.06825002
1251.79598511,0.06795435
1253.72479248,0.06708586
1255.65359985,0.06614394
1257.58240723,0.06542853
1259.51121460,0.06417564
1261.44002197,0.06308022
1263.36882935,0.06249968
1265.29763672,0.06168840
1267.22644409,0.06073687
1269.15525146,0.05994079
1271.08405884,0.05911558
1273.01286621,0.05805818
1274.94167358,0.05706804
1276.87048096,0.05596749
1278.79928833,0.05467044
1280.72809570,0.05357042
1282.65690308,0.05284350
1284.58571045,0.05167530
1286.51451782,0.05034035
1288.44332520,0.04966180
1290.37213257,0.04886869
1292.30093994,0.04842471
1294.22974731,0.04815669
1296.15855469,0.04779337
1298.08736206,0.04786879
1300.01616943,0.04782686
1301.94497681,0.04796152
1303.87378418,0.04844439
1305.80259155,0.04896507
1307.73139893,0.04956897
1309.66020630,0.05047535
1311.58901367,0.05121383
1313.51782104,0.05201441
1315.44662842,0.05355444
1317.37543579,0.05474367
1319.30424316,0.05602757
1321.23305054,0.05794162
1323.16185791,0.05963992
1325.09066528,0.06141752
1327.01947266,0.06315315
1328.94828003,0.06467047
1330.87708740,0.06661712
1332.80589478,0.06827969
1334.73470215,0.06941842
1336.66350952,0.07012902
1338.59231689,0.06939401
1340.52112427,0.07035586
1342.44993164,0.07315570
1344.37873901,0.07357119
1346.30754639,0.07353106
1348.23635376,0.07348830
1350.16516113,0.07295401
1352.09396851,0.07287902
1354.02277588,0.07180373
1355.95158325,0.07111066
1357.88039062,0.07106340
1359.80919800,0.07006787
1361.73800537,0.06697236
1363.66681274,0.06599830
1365.59562012,0.06884979
1367.52442749,0.06737903
1369.45323486,0.06681062
1371.38204224,0.06787059
1373.31084961,0.06436174
1375.23965698,0.06464033
1377.16846436,0.06616962
1379.09727173,0.06578510
1381.02607910,0.06590764
1382.95488647,0.06581093
1384.88369385,0.06588987
1386.81250122,0.06286155
1388.74130859,0.06336255
1390.67011597,0.06889357
1392.59892334,0.06745827
1394.52773071,0.06311452
1396.45653809,0.06608351
1398.38534546,0.06619146
1400.31415283,0.06575876
1402.24296021,0.07075984
1404.17176758,0.06723364
1406.10057495,0.06737536
1408.02938232,0.06992693
1409.95818970,0.06726491
1411.88699707,0.06873934
1413.81580444,0.06647296
1415.74461182,0.06734737
1417.67341919,0.06150576
1419.60222656,0.05477314
1421.53103394,0.06264326
1423.45984131,0.06090416
1425.38864868,0.05876406
1427.31745605,0.05987092
1429.24626343,0.05524349
1431.17507080,0.05362210
1433.10387817,0.05441446
1435.03268555,0.04991296
1436.96149292,0.04218625
1438.89030029,0.04724411
1440.81910767,0.04881499
1442.74791504,0.04507766
1444.67672241,0.04739761
1446.60552979,0.04363681
1448.53433716,0.04415062
1450.46314453,0.04565376
1452.39195190,0.04609266
1454.32075928,0.04835641
1456.24956665,0.04036086
1458.17837402,0.04163185
1460.10718140,0.05514976
1462.03598877,0.05884747
1463.96479614,0.05862760
1465.89360352,0.06114285
1467.82241089,0.06939149
1469.75121826,0.07482445
1471.68002563,0.06734964
1473.60883301,0.07054403
1475.53764038,0.08036043
1477.46644775,0.08664329
1479.39525513,0.09505045
1481.32406250,0.09652695
1483.25286987,0.10250453
1485.18167725,0.10613121
1487.11048462,0.10459444
1489.03929199,0.10459518
1490.96809937,0.10515282
1492.89690674,0.12147007
1494.82571411,0.11977994
1496.75452148,0.10795037
1498.68332886,0.12142740
1500.61213623,0.12551267
1502.54094360,0.13404889
1504.46975098,0.12811615
1506.39855835,0.09466407
1508.32736572,0.11358964
1510.25617310,0.13343021
1512.18498047,0.12898812
1514.11378784,0.13974020
1516.04259521,0.12672380
1517.97140259,0.13138004
1519.90020996,0.12819505
1521.82901733,0.11097440
1523.75782471,0.13419667
1525.68663208,0.13271287
1527.61543945,0.13165392
1529.54424683,0.14520393
1531.47305420,0.14027943
1533.40186157,0.12906623
1535.33066895,0.13545962
1537.25947632,0.14549917
1539.18828369,0.10611145
1541.11709106,0.10895610
1543.04589844,0.13094410
1544.97470581,0.12539190
1546.90351318,0.14715689
1548.83232056,0.13841023
1550.76112793,0.14164829
1552.68993530,0.14146933
1554.61874268,0.12842843
1556.54755005,0.13751419
1558.47635742,0.09919934
1560.40516479,0.10445843
1562.33397217,0.14731860
1564.26277954,0.14018247
1566.19158691,0.14322904
1568.12039429,0.14236003
1570.04920166,0.12647542
1571.97800903,0.14423281
1573.90681641,0.14680046
1575.83562378,0.11720714
1577.76443115,0.13061091
1579.69323853,0.14748636
1581.62204590,0.14106843
1583.55085327,0.14440146
1585.47966064,0.14232874
1587.40846802,0.14295742
1589.33727539,0.14180428
1591.26608276,0.14144859
1593.19489014,0.14139698
1595.12369751,0.13933775
1597.05250488,0.14089967
1598.98131226,0.13970947
1600.91011963,0.14013451
1602.83892700,0.13730250
1604.76773437,0.13908847
1606.69654175,0.13678551
1608.62534912,0.13612142
1610.55415649,0.13574605
1612.48296387,0.13571841
1614.41177124,0.13780355
1616.34057861,0.11313944
1618.26938599,0.12064952
1620.19819336,0.14025205
1622.12700073,0.12473617
1624.05580811,0.12443362
1625.98461548,0.12992540
1627.91342285,0.12922558
1629.84223022,0.12799785
1631.77103760,0.13596314
1633.69984497,0.12648714
1635.62865234,0.10477389
1637.55745972,0.12036419
1639.48626709,0.13237327
1641.41507446,0.12942490
1643.34388184,0.13275328
1645.27268921,0.12078749
1647.20149658,0.10635850
1649.13030396,0.13091892
1651.05911133,0.12602222
1652.98791870,0.08210422
1654.91672607,0.10916918
1656.84553345,0.13761365
1658.77434082,0.13189225
1660.70314819,0.13620821
1662.63195557,0.12463857
1664.56076294,0.13087827
1666.48957031,0.14124630
1668.41837769,0.12472811
1670.34718506,0.12124837
1672.27599243,0.13727775
1674.20479980,0.12801161
1676.13360718,0.12245271
1678.06241455,0.14085439
1679.99122192,0.13670051
1681.92002930,0.13587153
1683.84883667,0.11229195
1685.77764404,0.10947055
1687.70645142,0.14995804
1689.63525879,0.13192818
1691.56406616,0.14339149
1693.49287354,0.14827824
1695.42168091,0.10917376
1697.35048828,0.13341111
1699.27929565,0.11963436
1701.20810303,0.10658664
1703.13691040,0.14458311
1705.06571777,0.13419893
1706.99452515,0.13454233
1708.92333252,0.14649156
1710.85213989,0.14107788
1712.78094727,0.14368741
1714.70975464,0.13439402
1716.63856201,0.12118608
1718.56736938,0.11868925
1720.49617676,0.13985682
1722.42498413,0.14596787
1724.35379150,0.13548681
1726.28259888,0.14696394
1728.21140625,0.13681120
1730.14021362,0.13734055
1732.06902100,0.13501075
1733.99782837,0.10396145
1735.92663574,0.12665394
1737.85544312,0.14118248
1739.78425049,0.12609020
1741.71305786,0.13657378
1743.64186523,0.13908823
1745.57067261,0.13913894
1747.49947998,0.14069617
1749.42828735,0.13504359
1751.35709473,0.12922803
1753.28590210,0.14210615
1755.21470947,0.14927354
1757.14351685,0.13660395
1759.07232422,0.14921319
1761.00113159,0.14165436
1762.92993896,0.13587919
1764.85874634,0.15491939
1766.78755371,0.14056709
1768.71636108,0.14109844
1770.64516846,0.14104715
1772.57397583,0.12679520
1774.50278320,0.14054692
1776.43159058,0.14887229
1778.36039795,0.14675140
1780.28920532,0.14508069
1782.21801270,0.14615899
1784.14682007,0.14617041
1786.07562744,0.14335155
1788.00443481,0.15027390
1789.93324219,0.14713468
1791.86204956,0.13344771
1793.79085693,0.13837713
1795.71966431,0.14850591
1797.64847168,0.14668411
1799.57727905,0.14468294
1801.50608643,0.14223060
1803.43489380,0.14641458
1805.36370117,0.14988486
1807.29250854,0.14751156
1809.22131592,0.14826033
1811.15012329,0.14463291
1813.07893066,0.14870249
1815.00773804,0.14971885
1816.93654541,0.14775558
1818.86535278,0.14910021
1820.79416016,0.14835049
1822.72296753,0.15074751
1824.65177490,0.14130032
1826.58058228,0.14551315
1828.50938965,0.14646888
1830.43819702,0.13731754
1832.36700439,0.14894259
1834.29581177,0.14833966
1836.22461914,0.14787102
1838.15342651,0.14750011
1840.08223389,0.14804462
1842.01104126,0.14896256
1843.93984863,0.13257930
1845.86865601,0.14026205
1847.79746338,0.14825742
1849.72627075,0.14499104
1851.65507812,0.14933416
1853.58388550,0.14649917
1855.51269287,0.14782035
1857.44150024,0.14701851
1859.37030762,0.14590281
1861.29911499,0.14696738
1863.22792236,0.14531390
1865.15672974,0.14684132
1867.08553711,0.14242218
1869.01434448,0.13667387
1870.94315186,0.14149049
1872.87195923,0.14688647
1874.80076660,0.14468977
1876.72957397,0.14534657
1878.65838135,0.14495927
1880.58718872,0.14395878
1882.51599609,0.14532939
1884.44480347,0.14305037
1886.37361084,0.14501072
1888.30241821,0.14206254
1890.23122559,0.13919783
1892.16003296,0.14415412
1894.08884033,0.14233021
1896.01764771,0.14167538
1897.94645508,0.14304626
1899.87526245,0.14247575
1901.80406982,0.14283141
1903.73287720,0.14191037
1905.66168457,0.14251566
1907.59049194,0.14115477
1909.51929932,0.14031029
1911.44810669,0.14101011
1913.37691406,0.14109746
1915.30572144,0.14240474
1917.23452881,0.13655046
1919.16333618,0.13645568
1921.09214355,0.14150882
1923.02095093,0.13729453
1924.94975830,0.13970724
1926.87856567,0.14113295
1928.80737305,0.13943097
1930.73618042,0.14121312
1932.66498779,0.13924055
1934.59379517,0.14044580
1936.52260254,0.13955261
1938.45140991,0.13985313
1940.38021729,0.13998288
1942.30902466,0.13541447
1944.23783203,0.13781396
1946.16663940,0.13926244
1948.09544678,0.13896371
1950.02425415,0.13956380
1951.95306152,0.13891608
1953.88186890,0.13907528
1955.81067627,0.13856477
1957.73948364,0.13894077
1959.66829102,0.13861199
1961.59709839,0.13825710
1963.52590576,0.13866284
1965.45471313,0.13802747
1967.38352051,0.13668893
1969.31232788,0.13749923
1971.24113525,0.13841388
1973.16994263,0.13743478
1975.09875000,0.13808882
1977.02755737,0.13744979
1978.95636475,0.13734502
1980.88517212,0.13740955
1982.81397949,0.13681945
1984.74278687,0.13735050
1986.67159424,0.13620935
1988.60040161,0.13654226
1990.52920898,0.13542746
1992.45801636,0.13381556
1994.38682373,0.13547781
1996.31563110,0.13573352
1998.24443848,0.13526335
2000.17324585,0.13518196
2002.10205322,0.13493073
2004.03086060,0.13472340
2005.95966797,0.13441098
2007.88847534,0.13399945
2009.81728271,0.13392186
2011.74609009,0.13360947
2013.67489746,0.13342670
2015.60370483,0.13284889
2017.53251221,0.13172276
2019.46131958,0.13252479
2021.39012695,0.13248056
2023.31893433,0.13194907
2025.24774170,0.13190791
2027.17654907,0.13128610
2029.10535645,0.13138074
2031.03416382,0.13099602
2032.96297119,0.13070613
2034.89177856,0.13035497
2036.82058594,0.13016483
2038.74939331,0.13003060
2040.67820068,0.12923369
2042.60700806,0.12914543
2044.53581543,0.12910911
2046.46462280,0.12889081
2048.39343018,0.12859656
2050.32223755,0.12840617
2052.25104492,0.12810752
2054.17985229,0.12789780
2056.10865967,0.12777624
2058.03746704,0.12731478
2059.96627441,0.12711030
2061.89508179,0.12686616
2063.82388916,0.12645297
2065.75269653,0.12596923
2067.68150391,0.12621921
2069.61031128,0.12607868
2071.53911865,0.12560576
2073.46792603,0.12571947
2075.39673340,0.12519246
2077.32554077,0.12500601
2079.25434814,0.12481304
2081.18315552,0.12446824
2083.11196289,0.12442459
2085.04077026,0.12429655
2086.96957764,0.12398818
2088.89838501,0.12356371
2090.82719238,0.12342186
2092.75599976,0.12312025
2094.68480713,0.12295739
2096.61361450,0.12271843
2098.54242187,0.12267487
2100.47122925,0.12248798
2102.40003662,0.12212379
2104.32884399,0.12207124
2106.25765137,0.12173789
2108.18645874,0.12175885
2110.11526611,0.12147552
2112.04407349,0.12132834
2113.97288086,0.12117608
2115.90168823,0.12099601
2117.83049561,0.12107281
2119.75930298,0.12058626
2121.68811035,0.12053119
2123.61691772,0.12018290
2125.54572510,0.12012634
2127.47453247,0.12005498
2129.40333984,0.11971840
2131.33214722,0.11985306
2133.26095459,0.11945970
2135.18976196,0.11941488
2137.11856934,0.11930589
2139.04737671,0.11919792
2140.97618408,0.11898965
2142.90499146,0.11885933
2144.83379883,0.11884012
2146.76260620,0.11837896
2148.69141357,0.11851403
2150.62022095,0.11822473
2152.54902832,0.11812687
2154.47783569,0.11808918
2156.40664307,0.11779842
2158.33545044,0.11784799
2160.26425781,0.11748126
2162.19306519,0.11742334
2164.12187256,0.11730631
2166.05067993,0.11719160
2167.97948730,0.11705437
2169.90829468,0.11684374
2171.83710205,0.11687721
2173.76590942,0.11669958
2175.69471680,0.11649610
2177.62352417,0.11635731
2179.55233154,0.11629233
2181.48113892,0.11614197
2183.40994629,0.11616229
2185.33875366,0.11592062
2187.26756104,0.11580692
2189.19636841,0.11583259
2191.12517578,0.11558489
2193.05398315,0.11556061
2194.98279053,0.11532202
2196.91159790,0.11540294
2198.84040527,0.11515959
2200.76921265,0.11497741
2202.69802002,0.11505067
2204.62682739,0.11463465
2206.55563477,0.11464148
2208.48444214,0.11458729
2210.41324951,0.11453249
2212.34205688,0.11423850
2214.27086426,0.11408707
2216.19967163,0.11408952
2218.12847900,0.11386506
2220.05728638,0.11389582
2221.98609375,0.11366569
2223.91490112,0.11349783
2225.84370850,0.11324677
2227.77251587,0.11330022
2229.70132324,0.11308913
2231.63013062,0.11277641
2233.55893799,0.11286858
2235.48774536,0.11243065
2237.41655273,0.11246356
2239.34536011,0.11234902
2241.27416748,0.11214601
2243.20297485,0.11206272
2245.13178223,0.11189075
2247.06058960,0.11178984
2248.98939697,0.11134577
2250.91820435,0.11139715
2252.84701172,0.11119089
2254.77581909,0.11090114
2256.70462646,0.11086789
2258.63343384,0.11082531
2260.56224121,0.11078310
2262.49104858,0.11041027
2264.41985596,0.11038283
2266.34866333,0.11033653
2268.27747070,0.11013991
2270.20627808,0.10991246
2272.13508545,0.10984536
2274.06389282,0.10972822
2275.99270020,0.10954706
2277.92150757,0.10962479
2279.85031494,0.10952194
2281.77912231,0.10950004
2283.70792969,0.10924416
2285.63673706,0.10907070
2287.56554443,0.10886024
2289.49435181,0.10858288
2291.42315918,0.10847361
2293.35196655,0.10805358
2295.28077393,0.10780708
2297.20958130,0.10750590
2299.13838867,0.10723121
2301.06719604,0.10673753
2302.99600342,0.10623785
2304.92481079,0.10584337
2306.85361816,0.10514908
2308.78242554,0.10456850
2310.71123291,0.10371198
2312.64004028,0.10274968
2314.56884766,0.10164282
2316.49765503,0.10056408
2318.42646240,0.09935148
2320.35526978,0.09805177
2322.28407715,0.09678558
2324.21288452,0.09541649
2326.14169189,0.09456910
2328.07049927,0.09334720
2329.99930664,0.09218191
2331.92811401,0.09151158
2333.85692139,0.09112822
2335.78572876,0.09065923
2337.71453613,0.09040979
2339.64334351,0.09063761
2341.57215088,0.09071539
2343.50095825,0.09218866
2345.42976562,0.09385773
2347.35857300,0.09752344
2349.28738037,0.10093988
2351.21618774,0.09747057
2353.14499512,0.09264400
2355.07380249,0.08941184
2357.00260986,0.08651149
2358.93141724,0.08482473
2360.86022461,0.08390521
2362.78903198,0.08387344
2364.71783936,0.08426680
2366.64664673,0.08530606
2368.57545410,0.08699630
2370.50426147,0.08932169
2372.43306885,0.09169987
2374.36187622,0.09424713
2376.29068359,0.09683651
2378.21949097,0.09867153
2380.14829834,0.10045305
2382.07710571,0.10155140
2384.00591309,0.10212521
2385.93472046,0.10240722
2387.86352783,0.10257788
2389.79233521,0.10252081
2391.72114258,0.10225695
2393.64994995,0.10239668
2395.57875732,0.10214692
2397.50756470,0.10206164
2399.43637207,0.10187685
2401.36517944,0.10170028
2403.29398682,0.10173108
2405.22279419,0.10149072
2407.15160156,0.10142095
2409.08040894,0.10121997
2411.00921631,0.10112198
2412.93802368,0.10093100
2414.86683105,0.10090303
2416.79563843,0.10077542
2418.72444580,0.10058488
2420.65325317,0.10055177
2422.58206055,0.10024281
2424.51086792,0.10037981
2426.43967529,0.10021593
2428.36848267,0.10018397
2430.29729004,0.10010473
2432.22609741,0.09969911
2434.15490479,0.09981804
2436.08371216,0.09960258
2438.01251953,0.09941781
2439.94132690,0.09926806
2441.87013428,0.09914405
2443.79894165,0.09903614
2445.72774902,0.09895325
2447.65655640,0.09894520
2449.58536377,0.09867506
2451.51417114,0.09866270
2453.44297852,0.09845570
2455.37178589,0.09835155
2457.30059326,0.09830864
2459.22940063,0.09806392
2461.15820801,0.09790006
2463.08701538,0.09776656
2465.01582275,0.09783998
2466.94463013,0.09759776
2468.87343750,0.09749751
2470.80224487,0.09746312
2472.73105225,0.09729488
2474.65985962,0.09723227
2476.58866699,0.09695291
2478.51747437,0.09685254
2480.44628174,0.09680783
2482.37508911,0.09665803
2484.30389648,0.09652647
2486.23270386,0.09643024
2488.16151123,0.09624878
2490.09031860,0.09614198
2492.01912598,0.09603292
2493.94793335,0.09582667
2495.87674072,0.09579274
2497.80554810,0.09565327
2499.73435547,0.09565239
2501.66316284,0.09546299
2503.59197021,0.09523889
2505.52077759,0.09524550
2507.44958496,0.09501639
2509.37839233,0.09494784
2511.30719971,0.09482207
2513.23600708,0.09470049
2515.16481445,0.09466188
2517.09362183,0.09452827
2519.02242920,0.09440969
2520.95123657,0.09431612
2522.88004395,0.09424709
2524.80885132,0.09413651
2526.73765869,0.09403591
2528.66646606,0.09371976
2530.59527344,0.09369252
2532.52408081,0.09372810
2534.45288818,0.09349450
2536.38169556,0.09342498
2538.31050293,0.09322515
2540.23931030,0.09319112
2542.16811768,0.09311019
2544.09692505,0.09296536
2546.02573242,0.09299698
2547.95453979,0.09282230
2549.88334717,0.09267125
2551.81215454,0.09250039
2553.74096191,0.09234045
2555.66976929,0.09225845
2557.59857666,0.09215666
2559.52738403,0.09206162
2561.45619141,0.09190200
2563.38499878,0.09181597
2565.31380615,0.09171666
2567.24261353,0.09154989
2569.17142090,0.09151621
2571.10022827,0.09134238
2573.02903564,0.09116264
2574.95784302,0.09116123
2576.88665039,0.09097511
2578.81545776,0.09091409
2580.74426514,0.09077866
2582.67307251,0.09059000
2584.60187988,0.09058338
2586.53068726,0.09037067
2588.45949463,0.09031635
2590.38830200,0.09018325
2592.31710937,0.09003213
2594.24591675,0.09005848
2596.17472412,0.08983733
2598.10353149,0.08973072
2600.03233887,0.08972804
2601.96114624,0.08957747
2603.88995361,0.08941457
2605.81876099,0.08922496
2607.74756836,0.08899944
2609.67637573,0.08901989
2611.60518311,0.08894664
2613.53399048,0.08877201
2615.46279785,0.08876542
2617.39160522,0.08853763
2619.32041260,0.08847727
2621.24921997,0.08840066
2623.17802734,0.08811165
2625.10683472,0.08802032
2627.03564209,0.08801870
2628.96444946,0.08785060
2630.89325684,0.08762306
2632.82206421,0.08770750
2634.75087158,0.08757269
2636.67967895,0.08733249
2638.60848633,0.08723390
2640.53729370,0.08710213
2642.46610107,0.08701763
2644.39490845,0.08685865
2646.32371582,0.08685534
2648.25252319,0.08673584
2650.18133057,0.08652426
2652.11013794,0.08640659
2654.03894531,0.08645040
2655.96775269,0.08634140
2657.89656006,0.08596690
2659.82536743,0.08606516
2661.75417480,0.08596550
2663.68298218,0.08572251
2665.61178955,0.08572475
2667.54059692,0.08556184
2669.46940430,0.08533406
2671.39821167,0.08519527
2673.32701904,0.08523566
2675.25582642,0.08504853
2677.18463379,0.08487454
2679.11344116,0.08485966
2681.04224854,0.08484596
2682.97105591,0.08466531
2684.89986328,0.08444996
2686.82867065,0.08451539
2688.75747803,0.08420206
2690.68628540,0.08401032
2692.61509277,0.08399965
2694.54390015,0.08382081
2696.47270752,0.08380369
2698.40151489,0.08368166
2700.33032227,0.08356449
2702.25912964,0.08334003
2704.18793701,0.08322063
2706.11674438,0.08325885
2708.04555176,0.08310360
2709.97435913,0.08290648
2711.90316650,0.08278038
2713.83197388,0.08268140
2715.76078125,0.08250435
2717.68958862,0.08244990
2719.61839600,0.08233400
2721.54720337,0.08220141
2723.47601074,0.08209951
2725.40481812,0.08184014
2727.33362549,0.08172381
2729.26243286,0.08164833
2731.19124023,0.08155707
2733.12004761,0.08144733
2735.04885498,0.08131345
2736.97766235,0.08123673
2738.90646973,0.08109948
2740.83527710,0.08091554
2742.76408447,0.08083041
2744.69289185,0.08081190
2746.62169922,0.08067556
2748.55050659,0.08049484
2750.47931396,0.08038673
2752.40812134,0.08028522
2754.33692871,0.08012016
2756.26573608,0.08004583
2758.19454346,0.07986425
2760.12335083,0.07965316
2762.05215820,0.07956347
2763.98096558,0.07935454
2765.90977295,0.07937989
2767.83858032,0.07925528
2769.76738770,0.07902040
2771.69619507,0.07900149
2773.62500244,0.07878482
2775.55380981,0.07861424
2777.48261719,0.07852682
2779.41142456,0.07843846
2781.34023193,0.07818727
2783.26903931,0.07797895
2785.19784668,0.07792909
2787.12665405,0.07782941
2789.05546143,0.07774761
2790.98426880,0.07754959
2792.91307617,0.07747603
2794.84188354,0.07732843
2796.77069092,0.07715549
2798.69949829,0.07697951
2800.62830566,0.07677548
2802.55711304,0.07678489
2804.48592041,0.07653775
2806.41472778,0.07644897
2808.34353516,0.07637773
2810.27234253,0.07608757
2812.20114990,0.07601497
2814.12995728,0.07585893
2816.05876465,0.07567869
2817.98757202,0.07561266
2819.91637939,0.07554009
2821.84518677,0.07530887
2823.77399414,0.07519174
2825.70280151,0.07511088
2827.63160889,0.07481594
2829.56041626,0.07463589
2831.48922363,0.07458565
2833.41803101,0.07449263
2835.34683838,0.07420899
2837.27564575,0.07402509
2839.20445312,0.07385930
2841.13326050,0.07362732
2843.06206787,0.07336903
2844.99087524,0.07293211
2846.91968262,0.07257417
2848.84848999,0.07211548
2850.77729736,0.07192180
2852.70610474,0.07194219
2854.63491211,0.07180232
2856.56371948,0.07179849
2858.49252686,0.07167079
2860.42133423,0.07159537
2862.35014160,0.07154728
2864.27894897,0.07141761
2866.20775635,0.07135622
2868.13656372,0.07114427
2870.06537109,0.07096114
2871.99417847,0.07084070
2873.92298584,0.07072794
2875.85179321,0.07064819
2877.78060059,0.07049750
2879.70940796,0.07037818
2881.63821533,0.07032901
2883.56702270,0.07023719
2885.49583008,0.07009159
2887.42463745,0.06995063
2889.35344482,0.06977642
2891.28225220,0.06957684
2893.21105957,0.06948991
2895.13986694,0.06931067
2897.06867432,0.06905237
2898.99748169,0.06892878
2900.92628906,0.06865931
2902.85509644,0.06849679
2904.78390381,0.06837173
2906.71271118,0.06809840
2908.64151855,0.06794184
2910.57032593,0.06757583
2912.49913330,0.06723051
2914.42794067,0.06688628
2916.35674805,0.06646276
2918.28555542,0.06636690
2920.21436279,0.06630545
2922.14317017,0.06611944
2924.07197754,0.06599146
2926.00078491,0.06593576
2927.92959229,0.06582218
2929.85839966,0.06579227
2931.78720703,0.06567723
2933.71601440,0.06558134
2935.64482178,0.06567426
2937.57362915,0.06557521
2939.50243652,0.06555730
2941.43124390,0.06549795
2943.36005127,0.06541740
2945.28885864,0.06533280
2947.21766602,0.06518954
2949.14647339,0.06515127
2951.07528076,0.06488042
2953.00408813,0.06472871
2954.93289551,0.06454541
2956.86170288,0.06434755
2958.79051025,0.06421018
2960.71931763,0.06388050
2962.64812500,0.06380379
2964.57693237,0.06364677
2966.50573975,0.06341916
2968.43454712,0.06338048
2970.36335449,0.06353776
2972.29216187,0.06362652
2974.22096924,0.06349348
2976.14977661,0.06353313
2978.07858398,0.06346654
2980.00739136,0.06339212
2981.93619873,0.06333180
2983.86500610,0.06331228
2985.79381348,0.06329466
2987.72262085,0.06303158
2989.65142822,0.06307374
2991.58023560,0.06300254
2993.50904297,0.06261703
2995.43785034,0.06257374
2997.36665771,0.06254819
2999.29546509,0.06228967
3001.22427246,0.06219961
3003.15307983,0.06213073
3005.08188721,0.06188019
3007.01069458,0.06168895
3008.93950195,0.06156074
3010.86830933,0.06144425
3012.79711670,0.06117703
3014.72592407,0.06095187
3016.65473145,0.06083043
3018.58353882,0.06072875
3020.51234619,0.06073795
3022.44115356,0.06052836
3024.36996094,0.06026841
3026.29876831,0.06005497
3028.22757568,0.05992129
3030.15638306,0.05973025
3032.08519043,0.05937171
3034.01399780,0.05936713
3035.94280518,0.05929895
3037.87161255,0.05896686
3039.80041992,0.05879719
3041.72922729,0.05868902
3043.65803467,0.05848113
3045.58684204,0.05832895
3047.51564941,0.05821414
3049.44445679,0.05796863
3051.37326416,0.05786562
3053.30207153,0.05774251
3055.23087891,0.05748420
3057.15968628,0.05733291
3059.08849365,0.05715347
3061.01730103,0.05694600
3062.94610840,0.05680228
3064.87491577,0.05654889
3066.80372314,0.05632844
3068.73253052,0.05632257
3070.66133789,0.05614756
3072.59014526,0.05595250
3074.51895264,0.05582077
3076.44776001,0.05560316
3078.37656738,0.05535460
3080.30537476,0.05505400
3082.23418213,0.05497421
3084.16298950,0.05486460
3086.09179687,0.05473039
3088.02060425,0.05456273
3089.94941162,0.05423480
3091.87821899,0.05411638
3093.80702637,0.05391337
3095.73583374,0.05364813
3097.66464111,0.05349225
3099.59344849,0.05325425
3101.52225586,0.05299158
3103.45106323,0.05288272
3105.37987061,0.05280583
3107.30867798,0.05252246
3109.23748535,0.05222892
3111.16629272,0.05209004
3113.09510010,0.05191408
3115.02390747,0.05150747
3116.95271484,0.05135492
3118.88152222,0.05125478
3120.81032959,0.05095673
3122.73913696,0.05085214
3124.66794434,0.05062642
3126.59675171,0.05033526
3128.52555908,0.05000906
3130.45436645,0.04985625
3132.38317383,0.04967087
3134.31198120,0.04933856
3136.24078857,0.04927176
3138.16959595,0.04896339
3140.09840332,0.04878018
3142.02721069,0.04857089
3143.95601807,0.04826297
3145.88482544,0.04814471
3147.81363281,0.04781063
3149.74244019,0.04759092
3151.67124756,0.04724562
3153.60005493,0.04706452
3155.52886230,0.04700848
3157.45766968,0.04669302
3159.38647705,0.04653081
3161.31528442,0.04621799
3163.24409180,0.04599240
3165.17289917,0.04591890
3167.10170654,0.04557806
3169.03051392,0.04523764
3170.95932129,0.04509749
3172.88812866,0.04488508
3174.81693604,0.04465893
3176.74574341,0.04442303
3178.67455078,0.04409979
3180.60335815,0.04398044
3182.53216553,0.04385941
3184.46097290,0.04368853
3186.38978027,0.04337516
3188.31858765,0.04317124
3190.24739502,0.04302265
3192.17620239,0.04270761
3194.10500977,0.04265758
3196.03381714,0.04237343
3197.96262451,0.04219127
3199.89143188,0.04211676
3201.82023926,0.04185040
3203.74904663,0.04177064
3205.67785400,0.04154957
3207.60666138,0.04133705
3209.53546875,0.04112907
3211.46427612,0.04107112
3213.39308350,0.04091849
3215.32189087,0.04062524
3217.25069824,0.04058576
3219.17950562,0.04036786
3221.10831299,0.04016329
3223.03712036,0.04005824
3224.96592773,0.03996139
3226.89473511,0.03982513
3228.82354248,0.03974129
3230.75234985,0.03958150
3232.68115723,0.03934479
3234.60996460,0.03929253
3236.53877197,0.03916671
3238.46757935,0.03915363
3240.39638672,0.03896242
3242.32519409,0.03886342
3244.25400146,0.03877727
3246.18280884,0.03853427
3248.11161621,0.03862250
3250.04042358,0.03844715
3251.96923096,0.03837487
3253.89803833,0.03828599
3255.82684570,0.03820533
3257.75565308,0.03822034
3259.68446045,0.03802619
3261.61326782,0.03809395
3263.54207520,0.03789298
3265.47088257,0.03782872
3267.39968994,0.03787757
3269.32849731,0.03769998
3271.25730469,0.03760799
3273.18611206,0.03744243
3275.11491943,0.03741185
3277.04372681,0.03737441
3278.97253418,0.03740118
3280.90134155,0.03731444
3282.83014893,0.03724433
3284.75895630,0.03722231
3286.68776367,0.03711840
3288.61657104,0.03712087
3290.54537842,0.03695507
3292.47418579,0.03691401
3294.40299316,0.03680510
3296.33180054,0.03674959
3298.26060791,0.03667688
3300.18941528,0.03661238
3302.11822266,0.03671957
3304.04703003,0.03640062
3305.97583740,0.03635660
3307.90464478,0.03630533
3309.83345215,0.03620549
3311.76225952,0.03631466
3313.69106689,0.03610049
3315.61987427,0.03610113
3317.54868164,0.03608513
3319.47748901,0.03589858
3321.40629639,0.03580932
3323.33510376,0.03584002
3325.26391113,0.03577353
3327.19271851,0.03558088
3329.12152588,0.03560646
3331.05033325,0.03553763
3332.97914062,0.03548625
3334.90794800,0.03545976
3336.83675537,0.03529986
3338.76556274,0.03529667
3340.69437012,0.03526787
3342.62317749,0.03516473
3344.55198486,0.03509593
3346.48079224,0.03494509
3348.40959961,0.03491379
3350.33840698,0.03481968
3352.26721436,0.03474224
3354.19602173,0.03483311
3356.12482910,0.03466756
3358.05363647,0.03469469
3359.98244385,0.03457176
3361.91125122,0.03437269
3363.84005859,0.03443892
3365.76886597,0.03426680
3367.69767334,0.03428841
3369.62648071,0.03412577
3371.55528809,0.03411381
3373.48409546,0.03428178
3375.41290283,0.03408527
3377.34171020,0.03402431
3379.27051758,0.03400525
3381.19932495,0.03404036
3383.12813232,0.03396329
3385.05693970,0.03400163
3386.98574707,0.03392801
3388.91455444,0.03386669
3390.84336182,0.03383650
3392.77216919,0.03355807
3394.70097656,0.03374880
3396.62978394,0.03358427
3398.55859131,0.03353160
3400.48739868,0.03368171
3402.41620605,0.03354179
3404.34501343,0.03359857
3406.27382080,0.03348172
3408.20262817,0.03362383
3410.13143555,0.03360375
3412.06024292,0.03356387
3413.98905029,0.03364012
3415.91785767,0.03361540
3417.84666504,0.03366743
3419.77547241,0.03342805
3421.70427979,0.03340872
3423.63308716,0.03346679
3425.56189453,0.03358947
3427.49070190,0.03353123
3429.41950928,0.03345343
3431.34831665,0.03354895
3433.27712402,0.03352657
3435.20593140,0.03367065
3437.13473877,0.03346054
3439.06354614,0.03354666
3440.99235352,0.03361914
3442.92116089,0.03349587
3444.84996826,0.03358673
3446.77877563,0.03330915
3448.70758301,0.03345117
3450.63639038,0.03373589
3452.56519775,0.03373659
3454.49400513,0.03377584
3456.42281250,0.03382062
3458.35161987,0.03372701
3460.28042725,0.03368253
3462.20923462,0.03366513
3464.13804199,0.03364133
3466.06684937,0.03386113
3467.99565674,0.03382558
3469.92446411,0.03394342
3471.85327148,0.03393261
3473.78207886,0.03394471
3475.71088623,0.03408408
3477.63969360,0.03398649
3479.56850098,0.03421152
3481.49730835,0.03389674
3483.42611572,0.03387821
3485.35492310,0.03424213
3487.28373047,0.03415423
3489.21253784,0.03410103
3491.14134521,0.03420502
3493.07015259,0.03445744
3494.99895996,0.03431071
3496.92776733,0.03437178
3498.85657471,0.03451964
3500.78538208,0.03449205
3502.71418945,0.03400702
3504.64299683,0.03398117
3506.57180420,0.03492739
3508.50061157,0.03455010
3510.42941895,0.03443117
3512.35822632,0.03488358
3514.28703369,0.03487453
3516.21584106,0.03503481
3518.14464844,0.03490740
3520.07345581,0.03503222
3522.00226318,0.03482328
3523.93107056,0.03451424
3525.85987793,0.03470086
3527.78868530,0.03477649
3529.71749268,0.03492396
3531.64630005,0.03525346
3533.57510742,0.03552999
3535.50391479,0.03532485
3537.43272217,0.03519485
3539.36152954,0.03562048
3541.29033691,0.03575537
3543.21914429,0.03541378
3545.14795166,0.03481696
3547.07675903,0.03442108
3549.00556641,0.03557993
3550.93437378,0.03585839
3552.86318115,0.03500829
3554.79198853,0.03580900
3556.72079590,0.03604991
3558.64960327,0.03592145
3560.57841064,0.03570548
3562.50721802,0.03563428
3564.43602539,0.03591318
3566.36483276,0.03383650
3568.29364014,0.03309323
3570.22244751,0.03544976
3572.15125488,0.03648311
3574.08006226,0.03610883
3576.00886963,0.03639134
3577.93767700,0.03631298
3579.86648437,0.03625581
3581.79529175,0.03645899
3583.72409912,0.03655279
3585.65290649,0.03593218
3587.58171387,0.03318531
3589.51052124,0.03409980
3591.43932861,0.03683753
3593.36813599,0.03597866
3595.29694336,0.03553503
3597.22575073,0.03608849
3599.15455811,0.03650576
3601.08336548,0.03610388
3603.01217285,0.03649677
3604.94098022,0.03725905
3606.86978760,0.03612931
3608.79859497,0.03427071
3610.72740234,0.03489146
3612.65620972,0.03575508
3614.58501709,0.03480116
3616.51382446,0.03714634
3618.44263184,0.03463295
3620.37143921,0.03345397
3622.30024658,0.03753076
3624.22905395,0.03662187
3626.15786133,0.03822745
3628.08666870,0.03288677
3630.01547607,0.03012168
3631.94428345,0.03732680
3633.87309082,0.03654657
3635.80189819,0.03709552
3637.73070557,0.03781900
3639.65951294,0.03736067
3641.58832031,0.03780887
3643.51712769,0.03732901
3645.44593506,0.03775319
3647.37474243,0.03435753
3649.30354980,0.03172983
3651.23235718,0.03206590
3653.16116455,0.03760127
3655.08997192,0.03725441
3657.01877930,0.03367344
3658.94758667,0.03845702
3660.87639404,0.03777434
3662.80520142,0.03821438
3664.73400879,0.03820283
3666.66281616,0.03789204
3668.59162354,0.03708963
3670.52043091,0.03069117
3672.44923828,0.03651088
3674.37804565,0.03522813
3676.30685303,0.02939047
3678.23566040,0.03637365
3680.16446777,0.03736377
3682.09327515,0.03726118
3684.02208252,0.03842051
3685.95088989,0.03786618
3687.87969727,0.03436960
3689.80850464,0.03175209
3691.73731201,0.03592853
3693.66611938,0.03689447
3695.59492676,0.03775628
3697.52373413,0.03790178
3699.45254150,0.03743871
3701.38134888,0.03663518
3703.31015625,0.03529695
3705.23896362,0.03848545
3707.16777100,0.03683454
3709.09657837,0.03606084
3711.02538574,0.03416250
3712.95419312,0.03202710
3714.88300049,0.03724026
3716.81180786,0.03675447
3718.74061523,0.03690520
3720.66942261,0.03637051
3722.59822998,0.03511355
3724.52703735,0.03629623
3726.45584473,0.03385194
3728.38465210,0.03634753
3730.31345947,0.03613879
3732.24226685,0.03345999
3734.17107422,0.03265271
3736.09988159,0.03114090
3738.02868896,0.03269389
3739.95749634,0.03533092
3741.88630371,0.03702456
3743.81511108,0.02917573
3745.74391846,0.02763442
3747.67272583,0.03529825
3749.60153320,0.03067711
3751.53034058,0.02827492
3753.45914795,0.03219804
3755.38795532,0.03455260
3757.31676270,0.03582164
3759.24557007,0.03340503
3761.17437744,0.03439447
3763.10318481,0.03644986
3765.03199219,0.03433736
3766.96079956,0.03482104
3768.88960693,0.03449746
3770.81841431,0.03301472
3772.74722168,0.03540193
3774.67602905,0.03556854
3776.60483643,0.03550903
3778.53364380,0.03458245
3780.46245117,0.03335372
3782.39125854,0.03545441
3784.32006592,0.03478024
3786.24887329,0.03453490
3788.17768066,0.03524365
3790.10648804,0.03499304
3792.03529541,0.03470960
3793.96410278,0.03533244
3795.89291016,0.03339097
3797.82171753,0.03289781
3799.75052490,0.03457472
3801.67933228,0.02786123
3803.60813965,0.03204884
3805.53694702,0.03484401
3807.46575439,0.02884739
3809.39456177,0.03426642
3811.32336914,0.03380104
3813.25217651,0.03492718
3815.18098389,0.03180251
3817.10979126,0.02805055
3819.03859863,0.03488027
3820.96740601,0.02875634
3822.89621338,0.02991796
3824.82502075,0.03467215
3826.75382812,0.03162061
3828.68263550,0.03383106
3830.61144287,0.03260761
3832.54025024,0.03154254
3834.46905762,0.03222171
3836.39786499,0.03070753
3838.32667236,0.02795886
3840.25547974,0.03004426
3842.18428711,0.03219557
3844.11309448,0.03081227
3846.04190186,0.03310475
3847.97070923,0.03270535
3849.89951660,0.03285881
3851.82832397,0.02974470
3853.75713135,0.02262248
3855.68593872,0.02640851
3857.61474609,0.03281215
3859.54355347,0.03205662
3861.47236084,0.03159599
3863.40116821,0.03101698
3865.32997559,0.02904242
3867.25878296,0.03213544
3869.18759033,0.02958052
3871.11639770,0.02737619
3873.04520508,0.03212015
3874.97401245,0.02978164
3876.90281982,0.03179833
3878.83162720,0.03245228
3880.76043457,0.02815752
3882.68924194,0.03199010
3884.61804932,0.03015296
3886.54685669,0.02775573
3888.47566406,0.03199130
3890.40447144,0.03053612
3892.33327881,0.02885534
3894.26208618,0.03129946
3896.19089355,0.03176818
3898.11970093,0.03037751
3900.04850830,0.02886456
3901.97731567,0.02856118
3903.90612305,0.02834856
3905.83493042,0.02878715
3907.76373779,0.03120215
3909.69254517,0.03118788
3911.62135254,0.03085349
3913.55015991,0.03129743
3915.47896728,0.03044834
3917.40777466,0.02966938
3919.33658203,0.02939462
3921.26538940,0.03044755
3923.19419678,0.03029406
3925.12300415,0.02971355
3927.05181152,0.03020366
3928.98061890,0.03049728
3930.90942627,0.02993457
3932.83823364,0.02899724
3934.76704102,0.03006278
3936.69584839,0.03031604
3938.62465576,0.03012870
3940.55346313,0.03034913
3942.48227051,0.02927232
3944.41107788,0.02942176
3946.33988525,0.02991051
3948.26869263,0.02935889
3950.19750000,0.02920525
3952.12630737,0.02968181
3954.05511475,0.02970108
3955.98392212,0.02961526
3957.91272949,0.02961816
3959.84153687,0.02946297
3961.77034424,0.02935544
3963.69915161,0.02919450
3965.62795898,0.02940928
3967.55676636,0.02923249
3969.48557373,0.02918518
3971.41438110,0.02924537
3973.34318848,0.02909359
3975.27199585,0.02906025
3977.20080322,0.02897806
3979.12961060,0.02916317
3981.05841797,0.02884889
3982.98722534,0.02884566
3984.91603271,0.02885163
3986.84484009,0.02873452
3988.77364746,0.02873855
3990.70245483,0.02846274
3992.63126221,0.02871299
3994.56006958,0.02854609
3996.48887695,0.02848634
3998.41768433,0.02851973
4000.34649170,0.02841006
4002.27529907,0.02833671
4004.20410645,0.02819396
4006.13291382,0.02837949
4008.06172119,0.02802813
4009.99052856,0.02803220
4011.91933594,0.02809461
4013.84814331,0.02795849
4015.77695068,0.02802758
4017.70575806,0.02791414
4019.63456543,0.02790739
4021.56337280,0.02778300
4023.49218018,0.02775904
4025.42098755,0.02755344
4027.34979492,0.02761090
4029.27860229,0.02761225
4031.20740967,0.02747840
4033.13621704,0.02756886
4035.06502441,0.02733797
4036.99383179,0.02739158
4038.92263916,0.02734030
4040.85144653,0.02733091
4042.78025391,0.02727703
4044.70906128,0.02714422
4046.63786865,0.02703436
4048.56667603,0.02691524
4050.49548340,0.02705621
4052.42429077,0.02684995
4054.35309814,0.02685871
4056.28190552,0.02678651
4058.21071289,0.02677600
4060.13952026,0.02672845
4062.06832764,0.02661322
4063.99713501,0.02676627
4065.92594238,0.02647126
4067.85474976,0.02652762
4069.78355713,0.02641413
4071.71236450,0.02635056
4073.64117187,0.02637568
4075.56997925,0.02621460
4077.49878662,0.02631190
4079.42759399,0.02610078
4081.35640137,0.02610727
4083.28520874,0.02600773
4085.21401611,0.02608617
4087.14282349,0.02602853
4089.07163086,0.02582896
4091.00043823,0.02593486
4092.92924561,0.02572587
4094.85805298,0.02581916
4096.78686035,0.02575540
4098.71566772,0.02569231
4100.64447510,0.02559410
4102.57328247,0.02555247
4104.50208984,0.02559263
4106.43089722,0.02533978
4108.35970459,0.02543190
4110.28851196,0.02532794
4112.21731934,0.02531630
4114.14612671,0.02527392
4116.07493408,0.02521649
4118.00374145,0.02515691
4119.93254883,0.02500453
4121.86135620,0.02509061
4123.79016357,0.02495786
4125.71897095,0.02499303
4127.64777832,0.02482534
4129.57658569,0.02484475
4131.50539307,0.02483372
4133.43420044,0.02472569
4135.36300781,0.02486013
4137.29181519,0.02454883
4139.22062256,0.02460252
4141.14942993,0.02450231
4143.07823730,0.02441932
4145.00704468,0.02447193
4146.93585205,0.02437177
4148.86465942,0.02436912
4150.79346680,0.02418835
4152.72227417,0.02426818
4154.65108154,0.02412294
4156.57988892,0.02414471
4158.50869629,0.02414969
4160.43750366,0.02408465
4162.36631103,0.02412116
4164.29511841,0.02384454
4166.22392578,0.02393330
4168.15273315,0.02385017
4170.08154053,0.02379716
4172.01034790,0.02376525
4173.93915527,0.02371414
4175.86796265,0.02374302
4177.79677002,0.02355358
4179.72557739,0.02354877
4181.65438477,0.02342003
4183.58319214,0.02340805
4185.51199951,0.02337218
4187.44080688,0.02338182
4189.36961426,0.02335664
4191.29842163,0.02322777
4193.22722900,0.02322928
4195.15603638,0.02307887
4197.08484375,0.02315709
4199.01365112,0.02303339
4200.94245850,0.02299155
4202.87126587,0.02297580
4204.80007324,0.02283282
4206.72888062,0.02291644
4208.65768799,0.02282710
4210.58649536,0.02282380
4212.51530273,0.02270581
4214.44411011,0.02264613
4216.37291748,0.02261407
4218.30172485,0.02257301
4220.23053223,0.02257508
4222.15933960,0.02250399
4224.08814697,0.02250414
4226.01695435,0.02236195
4227.94576172,0.02241893
4229.87456909,0.02232193
4231.80337646,0.02224979
4233.73218384,0.02225016
4235.66099121,0.02213164
4237.58979858,0.02212883
4239.51860596,0.02204537
4241.44741333,0.02211968
4243.37622070,0.02195647
4245.30502808,0.02195765
4247.23383545,0.02198262
4249.16264282,0.02178568
4251.09145020,0.02175834
4253.02025757,0.02170175
4254.94906494,0.02177793
4256.87787231,0.02160041
4258.80667969,0.02156988
4260.73548706,0.02153761
4262.66429443,0.02146399
4264.59310181,0.02151990
4266.52190918,0.02137053
4268.45071655,0.02145045
4270.37952393,0.02138165
4272.30833130,0.02136920
4274.23713867,0.02126580
4276.16594604,0.02113269
4278.09475342,0.02120718
4280.02356079,0.02112838
4281.95236816,0.02110581
4283.88117554,0.02101925
4285.80998291,0.02106686
4287.73879028,0.02092259
4289.66759766,0.02089863
4291.59640503,0.02096872
4293.52521240,0.02085944
4295.45401978,0.02092743
4297.38282715,0.02070680
4299.31163452,0.02068170
4301.24044189,0.02067617
4303.16924927,0.02062004
4305.09805664,0.02065013
4307.02686401,0.02052656
4308.95567139,0.02049565
4310.88447876,0.02036481
4312.81328613,0.02036273
4314.74209351,0.02032132
4316.67090088,0.02030768
4318.59970825,0.02028515
4320.52851562,0.02016786
4322.45732300,0.02021642
4324.38613037,0.02013706
4326.31493774,0.02005574
4328.24374512,0.01997865
4330.17255249,0.01995995
4332.10135986,0.01991847
4334.03016724,0.01991874
4335.95897461,0.01994250
4337.88778198,0.01983240
4339.81658936,0.01985812
4341.74539673,0.01976321
4343.67420410,0.01964425
4345.60301147,0.01969939
4347.53181885,0.01971594
4349.46062622,0.01956945
4351.38943359,0.01955383
4353.31824097,0.01954828
4355.24704834,0.01940260
4357.17585571,0.01943091
4359.10466309,0.01935070
4361.03347046,0.01932527
4362.96227783,0.01928286
4364.89108520,0.01916504
4366.81989258,0.01916673
4368.74869995,0.01911895
4370.67750732,0.01913662
4372.60631470,0.01912920
4374.53512207,0.01904118
4376.46392944,0.01895517
4378.39273682,0.01900314
4380.32154419,0.01894342
4382.25035156,0.01889632
4384.17915894,0.01888624
4386.10796631,0.01874296
4388.03677368,0.01879494
4389.96558105,0.01874536
4391.89438843,0.01873811
4393.82319580,0.01870293
4395.75200317,0.01864316
4397.68081055,0.01864533
4399.60961792,0.01851850
4401.53842529,0.01858162
4403.46723267,0.01851618
4405.39604004,0.01842753
4407.32484741,0.01831322
4409.25365478,0.01824610
4411.18246216,0.01832325
4413.11126953,0.01820913
4415.04007690,0.01818886
4416.96888428,0.01815414
4418.89769165,0.01814911
4420.82649902,0.01815140
4422.75530640,0.01807741
4424.68411377,0.01804007
4426.61292114,0.01802948
4428.54172852,0.01795920
4430.47053589,0.01784988
4432.39934326,0.01785460
4434.32815063,0.01775662
4436.25695801,0.01782279
4438.18576538,0.01779056
4440.11457275,0.01759436
4442.04338013,0.01762278
4443.97218750,0.01761978
4445.90099487,0.01761439
4447.82980225,0.01756083
4449.75860962,0.01750195
4451.68741699,0.01739431
4453.61622437,0.01742315
4455.54503174,0.01742647
4457.47383911,0.01729961
4459.40264648,0.01735553
4461.33145386,0.01732233
4463.26026123,0.01726709
4465.18906860,0.01713078
4467.11787598,0.01712528
4469.04668335,0.01714555
4470.97549072,0.01708502
4472.90429810,0.01708835
4474.83310547,0.01697070
4476.76191284,0.01697055
4478.69072021,0.01688870
4480.61952759,0.01694312
4482.54833496,0.01691623
4484.47714233,0.01678427
4486.40594971,0.01684880
4488.33475708,0.01674597
4490.26356445,0.01674058
4492.19237183,0.01669755
4494.12117920,0.01668471
4496.04998657,0.01662253
4497.97879395,0.01656545
4499.90760132,0.01655269
4501.83640869,0.01642746
4503.76521606,0.01649968
4505.69402344,0.01642259
4507.62283081,0.01639330
4509.55163818,0.01636397
4511.48044556,0.01635411
4513.40925293,0.01632917
4515.33806030,0.01622238
4517.26686768,0.01632750
4519.19567505,0.01613468
4521.12448242,0.01608760
4523.05328979,0.01610519
4524.98209717,0.01600478
4526.91090454,0.01605114
4528.83971191,0.01597708
4530.76851929,0.01595700
4532.69732666,0.01591699
4534.62613403,0.01590203
4536.55494141,0.01586746
4538.48374878,0.01579102
4540.41255615,0.01570512
4542.34136353,0.01575493
4544.27017090,0.01576931
4546.19897827,0.01560916
4548.12778564,0.01567994
4550.05659302,0.01566608
4551.98540039,0.01561208
4553.91420776,0.01551271
4555.84301514,0.01547731
4557.77182251,0.01546403
4559.70062988,0.01533645
4561.62943726,0.01543909
4563.55824463,0.01540688
4565.48705200,0.01532936
4567.41585937,0.01525934
4569.34466675,0.01527928
4571.27347412,0.01523540
4573.20228149,0.01514956
4575.13108887,0.01523015
4577.05989624,0.01508439
4578.98870361,0.01507958
4580.91751099,0.01497792
4582.84631836,0.01494795
4584.77512573,0.01498048
4586.70393311,0.01483954
4588.63274048,0.01493584
4590.56154785,0.01483342
4592.49035522,0.01479364
4594.41916260,0.01480598
4596.34796997,0.01473290
4598.27677734,0.01474165
4600.20558472,0.01474299
4602.13439209,0.01466305
4604.06319946,0.01458485
4605.99200684,0.01466456
4607.92081421,0.01451151
4609.84962158,0.01454658
4611.77842895,0.01454442
4613.70723633,0.01436094
4615.63604370,0.01444299
4617.56485107,0.01441056
4619.49365845,0.01438289
4621.42246582,0.01431940
4623.35127319,0.01434223
4625.28008057,0.01432665
4627.20888794,0.01421450
4629.13769531,0.01421591
4631.06650269,0.01417084
4632.99531006,0.01416372
4634.92411743,0.01408653
4636.85292480,0.01409509
4638.78173218,0.01405952
4640.71053955,0.01398948
4642.63934692,0.01398771
4644.56815430,0.01392759
4646.49696167,0.01391143
4648.42576904,0.01389924
4650.35457642,0.01390672
4652.28338379,0.01375114
4654.21219116,0.01375605
4656.14099853,0.01380057
4658.06980591,0.01368091
4659.99861328,0.01372661
4661.92742065,0.01372320
4663.85622803,0.01366087
4665.78503540,0.01357688
4667.71384277,0.01364024
4669.64265015,0.01359611
4671.57145752,0.01343636
4673.50026489,0.01352974
4675.42907227,0.01348849
4677.35787964,0.01337269
4679.28668701,0.01340337
4681.21549438,0.01341599
4683.14430176,0.01329407
4685.07310913,0.01322281
4687.00191650,0.01328427
4688.93072388,0.01332198
4690.85953125,0.01322893
4692.78833862,0.01313574
4694.71714600,0.01315328
4696.64595337,0.01313672
4698.57476074,0.01309979
4700.50356812,0.01303949
4702.43237549,0.01308838
4704.36118286,0.01304655
4706.28999023,0.01302514
4708.21879761,0.01299319
4710.14760498,0.01280568
4712.07641235,0.01292916
4714.00521973,0.01286463
4715.93402710,0.01285062
4717.86283447,0.01291921
4719.79164185,0.01277068
4721.72044922,0.01277223
4723.64925659,0.01270024
4725.57806396,0.01273796
4727.50687134,0.01264838
4729.43567871,0.01262369
4731.36448608,0.01268249
4733.29329346,0.01256600
4735.22210083,0.01259932
4737.15090820,0.01251804
4739.07971558,0.01253856
4741.00852295,0.01252229
4742.93733032,0.01242602
4744.86613770,0.01243644
4746.79494507,0.01242684
4748.72375244,0.01239073
4750.65255981,0.01233667
4752.58136719,0.01238275
4754.51017456,0.01231635
4756.43898193,0.01229433
4758.36778931,0.01219785
4760.29659668,0.01217607
4762.22540405,0.01225247
4764.15421143,0.01209992
4766.08301880,0.01208309
4768.01182617,0.01206976
4769.94063354,0.01206901
4771.86944092,0.01197959
4773.79824829,0.01193181
4775.72705566,0.01196366
4777.65586304,0.01192963
4779.58467041,0.01198223
4781.51347778,0.01190239
4783.44228516,0.01192561
4785.37109253,0.01182523
4787.29989990,0.01176559
4789.22870728,0.01186994
4791.15751465,0.01181859
4793.08632202,0.01177707
4795.01512939,0.01166894
4796.94393677,0.01169838
4798.87274414,0.01167628
4800.80155151,0.01162468
4802.73035889,0.01159283
4804.65916626,0.01164168
4806.58797363,0.01165301
4808.51678101,0.01144376
4810.44558838,0.01159826
4812.37439575,0.01149470
4814.30320312,0.01131791
4816.23201050,0.01145595
4818.16081787,0.01139001
4820.08962524,0.01138240
4822.01843262,0.01134716
4823.94723999,0.01132685
4825.87604736,0.01129543
4827.80485474,0.01121529
4829.73366211,0.01122937
4831.66246948,0.01124893
4833.59127686,0.01121287
4835.52008423,0.01115263
4837.44889160,0.01114571
4839.37769897,0.01112194
4841.30650635,0.01108570
4843.23531372,0.01100888
4845.16412109,0.01100898
4847.09292847,0.01095339
4849.02173584,0.01096864
4850.95054321,0.01101166
4852.87935059,0.01086892
4854.80815796,0.01095321
4856.73696533,0.01089298
4858.66577270,0.01078725
4860.59458008,0.01083064
4862.52338745,0.01077603
4864.45219482,0.01078602
4866.38100220,0.01078031
4868.30980957,0.01072906
4870.23861694,0.01063288
4872.16742432,0.01069805
4874.09623169,0.01068130
4876.02503906,0.01058216
4877.95384644,0.01062929
4879.88265381,0.01056065
4881.81146118,0.01057671
4883.74026855,0.01060406
4885.66907593,0.01052540
4887.59788330,0.01043479
4889.52669067,0.01043166
4891.45549805,0.01041971
4893.38430542,0.01034428
4895.31311279,0.01039133
4897.24192017,0.01037889
4899.17072754,0.01034020
4901.09953491,0.01037715
4903.02834228,0.01040158
4904.95714966,0.01026980
4906.88595703,0.01018411
4908.81476440,0.01024687
4910.74357178,0.01023739
4912.67237915,0.01021009
4914.60118652,0.01014706
4916.52999390,0.01013536
4918.45880127,0.01012429
4920.38760864,0.01009101
4922.31641602,0.01005687
4924.24522339,0.01003270
4926.17403076,0.00998468
4928.10283813,0.00994990
4930.03164551,0.01002234
4931.96045288,0.00990807
4933.88926025,0.00990538
4935.81806763,0.00990012
4937.74687500,0.00982596
4939.67568237,0.00989410
4941.60448975,0.00978486
4943.53329712,0.00978092
4945.46210449,0.00982522
4947.39091187,0.00977184
4949.31971924,0.00965287
4951.24852661,0.00968476
4953.17733398,0.00977081
4955.10614136,0.00963662
4957.03494873,0.00963758
4958.96375610,0.00963733
4960.89256348,0.00969161
4962.82137085,0.00962945
4964.75017822,0.00950439
4966.67898560,0.00950971
4968.60779297,0.00947224
4970.53660034,0.00956789
4972.46540771,0.00949068
4974.39421509,0.00947001
4976.32302246,0.00949911
4978.25182983,0.00940264
4980.18063721,0.00935632
4982.10944458,0.00930675
4984.03825195,0.00934144
4985.96705933,0.00924005
4987.89586670,0.00925084
4989.82467407,0.00931515
4991.75348145,0.00924235
4993.68228882,0.00920490
4995.61109619,0.00919704
4997.53990356,0.00922007
4999.46871094,0.00914875
5001.39751831,0.00913932
5003.32632568,0.00904626
5005.25513306,0.00897437
5007.18394043,0.00902252
5009.11274780,0.00897574
5011.04155518,0.00894553
5012.97036255,0.00892080
5014.89916992,0.00896738
5016.82797729,0.00896265
5018.75678467,0.00892586
5020.68559204,0.00887547
5022.61439941,0.00879208
5024.54320679,0.00879860
5026.47201416,0.00881648
5028.40082153,0.00877417
5030.32962891,0.00873708
5032.25843628,0.00880119
5034.18724365,0.00876839
5036.11605103,0.00875464
5038.04485840,0.00871077
5039.97366577,0.00866699
5041.90247314,0.00872075
5043.83128052,0.00864441
5045.76008789,0.00865225
5047.68889526,0.00860687
5049.61770264,0.00858775
5051.54651001,0.00858854
5053.47531738,0.00852204
5055.40412476,0.00851899
5057.33293213,0.00845647
5059.26173950,0.00847486
5061.19054687,0.00842665
5063.11935425,0.00841468
5065.04816162,0.00837712
5066.97696899,0.00833996
5068.90577637,0.00839688
5070.83458374,0.00831515
5072.76339111,0.00834863
5074.69219849,0.00834865
5076.62100586,0.00837785
5078.54981323,0.00831931
5080.47862061,0.00818276
5082.40742798,0.00826646
5084.33623535,0.00820878
5086.26504272,0.00815440
5088.19385010,0.00817211
5090.12265747,0.00814136
5092.05146484,0.00808517
5093.98027222,0.00811296
5095.90907959,0.00813216
5097.83788696,0.00804466
5099.76669434,0.00806896
5101.69550171,0.00804313
5103.62430908,0.00803909
5105.55311645,0.00801227
5107.48192383,0.00789313
5109.41073120,0.00788871
5111.33953857,0.00796751
5113.26834595,0.00800259
5115.19715332,0.00794565
5117.12596069,0.00790486
5119.05476807,0.00784028
5120.98357544,0.00787536
5122.91238281,0.00792270
5124.84119019,0.00786030
5126.76999756,0.00781959
5128.69880493,0.00778543
5130.62761230,0.00780540
5132.55641968,0.00780242
5134.48522705,0.00777395
5136.41403442,0.00770055
5138.34284180,0.00763168
5140.27164917,0.00761127
5142.20045654,0.00762949
5144.12926392,0.00764285
5146.05807129,0.00758734
5147.98687866,0.00762544
5149.91568603,0.00757977
5151.84449341,0.00755440
5153.77330078,0.00758921
5155.70210815,0.00751365
5157.63091553,0.00750663
5159.55972290,0.00748863
5161.48853027,0.00753891
5163.41733765,0.00749045
5165.34614502,0.00734274
5167.27495239,0.00747911
5169.20375977,0.00745820
5171.13256714,0.00728726
5173.06137451,0.00736602
5174.99018188,0.00735546
5176.91898926,0.00735130
5178.84779663,0.00737016
5180.77660400,0.00732066
5182.70541138,0.00733654
5184.63421875,0.00714563
5186.56302612,0.00717585
5188.49183350,0.00731024
5190.42064087,0.00716970
5192.34944824,0.00716365
5194.27825562,0.00719141
5196.20706299,0.00715345
5198.13587036,0.00709187
5200.06467773,0.00711088
5201.99348511,0.00709429
5203.92229248,0.00712728
5205.85109985,0.00700328
5207.77990723,0.00683751
5209.70871460,0.00708636
5211.63752197,0.00701186
5213.56632935,0.00700897
5215.49513672,0.00700114
5217.42394409,0.00692592
5219.35275146,0.00705034
5221.28155884,0.00686292
5223.21036621,0.00701775
5225.13917358,0.00690221
5227.06798096,0.00681485
5228.99678833,0.00704003
5230.92559570,0.00685969
5232.85440308,0.00691834
5234.78321045,0.00686307
5236.71201782,0.00686841
5238.64082520,0.00687228
5240.56963257,0.00683091
5242.49843994,0.00685642
5244.42724731,0.00666848
5246.35605469,0.00678262
5248.28486206,0.00667758
5250.21366943,0.00662176
5252.14247681,0.00674615
5254.07128418,0.00665347
5256.00009155,0.00667462
5257.92889893,0.00666953
5259.85770630,0.00669445
5261.78651367,0.00657584
5263.71532104,0.00644851
5265.64412842,0.00652569
5267.57293579,0.00659596
5269.50174316,0.00653328
5271.43055054,0.00655311
5273.35935791,0.00664245
5275.28816528,0.00653883
5277.21697266,0.00655147
5279.14578003,0.00644519
5281.07458740,0.00646219
5283.00339478,0.00659108
5284.93220215,0.00642723
5286.86100952,0.00646422
5288.78981689,0.00640631
5290.71862427,0.00633486
5292.64743164,0.00645563
5294.57623901,0.00639823
5296.50504639,0.00634545
5298.43385376,0.00636111
5300.36266113,0.00633465
5302.29146851,0.00627260
5304.22027588,0.00627164
5306.14908325,0.00631258
5308.07789062,0.00624939
5310.00669800,0.00623882
5311.93550537,0.00631132
5313.86431274,0.00626064
5315.79312012,0.00622812
5317.72192749,0.00618168
5319.65073486,0.00618433
5321.57954224,0.00624875
5323.50834961,0.00615929
5325.43715698,0.00612970
5327.36596436,0.00602427
5329.29477173,0.00599584
5331.22357910,0.00607675
5333.15238647,0.00599620
5335.08119385,0.00603515
5337.01000122,0.00602374
5338.93880859,0.00587030
5340.86761597,0.00590010
5342.79642334,0.00599565
5344.72523071,0.00581811
5346.65403809,0.00581246
5348.58284546,0.00594780
5350.51165283,0.00589182
5352.44046020,0.00589306
5354.36926758,0.00576121
5356.29807495,0.00582804
5358.22688232,0.00592844
5360.15568970,0.00590272
5362.08449707,0.00592463
5364.01330444,0.00576679
5365.94211182,0.00580255
5367.87091919,0.00581466
5369.79972656,0.00581642
5371.72853394,0.00583241
5373.65734131,0.00579387
5375.58614868,0.00573196
5377.51495605,0.00555038
5379.44376343,0.00570527
5381.37257080,0.00575405
5383.30137817,0.00570993
5385.23018555,0.00573014
5387.15899292,0.00565963
5389.08780029,0.00570652
5391.01660767,0.00566195
5392.94541504,0.00564131
5394.87422241,0.00556733
5396.80302978,0.00557180
5398.73183716,0.00558145
5400.66064453,0.00559188
5402.58945190,0.00567755
5404.51825928,0.00549020
5406.44706665,0.00553724
5408.37587402,0.00552856
5410.30468140,0.00538784
5412.23348877,0.00546201
5414.16229614,0.00537785
5416.09110352,0.00543540
5418.01991089,0.00553398
5419.94871826,0.00544657
5421.87752563,0.00545100
5423.80633301,0.00545786
5425.73514038,0.00541313
5427.66394775,0.00538612
5429.59275513,0.00525503
5431.52156250,0.00524735
5433.45036987,0.00530984
5435.37917725,0.00521947
5437.30798462,0.00539819
5439.23679199,0.00541931
5441.16559936,0.00520996
5443.09440674,0.00527944
5445.02321411,0.00518269
5446.95202148,0.00513360
5448.88082886,0.00522735
5450.80963623,0.00514634
5452.73844360,0.00522056
5454.66725098,0.00521103
5456.59605835,0.00514672
5458.52486572,0.00517530
5460.45367310,0.00499368
5462.38248047,0.00507451
5464.31128784,0.00519170
5466.24009521,0.00507385
5468.16890259,0.00506694
5470.09770996,0.00503054
5472.02651733,0.00511980
5473.95532471,0.00505953
5475.88413208,0.00493508
5477.81293945,0.00504805
5479.74174683,0.00507510
5481.67055420,0.00505960
5483.59936157,0.00494943
5485.52816895,0.00497129
5487.45697632,0.00503418
5489.38578369,0.00495061
5491.31459106,0.00494229
5493.24339844,0.00488545
5495.17220581,0.00489047
5497.10101318,0.00496074
5499.02982056,0.00496540
5500.95862793,0.00490489
5502.88743530,0.00487961
5504.81624268,0.00489616
5506.74505005,0.00485869
5508.67385742,0.00482447
5510.60266479,0.00485525
5512.53147217,0.00494115
5514.46027954,0.00483622
5516.38908691,0.00475854
5518.31789429,0.00484761
5520.24670166,0.00483932
5522.17550903,0.00480971
5524.10431641,0.00479245
5526.03312378,0.00478496
5527.96193115,0.00475851
5529.89073853,0.00477129
5531.81954590,0.00481862
5533.74835327,0.00476306
5535.67716064,0.00468311
5537.60596802,0.00469990
5539.53477539,0.00470385
5541.46358276,0.00467061
5543.39239014,0.00470191
5545.32119751,0.00468251
5547.25000488,0.00469807
5549.17881226,0.00468095
5551.10761963,0.00462866
5553.03642700,0.00462081
5554.96523437,0.00457953
5556.89404175,0.00462424
5558.82284912,0.00457718
5560.75165649,0.00451358
5562.68046387,0.00454540
5564.60927124,0.00460324
5566.53807861,0.00456270
5568.46688599,0.00444633
5570.39569336,0.00451597
5572.32450073,0.00451344
5574.25330811,0.00448580
5576.18211548,0.00446717
5578.11092285,0.00446315
5580.03973022,0.00450957
5581.96853760,0.00445150
5583.89734497,0.00443989
5585.82615234,0.00439173
5587.75495972,0.00442569
5589.68376709,0.00439386
5591.61257446,0.00434707
5593.54138184,0.00445514
5595.47018921,0.00440438
5597.39899658,0.00439031
5599.32780395,0.00434321
5601.25661133,0.00433735
5603.18541870,0.00434711
5605.11422607,0.00428287
5607.04303345,0.00436926
5608.97184082,0.00431224
5610.90064819,0.00431599
5612.82945557,0.00441805
5614.75826294,0.00430461
5616.68707031,0.00425945
5618.61587769,0.00431103
5620.54468506,0.00423342
5622.47349243,0.00418391
5624.40229980,0.00423953
5626.33110718,0.00421269
5628.25991455,0.00416845
5630.18872192,0.00419550
5632.11752930,0.00423774
5634.04633667,0.00422831
5635.97514404,0.00416500
5637.90395142,0.00408227
5639.83275879,0.00411042
5641.76156616,0.00418630
5643.69037353,0.00412895
5645.61918091,0.00408710
5647.54798828,0.00408241
5649.47679565,0.00410157
5651.40560303,0.00404657
5653.33441040,0.00404264
5655.26321777,0.00408310
5657.19202515,0.00403294
5659.12083252,0.00414240
5661.04963989,0.00402982
5662.97844727,0.00395087
5664.90725464,0.00409303
5666.83606201,0.00400494
5668.76486938,0.00397560
5670.69367676,0.00397626
5672.62248413,0.00400629
5674.55129150,0.00401839
5676.48009888,0.00397844
5678.40890625,0.00394194
5680.33771362,0.00389008
5682.26652100,0.00397471
5684.19532837,0.00394308
5686.12413574,0.00395567
5688.05294311,0.00393755
5689.98175049,0.00382321
5691.91055786,0.00385456
5693.83936523,0.00381734
5695.76817261,0.00385373
5697.69697998,0.00383639
5699.62578735,0.00381462
5701.55459473,0.00379223
5703.48340210,0.00370022
5705.41220947,0.00386318
5707.34101685,0.00381608
5709.26982422,0.00375114
5711.19863159,0.00384410
5713.12743896,0.00376027
5715.05624634,0.00383753
5716.98505371,0.00381202
5718.91386108,0.00372845
5720.84266846,0.00375963
5722.77147583,0.00368192
5724.70028320,0.00371498
5726.62909058,0.00371086
5728.55789795,0.00366458
5730.48670532,0.00366744
5732.41551270,0.00365603
5734.34432007,0.00362938
5736.27312744,0.00357369
5738.20193481,0.00366110
5740.13074219,0.00364591
5742.05954956,0.00358525
5743.98835693,0.00363604
5745.91716431,0.00359227
5747.84597168,0.00355301
5749.77477905,0.00353117
5751.70358643,0.00357451
5753.63239380,0.00357270
5755.56120117,0.00354053
5757.49000854,0.00362815
5759.41881592,0.00359212
5761.34762329,0.00347669
5763.27643066,0.00349100
5765.20523804,0.00356485
5767.13404541,0.00351668
5769.06285278,0.00340591
5770.99166016,0.00343325
5772.92046753,0.00354522
5774.84927490,0.00349146
5776.77808228,0.00337358
5778.70688965,0.00338157
5780.63569702,0.00339203
5782.56450439,0.00344049
5784.49331177,0.00345573
5786.42211914,0.00341656
5788.35092651,0.00339655
5790.27973389,0.00339926
5792.20854126,0.00338893
5794.13734863,0.00335515
5796.06615601,0.00338768
5797.99496338,0.00330801
5799.92377075,0.00329436
5801.85257812,0.00333563
5803.78138550,0.00329415
5805.71019287,0.00328780
5807.63900024,0.00325109
5809.56780762,0.00331224
5811.49661499,0.00325124
5813.42542236,0.00323032
5815.35422974,0.00329066
5817.28303711,0.00320146
5819.21184448,0.00324554
5821.14065186,0.00325025
5823.06945923,0.00321467
5824.99826660,0.00319326
5826.92707397,0.00317892
5828.85588135,0.00317718
5830.78468872,0.00317787
5832.71349609,0.00319610
5834.64230347,0.00316263
5836.57111084,0.00318823
5838.49991821,0.00309788
5840.42872559,0.00311990
5842.35753296,0.00316650
5844.28634033,0.00311756
5846.21514770,0.00320420
5848.14395508,0.00311004
5850.07276245,0.00308132
5852.00156982,0.00310017
5853.93037720,0.00309359
5855.85918457,0.00314423
5857.78799194,0.00310009
5859.71679932,0.00309201
5861.64560669,0.00305752
5863.57441406,0.00304159
5865.50322144,0.00301292
5867.43202881,0.00305511
5869.36083618,0.00308320
5871.28964355,0.00300201
5873.21845093,0.00301635
5875.14725830,0.00301406
5877.07606567,0.00299587
5879.00487305,0.00294312
5880.93368042,0.00297227
5882.86248779,0.00301386
5884.79129517,0.00297970
5886.72010254,0.00295912
5888.64890991,0.00295272
5890.57771728,0.00301553
5892.50652466,0.00293588
5894.43533203,0.00290461
5896.36413940,0.00294645
5898.29294678,0.00292896
5900.22175415,0.00290649
5902.15056152,0.00285869
5904.07936890,0.00289805
5906.00817627,0.00283448
5907.93698364,0.00283474
5909.86579102,0.00291393
5911.79459839,0.00285936
5913.72340576,0.00282297
5915.65221313,0.00282283
5917.58102051,0.00281867
5919.50982788,0.00280369
5921.43863525,0.00285911
5923.36744263,0.00281309
5925.29625000,0.00277908
5927.22505737,0.00282411
5929.15386475,0.00276492
5931.08267212,0.00278670
5933.01147949,0.00278471
5934.94028686,0.00281312
5936.86909424,0.00284797
5938.79790161,0.00272196
5940.72670898,0.00270829
5942.65551636,0.00276459
5944.58432373,0.00270869
5946.51313110,0.00271077
5948.44193848,0.00275384
5950.37074585,0.00273223
5952.29955322,0.00273375
5954.22836060,0.00266392
5956.15716797,0.00267250
5958.08597534,0.00271910
5960.01478271,0.00264823
5961.94359009,0.00266539
5963.87239746,0.00262165
5965.80120483,0.00261002
5967.73001221,0.00262535
5969.65881958,0.00260983
5971.58762695,0.00269138
5973.51643433,0.00260276
5975.44524170,0.00255888
5977.37404907,0.00262587
5979.30285645,0.00259522
5981.23166382,0.00259967
5983.16047119,0.00255294
5985.08927856,0.00257369
5987.01808594,0.00266026
5988.94689331,0.00258255
5990.87570068,0.00254214
5992.80450806,0.00254711
5994.73331543,0.00252322
5996.66212280,0.00256431
5998.59093018,0.00256351
6000.51973755,0.00252013
