399.26312622,0.00159870
401.19193359,0.00140193
403.12074097,0.00212206
405.04954834,0.00212352
406.97835571,0.00200727
408.90716309,0.00171595
410.83597046,0.00172605
412.76477783,0.00188752
414.69358521,0.00153605
416.62239258,0.00229994
418.55119995,0.00199341
420.48000732,0.00205006
422.40881470,0.00251259
424.33762207,0.00153757
426.26642944,0.00189293
428.19523682,0.00203943
430.12404419,0.00185052
432.05285156,0.00240144
433.98165894,0.00254302
435.91046631,0.00220406
437.83927368,0.00171012
439.76808105,0.00225168
441.69688843,0.00242099
443.62569580,0.00211954
445.55450317,0.00201618
447.48331055,0.00203416
449.41211792,0.00228115
451.34092529,0.00151316
453.26973267,0.00199163
455.19854004,0.00229951
457.12734741,0.00099121
459.05615479,0.00127631
460.98496216,0.00150589
462.91376953,0.00135032
464.84257690,0.00139724
466.77138428,0.00119514
468.70019165,0.00140511
470.62899902,0.00103567
472.55780640,0.00095197
474.48661377,0.00106242
476.41542114,0.00047565
478.34422852,0.00055970
480.27303589,0.00076089
482.20184326,0.00039524
484.13065063,0.00050964
486.05945801,0.00068831
487.98826538,0.00049055
489.91707275,0.00081943
491.84588013,0.00084442
493.77468750,0.00055672
495.70349487,0.00063224
497.63230225,0.00029993
499.56110962,0.00013605
501.48991699,0.00039451
503.41872437,0.00055939
505.34753174,0.00065684
507.27633911,0.00085553
509.20514648,0.00064353
511.13395386,0.00028458
513.06276123,0.00045832
514.99156860,0.00049047
516.92037598,0.00057825
518.84918335,0.00068219
520.77799072,0.00058167
522.70679810,0.00035737
524.63560547,0.00039349
526.56441284,0.00072733
528.49322021,0.00053079
530.42202759,0.00060095
532.35083496,0.00052088
534.27964233,0.00027847
536.20844971,0.00059129
538.13725708,0.00025283
540.06606445,-0.00017991
541.99487183,0.00023293
543.92367920,0.00079340
545.85248657,0.00064676
547.78129395,0.00019514
549.71010132,0.00033376
551.63890869,0.00021964
553.56771606,-0.00007611
555.49652344,0.00035846
557.42533081,0.00022959
559.35413818,0.00007956
561.28294556,0.00034255
563.21175293,0.00013189
565.14056030,0.00042707
567.06936768,0.00021533
568.99817505,0.00037850
570.92698242,0.00078892
572.85578979,0.00013094
574.78459717,0.00047782
576.71340454,0.00026405
578.64221191,0.00006992
580.57101929,0.00051794
582.49982666,0.00033915
584.42863403,0.00053689
586.35744141,0.00013587
588.28624878,0.00022116
590.21505615,0.00048546
592.14386353,0.00041112
594.07267090,0.00063986
596.00147827,0.00010428
597.93028564,0.00017347
599.85909302,0.00038668
601.78790039,0.00033109
603.71670776,0.00041977
605.64551514,0.00048470
607.57432251,0.00053186
609.50312988,0.00005831
611.43193726,0.00040939
613.36074463,0.00037189
615.28955200,0.00005764
617.21835938,0.00036958
619.14716675,0.00014069
621.07597412,0.00033707
623.00478149,0.00024174
624.93358887,-0.00006110
626.86239624,0.00030666
628.79120361,0.00027259
630.72001099,0.00025351
632.64881836,0.00089583
634.57762573,0.00150644
636.50643311,0.00162557
638.43524048,0.00160596
640.36404785,0.00174907
642.29285522,0.00190114
644.22166260,0.00215730
646.15046997,0.00253752
648.07927734,0.00265831
650.00808472,0.00281440
651.93689209,0.00304590
653.86569946,0.00296238
655.79450684,0.00295018
657.72331421,0.00338360
659.65212158,0.00361899
661.58092896,0.00347422
663.50973633,0.00364101
665.43854370,0.00366584
667.36735107,0.00358677
669.29615845,0.00386108
671.22496582,0.00403537
673.15377319,0.00444028
675.08258057,0.00481581
677.01138794,0.00479545
678.94019531,0.00509028
680.86900269,0.00519289
682.79781006,0.00481943
684.72661743,0.00487792
686.65542480,0.00496418
688.58423218,0.00492918
690.51303955,0.00512315
692.44184692,0.00534179
694.37065430,0.00594226
696.29946167,0.00642698
698.22826904,0.00713815
700.15707642,0.00807357
702.08588379,0.00779895
704.01469116,0.00721677
705.94349854,0.00655082
707.87230591,0.00548673
709.80111328,0.00466435
711.72992065,0.00337573
713.65872803,0.00180819
715.58753540,0.00122027
717.51634277,0.00079817
719.44515015,0.00022393
721.37395752,0.00033733
723.30276489,0.00022034
725.23157227,0.00034834
727.16037964,0.00048075
729.08918701,0.00015149
731.01799438,0.00040219
732.94680176,0.00015146
734.87560913,0.00019022
736.80441650,0.00027300
738.73322388,-0.00021181
740.66203125,0.00002601
742.59083862,0.00025480
744.51964600,0.00016457
746.44845337,0.00000120
748.37726074,0.00021492
750.30606812,0.00039336
752.23487549,0.00048187
754.16368286,0.00042159
756.09249023,0.00020522
758.02129761,0.00061576
759.95010498,0.00041693
761.87891235,0.00043539
763.80771973,0.00065414
765.73652710,0.00050173
767.66533447,0.00070669
769.59414185,0.00017906
771.52294922,0.00020418
773.45175659,0.00056052
775.38056396,0.00043064
777.30937134,0.00054977
779.23817871,0.00054305
781.16698608,0.00072841
783.09579346,0.00049533
785.02460083,0.00041950
786.95340820,0.00057054
788.88221558,0.00040734
790.81102295,0.00035742
792.73983032,0.00035848
794.66863770,0.00081671
796.59744507,0.00076657
798.52625244,0.00117506
800.45505981,0.00179829
802.38386719,0.00108596
804.31267456,0.00103870
806.24148193,0.00098643
808.17028931,0.00073642
810.09909668,0.00083487
812.02790405,0.00041702
813.95671143,0.00054720
815.88551880,0.00049121
817.81432617,0.00021101
819.74313354,0.00058983
821.67194092,0.00069184
823.60074829,0.00087161
825.52955566,0.00095936
827.45836304,0.00073869
829.38717041,0.00103491
831.31597778,0.00137062
833.24478516,0.00146743
835.17359253,0.00186996
837.10239990,0.00221972
839.03120728,0.00204475
840.96001465,0.00204279
842.88882202,0.00203102
844.81762939,0.00183488
846.74643677,0.00178652
848.67524414,0.00138623
850.60405151,0.00132047
852.53285889,0.00143965
854.46166626,0.00131463
856.39047363,0.00110706
858.31928101,0.00096276
860.24808838,0.00118897
862.17689575,0.00058068
864.10570313,0.00051791
866.03451050,0.00069035
867.96331787,0.00004848
869.89212524,0.00071327
871.82093262,0.00072192
873.74973999,0.00037743
875.67854736,0.00062286
877.60735474,0.00027836
879.53616211,0.00057904
881.46496948,0.00050014
883.39377686,0.00030438
885.32258423,0.00043154
887.25139160,0.00035844
889.18019897,0.00072645
891.10900635,0.00069316
893.03781372,0.00065121
894.96662109,0.00058049
896.89542847,0.00031586
898.82423584,0.00042618
900.75304321,0.00052947
902.68185059,0.00042624
904.61065796,0.00025544
906.53946533,0.00042779
908.46827271,0.00052605
910.39708008,0.00076764
912.32588745,0.00090424
914.25469482,0.00072476
916.18350220,0.00117621
918.11230957,0.00137545
920.04111694,0.00136043
921.96992432,0.00179073
923.89873169,0.00204092
925.82753906,0.00188522
927.75634644,0.00180083
929.68515381,0.00230001
931.61396118,0.00271558
933.54276855,0.00276085
935.47157593,0.00288872
937.40038330,0.00312460
939.32919067,0.00320178
941.25799805,0.00319778
943.18680542,0.00349788
945.11561279,0.00344466
947.04442017,0.00337761
948.97322754,0.00363696
950.90203491,0.00331252
952.83084229,0.00324811
954.75964966,0.00339542
956.68845703,0.00319764
958.61726440,0.00323887
960.54607178,0.00327925
962.47487915,0.00343582
964.40368652,0.00344319
966.33249390,0.00337416
968.26130127,0.00367634
970.19010864,0.00364169
972.11891602,0.00384334
974.04772339,0.00456634
975.97653076,0.00458557
977.90533813,0.00462681
979.83414551,0.00556051
981.76295288,0.00610364
983.69176025,0.00651341
985.62056763,0.00752492
987.54937500,0.00825956
989.47818237,0.00884986
991.40698975,0.00983969
993.33579712,0.01101541
995.26460449,0.01194010
997.19341187,0.01294388
999.12221924,0.01412032
1001.05102661,0.01508532
1002.97983398,0.01620017
1004.90864136,0.01731417
1006.83744873,0.01842103
1008.76625610,0.01943622
1010.69506348,0.02050020
1012.62387085,0.02188787
1014.55267822,0.02281704
1016.48148560,0.02388450
1018.41029297,0.02541915
1020.33910034,0.02646429
1022.26790771,0.02747246
1024.19671509,0.02863754
1026.12552246,0.02951320
1028.05432983,0.03081325
1029.98313721,0.03186361
1031.91194458,0.03208225
1033.84075195,0.03299930
1035.76955933,0.03373435
1037.69836670,0.03374017
1039.62717407,0.03425253
1041.55598145,0.03425495
1043.48478882,0.03368403
1045.41359619,0.03341528
1047.34240356,0.03278825
1049.27121094,0.03240364
1051.20001831,0.03210855
1053.12882568,0.03123267
1055.05763306,0.03090179
1056.98644043,0.03000573
1058.91524780,0.02898739
1060.84405518,0.02857095
1062.77286255,0.02737541
1064.70166992,0.02671981
1066.63047729,0.02586273
1068.55928467,0.02466591
1070.48809204,0.02380789
1072.41689941,0.02243059
1074.34570679,0.02147004
1076.27451416,0.02041211
1078.20332153,0.01953473
1080.13212891,0.01875532
1082.06093628,0.01765365
1083.98974365,0.01706271
1085.91855103,0.01625673
1087.84735840,0.01551874
1089.77616577,0.01488824
1091.70497314,0.01408599
1093.63378052,0.01345510
1095.56258789,0.01308043
1097.49139526,0.01259935
1099.42020264,0.01193046
1101.34901001,0.01180101
1103.27781738,0.01163560
1105.20662476,0.01125776
1107.13543213,0.01113898
1109.06423950,0.01096418
1110.99304687,0.01064500
1112.92185425,0.01077161
1114.85066162,0.01084601
1116.77946899,0.01047198
1118.70827637,0.01056517
1120.63708374,0.01075664
1122.56589111,0.01083543
1124.49469849,0.01082990
1126.42350586,0.01101519
1128.35231323,0.01118012
1130.28112061,0.01130283
1132.20992798,0.01196740
1134.13873535,0.01206821
1136.06754272,0.01241032
1137.99635010,0.01322770
1139.92515747,0.01397289
1141.85396484,0.01505552
1143.78277222,0.01599349
1145.71157959,0.01705166
1147.64038696,0.01814640
1149.56919434,0.01912632
1151.49800171,0.01995895
1153.42680908,0.02108806
1155.35561646,0.02194396
1157.28442383,0.02269400
1159.21323120,0.02399784
1161.14203857,0.02455049
1163.07084595,0.02553935
1164.99965332,0.02652583
1166.92846069,0.02736165
1168.85726807,0.02885922
1170.78607544,0.02970805
1172.71488281,0.03071615
1174.64369019,0.03173988
1176.57249756,0.03290541
1178.50130493,0.03431546
1180.43011230,0.03535572
1182.35891968,0.03683303
1184.28772705,0.03862954
1186.21653442,0.04027073
1188.14534180,0.04204780
1190.07414917,0.04432564
1192.00295654,0.04625738
1193.93176392,0.04827240
1195.86057129,0.05071907
1197.78937866,0.05295615
1199.71818604,0.05533195
1201.64699341,0.05772507
1203.57580078,0.06019717
1205.50460815,0.06234202
1207.43341553,0.06440912
1209.36222290,0.06674564
1211.29103027,0.06879744
1213.21983765,0.07058963
1215.14864502,0.07239588
1217.07745239,0.07413480
1219.00625977,0.07530580
1220.93506714,0.07655695
1222.86387451,0.07781112
1224.79268188,0.07851782
1226.72148926,0.07885978
1228.65029663,0.07923481
1230.57910400,0.07981026
1232.50791138,0.07997003
1234.43671875,0.08002295
1236.36552612,0.07995536
1238.29433350,0.07987420
1240.22314087,0.07974409
1242.15194824,0.07924166
1244.08075562,0.07888905
1246.00956299,0.07869295
1247.93837036,0.07832886
1249.86717773,0.07759733
1251.79598511,0.07688278
1253.72479248,0.07596425
1255.65359985,0.07524060
1257.58240723,0.07437399
1259.51121460,0.07278726
1261.44002197,0.07183933
1263.36882935,0.07074609
1265.29763672,0.06966489
1267.22644409,0.06924862
1269.15525146,0.06829061
1271.08405884,0.06707139
1273.01286621,0.06612743
1274.94167358,0.06496008
1276.87048096,0.06359977
1278.79928833,0.06236760
1280.72809570,0.06100146
1282.65690308,0.05981751
1284.58571045,0.05868267
1286.51451782,0.05782896
1288.44332520,0.05681535
1290.37213257,0.05565638
1292.30093994,0.05538080
1294.22974731,0.05477012
1296.15855469,0.05452020
1298.08736206,0.05445065
1300.01616943,0.05424578
1301.94497681,0.05480589
1303.87378418,0.05528201
1305.80259155,0.05582071
1307.73139893,0.05624873
1309.66020630,0.05741568
1311.58901367,0.05846784
1313.51782104,0.05921105
1315.44662842,0.06104041
1317.37543579,0.06225895
1319.30424316,0.06362978
1321.23305054,0.06580216
1323.16185791,0.06804375
1325.09066528,0.06997736
1327.01947266,0.07168661
1328.94828003,0.07363614
1330.87708740,0.07552958
1332.80589478,0.07756181
1334.73470215,0.07887231
1336.66350952,0.07958303
1338.59231689,0.07917839
1340.52112427,0.07985869
1342.44993164,0.08307765
1344.37873901,0.08369324
1346.30754639,0.08350162
1348.23635376,0.08369035
1350.16516113,0.08293730
1352.09396851,0.08299553
1354.02277588,0.08178185
1355.95158325,0.08089976
1357.88039062,0.08066279
1359.80919800,0.07935165
1361.73800537,0.07612918
1363.66681274,0.07462439
1365.59562012,0.07827202
1367.52442749,0.07685313
1369.45323486,0.07551782
1371.38204224,0.07715325
1373.31084961,0.07329859
1375.23965698,0.07360854
1377.16846436,0.07533611
1379.09727173,0.07475161
1381.02607910,0.07502174
1382.95488647,0.07474284
1384.88369385,0.07500876
1386.81250122,0.07170290
1388.74130859,0.07240024
1390.67011597,0.07843442
1392.59892334,0.07652656
1394.52773071,0.07202603
1396.45653809,0.07521805
1398.38534546,0.07514178
1400.31415283,0.07487531
1402.24296021,0.08047529
1404.17176758,0.07611409
1406.10057495,0.07638145
1408.02938232,0.07960396
1409.95818970,0.07657717
1411.88699707,0.07825249
1413.81580444,0.07561374
1415.74461182,0.07669270
1417.67341919,0.07000618
1419.60222656,0.06233336
1421.53103394,0.07123276
1423.45984131,0.06935193
1425.38864868,0.06692597
1427.31745605,0.06782062
1429.24626343,0.06293303
1431.17507080,0.06095070
1433.10387817,0.06171559
1435.03268555,0.05683599
1436.96149292,0.04802297
1438.89030029,0.05397346
1440.81910767,0.05552448
1442.74791504,0.05145030
1444.67672241,0.05402048
1446.60552979,0.04961327
1448.53433716,0.05016218
1450.46314453,0.05177514
1452.39195190,0.05290762
1454.32075928,0.05493378
1456.24956665,0.04560956
1458.17837402,0.04748812
1460.10718140,0.06262204
1462.03598877,0.06686573
1463.96479614,0.06669758
1465.89360352,0.06952865
1467.82241089,0.07870550
1469.75121826,0.08512560
1471.68002563,0.07649676
1473.60883301,0.07989698
1475.53764038,0.09130771
1477.46644775,0.09814732
1479.39525513,0.10782173
1481.32406250,0.10961047
1483.25286987,0.11619614
1485.18167725,0.12029141
1487.11048462,0.11864525
1489.03929199,0.11858305
1490.96809937,0.11910309
1492.89690674,0.13783890
1494.82571411,0.13559932
1496.75452148,0.12213438
1498.68332886,0.13753471
1500.61213623,0.14210710
1502.54094360,0.15194523
1504.46975098,0.14489333
1506.39855835,0.10699666
1508.32736572,0.12840083
1510.25617310,0.15072741
1512.18498047,0.14583901
1514.11378784,0.15774122
1516.04259521,0.14327247
1517.97140259,0.14869228
1519.90020996,0.14458075
1521.82901733,0.12527198
1523.75782471,0.15172191
1525.68663208,0.14995122
1527.61543945,0.14884287
1529.54424683,0.16409102
1531.47305420,0.15827283
1533.40186157,0.14549521
1535.33066895,0.15312697
1537.25947632,0.16423906
1539.18828369,0.11949579
1541.11709106,0.12309857
1543.04589844,0.14759794
1544.97470581,0.14145063
1546.90351318,0.16595802
1548.83232056,0.15583116
1550.76112793,0.15994585
1552.68993530,0.15943822
1554.61874268,0.14486401
1556.54755005,0.15527748
1558.47635742,0.11156885
1560.40516479,0.11779432
1562.33397217,0.16618401
1564.26277954,0.15779901
1566.19158691,0.16141519
1568.12039429,0.16035165
1570.04920166,0.14236353
1571.97800903,0.16266993
1573.90681641,0.16499224
1575.83562378,0.13160622
1577.76443115,0.14725129
1579.69323853,0.16581121
1581.62204590,0.15865345
1583.55085327,0.16245848
1585.47966064,0.15970950
1587.40846802,0.16061698
1589.33727539,0.15917940
1591.26608276,0.15847966
1593.19489014,0.15857898
1595.12369751,0.15612598
1597.05250488,0.15787464
1598.98131226,0.15649858
1600.91011963,0.15658766
1602.83892700,0.15360099
1604.76773437,0.15558919
1606.69654175,0.15278143
1608.62534912,0.15180334
1610.55415649,0.15118554
1612.48296387,0.15125740
1614.41177124,0.15304321
1616.34057861,0.12560301
1618.26938599,0.13419472
1620.19819336,0.15538390
1622.12700073,0.13813198
1624.05580811,0.13792083
1625.98461548,0.14393851
1627.91342285,0.14301574
1629.84223022,0.14148554
1631.77103760,0.15029916
1633.69984497,0.13948473
1635.62865234,0.11552219
1637.55745972,0.13322043
1639.48626709,0.14632007
1641.41507446,0.14286861
1643.34388184,0.14683881
1645.27268921,0.13345857
1647.20149658,0.11746125
1649.13030396,0.14480001
1651.05911133,0.13904995
1652.98791870,0.09077109
1654.91672607,0.12099802
1656.84553345,0.15244278
1658.77434082,0.14639549
1660.70314819,0.15104273
1662.63195557,0.13843653
1664.56076294,0.14560397
1666.48957031,0.15698200
1668.41837769,0.13864869
1670.34718506,0.13464975
1672.27599243,0.15254179
1674.20479980,0.14245364
1676.13360718,0.13665408
1678.06241455,0.15733540
1679.99122192,0.15254514
1681.92002930,0.15154982
1683.84883667,0.12533078
1685.77764404,0.12270729
1687.70645142,0.16792516
1689.63525879,0.14767344
1691.56406616,0.16082907
1693.49287354,0.16594601
1695.42168091,0.12213790
1697.35048828,0.14957057
1699.27929565,0.13436210
1701.20810303,0.12011451
1703.13691040,0.16234323
1705.06571777,0.15050346
1706.99452515,0.15126382
1708.92333252,0.16468659
1710.85213989,0.15851602
1712.78094727,0.16158339
1714.70975464,0.15115780
1716.63856201,0.13614832
1718.56736938,0.13373475
1720.49617676,0.15773714
1722.42498413,0.16428313
1724.35379150,0.15294248
1726.28259888,0.16609010
1728.21140625,0.15420888
1730.14021362,0.15495595
1732.06902100,0.15219063
1733.99782837,0.11703684
1735.92663574,0.14319444
1737.85544312,0.15938807
1739.78425049,0.14222541
1741.71305786,0.15435132
1743.64186523,0.15695155
1745.57067261,0.15700290
1747.49947998,0.15873291
1749.42828735,0.15229654
1751.35709473,0.14591527
1753.28590210,0.16041863
1755.21470947,0.16848370
1757.14351685,0.15426928
1759.07232422,0.16840401
1761.00113159,0.15975758
1762.92993896,0.15356112
1764.85874634,0.17509408
1766.78755371,0.15882359
1768.71636108,0.15964662
1770.64516846,0.15943068
1772.57397583,0.14340371
1774.50278320,0.15904932
1776.43159058,0.16824323
1778.36039795,0.16584417
1780.28920532,0.16394502
1782.21801270,0.16532758
1784.14682007,0.16540068
1786.07562744,0.16171870
1788.00443481,0.16957170
1789.93324219,0.16633448
1791.86204956,0.15088978
1793.79085693,0.15665920
1795.71966431,0.16800404
1797.64847168,0.16577946
1799.57727905,0.16343331
1801.50608643,0.16073942
1803.43489380,0.16544530
1805.36370117,0.16917649
1807.29250854,0.16695660
1809.22131592,0.16765863
1811.15012329,0.16324539
1813.07893066,0.16796246
1815.00773804,0.16912764
1816.93654541,0.16710052
1818.86535278,0.16842943
1820.79416016,0.16753498
1822.72296753,0.17011386
1824.65177490,0.15956205
1826.58058228,0.16461256
1828.50938965,0.16547924
1830.43819702,0.15531598
1832.36700439,0.16827786
1834.29581177,0.16746625
1836.22461914,0.16707972
1838.15342651,0.16683877
1840.08223389,0.16744880
1842.01104126,0.16820389
1843.93984863,0.15004469
1845.86865601,0.15857454
1847.79746338,0.16761948
1849.72627075,0.16409837
1851.65507812,0.16862026
1853.58388550,0.16548303
1855.51269287,0.16687593
1857.44150024,0.16606817
1859.37030762,0.16497315
1861.29911499,0.16612130
1863.22792236,0.16433084
1865.15672974,0.16597629
1867.08553711,0.16083476
1869.01434448,0.15435578
1870.94315186,0.16002461
1872.87195923,0.16583009
1874.80076660,0.16319785
1876.72957397,0.16412684
1878.65838135,0.16366354
1880.58718872,0.16264561
1882.51599609,0.16403013
1884.44480347,0.16139469
1886.37361084,0.16369100
1888.30241821,0.16032583
1890.23122559,0.15725616
1892.16003296,0.16283998
1894.08884033,0.16060100
1896.01764771,0.15994951
1897.94645508,0.16155161
1899.87526245,0.16073644
1901.80406982,0.16122243
1903.73287720,0.16013762
1905.66168457,0.16072455
1907.59049194,0.15940967
1909.51929932,0.15845166
1911.44810669,0.15912700
1913.37691406,0.15917644
1915.30572144,0.16068015
1917.23452881,0.15408218
1919.16333618,0.15393402
1921.09214355,0.15968283
1923.02095093,0.15491065
1924.94975830,0.15765736
1926.87856567,0.15929359
1928.80737305,0.15727657
1930.73618042,0.15920043
1932.66498779,0.15700780
1934.59379517,0.15844053
1936.52260254,0.15743943
1938.45140991,0.15772918
1940.38021729,0.15794772
1942.30902466,0.15294993
1944.23783203,0.15550457
1946.16663940,0.15701351
1948.09544678,0.15664238
1950.02425415,0.15714902
1951.95306152,0.15659076
1953.88186890,0.15686724
1955.81067627,0.15610310
1957.73948364,0.15656002
1959.66829102,0.15630910
1961.59709839,0.15606320
1963.52590576,0.15641540
1965.45471313,0.15548018
1967.38352051,0.15401244
1969.31232788,0.15499130
1971.24113525,0.15616655
1973.16994263,0.15490401
1975.09875000,0.15548262
1977.02755737,0.15496671
1978.95636475,0.15491241
1980.88517212,0.15491807
1982.81397949,0.15403515
1984.74278687,0.15471576
1986.67159424,0.15348893
1988.60040161,0.15371308
1990.52920898,0.15258545
1992.45801636,0.15077403
1994.38682373,0.15273800
1996.31563110,0.15290710
1998.24443848,0.15228987
2000.17324585,0.15235046
2002.10205322,0.15187842
2004.03086060,0.15171093
2005.95966797,0.15139072
2007.88847534,0.15089393
2009.81728271,0.15079772
2011.74609009,0.15030906
2013.67489746,0.15022758
2015.60370483,0.14945355
2017.53251221,0.14802340
2019.46131958,0.14893866
2021.39012695,0.14885849
2023.31893433,0.14836362
2025.24774170,0.14832711
2027.17654907,0.14756799
2029.10535645,0.14762399
2031.03416382,0.14720578
2032.96297119,0.14705178
2034.89177856,0.14661729
2036.82058594,0.14619032
2038.74939331,0.14612553
2040.67820068,0.14536861
2042.60700806,0.14517014
2044.53581543,0.14503756
2046.46462280,0.14484352
2048.39343018,0.14453429
2050.32223755,0.14430118
2052.25104492,0.14400694
2054.17985229,0.14361009
2056.10865967,0.14344761
2058.03746704,0.14300111
2059.96627441,0.14262721
2061.89508179,0.14250095
2063.82388916,0.14206508
2065.75269653,0.14132673
2067.68150391,0.14158176
2069.61031128,0.14151809
2071.53911865,0.14100657
2073.46792603,0.14082541
2075.39673340,0.14035228
2077.32554077,0.14033100
2079.25434814,0.14003693
2081.18315552,0.13990572
2083.11196289,0.13950351
2085.04077026,0.13912839
2086.96957764,0.13915494
2088.89838501,0.13848366
2090.82719238,0.13837993
2092.75599976,0.13829389
2094.68480713,0.13813607
2096.61361450,0.13783365
2098.54242187,0.13747151
2100.47122925,0.13734445
2102.40003662,0.13706771
2104.32884399,0.13688594
2106.25765137,0.13647543
2108.18645874,0.13641261
2110.11526611,0.13615087
2112.04407349,0.13596794
2113.97288086,0.13570113
2115.90168823,0.13545941
2117.83049561,0.13548715
2119.75930298,0.13497165
2121.68811035,0.13509308
2123.61691772,0.13478485
2125.54572510,0.13453418
2127.47453247,0.13451263
2129.40333984,0.13417476
2131.33214722,0.13418669
2133.26095459,0.13380368
2135.18976196,0.13366562
2137.11856934,0.13331628
2139.04737671,0.13327995
2140.97618408,0.13317418
2142.90499146,0.13283645
2144.83379883,0.13293998
2146.76260620,0.13256854
2148.69141357,0.13267240
2150.62022095,0.13245797
2152.54902832,0.13219824
2154.47783569,0.13228127
2156.40664307,0.13194939
2158.33545044,0.13178146
2160.26425781,0.13167462
2162.19306519,0.13154510
2164.12187256,0.13128203
2166.05067993,0.13135678
2167.97948730,0.13123487
2169.90829468,0.13090429
2171.83710205,0.13075531
2173.76590942,0.13068901
2175.69471680,0.13057750
2177.62352417,0.13011862
2179.55233154,0.13009390
2181.48113892,0.12992992
2183.40994629,0.12978885
2185.33875366,0.12983289
2187.26756104,0.12967259
2189.19636841,0.12955616
2191.12517578,0.12939887
2193.05398315,0.12926766
2194.98279053,0.12907223
2196.91159790,0.12918027
2198.84040527,0.12880260
2200.76921265,0.12854785
2202.69802002,0.12862153
2204.62682739,0.12837833
2206.55563477,0.12838946
2208.48444214,0.12810825
2210.41324951,0.12805523
2212.34205688,0.12780418
2214.27086426,0.12761101
2216.19967163,0.12765555
2218.12847900,0.12734288
2220.05728638,0.12725435
2221.98609375,0.12701774
2223.91490112,0.12699462
2225.84370850,0.12675342
2227.77251587,0.12656148
2229.70132324,0.12654077
2231.63013062,0.12624636
2233.55893799,0.12611657
2235.48774536,0.12590811
2237.41655273,0.12581095
2239.34536011,0.12552288
2241.27416748,0.12546802
2243.20297485,0.12530726
2245.13178223,0.12502730
2247.06058960,0.12494038
2248.98939697,0.12454218
2250.91820435,0.12451227
2252.84701172,0.12434401
2254.77581909,0.12419577
2256.70462646,0.12398919
2258.63343384,0.12374339
2260.56224121,0.12377562
2262.49104858,0.12344907
2264.41985596,0.12332138
2266.34866333,0.12329280
2268.27747070,0.12303220
2270.20627808,0.12284613
2272.13508545,0.12295492
2274.06389282,0.12273234
2275.99270020,0.12252960
2277.92150757,0.12257683
2279.85031494,0.12233602
2281.77912231,0.12227856
2283.70792969,0.12209187
2285.63673706,0.12195538
2287.56554443,0.12158637
2289.49435181,0.12129118
2291.42315918,0.12110113
2293.35196655,0.12063704
2295.28077393,0.12057196
2297.20958130,0.12020960
2299.13838867,0.11979389
2301.06719604,0.11916663
2302.99600342,0.11860266
2304.92481079,0.11821101
2306.85361816,0.11745553
2308.78242554,0.11672038
2310.71123291,0.11568262
2312.64004028,0.11473644
2314.56884766,0.11349873
2316.49765503,0.11223999
2318.42646240,0.11092180
2320.35526978,0.10935771
2322.28407715,0.10792848
2324.21288452,0.10646185
2326.14169189,0.10549173
2328.07049927,0.10416335
2329.99930664,0.10284421
2331.92811401,0.10190351
2333.85692139,0.10145645
2335.78572876,0.10119298
2337.71453613,0.10086346
2339.64334351,0.10098873
2341.57215088,0.10118739
2343.50095825,0.10276080
2345.42976562,0.10466875
2347.35857300,0.10880367
2349.28738037,0.11253072
2351.21618774,0.10881411
2353.14499512,0.10335487
2355.07380249,0.09963690
2357.00260986,0.09653369
2358.93141724,0.09462086
2360.86022461,0.09357709
2362.78903198,0.09342772
2364.71783936,0.09388648
2366.64664673,0.09536515
2368.57545410,0.09695788
2370.50426147,0.09938522
2372.43306885,0.10230935
2374.36187622,0.10493023
2376.29068359,0.10792366
2378.21949097,0.11017232
2380.14829834,0.11191937
2382.07710571,0.11311051
2384.00591309,0.11388274
2385.93472046,0.11429071
2387.86352783,0.11438678
2389.79233521,0.11442433
2391.72114258,0.11424749
2393.64994995,0.11422145
2395.57875732,0.11391224
2397.50756470,0.11388788
2399.43637207,0.11376210
2401.36517944,0.11350926
2403.29398682,0.11349584
2405.22279419,0.11324762
2407.15160156,0.11322565
2409.08040894,0.11298481
2411.00921631,0.11277365
2412.93802368,0.11268631
2414.86683105,0.11256221
2416.79563843,0.11244586
2418.72444580,0.11223510
2420.65325317,0.11209767
2422.58206055,0.11195940
2424.51086792,0.11191961
2426.43967529,0.11165424
2428.36848267,0.11154342
2430.29729004,0.11141381
2432.22609741,0.11114025
2434.15490479,0.11113000
2436.08371216,0.11104132
2438.01251953,0.11091055
2439.94132690,0.11075184
2441.87013428,0.11063172
2443.79894165,0.11039142
2445.72774902,0.11033904
2447.65655640,0.11023529
2449.58536377,0.11001945
2451.51417114,0.10998360
2453.44297852,0.10971390
2455.37178589,0.10967720
2457.30059326,0.10956702
2459.22940063,0.10942042
2461.15820801,0.10928151
2463.08701538,0.10903260
2465.01582275,0.10898052
2466.94463013,0.10885307
2468.87343750,0.10875866
2470.80224487,0.10852144
2472.73105225,0.10839222
2474.65985962,0.10826966
2476.58866699,0.10811152
2478.51747437,0.10804223
2480.44628174,0.10794006
2482.37508911,0.10779783
2484.30389648,0.10744060
2486.23270386,0.10745417
2488.16151123,0.10738972
2490.09031860,0.10719900
2492.01912598,0.10698354
2493.94793335,0.10680675
2495.87674072,0.10685423
2497.80554810,0.10660335
2499.73435547,0.10662560
2501.66316284,0.10633522
2503.59197021,0.10609283
2505.52077759,0.10625674
2507.44958496,0.10596342
2509.37839233,0.10579041
2511.30719971,0.10573792
2513.23600708,0.10558249
2515.16481445,0.10531923
2517.09362183,0.10532761
2519.02242920,0.10519762
2520.95123657,0.10496362
2522.88004395,0.10504431
2524.80885132,0.10480056
2526.73765869,0.10467287
2528.66646606,0.10459748
2530.59527344,0.10438566
2532.52408081,0.10420322
2534.45288818,0.10419540
2536.38169556,0.10412949
2538.31050293,0.10384871
2540.23931030,0.10368869
2542.16811768,0.10354230
2544.09692505,0.10361576
2546.02573242,0.10335582
2547.95453979,0.10317992
2549.88334717,0.10322413
2551.81215454,0.10294466
2553.74096191,0.10284743
2555.66976929,0.10268278
2557.59857666,0.10256645
2559.52738403,0.10232411
2561.45619141,0.10221174
2563.38499878,0.10219179
2565.31380615,0.10195815
2567.24261353,0.10194036
2569.17142090,0.10171737
2571.10022827,0.10155854
2573.02903564,0.10148743
2574.95784302,0.10134447
2576.88665039,0.10116881
2578.81545776,0.10107821
2580.74426514,0.10101028
2582.67307251,0.10076389
2584.60187988,0.10072605
2586.53068726,0.10051899
2588.45949463,0.10040035
2590.38830200,0.10037988
2592.31710937,0.10016835
2594.24591675,0.10000238
2596.17472412,0.09984897
2598.10353149,0.09978343
2600.03233887,0.09960026
2601.96114624,0.09945008
2603.88995361,0.09937201
2605.81876099,0.09931257
2607.74756836,0.09907173
2609.67637573,0.09891490
2611.60518311,0.09888490
2613.53399048,0.09865870
2615.46279785,0.09859592
2617.39160522,0.09837793
2619.32041260,0.09832851
2621.24921997,0.09820372
2623.17802734,0.09798947
2625.10683472,0.09798850
2627.03564209,0.09774633
2628.96444946,0.09769577
2630.89325684,0.09746706
2632.82206421,0.09730776
2634.75087158,0.09726006
2636.67967895,0.09704749
2638.60848633,0.09686352
2640.53729370,0.09671384
2642.46610107,0.09679136
2644.39490845,0.09656465
2646.32371582,0.09641047
2648.25252319,0.09621824
2650.18133057,0.09609899
2652.11013794,0.09616014
2654.03894531,0.09589837
2655.96775269,0.09579279
2657.89656006,0.09558261
2659.82536743,0.09550862
2661.75417480,0.09531588
2663.68298218,0.09509258
2665.61178955,0.09508735
2667.54059692,0.09492523
2669.46940430,0.09490895
2671.39821167,0.09462728
2673.32701904,0.09456284
2675.25582642,0.09452961
2677.18463379,0.09429498
2679.11344116,0.09416503
2681.04224854,0.09393890
2682.97105591,0.09388465
2684.89986328,0.09366331
2686.82867065,0.09361015
2688.75747803,0.09352317
2690.68628540,0.09332035
2692.61509277,0.09331916
2694.54390015,0.09304905
2696.47270752,0.09281731
2698.40151489,0.09265460
2700.33032227,0.09249628
2702.25912964,0.09240072
2704.18793701,0.09236933
2706.11674438,0.09223713
2708.04555176,0.09214997
2709.97435913,0.09205619
2711.90316650,0.09168592
2713.83197388,0.09164304
2715.76078125,0.09164205
2717.68958862,0.09143234
2719.61839600,0.09114841
2721.54720337,0.09101556
2723.47601074,0.09099163
2725.40481812,0.09074810
2727.33362549,0.09068534
2729.26243286,0.09053123
2731.19124023,0.09035966
2733.12004761,0.09027612
2735.04885498,0.09009619
2736.97766235,0.08998732
2738.90646973,0.08982812
2740.83527710,0.08969752
2742.76408447,0.08956144
2744.69289185,0.08947518
2746.62169922,0.08929162
2748.55050659,0.08911090
2750.47931396,0.08905780
2752.40812134,0.08879872
2754.33692871,0.08862782
2756.26573608,0.08862767
2758.19454346,0.08849083
2760.12335083,0.08822082
2762.05215820,0.08806331
2763.98096558,0.08795968
2765.90977295,0.08781091
2767.83858032,0.08768538
2769.76738770,0.08755277
2771.69619507,0.08743893
2773.62500244,0.08728603
2775.55380981,0.08710375
2777.48261719,0.08691792
2779.41142456,0.08677608
2781.34023193,0.08659010
2783.26903931,0.08644766
2785.19784668,0.08632529
2787.12665405,0.08611390
2789.05546143,0.08604567
2790.98426880,0.08589993
2792.91307617,0.08567777
2794.84188354,0.08549719
2796.77069092,0.08536687
2798.69949829,0.08518910
2800.62830566,0.08499670
2802.55711304,0.08493140
2804.48592041,0.08468723
2806.41472778,0.08458026
2808.34353516,0.08441623
2810.27234253,0.08407992
2812.20114990,0.08399303
2814.12995728,0.08379644
2816.05876465,0.08357502
2817.98757202,0.08347943
2819.91637939,0.08341327
2821.84518677,0.08326588
2823.77399414,0.08302751
2825.70280151,0.08281385
2827.63160889,0.08263311
2829.56041626,0.08249119
2831.48922363,0.08227217
2833.41803101,0.08211067
2835.34683838,0.08200207
2837.27564575,0.08180062
2839.20445312,0.08150122
2841.13326050,0.08125409
2843.06206787,0.08104722
2844.99087524,0.08063555
2846.91968262,0.08008319
2848.84848999,0.07958514
2850.77729736,0.07944519
2852.70610474,0.07940862
2854.63491211,0.07916063
2856.56371948,0.07905263
2858.49252686,0.07904486
2860.42133423,0.07889040
2862.35014160,0.07877152
2864.27894897,0.07865199
2866.20775635,0.07848169
2868.13656372,0.07844885
2870.06537109,0.07826760
2871.99417847,0.07805154
2873.92298584,0.07792704
2875.85179321,0.07776709
2877.78060059,0.07768126
2879.70940796,0.07754897
2881.63821533,0.07741024
2883.56702270,0.07722984
2885.49583008,0.07716754
2887.42463745,0.07705556
2889.35344482,0.07677446
2891.28225220,0.07657189
2893.21105957,0.07635836
2895.13986694,0.07621054
2897.06867432,0.07598743
2898.99748169,0.07586428
2900.92628906,0.07565941
2902.85509644,0.07537483
2904.78390381,0.07519469
2906.71271118,0.07491611
2908.64151855,0.07477063
2910.57032593,0.07431497
2912.49913330,0.07388850
2914.42794067,0.07356244
2916.35674805,0.07315628
2918.28555542,0.07300092
2920.21436279,0.07276486
2922.14317017,0.07267542
2924.07197754,0.07252172
2926.00078491,0.07248574
2927.92959229,0.07243711
2929.85839966,0.07214738
2931.78720703,0.07208224
2933.71601440,0.07199521
2935.64482178,0.07209159
2937.57362915,0.07206313
2939.50243652,0.07196315
2941.43124390,0.07193869
2943.36005127,0.07182190
2945.28885864,0.07176074
2947.21766602,0.07153895
2949.14647339,0.07142562
2951.07528076,0.07121696
2953.00408813,0.07098184
2954.93289551,0.07078418
2956.86170288,0.07049966
2958.79051025,0.07033578
2960.71931763,0.07015690
2962.64812500,0.06993425
2964.57693237,0.06966794
2966.50573975,0.06959099
2968.43454712,0.06943405
2970.36335449,0.06951021
2972.29216187,0.06969547
2974.22096924,0.06951227
2976.14977661,0.06950019
2978.07858398,0.06941346
2980.00739136,0.06938121
2981.93619873,0.06923746
2983.86500610,0.06918067
2985.79381348,0.06921995
2987.72262085,0.06888895
2989.65142822,0.06884511
2991.58023560,0.06869552
2993.50904297,0.06856032
2995.43785034,0.06852713
2997.36665771,0.06826821
2999.29546509,0.06806982
3001.22427246,0.06784680
3003.15307983,0.06764894
3005.08188721,0.06745555
3007.01069458,0.06737132
3008.93950195,0.06713007
3010.86830933,0.06682199
3012.79711670,0.06661458
3014.72592407,0.06640530
3016.65473145,0.06631982
3018.58353882,0.06613229
3020.51234619,0.06599051
3022.44115356,0.06585926
3024.36996094,0.06565215
3026.29876831,0.06533076
3028.22757568,0.06513590
3030.15638306,0.06494361
3032.08519043,0.06456187
3034.01399780,0.06448914
3035.94280518,0.06433153
3037.87161255,0.06418692
3039.80041992,0.06401138
3041.72922729,0.06371430
3043.65803467,0.06356730
3045.58684204,0.06332843
3047.51564941,0.06313368
3049.44445679,0.06289589
3051.37326416,0.06269310
3053.30207153,0.06243256
3055.23087891,0.06228968
3057.15968628,0.06209813
3059.08849365,0.06175040
3061.01730103,0.06172581
3062.94610840,0.06143170
3064.87491577,0.06111991
3066.80372314,0.06082760
3068.73253052,0.06060038
3070.66133789,0.06065448
3072.59014526,0.06045419
3074.51895264,0.06022647
3076.44776001,0.05990317
3078.37656738,0.05957284
3080.30537476,0.05930124
3082.23418213,0.05913822
3084.16298950,0.05903010
3086.09179687,0.05878756
3088.02060425,0.05856595
3089.94941162,0.05825809
3091.87821899,0.05814654
3093.80702637,0.05794961
3095.73583374,0.05766603
3097.66464111,0.05738477
3099.59344849,0.05701901
3101.52225586,0.05692133
3103.45106323,0.05671042
3105.37987061,0.05649591
3107.30867798,0.05623216
3109.23748535,0.05590852
3111.16629272,0.05575561
3113.09510010,0.05544938
3115.02390747,0.05510977
3116.95271484,0.05482513
3118.88152222,0.05459552
3120.81032959,0.05436048
3122.73913696,0.05410293
3124.66794434,0.05386374
3126.59675171,0.05357455
3128.52555908,0.05338563
3130.45436645,0.05317666
3132.38317383,0.05273137
3134.31198120,0.05251817
3136.24078857,0.05234436
3138.16959595,0.05189072
3140.09840332,0.05176340
3142.02721069,0.05148293
3143.95601807,0.05109657
3145.88482544,0.05092515
3147.81363281,0.05064161
3149.74244019,0.05037183
3151.67124756,0.04998926
3153.60005493,0.04980702
3155.52886230,0.04952195
3157.45766968,0.04922576
3159.38647705,0.04908926
3161.31528442,0.04871609
3163.24409180,0.04849285
3165.17289917,0.04815046
3167.10170654,0.04789826
3169.03051392,0.04764916
3170.95932129,0.04735032
3172.88812866,0.04726004
3174.81693604,0.04696719
3176.74574341,0.04668069
3178.67455078,0.04629125
3180.60335815,0.04605796
3182.53216553,0.04592249
3184.46097290,0.04557266
3186.38978027,0.04532107
3188.31858765,0.04513504
3190.24739502,0.04495332
3192.17620239,0.04468451
3194.10500977,0.04447889
3196.03381714,0.04423922
3197.96262451,0.04397383
3199.89143188,0.04379959
3201.82023926,0.04361287
3203.74904663,0.04332279
3205.67785400,0.04316688
3207.60666138,0.04305632
3209.53546875,0.04261340
3211.46427612,0.04252462
3213.39308350,0.04236524
3215.32189087,0.04215320
3217.25069824,0.04210085
3219.17950562,0.04172947
3221.10831299,0.04170862
3223.03712036,0.04154908
3224.96592773,0.04136615
3226.89473511,0.04129589
3228.82354248,0.04101751
3230.75234985,0.04088895
3232.68115723,0.04069285
3234.60996460,0.04067914
3236.53877197,0.04060441
3238.46757935,0.04044106
3240.39638672,0.04035995
3242.32519409,0.04019603
3244.25400146,0.04005982
3246.18280884,0.03991701
3248.11161621,0.03980795
3250.04042358,0.03972768
3251.96923096,0.03968116
3253.89803833,0.03946977
3255.82684570,0.03942393
3257.75565308,0.03940579
3259.68446045,0.03924926
3261.61326782,0.03921152
3263.54207520,0.03905352
3265.47088257,0.03902970
3267.39968994,0.03899647
3269.32849731,0.03892888
3271.25730469,0.03874179
3273.18611206,0.03858576
3275.11491943,0.03859897
3277.04372681,0.03848646
3278.97253418,0.03849768
3280.90134155,0.03834785
3282.83014893,0.03834271
3284.75895630,0.03832514
3286.68776367,0.03810979
3288.61657104,0.03810939
3290.54537842,0.03800056
3292.47418579,0.03786700
3294.40299316,0.03784467
3296.33180054,0.03787126
3298.26060791,0.03768378
3300.18941528,0.03772863
3302.11822266,0.03767529
3304.04703003,0.03731242
3305.97583740,0.03739447
3307.90464478,0.03729641
3309.83345215,0.03720137
3311.76225952,0.03727636
3313.69106689,0.03724632
3315.61987427,0.03713761
3317.54868164,0.03707533
3319.47748901,0.03703872
3321.40629639,0.03686702
3323.33510376,0.03686049
3325.26391113,0.03663453
3327.19271851,0.03662107
3329.12152588,0.03668728
3331.05033325,0.03647925
3332.97914062,0.03645701
3334.90794800,0.03631441
3336.83675537,0.03622636
3338.76556274,0.03623720
3340.69437012,0.03627308
3342.62317749,0.03613240
3344.55198486,0.03600045
3346.48079224,0.03594520
3348.40959961,0.03586568
3350.33840698,0.03588450
3352.26721436,0.03580784
3354.19602173,0.03578548
3356.12482910,0.03562816
3358.05363647,0.03566232
3359.98244385,0.03548597
3361.91125122,0.03538191
3363.84005859,0.03546645
3365.76886597,0.03516374
3367.69767334,0.03529298
3369.62648071,0.03513587
3371.55528809,0.03525089
3373.48409546,0.03532372
3375.41290283,0.03504066
3377.34171020,0.03528064
3379.27051758,0.03508390
3381.19932495,0.03503988
3383.12813232,0.03497130
3385.05693970,0.03489609
3386.98574707,0.03488187
3388.91455444,0.03486258
3390.84336182,0.03486061
3392.77216919,0.03453834
3394.70097656,0.03479017
3396.62978394,0.03475573
3398.55859131,0.03465669
3400.48739868,0.03469701
3402.41620605,0.03469221
3404.34501343,0.03476840
3406.27382080,0.03467885
3408.20262817,0.03481248
3410.13143555,0.03464559
3412.06024292,0.03485645
3413.98905029,0.03479895
3415.91785767,0.03475868
3417.84666504,0.03492792
3419.77547241,0.03457394
3421.70427979,0.03476466
3423.63308716,0.03472891
3425.56189453,0.03494786
3427.49070190,0.03491467
3429.41950928,0.03471934
3431.34831665,0.03487462
3433.27712402,0.03474528
3435.20593140,0.03501658
3437.13473877,0.03481697
3439.06354614,0.03489109
3440.99235352,0.03489739
3442.92116089,0.03484477
3444.84996826,0.03507343
3446.77877563,0.03461178
3448.70758301,0.03479450
3450.63639038,0.03511504
3452.56519775,0.03520866
3454.49400513,0.03526150
3456.42281250,0.03525703
3458.35161987,0.03520919
3460.28042725,0.03509758
3462.20923462,0.03526923
3464.13804199,0.03538080
3466.06684937,0.03542892
3467.99565674,0.03523859
3469.92446411,0.03540838
3471.85327148,0.03553453
3473.78207886,0.03552951
3475.71088623,0.03555576
3477.63969360,0.03562964
3479.56850098,0.03574353
3481.49730835,0.03529632
3483.42611572,0.03572005
3485.35492310,0.03582618
3487.28373047,0.03570566
3489.21253784,0.03592747
3491.14134521,0.03587733
3493.07015259,0.03624274
3494.99895996,0.03594905
3496.92776733,0.03606357
3498.85657471,0.03624150
3500.78538208,0.03624213
3502.71418945,0.03594035
3504.64299683,0.03580367
3506.57180420,0.03680171
3508.50061157,0.03631610
3510.42941895,0.03627189
3512.35822632,0.03669809
3514.28703369,0.03659309
3516.21584106,0.03690792
3518.14464844,0.03679132
3520.07345581,0.03711982
3522.00226318,0.03685278
3523.93107056,0.03637838
3525.85987793,0.03662237
3527.78868530,0.03677180
3529.71749268,0.03688462
3531.64630005,0.03725405
3533.57510742,0.03756880
3535.50391479,0.03729716
3537.43272217,0.03734905
3539.36152954,0.03768320
3541.29033691,0.03787403
3543.21914429,0.03756433
3545.14795166,0.03684473
3547.07675903,0.03662445
3549.00556641,0.03765877
3550.93437378,0.03791456
3552.86318115,0.03713801
3554.79198853,0.03803162
3556.72079590,0.03824389
3558.64960327,0.03805708
3560.57841064,0.03794199
3562.50721802,0.03785563
3564.43602539,0.03822254
3566.36483276,0.03589513
3568.29364014,0.03521458
3570.22244751,0.03785599
3572.15125488,0.03880905
3574.08006226,0.03847726
3576.00886963,0.03869984
3577.93767700,0.03864372
3579.86648437,0.03860718
3581.79529175,0.03882476
3583.72409912,0.03891785
3585.65290649,0.03826244
3587.58171387,0.03545377
3589.51052124,0.03641240
3591.43932861,0.03950543
3593.36813599,0.03849544
3595.29694336,0.03793786
3597.22575073,0.03867712
3599.15455811,0.03901074
3601.08336548,0.03858972
3603.01217285,0.03904074
3604.94098022,0.03983413
3606.86978760,0.03853566
3608.79859497,0.03651176
3610.72740234,0.03731425
3612.65620972,0.03828571
3614.58501709,0.03721150
3616.51382446,0.03971668
3618.44263184,0.03708937
3620.37143921,0.03582194
3622.30024658,0.04022896
3624.22905395,0.03921801
3626.15786133,0.04088495
3628.08666870,0.03522821
3630.01547607,0.03225102
3631.94428345,0.04000764
3633.87309082,0.03923534
3635.80189819,0.03982560
3637.73070557,0.04061772
3639.65951294,0.04019419
3641.58832031,0.04066774
3643.51712769,0.04008739
3645.44593506,0.04048777
3647.37474243,0.03684453
3649.30354980,0.03409055
3651.23235718,0.03450310
3653.16116455,0.04054820
3655.08997192,0.04016829
3657.01877930,0.03627067
3658.94758667,0.04133003
3660.87639404,0.04062743
3662.80520142,0.04119943
3664.73400879,0.04108382
3666.66281616,0.04083877
3668.59162354,0.03989161
3670.52043091,0.03295319
3672.44923828,0.03937605
3674.37804565,0.03789434
3676.30685303,0.03174582
3678.23566040,0.03934225
3680.16446777,0.04037756
3682.09327515,0.04031610
3684.02208252,0.04146716
3685.95088989,0.04092387
3687.87969727,0.03716361
3689.80850464,0.03430192
3691.73731201,0.03886990
3693.66611938,0.03994107
3695.59492676,0.04078536
3697.52373413,0.04083424
3699.45254150,0.04042649
3701.38134888,0.03962414
3703.31015625,0.03816205
3705.23896362,0.04157846
3707.16777100,0.03979991
3709.09657837,0.03900696
3711.02538574,0.03685416
3712.95419312,0.03457482
3714.88300049,0.04018797
3716.81180786,0.03960699
3718.74061523,0.03992390
3720.66942261,0.03922080
3722.59822998,0.03790917
3724.52703735,0.03924509
3726.45584473,0.03649969
3728.38465210,0.03937358
3730.31345947,0.03895600
3732.24226685,0.03609686
3734.17107422,0.03532127
3736.09988159,0.03356797
3738.02868896,0.03549793
3739.95749634,0.03812774
3741.88630371,0.03995308
3743.81511108,0.03164552
3745.74391846,0.02970542
3747.67272583,0.03805571
3749.60153320,0.03312914
3751.53034058,0.03056525
3753.45914795,0.03484847
3755.38795532,0.03733987
3757.31676270,0.03865933
3759.24557007,0.03601512
3761.17437744,0.03718541
3763.10318481,0.03925772
3765.03199219,0.03691249
3766.96079956,0.03763501
3768.88960693,0.03729583
3770.81841431,0.03566875
3772.74722168,0.03828177
3774.67602905,0.03840704
3776.60483643,0.03826035
3778.53364380,0.03737766
3780.46245117,0.03608305
3782.39125854,0.03816321
3784.32006592,0.03743540
3786.24887329,0.03716832
3788.17768066,0.03792799
3790.10648804,0.03785290
3792.03529541,0.03749356
3793.96410278,0.03805333
3795.89291016,0.03604680
3797.82171753,0.03552793
3799.75052490,0.03733080
3801.67933228,0.03005544
3803.60813965,0.03458044
3805.53694702,0.03758479
3807.46575439,0.03116553
3809.39456177,0.03710202
3811.32336914,0.03645401
3813.25217651,0.03757555
3815.18098389,0.03421526
3817.10979126,0.03022837
3819.03859863,0.03759386
3820.96740601,0.03102409
3822.89621338,0.03234464
3824.82502075,0.03741268
3826.75382812,0.03413658
3828.68263550,0.03635784
3830.61144287,0.03510376
3832.54025024,0.03400399
3834.46905762,0.03461416
3836.39786499,0.03315432
3838.32667236,0.03004096
3840.25547974,0.03234131
3842.18428711,0.03472500
3844.11309448,0.03315394
3846.04190186,0.03580250
3847.97070923,0.03515328
3849.89951660,0.03527644
3851.82832397,0.03201232
3853.75713135,0.02436508
3855.68593872,0.02848183
3857.61474609,0.03522674
3859.54355347,0.03452063
3861.47236084,0.03403471
3863.40116821,0.03334038
3865.32997559,0.03121598
3867.25878296,0.03451795
3869.18759033,0.03187248
3871.11639770,0.02950242
3873.04520508,0.03459158
3874.97401245,0.03210455
3876.90281982,0.03427374
3878.83162720,0.03493834
3880.76043457,0.03028475
3882.68924194,0.03441773
3884.61804932,0.03242621
3886.54685669,0.02984839
3888.47566406,0.03447641
3890.40447144,0.03289768
3892.33327881,0.03090790
3894.26208618,0.03357324
3896.19089355,0.03415343
3898.11970093,0.03257839
3900.04850830,0.03097438
3901.97731567,0.03066206
3903.90612305,0.03043954
3905.83493042,0.03094693
3907.76373779,0.03360608
3909.69254517,0.03353273
3911.62135254,0.03316342
3913.55015991,0.03375968
3915.47896728,0.03272714
3917.40777466,0.03186769
3919.33658203,0.03167517
3921.26538940,0.03276659
3923.19419678,0.03256464
3925.12300415,0.03196640
3927.05181152,0.03247079
3928.98061890,0.03269726
3930.90942627,0.03214286
3932.83823364,0.03115374
3934.76704102,0.03226744
3936.69584839,0.03253623
3938.62465576,0.03227656
3940.55346313,0.03255031
3942.48227051,0.03148206
3944.41107788,0.03170350
3946.33988525,0.03215025
3948.26869263,0.03152829
3950.19750000,0.03143194
3952.12630737,0.03184476
3954.05511475,0.03188810
3955.98392212,0.03182162
3957.91272949,0.03174244
3959.84153687,0.03166406
3961.77034424,0.03154592
3963.69915161,0.03134499
3965.62795898,0.03168099
3967.55676636,0.03145458
3969.48557373,0.03129569
3971.41438110,0.03130768
3973.34318848,0.03115527
3975.27199585,0.03118304
3977.20080322,0.03105675
3979.12961060,0.03119200
3981.05841797,0.03094563
3982.98722534,0.03102162
3984.91603271,0.03095877
3986.84484009,0.03088346
3988.77364746,0.03097494
3990.70245483,0.03059497
3992.63126221,0.03076274
3994.56006958,0.03050658
3996.48887695,0.03052945
3998.41768433,0.03057395
4000.34649170,0.03040191
4002.27529907,0.03055367
4004.20410645,0.03032971
4006.13291382,0.03031804
4008.06172119,0.03012958
4009.99052856,0.03018553
4011.91933594,0.03010676
4013.84814331,0.02994113
4015.77695068,0.02998538
4017.70575806,0.02987317
4019.63456543,0.02985706
4021.56337280,0.02964155
4023.49218018,0.02973715
4025.42098755,0.02957680
4027.34979492,0.02954576
4029.27860229,0.02956678
4031.20740967,0.02949426
4033.13621704,0.02956025
4035.06502441,0.02927323
4036.99383179,0.02938112
4038.92263916,0.02918367
4040.85144653,0.02919251
4042.78025391,0.02916432
4044.70906128,0.02892602
4046.63786865,0.02910028
4048.56667603,0.02897923
4050.49548340,0.02900886
4052.42429077,0.02880273
4054.35309814,0.02875873
4056.28190552,0.02870353
4058.21071289,0.02860238
4060.13952026,0.02865606
4062.06832764,0.02849980
4063.99713501,0.02852287
4065.92594238,0.02832450
4067.85474976,0.02840161
4069.78355713,0.02826856
4071.71236450,0.02819703
4073.64117187,0.02823702
4075.56997925,0.02799438
4077.49878662,0.02812691
4079.42759399,0.02797724
4081.35640137,0.02797328
4083.28520874,0.02787305
4085.21401611,0.02775889
4087.14282349,0.02772334
4089.07163086,0.02767286
4091.00043823,0.02779583
4092.92924561,0.02755813
4094.85805298,0.02761989
4096.78686035,0.02752614
4098.71566772,0.02745954
4100.64447510,0.02741841
4102.57328247,0.02723047
4104.50208984,0.02732340
4106.43089722,0.02715220
4108.35970459,0.02716275
4110.28851196,0.02717452
4112.21731934,0.02708646
4114.14612671,0.02696588
4116.07493408,0.02689073
4118.00374145,0.02692716
4119.93254883,0.02693191
4121.86135620,0.02685363
4123.79016357,0.02660661
4125.71897095,0.02666035
4127.64777832,0.02647682
4129.57658569,0.02643280
4131.50539307,0.02654063
4133.43420044,0.02639582
4135.36300781,0.02638849
4137.29181519,0.02629300
4139.22062256,0.02626880
4141.14942993,0.02611713
4143.07823730,0.02609199
4145.00704468,0.02599397
4146.93585205,0.02597586
4148.86465942,0.02605356
4150.79346680,0.02587822
4152.72227417,0.02591783
4154.65108154,0.02571054
4156.57988892,0.02575820
4158.50869629,0.02575311
4160.43750366,0.02560710
4162.36631103,0.02565787
4164.29511841,0.02545621
4166.22392578,0.02544870
4168.15273315,0.02539530
4170.08154053,0.02540340
4172.01034790,0.02532192
4173.93915527,0.02525656
4175.86796265,0.02527056
4177.79677002,0.02512130
4179.72557739,0.02511916
4181.65438477,0.02504679
4183.58319214,0.02495138
4185.51199951,0.02481523
4187.44080688,0.02490819
4189.36961426,0.02486966
4191.29842163,0.02480559
4193.22722900,0.02479432
4195.15603638,0.02459953
4197.08484375,0.02471719
4199.01365112,0.02458434
4200.94245850,0.02453941
4202.87126587,0.02442548
4204.80007324,0.02429147
4206.72888062,0.02438960
4208.65768799,0.02427130
4210.58649536,0.02431468
4212.51530273,0.02420883
4214.44411011,0.02422369
4216.37291748,0.02411395
4218.30172485,0.02398783
4220.23053223,0.02408020
4222.15933960,0.02394777
4224.08814697,0.02392035
4226.01695435,0.02382033
4227.94576172,0.02384016
4229.87456909,0.02380033
4231.80337646,0.02370552
4233.73218384,0.02358283
4235.66099121,0.02348262
4237.58979858,0.02352415
4239.51860596,0.02338229
4241.44741333,0.02346810
4243.37622070,0.02341674
4245.30502808,0.02330648
4247.23383545,0.02326975
4249.16264282,0.02321564
4251.09145020,0.02320345
4253.02025757,0.02309981
4254.94906494,0.02310540
4256.87787231,0.02304525
4258.80667969,0.02307401
4260.73548706,0.02294408
4262.66429443,0.02298783
4264.59310181,0.02302020
4266.52190918,0.02273061
4268.45071655,0.02274226
4270.37952393,0.02270585
4272.30833130,0.02272363
4274.23713867,0.02259037
4276.16594604,0.02256041
4278.09475342,0.02256894
4280.02356079,0.02236559
4281.95236816,0.02240376
4283.88117554,0.02238044
4285.80998291,0.02236734
4287.73879028,0.02225303
4289.66759766,0.02229263
4291.59640503,0.02219769
4293.52521240,0.02207604
4295.45401978,0.02214453
4297.38282715,0.02198346
4299.31163452,0.02203039
4301.24044189,0.02188630
4303.16924927,0.02190159
4305.09805664,0.02185310
4307.02686401,0.02170152
4308.95567139,0.02184720
4310.88447876,0.02168316
4312.81328613,0.02165768
4314.74209351,0.02155359
4316.67090088,0.02151185
4318.59970825,0.02155496
4320.52851562,0.02145939
4322.45732300,0.02140313
4324.38613037,0.02131701
4326.31493774,0.02137158
4328.24374512,0.02126101
4330.17255249,0.02128207
4332.10135986,0.02126060
4334.03016724,0.02114691
4335.95897461,0.02114964
4337.88778198,0.02107692
4339.81658936,0.02104506
4341.74539673,0.02092509
4343.67420410,0.02094352
4345.60301147,0.02090268
4347.53181885,0.02086176
4349.46062622,0.02084312
4351.38943359,0.02078398
4353.31824097,0.02074020
4355.24704834,0.02059633
4357.17585571,0.02065880
4359.10466309,0.02056902
4361.03347046,0.02054604
4362.96227783,0.02053028
4364.89108520,0.02029906
4366.81989258,0.02030584
4368.74869995,0.02031454
4370.67750732,0.02026215
4372.60631470,0.02022051
4374.53512207,0.02014155
4376.46392944,0.02007502
4378.39273682,0.02012509
4380.32154419,0.01997760
4382.25035156,0.01991775
4384.17915894,0.01999193
4386.10796631,0.01980882
4388.03677368,0.01983306
4389.96558105,0.01982758
4391.89438843,0.01976988
4393.82319580,0.01968928
4395.75200317,0.01967760
4397.68081055,0.01968500
4399.60961792,0.01956164
4401.53842529,0.01964693
4403.46723267,0.01955449
4405.39604004,0.01951634
4407.32484741,0.01944491
4409.25365478,0.01937303
4411.18246216,0.01940191
4413.11126953,0.01925003
4415.04007690,0.01927731
4416.96888428,0.01918532
4418.89769165,0.01909847
4420.82649902,0.01906231
4422.75530640,0.01909764
4424.68411377,0.01908766
4426.61292114,0.01889531
4428.54172852,0.01895779
4430.47053589,0.01894947
4432.39934326,0.01896574
4434.32815063,0.01894999
4436.25695801,0.01879496
4438.18576538,0.01874166
4440.11457275,0.01874709
4442.04338013,0.01869196
4443.97218750,0.01856764
4445.90099487,0.01852210
4447.82980225,0.01850418
4449.75860962,0.01856364
4451.68741699,0.01844378
4453.61622437,0.01842240
4455.54503174,0.01843802
4457.47383911,0.01834326
4459.40264648,0.01835624
4461.33145386,0.01819078
4463.26026123,0.01824033
4465.18906860,0.01817975
4467.11787598,0.01807230
4469.04668335,0.01806931
4470.97549072,0.01796825
4472.90429810,0.01803257
4474.83310547,0.01797801
4476.76191284,0.01795756
4478.69072021,0.01782023
4480.61952759,0.01784871
4482.54833496,0.01787822
4484.47714233,0.01771228
4486.40594971,0.01780805
4488.33475708,0.01770284
4490.26356445,0.01765677
4492.19237183,0.01758180
4494.12117920,0.01751408
4496.04998657,0.01754452
4497.97879395,0.01740661
4499.90760132,0.01737358
4501.83640869,0.01736950
4503.76521606,0.01736299
4505.69402344,0.01727661
4507.62283081,0.01725335
4509.55163818,0.01717921
4511.48044556,0.01717430
4513.40925293,0.01718258
4515.33806030,0.01704058
4517.26686768,0.01711614
4519.19567505,0.01704787
4521.12448242,0.01699046
4523.05328979,0.01699255
4524.98209717,0.01698139
4526.91090454,0.01686674
4528.83971191,0.01672280
4530.76851929,0.01688490
4532.69732666,0.01679322
4534.62613403,0.01665678
4536.55494141,0.01661607
4538.48374878,0.01661562
4540.41255615,0.01670964
4542.34136353,0.01662842
4544.27017090,0.01653950
4546.19897827,0.01655730
4548.12778564,0.01651906
4550.05659302,0.01633641
4551.98540039,0.01631325
4553.91420776,0.01630169
4555.84301514,0.01630040
4557.77182251,0.01629422
4559.70062988,0.01623892
4561.62943726,0.01623759
4563.55824463,0.01612706
4565.48705200,0.01619675
4567.41585937,0.01611107
4569.34466675,0.01604926
4571.27347412,0.01603142
4573.20228149,0.01584061
4575.13108887,0.01592569
4577.05989624,0.01590095
4578.98870361,0.01583108
4580.91751099,0.01582627
4582.84631836,0.01582379
4584.77512573,0.01567697
4586.70393311,0.01559985
4588.63274048,0.01567163
4590.56154785,0.01551668
4592.49035522,0.01559012
4594.41916260,0.01558699
4596.34796997,0.01552914
4598.27677734,0.01552562
4600.20558472,0.01539216
4602.13439209,0.01536539
4604.06319946,0.01534349
4605.99200684,0.01535749
4607.92081421,0.01526069
4609.84962158,0.01520867
4611.77842895,0.01517923
4613.70723633,0.01520409
4615.63604370,0.01519520
4617.56485107,0.01509205
4619.49365845,0.01512838
4621.42246582,0.01501003
4623.35127319,0.01498581
4625.28008057,0.01491861
4627.20888794,0.01489658
4629.13769531,0.01490587
4631.06650269,0.01479043
4632.99531006,0.01486831
4634.92411743,0.01476546
4636.85292480,0.01472855
4638.78173218,0.01475611
4640.71053955,0.01471322
4642.63934692,0.01468272
4644.56815430,0.01465088
4646.49696167,0.01463562
4648.42576904,0.01455965
4650.35457642,0.01460954
4652.28338379,0.01453714
4654.21219116,0.01449497
4656.14099853,0.01441133
4658.06980591,0.01435905
4659.99861328,0.01447535
4661.92742065,0.01439757
4663.85622803,0.01428096
4665.78503540,0.01416164
4667.71384277,0.01425656
4669.64265015,0.01421609
4671.57145752,0.01410911
4673.50026489,0.01414628
4675.42907227,0.01406500
4677.35787964,0.01407344
4679.28668701,0.01399074
4681.21549438,0.01399102
4683.14430176,0.01393510
4685.07310913,0.01388482
4687.00191650,0.01390629
4688.93072388,0.01382004
4690.85953125,0.01387746
4692.78833862,0.01384126
4694.71714600,0.01377214
4696.64595337,0.01368392
4698.57476074,0.01367134
4700.50356812,0.01366318
4702.43237549,0.01365978
4704.36118286,0.01366537
4706.28999023,0.01354778
4708.21879761,0.01356621
4710.14760498,0.01348017
4712.07641235,0.01352617
4714.00521973,0.01347520
4715.93402710,0.01339205
4717.86283447,0.01347918
4719.79164185,0.01334779
4721.72044922,0.01338054
4723.64925659,0.01327950
4725.57806396,0.01323189
4727.50687134,0.01326188
4729.43567871,0.01314885
4731.36448608,0.01315319
4733.29329346,0.01313995
4735.22210083,0.01319925
4737.15090820,0.01312074
4739.07971558,0.01306181
4741.00852295,0.01305608
4742.93733032,0.01302609
4744.86613770,0.01290480
4746.79494507,0.01284975
4748.72375244,0.01302755
4750.65255981,0.01288158
4752.58136719,0.01285300
4754.51017456,0.01288040
4756.43898193,0.01278540
4758.36778931,0.01280920
4760.29659668,0.01276414
4762.22540405,0.01276434
4764.15421143,0.01263928
4766.08301880,0.01258423
4768.01182617,0.01262088
4769.94063354,0.01261441
4771.86944092,0.01260032
4773.79824829,0.01254565
4775.72705566,0.01250703
4777.65586304,0.01240848
4779.58467041,0.01242178
4781.51347778,0.01243556
4783.44228516,0.01241270
4785.37109253,0.01240105
4787.29989990,0.01232234
4789.22870728,0.01226240
4791.15751465,0.01228735
4793.08632202,0.01228849
4795.01512939,0.01218971
4796.94393677,0.01219700
4798.87274414,0.01217734
4800.80155151,0.01213109
4802.73035889,0.01209109
4804.65916626,0.01206808
4806.58797363,0.01206923
4808.51678101,0.01202816
4810.44558838,0.01202779
4812.37439575,0.01193390
4814.30320312,0.01191746
4816.23201050,0.01186357
4818.16081787,0.01182543
4820.08962524,0.01185481
4822.01843262,0.01178332
4823.94723999,0.01179836
4825.87604736,0.01171269
4827.80485474,0.01177034
4829.73366211,0.01181046
4831.66246948,0.01169024
4833.59127686,0.01170682
4835.52008423,0.01165659
4837.44889160,0.01159069
4839.37769897,0.01154594
4841.30650635,0.01158629
4843.23531372,0.01155660
4845.16412109,0.01149895
4847.09292847,0.01152473
4849.02173584,0.01143637
4850.95054321,0.01137483
4852.87935059,0.01138756
4854.80815796,0.01137567
4856.73696533,0.01126608
4858.66577270,0.01123366
4860.59458008,0.01124122
4862.52338745,0.01121280
4864.45219482,0.01121065
4866.38100220,0.01122419
4868.30980957,0.01121757
4870.23861694,0.01107924
4872.16742432,0.01107072
4874.09623169,0.01108935
4876.02503906,0.01100745
4877.95384644,0.01099132
4879.88265381,0.01102900
4881.81146118,0.01092986
4883.74026855,0.01085573
4885.66907593,0.01099587
4887.59788330,0.01088407
4889.52669067,0.01082169
4891.45549805,0.01082834
4893.38430542,0.01076993
4895.31311279,0.01078947
4897.24192017,0.01072283
4899.17072754,0.01074412
4901.09953491,0.01061599
4903.02834228,0.01064664
4904.95714966,0.01073091
4906.88595703,0.01057930
4908.81476440,0.01056703
4910.74357178,0.01057645
4912.67237915,0.01063639
4914.60118652,0.01053208
4916.52999390,0.01048831
4918.45880127,0.01053344
4920.38760864,0.01042669
4922.31641602,0.01039498
4924.24522339,0.01037387
4926.17403076,0.01037460
4928.10283813,0.01031128
4930.03164551,0.01033191
4931.96045288,0.01030216
4933.88926025,0.01020711
4935.81806763,0.01023244
4937.74687500,0.01020881
4939.67568237,0.01021806
4941.60448975,0.01017153
4943.53329712,0.01013466
4945.46210449,0.01006316
4947.39091187,0.01002903
4949.31971924,0.01008290
4951.24852661,0.01004035
4953.17733398,0.01003460
4955.10614136,0.01003095
4957.03494873,0.00997393
4958.96375610,0.00989994
4960.89256348,0.00990890
4962.82137085,0.00983929
4964.75017822,0.00982573
4966.67898560,0.00990580
4968.60779297,0.00982687
4970.53660034,0.00978970
4972.46540771,0.00969714
4974.39421509,0.00961715
4976.32302246,0.00964374
4978.25182983,0.00972985
4980.18063721,0.00967913
4982.10944458,0.00959493
4984.03825195,0.00968968
4985.96705933,0.00960489
4987.89586670,0.00954831
4989.82467407,0.00950325
4991.75348145,0.00948016
4993.68228882,0.00951115
4995.61109619,0.00945106
4997.53990356,0.00948300
4999.46871094,0.00943095
5001.39751831,0.00939165
5003.32632568,0.00940987
5005.25513306,0.00942166
5007.18394043,0.00933342
5009.11274780,0.00927186
5011.04155518,0.00930757
5012.97036255,0.00921860
5014.89916992,0.00923316
5016.82797729,0.00923626
5018.75678467,0.00921699
5020.68559204,0.00913732
5022.61439941,0.00909678
5024.54320679,0.00914065
5026.47201416,0.00907134
5028.40082153,0.00915448
5030.32962891,0.00908909
5032.25843628,0.00897849
5034.18724365,0.00899071
5036.11605103,0.00896950
5038.04485840,0.00900038
5039.97366577,0.00897305
5041.90247314,0.00897482
5043.83128052,0.00890235
5045.76008789,0.00884041
5047.68889526,0.00890042
5049.61770264,0.00887287
5051.54651001,0.00876669
5053.47531738,0.00878747
5055.40412476,0.00879720
5057.33293213,0.00870890
5059.26173950,0.00871809
5061.19054687,0.00861794
5063.11935425,0.00861787
5065.04816162,0.00870022
5066.97696899,0.00863350
5068.90577637,0.00859883
5070.83458374,0.00861488
5072.76339111,0.00861469
5074.69219849,0.00855724
5076.62100586,0.00864356
5078.54981323,0.00858383
5080.47862061,0.00846182
5082.40742798,0.00847978
5084.33623535,0.00841803
5086.26504272,0.00846632
5088.19385010,0.00845707
5090.12265747,0.00841171
5092.05146484,0.00837456
5093.98027222,0.00835104
5095.90907959,0.00835569
5097.83788696,0.00831753
5099.76669434,0.00832297
5101.69550171,0.00830885
5103.62430908,0.00833967
5105.55311645,0.00821703
5107.48192383,0.00815943
5109.41073120,0.00821047
5111.33953857,0.00813445
5113.26834595,0.00817298
5115.19715332,0.00818127
5117.12596069,0.00814393
5119.05476807,0.00810667
5120.98357544,0.00807702
5122.91238281,0.00803713
5124.84119019,0.00803263
5126.76999756,0.00799582
5128.69880493,0.00793780
5130.62761230,0.00803411
5132.55641968,0.00797956
5134.48522705,0.00798432
5136.41403442,0.00798072
5138.34284180,0.00786646
5140.27164917,0.00785978
5142.20045654,0.00781895
5144.12926392,0.00786799
5146.05807129,0.00788559
5147.98687866,0.00786011
5149.91568603,0.00773949
5151.84449341,0.00768982
5153.77330078,0.00780377
5155.70210815,0.00770387
5157.63091553,0.00764797
5159.55972290,0.00763096
5161.48853027,0.00763670
5163.41733765,0.00770245
5165.34614502,0.00759067
5167.27495239,0.00758660
5169.20375977,0.00764834
5171.13256714,0.00751214
5173.06137451,0.00750709
5174.99018188,0.00751923
5176.91898926,0.00745223
5178.84779663,0.00755790
5180.77660400,0.00748859
5182.70541138,0.00741982
5184.63421875,0.00741801
5186.56302612,0.00732387
5188.49183350,0.00740295
5190.42064087,0.00739606
5192.34944824,0.00733258
5194.27825562,0.00740836
5196.20706299,0.00737672
5198.13587036,0.00718753
5200.06467773,0.00724718
5201.99348511,0.00735167
5203.92229248,0.00730041
5205.85109985,0.00723094
5207.77990723,0.00704289
5209.70871460,0.00717323
5211.63752197,0.00719362
5213.56632935,0.00712574
5215.49513672,0.00725088
5217.42394409,0.00710269
5219.35275146,0.00711611
5221.28155884,0.00717145
5223.21036621,0.00713572
5225.13917358,0.00699448
5227.06798096,0.00698474
5228.99678833,0.00715218
5230.92559570,0.00699270
5232.85440308,0.00697990
5234.78321045,0.00699378
5236.71201782,0.00695303
5238.64082520,0.00696465
5240.56963257,0.00695244
5242.49843994,0.00689570
5244.42724731,0.00680274
5246.35605469,0.00689006
5248.28486206,0.00671433
5250.21366943,0.00674525
5252.14247681,0.00697127
5254.07128418,0.00680646
5256.00009155,0.00672934
5257.92889893,0.00677761
5259.85770630,0.00681666
5261.78651367,0.00673971
5263.71532104,0.00664896
5265.64412842,0.00664649
5267.57293579,0.00673280
5269.50174316,0.00670949
5271.43055054,0.00662349
5273.35935791,0.00668649
5275.28816528,0.00663491
5277.21697266,0.00668052
5279.14578003,0.00659113
5281.07458740,0.00656997
5283.00339478,0.00667163
5284.93220215,0.00651782
5286.86100952,0.00662123
5288.78981689,0.00655221
5290.71862427,0.00646156
5292.64743164,0.00655799
5294.57623901,0.00647770
5296.50504639,0.00652661
5298.43385376,0.00648962
5300.36266113,0.00645033
5302.29146851,0.00647823
5304.22027588,0.00646159
5306.14908325,0.00641179
5308.07789062,0.00631575
5310.00669800,0.00638636
5311.93550537,0.00635728
5313.86431274,0.00627217
5315.79312012,0.00632315
5317.72192749,0.00632567
5319.65073486,0.00630348
5321.57954224,0.00624954
5323.50834961,0.00627767
5325.43715698,0.00627503
5327.36596436,0.00609221
5329.29477173,0.00611699
5331.22357910,0.00623158
5333.15238647,0.00612305
5335.08119385,0.00612665
5337.01000122,0.00615826
5338.93880859,0.00594225
5340.86761597,0.00602522
5342.79642334,0.00610908
5344.72523071,0.00585429
5346.65403809,0.00602526
5348.58284546,0.00607249
5350.51165283,0.00600611
5352.44046020,0.00606825
5354.36926758,0.00578205
5356.29807495,0.00593475
5358.22688232,0.00601917
5360.15568970,0.00591591
5362.08449707,0.00605696
5364.01330444,0.00590428
5365.94211182,0.00591161
5367.87091919,0.00590660
5369.79972656,0.00584159
5371.72853394,0.00585614
5373.65734131,0.00583786
5375.58614868,0.00580267
5377.51495605,0.00568082
5379.44376343,0.00585371
5381.37257080,0.00586241
5383.30137817,0.00575321
5385.23018555,0.00574879
5387.15899292,0.00566291
5389.08780029,0.00571740
5391.01660767,0.00571106
5392.94541504,0.00566471
5394.87422241,0.00560509
5396.80302978,0.00564012
5398.73183716,0.00565880
5400.66064453,0.00566008
5402.58945190,0.00565104
5404.51825928,0.00551268
5406.44706665,0.00559801
5408.37587402,0.00552279
5410.30468140,0.00549780
5412.23348877,0.00554053
5414.16229614,0.00538075
5416.09110352,0.00549730
5418.01991089,0.00555826
5419.94871826,0.00556615
5421.87752563,0.00554610
5423.80633301,0.00547504
5425.73514038,0.00553711
5427.66394775,0.00542150
5429.59275513,0.00524443
5431.52156250,0.00530994
5433.45036987,0.00538966
5435.37917725,0.00526185
5437.30798462,0.00535692
5439.23679199,0.00543620
5441.16559936,0.00525797
5443.09440674,0.00531057
5445.02321411,0.00530071
5446.95202148,0.00520940
5448.88082886,0.00527260
5450.80963623,0.00529035
5452.73844360,0.00532993
5454.66725098,0.00532032
5456.59605835,0.00522241
5458.52486572,0.00524367
5460.45367310,0.00519649
5462.38248047,0.00513597
5464.31128784,0.00520872
5466.24009521,0.00513681
5468.16890259,0.00509109
5470.09770996,0.00513597
5472.02651733,0.00513197
5473.95532471,0.00509311
5475.88413208,0.00503658
5477.81293945,0.00508947
5479.74174683,0.00517064
5481.67055420,0.00517310
5483.59936157,0.00510105
5485.52816895,0.00507258
5487.45697632,0.00502251
5489.38578369,0.00504567
5491.31459106,0.00508436
5493.24339844,0.00491283
5495.17220581,0.00497247
5497.10101318,0.00498318
5499.02982056,0.00488757
5500.95862793,0.00497771
5502.88743530,0.00489501
5504.81624268,0.00487759
5506.74505005,0.00488954
5508.67385742,0.00483041
5510.60266479,0.00486727
5512.53147217,0.00488691
5514.46027954,0.00489734
5516.38908691,0.00484942
5518.31789429,0.00482276
5520.24670166,0.00483188
5522.17550903,0.00478522
5524.10431641,0.00475318
5526.03312378,0.00479587
5527.96193115,0.00479354
5529.89073853,0.00474621
5531.81954590,0.00482046
5533.74835327,0.00482108
5535.67716064,0.00472888
5537.60596802,0.00471132
5539.53477539,0.00471528
5541.46358276,0.00472229
5543.39239014,0.00469912
5545.32119751,0.00467668
5547.25000488,0.00466305
5549.17881226,0.00463726
5551.10761963,0.00463881
5553.03642700,0.00461018
5554.96523437,0.00457956
5556.89404175,0.00459129
5558.82284912,0.00458695
5560.75165649,0.00458653
5562.68046387,0.00456185
5564.60927124,0.00455498
5566.53807861,0.00460194
5568.46688599,0.00457969
5570.39569336,0.00451316
5572.32450073,0.00449509
5574.25330811,0.00454991
5576.18211548,0.00453521
5578.11092285,0.00445725
5580.03973022,0.00449640
5581.96853760,0.00450226
5583.89734497,0.00442567
5585.82615234,0.00440905
5587.75495972,0.00440862
5589.68376709,0.00440745
5591.61257446,0.00443637
5593.54138184,0.00440009
5595.47018921,0.00438230
5597.39899658,0.00444506
5599.32780395,0.00443752
5601.25661133,0.00441299
5603.18541870,0.00433146
5605.11422607,0.00427344
5607.04303345,0.00433158
5608.97184082,0.00431171
5610.90064819,0.00432004
5612.82945557,0.00432309
5614.75826294,0.00427099
5616.68707031,0.00430318
5618.61587769,0.00429604
5620.54468506,0.00427664
5622.47349243,0.00430118
5624.40229980,0.00426927
5626.33110718,0.00423881
5628.25991455,0.00424717
5630.18872192,0.00425047
5632.11752930,0.00424851
5634.04633667,0.00421219
5635.97514404,0.00419860
5637.90395142,0.00421790
5639.83275879,0.00416903
5641.76156616,0.00413666
5643.69037353,0.00412283
5645.61918091,0.00409285
5647.54798828,0.00412289
5649.47679565,0.00413488
5651.40560303,0.00414450
5653.33441040,0.00412194
5655.26321777,0.00401662
5657.19202515,0.00402400
5659.12083252,0.00402860
5661.04963989,0.00398807
5662.97844727,0.00402738
5664.90725464,0.00400141
5666.83606201,0.00402555
5668.76486938,0.00402581
5670.69367676,0.00390526
5672.62248413,0.00389500
5674.55129150,0.00390912
5676.48009888,0.00392452
5678.40890625,0.00395702
5680.33771362,0.00393394
5682.26652100,0.00388240
5684.19532837,0.00390765
5686.12413574,0.00395648
5688.05294311,0.00385776
5689.98175049,0.00384721
5691.91055786,0.00386816
5693.83936523,0.00381020
5695.76817261,0.00383534
5697.69697998,0.00383038
5699.62578735,0.00387303
5701.55459473,0.00385277
5703.48340210,0.00377593
5705.41220947,0.00383681
5707.34101685,0.00377933
5709.26982422,0.00374745
5711.19863159,0.00379716
5713.12743896,0.00376163
5715.05624634,0.00378024
5716.98505371,0.00374486
5718.91386108,0.00371291
5720.84266846,0.00375172
5722.77147583,0.00374140
5724.70028320,0.00369523
5726.62909058,0.00364968
5728.55789795,0.00371046
5730.48670532,0.00364781
5732.41551270,0.00357099
5734.34432007,0.00368502
5736.27312744,0.00361878
5738.20193481,0.00358961
5740.13074219,0.00363323
5742.05954956,0.00358748
5743.98835693,0.00362140
5745.91716431,0.00353926
5747.84597168,0.00354820
5749.77477905,0.00362828
5751.70358643,0.00354039
5753.63239380,0.00359251
5755.56120117,0.00357469
5757.49000854,0.00348960
5759.41881592,0.00357174
5761.34762329,0.00353876
5763.27643066,0.00347725
5765.20523804,0.00346276
5767.13404541,0.00348617
5769.06285278,0.00351907
5770.99166016,0.00342484
5772.92046753,0.00346545
5774.84927490,0.00348309
5776.77808228,0.00339702
5778.70688965,0.00343129
5780.63569702,0.00340091
5782.56450439,0.00340565
5784.49331177,0.00340209
5786.42211914,0.00333879
5788.35092651,0.00337021
5790.27973389,0.00333445
5792.20854126,0.00331051
5794.13734863,0.00333747
5796.06615601,0.00328414
5797.99496338,0.00327485
5799.92377075,0.00328790
5801.85257812,0.00325541
5803.78138550,0.00330106
5805.71019287,0.00331456
5807.63900024,0.00327454
5809.56780762,0.00329316
5811.49661499,0.00326888
5813.42542236,0.00324074
5815.35422974,0.00324858
5817.28303711,0.00325032
5819.21184448,0.00318444
5821.14065186,0.00315223
5823.06945923,0.00319553
5824.99826660,0.00317037
5826.92707397,0.00319883
5828.85588135,0.00320311
5830.78468872,0.00314550
5832.71349609,0.00313767
5834.64230347,0.00313625
5836.57111084,0.00310886
5838.49991821,0.00310692
5840.42872559,0.00315883
5842.35753296,0.00306881
5844.28634033,0.00306661
5846.21514770,0.00312107
5848.14395508,0.00302277
5850.07276245,0.00305640
5852.00156982,0.00306540
5853.93037720,0.00305570
5855.85918457,0.00308936
5857.78799194,0.00307500
5859.71679932,0.00309791
5861.64560669,0.00304790
5863.57441406,0.00301149
5865.50322144,0.00302412
5867.43202881,0.00301315
5869.36083618,0.00302203
5871.28964355,0.00299562
5873.21845093,0.00297646
5875.14725830,0.00298545
5877.07606567,0.00297524
5879.00487305,0.00296934
5880.93368042,0.00293289
5882.86248779,0.00295015
5884.79129517,0.00294593
5886.72010254,0.00288616
5888.64890991,0.00292704
5890.57771728,0.00284522
5892.50652466,0.00286391
5894.43533203,0.00296223
5896.36413940,0.00289115
5898.29294678,0.00292330
5900.22175415,0.00286405
5902.15056152,0.00284556
5904.07936890,0.00287127
5906.00817627,0.00283878
5907.93698364,0.00286591
5909.86579102,0.00279502
5911.79459839,0.00283548
5913.72340576,0.00283940
5915.65221313,0.00282659
5917.58102051,0.00281619
5919.50982788,0.00270959
5921.43863525,0.00276462
5923.36744263,0.00277590
5925.29625000,0.00273805
5927.22505737,0.00272391
5929.15386475,0.00271550
5931.08267212,0.00266884
5933.01147949,0.00268156
5934.94028686,0.00274785
5936.86909424,0.00266689
5938.79790161,0.00268198
5940.72670898,0.00265509
5942.65551636,0.00265198
5944.58432373,0.00272842
5946.51313110,0.00269047
5948.44193848,0.00262369
5950.37074585,0.00254653
5952.29955322,0.00265982
5954.22836060,0.00270496
5956.15716797,0.00263097
5958.08597534,0.00262915
5960.01478271,0.00262565
5961.94359009,0.00261142
5963.87239746,0.00255192
5965.80120483,0.00260397
5967.73001221,0.00256273
5969.65881958,0.00253219
5971.58762695,0.00261086
5973.51643433,0.00254996
5975.44524170,0.00259818
5977.37404907,0.00263450
5979.30285645,0.00254472
5981.23166382,0.00256705
5983.16047119,0.00256757
5985.08927856,0.00249320
5987.01808594,0.00258083
5988.94689331,0.00259074
5990.87570068,0.00245921
5992.80450806,0.00244188
5994.73331543,0.00246091
5996.66212280,0.00254373
5998.59093018,0.00248593
6000.51973755,0.00241602
