399.2631262207	0.0010910435
401.1919335938	0.0009585737
403.1207409668	0.0002357781
405.0495483398	0.0004967604
406.9783557129	0.0006697744
408.9071630859	0.0009309599
410.8359704590	0.0011943812
412.7647778320	0.0010056824
414.6935852051	0.0008201062
416.6223925781	0.0009317867
418.5511999512	0.0009879477
420.4800073242	0.0008498060
422.4088146973	0.0008009699
424.3376220703	0.0009961382
426.2664294434	0.0012631654
428.1952368164	0.0008716858
430.1240441895	0.0009382141
432.0528515625	0.0011889532
433.9816589355	0.0009222550
435.9104663086	0.0009722503
437.8392736816	0.0008094198
439.7680810547	0.0010780400
441.6968884277	0.0012599963
443.6256958008	0.0007764127
445.5545031738	0.0008175175
447.4833105469	0.0008539844
449.4121179199	0.0007478213
451.3409252930	0.0008680851
453.2697326660	0.0007589618
455.1985400391	0.0006152953
457.1273474121	0.0007968916
459.0561547852	0.0008892474
460.9849621582	0.0007394350
462.9137695313	0.0005946339
464.8425769043	0.0006726509
466.7713842773	0.0005104438
468.7001916504	0.0004118636
470.6289990234	0.0005882002
472.5578063965	0.0002148948
474.4866137695	0.0000642107
476.4154211426	0.0000504741
478.3442285156	0.0005112674
480.2730358887	0.0008477313
482.2018432617	0.0001218884
484.1306506348	0.0002111201
486.0594580078	0.0002192940
487.9882653809	0.0001605556
489.9170727539	0.0004190101
491.8458801270	0.0001458513
493.7746875000	0.0003399722
495.7034948730	0.0005715815
497.6323022461	0.0003125802
499.5611096191	-0.0001217387
501.4899169922	-0.0000357692
503.4187243652	0.0002273990
505.3475317383	0.0003274056
507.2763391113	0.0002757538
509.2051464844	0.0000664596
511.1339538574	0.0004008242
513.0627612305	0.0006308159
514.9915686035	0.0001983773
516.9203759766	-0.0003766784
518.8491833496	0.0001559497
520.7779907227	0.0001957387
522.7067980957	-0.0003902782
524.6356054688	0.0003147727
526.5644128418	0.0002514415
528.4932202148	-0.0000502393
530.4220275879	0.0002213658
532.3508349609	-0.0001997206
534.2796423340	0.0002596345
536.2084497070	0.0008251015
538.1372570801	0.0003278610
540.0660644531	0.0003269175
541.9948718262	0.0003606245
543.9236791992	0.0000288162
545.8524865723	0.0001676931
547.7812939453	0.0003009544
549.7101013184	0.0003739279
551.6389086914	0.0004180500
553.5677160645	0.0001761467
555.4965234375	0.0002968665
557.4253308105	0.0003059639
559.3541381836	0.0001198974
561.2829455566	0.0000779215
563.2117529297	0.0000069005
565.1405603027	0.0001898148
567.0693676758	0.0001760319
568.9981750488	0.0000890724
570.9269824219	-0.0000843373
572.8557897949	-0.0000643143
574.7845971680	0.0001921675
576.7134045410	0.0002394383
578.6422119141	0.0002468681
580.5710192871	0.0000275600
582.4998266602	0.0003450615
584.4286340332	0.0004760304
586.3574414063	0.0002614931
588.2862487793	0.0003127360
590.2150561523	0.0001040759
592.1438635254	0.0003210676
594.0726708984	0.0002851969
596.0014782715	0.0000754553
597.9302856445	0.0003490084
599.8590930176	0.0003089491
601.7879003906	0.0002834773
603.7167077637	0.0003982862
605.6455151367	0.0002283069
607.5743225098	-0.0000266422
609.5031298828	-0.0000077403
611.4319372559	0.0003583992
613.3607446289	0.0003248736
615.2895520020	-0.0000264264
617.2183593750	0.0000195962
619.1471667480	0.0000566809
621.0759741211	-0.0002436468
623.0047814941	-0.0001967045
624.9335888672	0.0001746307
626.8623962402	0.0001997845
628.7912036133	0.0002337867
630.7200109863	0.0005321905
632.6488183594	0.0005922861
634.5776257324	0.0006659959
636.5064331055	0.0005860715
638.4352404785	0.0007562634
640.3640478516	0.0010037548
642.2928552246	0.0009190583
644.2216625977	0.0011178170
646.1504699707	0.0011934210
648.0792773438	0.0011422309
650.0080847168	0.0010819958
651.9368920898	0.0010580756
653.8656994629	0.0012295803
655.7945068359	0.0011953325
657.7233142090	0.0015330184
659.6521215820	0.0018785868
661.5809289551	0.0016094355
663.5097363281	0.0015736592
665.4385437012	0.0015033819
667.3673510742	0.0012346411
669.2961584473	0.0015583630
671.2249658203	0.0019300086
673.1537731934	0.0018365250
675.0825805664	0.0017700110
677.0113879395	0.0019629127
678.9401953125	0.0022006161
680.8690026855	0.0022501750
682.7978100586	0.0020826955
684.7266174316	0.0016738146
686.6554248047	0.0017738102
688.5842321777	0.0021861256
690.5130395508	0.0019880373
692.4418469238	0.0021086065
694.3706542969	0.0024867482
696.2994616699	0.0026709372
698.2282690430	0.0031670865
700.1570764160	0.0033638016
702.0858837891	0.0033042375
704.0146911621	0.0031801641
705.9434985352	0.0025855703
707.8723059082	0.0022230544
709.8011132813	0.0019088977
711.7299206543	0.0012106606
713.6587280273	0.0007164138
715.5875354004	0.0004874726
717.5163427734	0.0004188864
719.4451501465	0.0001565926
721.3739575195	0.0001163022
723.3027648926	0.0002787139
725.2315722656	0.0001334205
727.1603796387	0.0002270114
729.0891870117	0.0001224424
731.0179943848	0.0001188575
732.9468017578	0.0001227107
734.8756091309	0.0000581984
736.8044165039	0.0002592377
738.7332238770	-0.0000636515
740.6620312500	0.0001302513
742.5908386230	0.0003323009
744.5196459961	0.0002055255
746.4484533691	0.0004273343
748.3772607422	0.0001680159
750.3060681152	0.0000184634
752.2348754883	0.0001412182
754.1636828613	0.0001241660
756.0924902344	0.0001293573
758.0212976074	0.0001034513
759.9501049805	0.0001339443
761.8789123535	0.0003125278
763.8077197266	0.0005143561
765.7365270996	0.0003209130
767.6653344727	0.0001612799
769.5941418457	0.0002166088
771.5229492188	0.0005174537
773.4517565918	0.0006023492
775.3805639648	0.0001943075
777.3093713379	0.0000708550
779.2381787109	0.0001394663
781.1669860840	0.0004177341
783.0957934570	0.0003083897
785.0246008301	0.0000630109
786.9534082031	0.0003431107
788.8822155762	0.0001231880
790.8110229492	-0.0000318796
792.7398303223	0.0002570630
794.6686376953	0.0002836441
796.5974450684	0.0003301500
798.5262524414	0.0006217724
800.4550598145	0.0007396850
802.3838671875	0.0005257832
804.3126745605	0.0004652591
806.2414819336	0.0006315994
808.1702893066	0.0004067721
810.0990966797	0.0002903092
812.0279040527	0.0003880569
813.9567114258	0.0002309215
815.8855187988	0.0004021368
817.8143261719	0.0002152683
819.7431335449	0.0002390353
821.6719409180	0.0005050283
823.6007482910	0.0000872560
825.5295556641	0.0002766586
827.4583630371	0.0005092988
829.3871704102	0.0005562485
831.3159777832	0.0006749525
833.2447851563	0.0006923366
835.1735925293	0.0007083353
837.1023999023	0.0005581572
839.0312072754	0.0008222421
840.9600146484	0.0009733085
842.8888220215	0.0006659080
844.8176293945	0.0003782426
846.7464367676	0.0005612355
848.6752441406	0.0004909047
850.6040515137	0.0003714354
852.5328588867	0.0007169413
854.4616662598	0.0003699734
856.3904736328	0.0003400430
858.3192810059	0.0003459165
860.2480883789	0.0002478334
862.1768957520	0.0006644492
864.1057031250	0.0004542720
866.0345104980	0.0004252796
867.9633178711	0.0004633295
869.8921252441	0.0002279813
871.8209326172	0.0003557602
873.7497399902	0.0004442112
875.6785473633	0.0005251025
877.6073547363	0.0005172427
879.5361621094	0.0002570861
881.4649694824	0.0003930885
883.3937768555	0.0005435635
885.3225842285	0.0001999286
887.2513916016	0.0004413089
889.1801989746	0.0006747603
891.1090063477	0.0003822768
893.0378137207	0.0003211055
894.9666210938	0.0003272325
896.8954284668	0.0002962686
898.8242358398	0.0002373977
900.7530432129	0.0005813998
902.6818505859	0.0006316260
904.6106579590	0.0003797463
906.5394653320	0.0004438452
908.4682727051	0.0003122834
910.3970800781	0.0004891165
912.3258874512	0.0006275317
914.2546948242	0.0004086673
916.1835021973	0.0004103786
918.1123095703	0.0005204960
920.0411169434	0.0005692687
921.9699243164	0.0007302024
923.8987316895	0.0007989067
925.8275390625	0.0007932970
927.7563464355	0.0008820180
929.6851538086	0.0006830991
931.6139611816	0.0009679004
933.5427685547	0.0011688964
935.4715759277	0.0007909330
937.4003833008	0.0009383342
939.3291906738	0.0010451487
941.2579980469	0.0010309190
943.1868054199	0.0011377512
945.1156127930	0.0011519387
947.0444201660	0.0011411726
948.9732275391	0.0011386992
950.9020349121	0.0012381233
952.8308422852	0.0011263463
954.7596496582	0.0008808528
956.6884570313	0.0010897033
958.6172644043	0.0012376559
960.5460717773	0.0010833978
962.4748791504	0.0013239764
964.4036865234	0.0012455070
966.3324938965	0.0011144168
968.2613012695	0.0012074416
970.1901086426	0.0012131667
972.1189160156	0.0015027620
974.0477233887	0.0013580407
975.9765307617	0.0016027626
977.9053381348	0.0017736743
979.8341455078	0.0015207445
981.7629528809	0.0020674150
983.6917602539	0.0021824944
985.6205676270	0.0022610594
987.5493750000	0.0026326238
989.4781823730	0.0027294159
991.4069897461	0.0030198558
993.3357971191	0.0033895071
995.2646044922	0.0037535545
997.1934118652	0.0040968377
999.1222192383	0.0044710622
1001.0510266113	0.0046582585
1002.9798339844	0.0049352418
1004.9086413574	0.0053311633
1006.8374487305	0.0055778613
1008.7662561035	0.0058613317
1010.6950634766	0.0061034532
1012.6238708496	0.0065555209
1014.5526782227	0.0069906302
1016.4814855957	0.0072125066
1018.4102929688	0.0074337311
1020.3391003418	0.0078745466
1022.2679077148	0.0082913358
1024.1967150879	0.0084811607
1026.1255224609	0.0089554302
1028.0543298340	0.0092077209
1029.9831372070	0.0092998985
1031.9119445801	0.0096458476
1033.8407519531	0.0098533379
1035.7695593262	0.0099555161
1037.6983666992	0.0100456346
1039.6271740723	0.0102593834
1041.5559814453	0.0101933330
1043.4847888184	0.0099587534
1045.4135961914	0.0099906307
1047.3424035645	0.0099105611
1049.2712109375	0.0098284483
1051.2000183105	0.0094990041
1053.1288256836	0.0092408154
1055.0576330566	0.0092819659
1056.9864404297	0.0086341649
1058.9152478027	0.0084147993
1060.8440551758	0.0087767523
1062.7728625488	0.0083209556
1064.7016699219	0.0077797417
1066.6304772949	0.0074910535
1068.5592846680	0.0073413984
1070.4880920410	0.0071632881
1072.4168994141	0.0069167516
1074.3457067871	0.0066514611
1076.2745141602	0.0059794737
1078.2033215332	0.0057152174
1080.1321289062	0.0056681149
1082.0609362793	0.0054599913
1083.9897436523	0.0053559989
1085.9185510254	0.0050930288
1087.8473583984	0.0048706704
1089.7761657715	0.0044768704
1091.7049731445	0.0042096386
1093.6337805176	0.0040218411
1095.5625878906	0.0039086943
1097.4913952637	0.0040064859
1099.4202026367	0.0037715342
1101.3490100098	0.0037780665
1103.2778173828	0.0036758739
1105.2066247559	0.0035032795
1107.1354321289	0.0034339081
1109.0642395019	0.0031149264
1110.9930468750	0.0032522751
1112.9218542480	0.0033511766
1114.8506616211	0.0033291876
1116.7794689941	0.0033350429
1118.7082763672	0.0033072401
1120.6370837402	0.0032763886
1122.5658911133	0.0032427772
1124.4946984863	0.0034845923
1126.4235058594	0.0033557429
1128.3523132324	0.0034762360
1130.2811206055	0.0036020370
1132.2099279785	0.0035124347
1134.1387353516	0.0038870312
1136.0675427246	0.0039538327
1137.9963500977	0.0042241085
1139.9251574707	0.0044014053
1141.8539648437	0.0047410326
1143.7827722168	0.0052067963
1145.7115795898	0.0049798540
1147.6403869629	0.0054533398
1149.5691943359	0.0059247427
1151.4980017090	0.0062044873
1153.4268090820	0.0065580662
1155.3556164551	0.0065837279
1157.2844238281	0.0070043458
1159.2132312012	0.0072345361
1161.1420385742	0.0073580146
1163.0708459473	0.0077152140
1164.9996533203	0.0079928488
1166.9284606934	0.0081846882
1168.8572680664	0.0085568372
1170.7860754394	0.0088789696
1172.7148828125	0.0090567023
1174.6436901855	0.0095323781
1176.5724975586	0.0099240392
1178.5013049316	0.0104462635
1180.4301123047	0.0106773879
1182.3589196777	0.0110577792
1184.2877270508	0.0117950952
1186.2165344238	0.0119269639
1188.1453417969	0.0125154909
1190.0741491699	0.0131455045
1192.0029565430	0.0137285460
1193.9317639160	0.0145126553
1195.8605712891	0.0149506181
1197.7893786621	0.0154840639
1199.7181860351	0.0161797777
1201.6469934082	0.0170780458
1203.5758007812	0.0176616609
1205.5046081543	0.0184264258
1207.4334155273	0.0191394091
1209.3622229004	0.0195648652
1211.2910302734	0.0205046758
1213.2198376465	0.0210265778
1215.1486450195	0.0214339979
1217.0774523926	0.0219005272
1219.0062597656	0.0222064443
1220.9350671387	0.0224843584
1222.8638745117	0.0226783268
1224.7926818848	0.0230627563
1226.7214892578	0.0231401883
1228.6502966308	0.0232335925
1230.5791040039	0.0234004408
1232.5079113769	0.0234250184
1234.4367187500	0.0233914331
1236.3655261230	0.0232512672
1238.2943334961	0.0234828331
1240.2231408691	0.0235743374
1242.1519482422	0.0231483132
1244.0807556152	0.0229924079
1246.0095629883	0.0231371075
1247.9383703613	0.0228293277
1249.8671777344	0.0225239396
1251.7959851074	0.0226197038
1253.7247924805	0.0224965438
1255.6535998535	0.0220901389
1257.5824072266	0.0217817239
1259.5112145996	0.0215268321
1261.4400219726	0.0210007876
1263.3688293457	0.0208628289
1265.2976367187	0.0208610930
1267.2264440918	0.0204527527
1269.1552514648	0.0202759039
1271.0840588379	0.0199595485
1273.0128662109	0.0195259452
1274.9416735840	0.0191868413
1276.8704809570	0.0187971145
1278.7992883301	0.0185158588
1280.7280957031	0.0180635117
1282.6569030762	0.0177554917
1284.5857104492	0.0175286792
1286.5145178223	0.0169914737
1288.4433251953	0.0167327374
1290.3721325683	0.0165443532
1292.3009399414	0.0163733047
1294.2297473144	0.0164339133
1296.1585546875	0.0162637345
1298.0873620605	0.0161657464
1300.0161694336	0.0160661228
1301.9449768066	0.0161667876
1303.8737841797	0.0165186338
1305.8025915527	0.0166912749
1307.7313989258	0.0169797596
1309.6602062988	0.0171385407
1311.5890136719	0.0173089672
1313.5178210449	0.0174998827
1315.4466284180	0.0181857236
1317.3754357910	0.0188237652
1319.3042431640	0.0189284589
1321.2330505371	0.0197382104
1323.1618579101	0.0201194920
1325.0906652832	0.0206029452
1327.0194726562	0.0213336945
1328.9482800293	0.0216539912
1330.8770874023	0.0225796923
1332.8058947754	0.0229711235
1334.7347021484	0.0233435407
1336.6635095215	0.0237600133
1338.5923168945	0.0235458408
1340.5211242676	0.0238397680
1342.4499316406	0.0245759785
1344.3787390137	0.0249141734
1346.3075463867	0.0247346163
1348.2363537597	0.0246481393
1350.1651611328	0.0245688092
1352.0939685058	0.0247317068
1354.0227758789	0.0244721118
1355.9515832519	0.0238746591
1357.8803906250	0.0239101928
1359.8091979980	0.0234890245
1361.7380053711	0.0227284748
1363.6668127441	0.0225954354
1365.5956201172	0.0231400579
1367.5244274902	0.0229021758
1369.4532348633	0.0226455536
1371.3820422363	0.0228905343
1373.3108496094	0.0219563767
1375.2396569824	0.0218353197
1377.1684643555	0.0223696306
1379.0972717285	0.0222571902
1381.0260791015	0.0221623257
1382.9548864746	0.0222340655
1384.8836938476	0.0223294683
1386.8125012207	0.0215561055
1388.7413085937	0.0218298472
1390.6701159668	0.0233936906
1392.5989233398	0.0227675997
1394.5277307129	0.0217540525
1396.4565380859	0.0228277259
1398.3853454590	0.0225128867
1400.3141528320	0.0226170812
1402.2429602051	0.0239951499
1404.1717675781	0.0227155127
1406.1005749512	0.0228725746
1408.0293823242	0.0235336479
1409.9581896972	0.0229500737
1411.8869970703	0.0231117345
1413.8158044433	0.0224577691
1415.7446118164	0.0228163823
1417.6734191894	0.0210677609
1419.6022265625	0.0193859451
1421.5310339355	0.0211993493
1423.4598413086	0.0206342544
1425.3886486816	0.0201675631
1427.3174560547	0.0204051826
1429.2462634277	0.0190257989
1431.1750708008	0.0183225833
1433.1038781738	0.0183875561
1435.0326855469	0.0170409419
1436.9614929199	0.0151306354
1438.8903002929	0.0163352601
1440.8191076660	0.0167174749
1442.7479150390	0.0157104321
1444.6767224121	0.0160349943
1446.6055297851	0.0152031593
1448.5343371582	0.0153980218
1450.4631445312	0.0158815887
1452.3919519043	0.0159384813
1454.3207592773	0.0164082982
1456.2495666504	0.0145023093
1458.1783740234	0.0152256265
1460.1071813965	0.0190148596
1462.0359887695	0.0199328139
1463.9647961426	0.0201462805
1465.8936035156	0.0211344399
1467.8224108886	0.0236783586
1469.7512182617	0.0252197012
1471.6800256347	0.0234912522
1473.6088330078	0.0248314124
1475.5376403808	0.0274640918
1477.4664477539	0.0294301827
1479.3952551269	0.0317828283
1481.3240625000	0.0322382003
1483.2528698730	0.0341054350
1485.1816772461	0.0353209600
1487.1104846191	0.0351620652
1489.0392919922	0.0352601185
1490.9680993652	0.0359049179
1492.8969067383	0.0402209982
1494.8257141113	0.0395094305
1496.7545214843	0.0369955003
1498.6833288574	0.0407699049
1500.6121362304	0.0417607203
1502.5409436035	0.0441420525
1504.4697509765	0.0421299040
1506.3985583496	0.0336977616
1508.3273657226	0.0393655822
1510.2561730957	0.0442463681
1512.1849804687	0.0431356579
1514.1137878418	0.0456834286
1516.0425952148	0.0425287448
1517.9714025879	0.0441100970
1519.9002099609	0.0424700677
1521.8290173340	0.0384263173
1523.7578247070	0.0446791947
1525.6866320801	0.0439837426
1527.6154394531	0.0439687297
1529.5442468261	0.0473284088
1531.4730541992	0.0460783839
1533.4018615722	0.0432864726
1535.3306689453	0.0451508462
1537.2594763183	0.0471964702
1539.1882836914	0.0368149802
1541.1170910644	0.0383491069
1543.0458984375	0.0438512303
1544.9747058105	0.0425322875
1546.9035131836	0.0480556637
1548.8323205566	0.0457525179
1550.7611279297	0.0468952172
1552.6899353027	0.0463077463
1554.6187426758	0.0434074253
1556.5475500488	0.0455167666
1558.4763574218	0.0352959335
1560.4051647949	0.0376611277
1562.3339721679	0.0484014526
1564.2627795410	0.0465311669
1566.1915869140	0.0475290120
1568.1203942871	0.0469242632
1570.0492016601	0.0432674736
1571.9780090332	0.0480007008
1573.9068164062	0.0480331406
1575.8356237793	0.0402936712
1577.7644311523	0.0444043912
1579.6932385254	0.0487357825
1581.6220458984	0.0468412414
1583.5508532715	0.0477502793
1585.4796606445	0.0472495556
1587.4084680175	0.0475299656
1589.3372753906	0.0471573249
1591.2660827636	0.0473319292
1593.1948901367	0.0473219864
1595.1236975097	0.0467734784
1597.0525048828	0.0472407714
1598.9813122558	0.0467488021
1600.9101196289	0.0471547320
1602.8389270019	0.0467014164
1604.7677343750	0.0471671522
1606.6965417480	0.0464586616
1608.6253491211	0.0465801284
1610.5541564941	0.0464903116
1612.4829638672	0.0466453098
1614.4117712402	0.0472244099
1616.3405786132	0.0403449908
1618.2693859863	0.0430612490
1620.1981933593	0.0480921865
1622.1270007324	0.0441752300
1624.0558081054	0.0446524322
1625.9846154785	0.0457276925
1627.9134228515	0.0458330810
1629.8422302246	0.0453971475
1631.7710375976	0.0476706550
1633.6998449707	0.0449021272
1635.6286523437	0.0390363932
1637.5574597168	0.0439753383
1639.4862670898	0.0468830168
1641.4150744629	0.0460957401
1643.3438818359	0.0469524860
1645.2726892090	0.0432628691
1647.2014965820	0.0396962464
1649.1303039550	0.0467272177
1651.0591113281	0.0442991033
1652.9879187011	0.0322816670
1654.9167260742	0.0407374501
1656.8455334472	0.0477849543
1658.7743408203	0.0461103693
1660.7031481933	0.0473685004
1662.6319555664	0.0441613644
1664.5607629394	0.0459616706
1666.4895703125	0.0480410755
1668.4183776855	0.0436665677
1670.3471850586	0.0428393558
1672.2759924316	0.0469646901
1674.2047998047	0.0443217754
1676.1336071777	0.0429675356
1678.0624145507	0.0477292724
1679.9912219238	0.0462423526
1681.9200292968	0.0460534282
1683.8488366699	0.0391224474
1685.7776440429	0.0390133783
1687.7064514160	0.0495884344
1689.6352587890	0.0441072769
1691.5640661621	0.0477588773
1693.4928735351	0.0480582826
1695.4216809082	0.0380235985
1697.3504882812	0.0446737856
1699.2792956543	0.0403943658
1701.2081030273	0.0377281532
1703.1369104004	0.0471376330
1705.0657177734	0.0441034958
1706.9945251464	0.0444091856
1708.9233325195	0.0471204668
1710.8521398925	0.0457931310
1712.7809472656	0.0463576764
1714.7097546386	0.0438000783
1716.6385620117	0.0401127972
1718.5673693847	0.0397958979
1720.4961767578	0.0454261377
1722.4249841308	0.0463051461
1724.3537915039	0.0438997932
1726.2825988769	0.0464539193
1728.2114062500	0.0436709970
1730.1402136230	0.0442990959
1732.0690209961	0.0427716672
1733.9978283691	0.0352397114
1735.9266357421	0.0414234735
1737.8554431152	0.0443370417
1739.7842504882	0.0408345461
1741.7130578613	0.0437223613
1743.6418652343	0.0441872180
1745.5706726074	0.0440797657
1747.4994799804	0.0446564220
1749.4282873535	0.0433226340
1751.3570947265	0.0419151150
1753.2859020996	0.0452971235
1755.2147094726	0.0466870740
1757.1435168457	0.0437557474
1759.0723242187	0.0468252376
1761.0011315918	0.0446090661
1762.9299389648	0.0435179025
1764.8587463379	0.0480268821
1766.7875537109	0.0444540232
1768.7163610839	0.0446871370
1770.6451684570	0.0445963442
1772.5739758300	0.0412766598
1774.5027832031	0.0446523726
1776.4315905761	0.0466132984
1778.3603979492	0.0459975302
1780.2892053222	0.0455404073
1782.2180126953	0.0459123403
1784.1468200683	0.0458027273
1786.0756274414	0.0449982956
1788.0044348144	0.0468273088
1789.9332421875	0.0458134152
1791.8620495605	0.0425379053
1793.7908569336	0.0440922529
1795.7196643066	0.0463115647
1797.6484716796	0.0458922610
1799.5772790527	0.0453233793
1801.5060864257	0.0446971133
1803.4348937988	0.0457780249
1805.3637011718	0.0462661721
1807.2925085449	0.0458578616
1809.2213159179	0.0461502671
1811.1501232910	0.0454021171
1813.0789306640	0.0463537201
1815.0077380371	0.0463303551
1816.9365454101	0.0461742282
1818.8653527832	0.0464055985
1820.7941601562	0.0460475422
1822.7229675293	0.0465392917
1824.6517749023	0.0443540886
1826.5805822753	0.0455566868
1828.5093896484	0.0455607995
1830.4381970214	0.0435943156
1832.3670043945	0.0461993031
1834.2958117675	0.0458905920
1836.2246191406	0.0459597483
1838.1534265136	0.0456904359
1840.0822338867	0.0459883064
1842.0110412597	0.0459208600
1843.9398486328	0.0421307981
1845.8686560058	0.0443675406
1847.7974633789	0.0458292142
1849.7262707519	0.0451084599
1851.6550781250	0.0462037101
1853.5838854980	0.0454120785
1855.5126928710	0.0456948131
1857.4415002441	0.0453859568
1859.3703076171	0.0452512689
1861.2991149902	0.0453397445
1863.2279223632	0.0449652746
1865.1567297363	0.0454134047
1867.0855371093	0.0440848693
1869.0143444824	0.0429784730
1870.9431518554	0.0441843644
1872.8719592285	0.0451069251
1874.8007666015	0.0446387380
1876.7295739746	0.0448310897
1878.6583813476	0.0447981507
1880.5871887207	0.0445712507
1882.5159960937	0.0447251275
1884.4448034667	0.0441815071
1886.3736108398	0.0445567369
1888.3024182128	0.0438918993
1890.2312255859	0.0434658788
1892.1600329589	0.0445258543
1894.0888403320	0.0438302234
1896.0176477050	0.0436690301
1897.9464550781	0.0439688936
1899.8752624511	0.0438526422
1901.8040698242	0.0438953117
1903.7328771972	0.0436183289
1905.6616845703	0.0439396761
1907.5904919433	0.0435039997
1909.5192993164	0.0432517454
1911.4481066894	0.0434788577
1913.3769140625	0.0433722436
1915.3057214355	0.0436360426
1917.2345288085	0.0423236042
1919.1633361816	0.0423628986
1921.0921435546	0.0433021300
1923.0209509277	0.0423997641
1924.9497583007	0.0430298522
1926.8785656738	0.0432946607
1928.8073730468	0.0431477502
1930.7361804199	0.0433568805
1932.6649877929	0.0428443514
1934.5937951660	0.0431105904
1936.5226025390	0.0427707732
1938.4514099121	0.0428904891
1940.3802172851	0.0428515300
1942.3090246582	0.0418432802
1944.2378320312	0.0424094945
1946.1666394042	0.0428537354
1948.0954467773	0.0426006541
1950.0242541503	0.0425630994
1951.9530615234	0.0425919667
1953.8818688964	0.0425330624
1955.8106762695	0.0424213037
1957.7394836425	0.0425524488
1959.6682910156	0.0425165296
1961.5970983886	0.0425067618
1963.5259057617	0.0425332747
1965.4547131347	0.0422018878
1967.3835205078	0.0419288054
1969.3123278808	0.0422994792
1971.2411352539	0.0423157178
1973.1699426269	0.0420786031
1975.0987499999	0.0423364043
1977.0275573730	0.0421550348
1978.9563647460	0.0419968292
1980.8851721191	0.0419225842
1982.8139794921	0.0420183614
1984.7427868652	0.0420475006
1986.6715942382	0.0416082256
1988.6004016113	0.0417497978
1990.5292089843	0.0413588360
1992.4580163574	0.0410046838
1994.3868237304	0.0415556841
1996.3156311035	0.0414313935
1998.2444384765	0.0411725156
2000.1732458496	0.0413003638
2002.1020532226	0.0413741395
2004.0308605956	0.0411834717
2005.9596679687	0.0409779325
2007.8884753417	0.0409708880
2009.8172827148	0.0408178121
2011.7460900878	0.0407626741
2013.6748974609	0.0407091156
2015.6037048339	0.0404894836
2017.5325122070	0.0402699076
2019.4613195800	0.0402695984
2021.3901269531	0.0403204337
2023.3189343261	0.0400862545
2025.2477416992	0.0400758423
2027.1765490722	0.0399164855
2029.1053564453	0.0397692770
2031.0341638183	0.0399845317
2032.9629711914	0.0397550277
2034.8917785644	0.0397084430
2036.8205859374	0.0397055224
2038.7493933105	0.0393958837
2040.6782006835	0.0393048823
2042.6070080566	0.0391527824
2044.5358154296	0.0391616151
2046.4646228027	0.0391478948
2048.3934301757	0.0390916318
2050.3222375488	0.0390768647
2052.2510449218	0.0388211347
2054.1798522949	0.0388287529
2056.1086596679	0.0388478041
2058.0374670410	0.0387030169
2059.9662744140	0.0385537148
2061.8950817871	0.0383868739
2063.8238891601	0.0384133458
2065.7526965331	0.0382594727
2067.6815039062	0.0381979942
2069.6103112792	0.0382489525
2071.5391186523	0.0380350202
2073.4679260253	0.0380969420
2075.3967333984	0.0379545093
2077.3255407714	0.0377171189
2079.2543481445	0.0377999321
2081.1831555175	0.0376419425
2083.1119628906	0.0376886167
2085.0407702636	0.0376411155
2086.9695776367	0.0374786481
2088.8983850097	0.0374392122
2090.8271923828	0.0372574329
2092.7559997558	0.0374073461
2094.6848071288	0.0372029990
2096.6136145019	0.0370407477
2098.5424218749	0.0372749567
2100.4712292480	0.0370749645
2102.4000366210	0.0369571075
2104.3288439941	0.0367700793
2106.2576513671	0.0366651639
2108.1864587402	0.0367615819
2110.1152661132	0.0365268439
2112.0440734863	0.0364758074
2113.9728808593	0.0365255661
2115.9016882324	0.0363722853
2117.8304956054	0.0364616439
2119.7593029785	0.0365108103
2121.6881103515	0.0362656899
2123.6169177245	0.0362592563
2125.5457250976	0.0362238064
2127.4745324706	0.0360962823
2129.4033398437	0.0360337347
2131.3321472167	0.0358223021
2133.2609545898	0.0358636528
2135.1897619628	0.0359278470
2137.1185693359	0.0358513296
2139.0473767089	0.0358812511
2140.9761840820	0.0357308798
2142.9049914550	0.0356146246
2144.8337988281	0.0356837511
2146.7626062011	0.0356084928
2148.6914135742	0.0355475880
2150.6202209472	0.0354836844
2152.5490283203	0.0353986584
2154.4778356933	0.0354078487
2156.4066430663	0.0352813378
2158.3354504394	0.0353440344
2160.2642578124	0.0353703387
2162.1930651855	0.0352281183
2164.1218725585	0.0352304690
2166.0506799316	0.0351140797
2167.9794873046	0.0350719541
2169.9082946777	0.0350090899
2171.8371020507	0.0349045098
2173.7659094238	0.0348747894
2175.6947167968	0.0349020809
2177.6235241699	0.0348418206
2179.5523315429	0.0347736701
2181.4811389160	0.0348679647
2183.4099462890	0.0346720144
2185.3387536620	0.0346721038
2187.2675610351	0.0346432179
2189.1963684081	0.0345769525
2191.1251757812	0.0346341990
2193.0539831542	0.0344254188
2194.9827905273	0.0345506482
2196.9115979003	0.0343377665
2198.8404052734	0.0342340395
2200.7692126464	0.0344270654
2202.6980200195	0.0342312083
2204.6268273925	0.0342096016
2206.5556347656	0.0340785086
2208.4844421386	0.0341054946
2210.4132495117	0.0340969414
2212.3420568847	0.0339828730
2214.2708642577	0.0339713544
2216.1996716308	0.0338308550
2218.1284790038	0.0338460505
2220.0572863769	0.0337554850
2221.9860937499	0.0337683409
2223.9149011230	0.0337794647
2225.8437084960	0.0336991102
2227.7725158691	0.0337012038
2229.7013232421	0.0335967243
2231.6301306152	0.0335388854
2233.5589379882	0.0334303938
2235.4877453613	0.0333622396
2237.4165527343	0.0334044769
2239.3453601074	0.0333311893
2241.2741674804	0.0331850871
2243.2029748534	0.0331909843
2245.1317822265	0.0331456736
2247.0605895995	0.0331160538
2248.9893969726	0.0330241844
2250.9182043456	0.0328989439
2252.8470117187	0.0329876877
2254.7758190917	0.0327494591
2256.7046264648	0.0327549949
2258.6334338378	0.0328072794
2260.5622412109	0.0327472016
2262.4910485839	0.0328005478
2264.4198559570	0.0324888229
2266.3486633300	0.0326296389
2268.2774707031	0.0325744376
2270.2062780761	0.0324009806
2272.1350854491	0.0325402915
2274.0638928222	0.0323100314
2275.9927001952	0.0323053524
2277.9215075683	0.0323304310
2279.8503149413	0.0323254541
2281.7791223144	0.0322541222
2283.7079296874	0.0321559161
2285.6367370605	0.0321858376
2287.5655444335	0.0320879519
2289.4943518066	0.0319907218
2291.4231591796	0.0318019539
2293.3519665527	0.0318555199
2295.2807739257	0.0318203345
2297.2095812988	0.0316101983
2299.1383886718	0.0316029303
2301.0671960449	0.0314756297
2302.9960034179	0.0312919542
2304.9248107909	0.0311345663
2306.8536181640	0.0309867188
2308.7824255370	0.0306172725
2310.7112329101	0.0303782597
2312.6400402831	0.0303349718
2314.5688476562	0.0300785825
2316.4976550292	0.0298915543
2318.4264624023	0.0294868872
2320.3552697753	0.0291102864
2322.2840771484	0.0289486852
2324.2128845214	0.0285270158
2326.1416918945	0.0282665268
2328.0704992675	0.0279684849
2329.9993066406	0.0276067741
2331.9281140136	0.0276087783
2333.8569213866	0.0273828506
2335.7857287597	0.0272492394
2337.7145361327	0.0273605809
2339.6433435058	0.0272693839
2341.5721508788	0.0274454225
2343.5009582519	0.0277626794
2345.4297656249	0.0281299613
2347.3585729980	0.0289822556
2349.2873803710	0.0296649858
2351.2161877441	0.0288383253
2353.1449951171	0.0275240503
2355.0738024902	0.0269664079
2357.0026098632	0.0262258295
2358.9314172363	0.0257055983
2360.8602246093	0.0255669914
2362.7890319823	0.0254712123
2364.7178393554	0.0256996006
2366.6466467284	0.0259418804
2368.5754541015	0.0262717009
2370.5042614745	0.0267221890
2372.4330688476	0.0273773726
2374.3618762206	0.0280051157
2376.2906835937	0.0285064168
2378.2194909667	0.0289278813
2380.1482983398	0.0292275362
2382.0771057128	0.0296168216
2384.0059130859	0.0297371857
2385.9347204589	0.0297355615
2387.8635278320	0.0297146868
2389.7923352050	0.0298015978
2391.7211425780	0.0297891796
2393.6499499511	0.0295828544
2395.5787573241	0.0297288988
2397.5075646972	0.0296786427
2399.4363720702	0.0295957029
2401.3651794433	0.0296118148
2403.2939868163	0.0295634288
2405.2227941894	0.0294954814
2407.1516015624	0.0293832123
2409.0804089355	0.0295044892
2411.0092163085	0.0292880256
2412.9380236816	0.0291591249
2414.8668310546	0.0292961840
2416.7956384277	0.0291970670
2418.7244458007	0.0292202123
2420.6532531738	0.0291527528
2422.5820605468	0.0290967710
2424.5108679198	0.0291072968
2426.4396752929	0.0289695635
2428.3684826659	0.0288408976
2430.2972900390	0.0287414081
2432.2260974120	0.0287824348
2434.1549047851	0.0288522542
2436.0837121581	0.0287534110
2438.0125195312	0.0287338123
2439.9413269042	0.0287236143
2441.8701342773	0.0286293849
2443.7989416503	0.0287014768
2445.7277490234	0.0286123194
2447.6565563964	0.0284816250
2449.5853637695	0.0285647307
2451.5141711425	0.0285365395
2453.4429785155	0.0284839161
2455.3717858886	0.0284599531
2457.3005932616	0.0283207800
2459.2294006347	0.0282685384
2461.1582080077	0.0283736140
2463.0870153808	0.0282232836
2465.0158227538	0.0281758960
2466.9446301269	0.0282363463
2468.8734374999	0.0280772075
2470.8022448730	0.0280967094
2472.7310522460	0.0280298106
2474.6598596191	0.0280515831
2476.5886669921	0.0280626155
2478.5174743652	0.0279091932
2480.4462817382	0.0279217251
2482.3750891112	0.0278080199
2484.3038964843	0.0278224424
2486.2327038573	0.0277879052
2488.1615112304	0.0276570190
2490.0903186034	0.0276464857
2492.0191259765	0.0275350027
2493.9479333495	0.0275142137
2495.8767407226	0.0275229570
2497.8055480956	0.0274971053
2499.7343554687	0.0274695195
2501.6631628417	0.0274145119
2503.5919702148	0.0273706838
2505.5207775878	0.0274445266
2507.4495849609	0.0273776390
2509.3783923339	0.0272752531
2511.3071997069	0.0273317508
2513.2360070800	0.0271527693
2515.1648144530	0.0272220150
2517.0936218261	0.0272230953
2519.0224291991	0.0270121563
2520.9512365722	0.0271129142
2522.8800439452	0.0269574001
2524.8088513183	0.0268517863
2526.7376586913	0.0270030014
2528.6664660644	0.0269719344
2530.5952734374	0.0268168431
2532.5240808105	0.0268256273
2534.4528881835	0.0268639829
2536.3816955566	0.0268019140
2538.3105029296	0.0268268846
2540.2393103027	0.0266595874
2542.1681176757	0.0265929438
2544.0969250487	0.0266146101
2546.0257324218	0.0265169889
2547.9545397948	0.0265598632
2549.8833471679	0.0265426561
2551.8121545409	0.0265239030
2553.7409619140	0.0264559127
2555.6697692870	0.0262648650
2557.5985766601	0.0261837281
2559.5273840331	0.0263911299
2561.4561914062	0.0263673142
2563.3849987792	0.0261127148
2565.3138061523	0.0262166932
2567.2426135253	0.0261473320
2569.1714208984	0.0260699242
2571.1002282714	0.0260990970
2573.0290356444	0.0261041224
2574.9578430175	0.0261641257
2576.8866503905	0.0259280801
2578.8154577636	0.0258577988
2580.7442651366	0.0258637518
2582.6730725097	0.0258328877
2584.6018798827	0.0258817747
2586.5306872558	0.0257597305
2588.4594946288	0.0257331375
2590.3883020019	0.0257508755
2592.3171093749	0.0256602541
2594.2459167480	0.0255741514
2596.1747241210	0.0256178193
2598.1035314941	0.0254896823
2600.0323388671	0.0253209639
2601.9611462401	0.0254763328
2603.8899536132	0.0254954137
2605.8187609862	0.0253664441
2607.7475683593	0.0254113451
2609.6763757323	0.0254589468
2611.6051831054	0.0252483748
2613.5339904784	0.0252337530
2615.4627978515	0.0252562314
2617.3916052245	0.0251442473
2619.3204125976	0.0252863690
2621.2492199706	0.0251621809
2623.1780273437	0.0250736680
2625.1068347167	0.0249695294
2627.0356420898	0.0248514935
2628.9644494628	0.0250602551
2630.8932568358	0.0249247495
2632.8220642089	0.0248574391
2634.7508715819	0.0248059072
2636.6796789550	0.0246317647
2638.6084863280	0.0246818587
2640.5372937011	0.0247331783
2642.4661010741	0.0246927291
2644.3949084472	0.0245708600
2646.3237158202	0.0246770494
2648.2525231933	0.0246261805
2650.1813305663	0.0244731158
2652.1101379394	0.0244886409
2654.0389453124	0.0244674422
2655.9677526855	0.0245534759
2657.8965600585	0.0244420581
2659.8253674315	0.0243257489
2661.7541748046	0.0243384968
2663.6829821776	0.0243014209
2665.6117895507	0.0242134221
2667.5405969237	0.0241460931
2669.4694042968	0.0242094249
2671.3982116698	0.0241194516
2673.3270190429	0.0240788348
2675.2558264159	0.0240519531
2677.1846337890	0.0239659846
2679.1134411620	0.0240143687
2681.0422485351	0.0239735208
2682.9710559081	0.0239187088
2684.8998632812	0.0239646006
2686.8286706542	0.0239525791
2688.7574780273	0.0237177536
2690.6862854003	0.0236358456
2692.6150927733	0.0237527415
2694.5439001464	0.0237009730
2696.4727075194	0.0237176307
2698.4015148925	0.0236945581
2700.3303222655	0.0235679485
2702.2591296386	0.0235138685
2704.1879370116	0.0234245136
2706.1167443847	0.0234571956
2708.0455517577	0.0234992728
2709.9743591308	0.0234389771
2711.9031665038	0.0234144181
2713.8319738769	0.0232020579
2715.7607812499	0.0231466182
2717.6895886230	0.0232912246
2719.6183959960	0.0231975168
2721.5472033690	0.0231723581
2723.4760107421	0.0231301188
2725.4048181151	0.0230467133
2727.3336254882	0.0230625495
2729.2624328612	0.0230277330
2731.1912402343	0.0229736827
2733.1200476073	0.0230097938
2735.0488549804	0.0230523050
2736.9776623534	0.0227864217
2738.9064697265	0.0227926448
2740.8352770995	0.0229570940
2742.7640844726	0.0227519311
2744.6928918456	0.0227715038
2746.6216992187	0.0227692500
2748.5505065917	0.0226053391
2750.4793139647	0.0225414187
2752.4081213378	0.0225287452
2754.3369287108	0.0225736052
2756.2657360839	0.0224976577
2758.1945434569	0.0224317685
2760.1233508300	0.0223804303
2762.0521582030	0.0223045759
2763.9809655761	0.0223568343
2765.9097729491	0.0223711021
2767.8385803222	0.0222633779
2769.7673876952	0.0221962854
2771.6961950683	0.0222251154
2773.6250024413	0.0221737735
2775.5538098144	0.0220431890
2777.4826171874	0.0221280977
2779.4114245604	0.0221168101
2781.3402319335	0.0219113026
2783.2690393065	0.0220057853
2785.1978466796	0.0220357329
2787.1266540526	0.0219486523
2789.0554614257	0.0219455715
2790.9842687987	0.0218341183
2792.9130761718	0.0217688922
2794.8418835448	0.0217213724
2796.7706909179	0.0216103513
2798.6994982909	0.0215618834
2800.6283056640	0.0216747243
2802.5571130370	0.0215663426
2804.4859204101	0.0214717425
2806.4147277831	0.0215849914
2808.3435351562	0.0214463361
2810.2723425292	0.0214426555
2812.2011499022	0.0213813595
2814.1299572753	0.0212824550
2816.0587646483	0.0213086531
2817.9875720214	0.0211937577
2819.9163793944	0.0211308692
2821.8451867675	0.0210040621
2823.7739941405	0.0210351944
2825.7028015136	0.0210656598
2827.6316088866	0.0209938344
2829.5604162597	0.0209714063
2831.4892236327	0.0209059417
2833.4180310058	0.0208498128
2835.3468383788	0.0207263753
2837.2756457519	0.0208050497
2839.2044531249	0.0207646638
2841.1332604979	0.0206745937
2843.0620678710	0.0206415728
2844.9908752440	0.0203600526
2846.9196826171	0.0203261487
2848.8484899901	0.0203390624
2850.7772973632	0.0202681422
2852.7061047362	0.0202422645
2854.6349121093	0.0201617926
2856.5637194823	0.0201054998
2858.4925268554	0.0200510919
2860.4213342284	0.0200844295
2862.3501416015	0.0201147031
2864.2789489745	0.0200342387
2866.2077563476	0.0199982934
2868.1365637206	0.0199789144
2870.0653710936	0.0198673233
2871.9941784667	0.0199135114
2873.9229858397	0.0199356899
2875.8517932128	0.0199058298
2877.7806005858	0.0198991150
2879.7094079589	0.0197248515
2881.6382153319	0.0197423641
2883.5670227050	0.0196944177
2885.4958300780	0.0196569227
2887.4246374511	0.0197752863
2889.3534448241	0.0196249560
2891.2822521972	0.0195198506
2893.2110595702	0.0195518583
2895.1398669433	0.0194894392
2897.0686743163	0.0193725862
2898.9974816893	0.0193625260
2900.9262890624	0.0192706957
2902.8550964354	0.0192094184
2904.7839038085	0.0192341842
2906.7127111815	0.0191607624
2908.6415185546	0.0191034526
2910.5703259276	0.0188900270
2912.4991333007	0.0188360363
2914.4279406737	0.0187966190
2916.3567480468	0.0186682940
2918.2855554198	0.0186984427
2920.2143627929	0.0186296869
2922.1431701659	0.0186184030
2924.0719775390	0.0185417645
2926.0007849120	0.0184860956
2927.9295922851	0.0185602494
2929.8583996581	0.0186412912
2931.7872070311	0.0186304897
2933.7160144042	0.0185093768
2935.6448217772	0.0185250379
2937.5736291503	0.0184601434
2939.5024365233	0.0184409376
2941.4312438964	0.0185054708
2943.3600512694	0.0184871666
2945.2888586425	0.0184044745
2947.2176660155	0.0183290914
2949.1464733886	0.0183538124
2951.0752807616	0.0182893500
2953.0040881347	0.0182967298
2954.9328955077	0.0182278715
2956.8617028808	0.0180658139
2958.7905102538	0.0181660596
2960.7193176268	0.0182185806
2962.6481249999	0.0179870836
2964.5769323729	0.0179186929
2966.5057397460	0.0180109348
2968.4345471190	0.0179064125
2970.3633544921	0.0179365296
2972.2921618651	0.0179599617
2974.2209692382	0.0179789849
2976.1497766112	0.0180557035
2978.0785839843	0.0179920066
2980.0073913573	0.0179822780
2981.9361987304	0.0179065913
2983.8650061034	0.0180225354
2985.7938134765	0.0180387218
2987.7226208495	0.0178962518
2989.6514282225	0.0179930031
2991.5802355956	0.0178452805
2993.5090429686	0.0177329313
2995.4378503417	0.0178343952
2997.3666577147	0.0178586245
2999.2954650878	0.0178349633
3001.2242724608	0.0177724101
3003.1530798339	0.0176863857
3005.0818872069	0.0176459998
3007.0106945800	0.0177110545
3008.9395019530	0.0176236220
3010.8683093261	0.0174873061
3012.7971166991	0.0175280944
3014.7259240722	0.0175024830
3016.6547314452	0.0174345300
3018.5835388182	0.0174591877
3020.5123461913	0.0174179971
3022.4411535643	0.0173487961
3024.3699609374	0.0173651166
3026.2987683104	0.0173919555
3028.2275756835	0.0172426105
3030.1563830565	0.0170412567
3032.0851904296	0.0171099082
3034.0139978026	0.0171432290
3035.9428051757	0.0171257574
3037.8716125487	0.0171223544
3039.8004199218	0.0169857442
3041.7292272948	0.0169107355
3043.6580346679	0.0169565976
3045.5868420409	0.0170146078
3047.5156494139	0.0168455206
3049.4444567870	0.0167875215
3051.3732641600	0.0168555044
3053.3020715331	0.0168212615
3055.2308789061	0.0167586375
3057.1596862792	0.0166391581
3059.0884936522	0.0167618338
3061.0173010253	0.0167468768
3062.9461083983	0.0166286323
3064.8749157714	0.0165335443
3066.8037231444	0.0164768323
3068.7325305175	0.0165905878
3070.6613378905	0.0163919181
3072.5901452636	0.0164397433
3074.5189526366	0.0165216103
3076.4477600097	0.0163768753
3078.3765673827	0.0163835920
3080.3053747557	0.0162351355
3082.2341821288	0.0162559040
3084.1629895018	0.0162380338
3086.0917968749	0.0161333978
3088.0206042479	0.0162278004
3089.9494116210	0.0162306018
3091.8782189940	0.0161749758
3093.8070263671	0.0161490403
3095.7358337401	0.0160795525
3097.6646411132	0.0160357617
3099.5934484862	0.0160090663
3101.5222558593	0.0158411451
3103.4510632323	0.0158465859
3105.3798706054	0.0158680174
3107.3086779784	0.0158246607
3109.2374853514	0.0158342011
3111.1662927245	0.0157370754
3113.0951000975	0.0158408415
3115.0239074706	0.0157130063
3116.9527148436	0.0155605199
3118.8815222167	0.0156493038
3120.8103295897	0.0154890958
3122.7391369628	0.0154466219
3124.6679443358	0.0154670905
3126.5967517089	0.0154680945
3128.5255590819	0.0153663587
3130.4543664550	0.0152556803
3132.3831738280	0.0153545290
3134.3119812011	0.0152574349
3136.2407885741	0.0152529422
3138.1695959471	0.0152387042
3140.0984033202	0.0150274113
3142.0272106932	0.0150786759
3143.9560180663	0.0151554402
3145.8848254393	0.0150460135
3147.8136328124	0.0148971230
3149.7424401854	0.0148906633
3151.6712475585	0.0149234720
3153.6000549315	0.0148987006
3155.5288623046	0.0149651319
3157.4576696776	0.0148687828
3159.3864770507	0.0147435088
3161.3152844237	0.0147257308
3163.2440917968	0.0146294590
3165.1728991698	0.0145859942
3167.1017065428	0.0145320036
3169.0305139159	0.0145162363
3170.9593212889	0.0145210382
3172.8881286620	0.0144655369
3174.8169360350	0.0144196851
3176.7457434081	0.0143960156
3178.6745507811	0.0144140376
3180.6033581542	0.0143039078
3182.5321655272	0.0142434873
3184.4609729003	0.0142529057
3186.3897802733	0.0142489523
3188.3185876464	0.0142832519
3190.2473950194	0.0141076231
3192.1762023925	0.0140765412
3194.1050097655	0.0141451433
3196.0338171386	0.0139572676
3197.9626245116	0.0139236059
3199.8914318846	0.0138984295
3201.8202392577	0.0138336774
3203.7490466307	0.0139789199
3205.6778540038	0.0139174974
3207.6066613768	0.0137600657
3209.5354687499	0.0136902472
3211.4642761229	0.0136774927
3213.3930834960	0.0137867825
3215.3218908690	0.0137017462
3217.2506982421	0.0136755276
3219.1795056151	0.0136727812
3221.1083129882	0.0135875698
3223.0371203612	0.0136266369
3224.9659277343	0.0135576529
3226.8947351073	0.0135593042
3228.8235424803	0.0134980939
3230.7523498534	0.0134352278
3232.6811572264	0.0134604834
3234.6099645995	0.0134157138
3236.5387719725	0.0134921353
3238.4675793456	0.0134503748
3240.3963867186	0.0133971255
3242.3251940917	0.0133754006
3244.2540014647	0.0133666284
3246.1828088378	0.0133786211
3248.1116162108	0.0132781165
3250.0404235839	0.0132878330
3251.9692309569	0.0132403942
3253.8980383300	0.0131308660
3255.8268457030	0.0131521709
3257.7556530760	0.0132179707
3259.6844604491	0.0132243894
3261.6132678221	0.0131623093
3263.5420751952	0.0130365705
3265.4708825682	0.0130614117
3267.3996899413	0.0131512303
3269.3284973143	0.0130579919
3271.2573046874	0.0131056905
3273.1861120604	0.0130701996
3275.1149194335	0.0130307674
3277.0437268065	0.0130304173
3278.9725341796	0.0129468488
3280.9013415526	0.0130612906
3282.8301489257	0.0129796322
3284.7589562987	0.0128807798
3286.6877636717	0.0129060615
3288.6165710448	0.0128995096
3290.5453784178	0.0128377154
3292.4741857909	0.0127870841
3294.4029931639	0.0128602991
3296.3318005370	0.0127846785
3298.2606079100	0.0127383135
3300.1894152831	0.0127940737
3302.1182226561	0.0128829479
3304.0470300292	0.0127248764
3305.9758374022	0.0126723573
3307.9046447753	0.0127577651
3309.8334521483	0.0125477966
3311.7622595214	0.0127158817
3313.6910668944	0.0127044488
3315.6198742675	0.0125742787
3317.5486816405	0.0126094148
3319.4774890135	0.0125492048
3321.4062963866	0.0126805864
3323.3351037596	0.0124872103
3325.2639111327	0.0124878557
3327.1927185057	0.0125891212
3329.1215258788	0.0124153625
3331.0503332518	0.0124557465
3332.9791406249	0.0124933086
3334.9079479979	0.0124711059
3336.8367553710	0.0123705287
3338.7655627440	0.0124124344
3340.6943701171	0.0123919901
3342.6231774901	0.0123086162
3344.5519848632	0.0123611605
3346.4807922362	0.0122323930
3348.4095996092	0.0122206621
3350.3384069823	0.0122715337
3352.2672143553	0.0122073870
3354.1960217284	0.0121359285
3356.1248291014	0.0121386573
3358.0536364745	0.0121929087
3359.9824438475	0.0120585859
3361.9112512206	0.0120018367
3363.8400585936	0.0120908991
3365.7688659667	0.0120191220
3367.6976733397	0.0119871106
3369.6264807128	0.0119835213
3371.5552880858	0.0119283590
3373.4840954589	0.0119615123
3375.4129028319	0.0119243972
3377.3417102049	0.0119469743
3379.2705175780	0.0119139757
3381.1993249510	0.0118317846
3383.1281323241	0.0118555417
3385.0569396971	0.0117398836
3386.9857470702	0.0117121842
3388.9145544432	0.0117249470
3390.8433618163	0.0117376707
3392.7721691893	0.0116916131
3394.7009765624	0.0115944650
3396.6297839354	0.0116304643
3398.5585913085	0.0115879606
3400.4873986815	0.0115855271
3402.4162060546	0.0115576144
3404.3450134276	0.0115637649
3406.2738208006	0.0115083214
3408.2026281737	0.0114400815
3410.1314355467	0.0115901949
3412.0602429198	0.0114839543
3413.9890502928	0.0113959555
3415.9178576659	0.0114497244
3417.8466650389	0.0114283785
3419.7754724120	0.0114561487
3421.7042797850	0.0113748359
3423.6330871581	0.0112749673
3425.5618945311	0.0113518331
3427.4907019042	0.0113574481
3429.4195092772	0.0112196282
3431.3483166503	0.0112234820
3433.2771240233	0.0112463310
3435.2059313963	0.0111974431
3437.1347387694	0.0111165568
3439.0635461424	0.0111300778
3440.9923535155	0.0111284871
3442.9211608885	0.0110548381
3444.8499682616	0.0110792452
3446.7787756346	0.0109336488
3448.7075830077	0.0109701827
3450.6363903807	0.0110191554
3452.5651977538	0.0108998157
3454.4940051268	0.0109762158
3456.4228124999	0.0109796170
3458.3516198729	0.0109994663
3460.2804272460	0.0109124556
3462.2092346190	0.0108767711
3464.1380419921	0.0108761042
3466.0668493651	0.0107619204
3467.9956567381	0.0108931689
3469.9244641112	0.0108786412
3471.8532714842	0.0107979821
3473.7820788573	0.0107311495
3475.7108862303	0.0106760524
3477.6396936034	0.0109007852
3479.5685009764	0.0108384443
3481.4973083495	0.0107080806
3483.4261157225	0.0108527346
3485.3549230956	0.0107357111
3487.2837304686	0.0106615648
3489.2125378417	0.0107110087
3491.1413452147	0.0107047558
3493.0701525878	0.0107302452
3494.9989599608	0.0105585195
3496.9277673338	0.0105895922
3498.8565747069	0.0107109509
3500.7853820799	0.0106529230
3502.7141894530	0.0105349030
3504.6429968260	0.0104894126
3506.5718041991	0.0106832767
3508.5006115721	0.0106395278
3510.4294189452	0.0106327161
3512.3582263182	0.0106326435
3514.2870336913	0.0105816051
3516.2158410643	0.0106122382
3518.1446484374	0.0104803555
3520.0734558104	0.0105894860
3522.0022631835	0.0104977973
3523.9310705565	0.0104314722
3525.8598779295	0.0104801133
3527.7886853026	0.0103155738
3529.7174926756	0.0104705468
3531.6463000487	0.0105303712
3533.5751074217	0.0104901157
3535.5039147948	0.0104842773
3537.4327221678	0.0104371328
3539.3615295409	0.0104467077
3541.2903369139	0.0104535101
3543.2191442870	0.0104589649
3545.1479516600	0.0102567021
3547.0767590331	0.0101637924
3549.0055664061	0.0104551557
3550.9343737792	0.0105177574
3552.8631811522	0.0102551933
3554.7919885252	0.0103614554
3556.7207958983	0.0104424395
3558.6496032713	0.0103956126
3560.5784106444	0.0103882113
3562.5072180174	0.0102372710
3564.4360253905	0.0102876537
3566.3648327635	0.0098969582
3568.2936401366	0.0096896933
3570.2224475096	0.0102573521
3572.1512548827	0.0103685558
3574.0800622557	0.0102330921
3576.0088696288	0.0103146248
3577.9376770018	0.0103833247
3579.8664843749	0.0103654210
3581.7952917479	0.0102686193
3583.7240991210	0.0102852816
3585.6529064940	0.0101184770
3587.5817138670	0.0095136315
3589.5105212401	0.0096787540
3591.4393286131	0.0102997273
3593.3681359862	0.0101443101
3595.2969433592	0.0100447014
3597.2257507323	0.0101334918
3599.1545581053	0.0101717021
3601.0833654784	0.0101906117
3603.0121728514	0.0101947151
3604.9409802245	0.0102492645
3606.8697875975	0.0099694720
3608.7985949706	0.0095455963
3610.7274023436	0.0097595118
3612.6562097167	0.0099472711
3614.5850170897	0.0096493047
3616.5138244627	0.0100396927
3618.4426318358	0.0095984787
3620.3714392088	0.0093820095
3622.3002465819	0.0101590203
3624.2290539549	0.0099897981
3626.1578613280	0.0103244949
3628.0866687010	0.0091598313
3630.0154760741	0.0085812807
3631.9442834471	0.0101576634
3633.8730908202	0.0099398950
3635.8018981932	0.0099844439
3637.7307055663	0.0101292636
3639.6595129393	0.0100291502
3641.5883203124	0.0101677235
3643.5171276854	0.0100438483
3645.4459350584	0.0100912619
3647.3747424315	0.0093450062
3649.3035498045	0.0086953100
3651.2323571776	0.0088034477
3653.1611645506	0.0099975225
3655.0899719237	0.0098408666
3657.0187792967	0.0092085926
3658.9475866698	0.0101347789
3660.8763940428	0.0098977685
3662.8052014159	0.0100842649
3664.7340087889	0.0099714398
3666.6628161620	0.0099549741
3668.5916235350	0.0097312490
3670.5204309081	0.0083988840
3672.4492382811	0.0096978489
3674.3780456541	0.0092727803
3676.3068530272	0.0081356671
3678.2356604002	0.0095898993
3680.1644677733	0.0097711328
3682.0932751463	0.0097263884
3684.0220825194	0.0099155810
3685.9508898924	0.0098402370
3687.8796972655	0.0090489183
3689.8085046385	0.0085170977
3691.7373120116	0.0093238112
3693.6661193846	0.0095944516
3695.5949267577	0.0097942622
3697.5237341307	0.0096782912
3699.4525415038	0.0095841121
3701.3813488768	0.0094243269
3703.3101562499	0.0092539825
3705.2389636229	0.0098657291
3707.1677709959	0.0095135132
3709.0965783690	0.0093265073
3711.0253857420	0.0087515954
3712.9541931151	0.0084378701
3714.8830004881	0.0095326360
3716.8118078612	0.0093772765
3718.7406152342	0.0094139278
3720.6694226073	0.0092530288
3722.5982299803	0.0090911584
3724.5270373534	0.0093359146
3726.4558447264	0.0088081323
3728.3846520995	0.0092983060
3730.3134594725	0.0091262162
3732.2422668456	0.0086548757
3734.1710742186	0.0086211441
3736.0998815916	0.0082263555
3738.0286889647	0.0084696859
3739.9574963377	0.0090677887
3741.8863037108	0.0093458854
3743.8151110838	0.0076487605
3745.7439184569	0.0074893539
3747.6727258299	0.0090145618
3749.6015332030	0.0079684528
3751.5303405760	0.0076245908
3753.4591479491	0.0084477495
3755.3879553221	0.0089186076
3757.3167626952	0.0091035813
3759.2455700682	0.0085861143
3761.1743774413	0.0088738035
3763.1031848143	0.0091246720
3765.0319921873	0.0086667156
3766.9607995604	0.0089095905
3768.8896069334	0.0087642716
3770.8184143065	0.0084031438
3772.7472216795	0.0089402134
3774.6760290526	0.0089498479
3776.6048364256	0.0089261178
3778.5336437987	0.0087688118
3780.4624511717	0.0085072163
3782.3912585448	0.0089486875
3784.3200659178	0.0088128485
3786.2488732909	0.0087428987
3788.1776806639	0.0088247908
3790.1064880370	0.0087309498
3792.0352954100	0.0087765716
3793.9641027830	0.0088653564
3795.8929101561	0.0084778201
3797.8217175291	0.0085022096
3799.7505249022	0.0086747222
3801.6793322752	0.0074073104
3803.6081396483	0.0083785728
3805.5369470213	0.0086898254
3807.4657543944	0.0075941966
3809.3945617674	0.0087336488
3811.3233691405	0.0084505761
3813.2521765135	0.0086765159
3815.1809838866	0.0080819391
3817.1097912596	0.0073981425
3819.0385986327	0.0086710369
3820.9674060057	0.0074777328
3822.8962133787	0.0077348314
3824.8250207518	0.0085269827
3826.7538281248	0.0080302190
3828.6826354979	0.0084365625
3830.6114428709	0.0081696957
3832.5402502440	0.0080795866
3834.4690576170	0.0081339432
3836.3978649901	0.0078122937
3838.3266723631	0.0072486447
3840.2554797362	0.0076803304
3842.1842871092	0.0081890095
3844.1130944823	0.0078716800
3846.0419018553	0.0083064931
3847.9707092284	0.0082360618
3849.8995166014	0.0082634464
3851.8283239745	0.0075365175
3853.7571313475	0.0060714898
3855.6859387205	0.0069933971
3857.6147460936	0.0081241950
3859.5435534666	0.0079246387
3861.4723608397	0.0080247633
3863.4011682127	0.0077861585
3865.3299755858	0.0073859133
3867.2587829588	0.0079456959
3869.1875903319	0.0074422369
3871.1163977049	0.0071199769
3873.0452050780	0.0079164244
3874.9740124510	0.0075405277
3876.9028198241	0.0079837944
3878.8316271971	0.0080103874
3880.7604345702	0.0071517453
3882.6892419432	0.0078575136
3884.6180493162	0.0075530205
3886.5468566893	0.0071312757
3888.4756640623	0.0078868102
3890.4044714354	0.0075736204
3892.3332788084	0.0072768200
3894.2620861815	0.0077596148
3896.1908935545	0.0078746397
3898.1197009276	0.0075615812
3900.0485083006	0.0073311268
3901.9773156737	0.0072736652
3903.9061230467	0.0071212719
3905.8349304198	0.0072949068
3907.7637377928	0.0076888450
3909.6925451659	0.0076797549
3911.6213525389	0.0076493006
3913.5501599119	0.0076461947
3915.4789672850	0.0074886605
3917.4077746580	0.0073266011
3919.3365820311	0.0072954530
3921.2653894041	0.0074696643
3923.1941967772	0.0074974326
3925.1230041502	0.0073620006
3927.0518115233	0.0074270181
3928.9806188963	0.0074959695
3930.9094262694	0.0072791236
3932.8382336424	0.0072010439
3934.7670410155	0.0074148364
3936.6958483885	0.0075041358
3938.6246557616	0.0074393316
3940.5534631346	0.0073414249
3942.4822705076	0.0072567025
3944.4110778807	0.0072328048
3946.3398852537	0.0072121234
3948.2686926268	0.0071497937
3950.1974999998	0.0072115385
3952.1263073729	0.0073153907
3954.0551147459	0.0073007010
3955.9839221190	0.0072840098
3957.9127294920	0.0072505493
3959.8415368651	0.0071955658
3961.7703442381	0.0071447990
3963.6991516112	0.0071986583
3965.6279589842	0.0072392421
3967.5567663573	0.0071913581
3969.4855737303	0.0071808654
3971.4143811034	0.0071584433
3973.3431884764	0.0071491953
3975.2719958494	0.0070362817
3977.2008032225	0.0069983024
3979.1296105955	0.0071122963
3981.0584179686	0.0071387552
3982.9872253416	0.0070622247
3984.9160327147	0.0069646728
3986.8448400877	0.0070290044
3988.7736474608	0.0070229471
3990.7024548338	0.0069236648
3992.6312622069	0.0069255014
3994.5600695799	0.0069674160
3996.4888769530	0.0069806413
3998.4176843260	0.0069081159
4000.3464916991	0.0069185211
4002.2752990721	0.0069132065
4004.2041064451	0.0068518864
4006.1329138182	0.0068391394
4008.0617211912	0.0068186028
4009.9905285643	0.0068499418
4011.9193359373	0.0068958625
4013.8481433104	0.0068661314
4015.7769506834	0.0068043922
4017.7057580565	0.0067634555
4019.6345654295	0.0066707050
4021.5633728026	0.0066799675
4023.4921801756	0.0068022232
4025.4209875487	0.0067758150
4027.3497949217	0.0066665197
4029.2786022948	0.0066848081
4031.2074096678	0.0067361696
4033.1362170408	0.0066550886
4035.0650244139	0.0066666026
4036.9938317869	0.0066791386
4038.9226391600	0.0066047129
4040.8514465330	0.0065243607
4042.7802539061	0.0064494149
4044.7090612791	0.0065298937
4046.6378686522	0.0065133208
4048.5666760252	0.0065229717
4050.4954833983	0.0065205516
4052.4242907713	0.0064601786
4054.3530981444	0.0065655718
4056.2819055174	0.0064122537
4058.2107128905	0.0064178682
4060.1395202635	0.0065318104
4062.0683276365	0.0063715167
4063.9971350096	0.0064200414
4065.9259423826	0.0063663460
4067.8547497557	0.0063401926
4069.7835571287	0.0064208815
4071.7123645018	0.0063271867
4073.6411718748	0.0063641393
4075.5699792479	0.0063501857
4077.4987866209	0.0062973192
4079.4275939940	0.0062673134
4081.3564013670	0.0062837522
4083.2852087401	0.0063294354
4085.2140161131	0.0062079299
4087.1428234862	0.0062447069
4089.0716308592	0.0062449640
4091.0004382323	0.0061334595
4092.9292456053	0.0061409911
4094.8580529783	0.0061833514
4096.7868603514	0.0062157484
4098.7156677244	0.0061205728
4100.6444750975	0.0061487788
4102.5732824705	0.0061103967
4104.5020898436	0.0060423864
4106.4308972166	0.0061216331
4108.3597045897	0.0060064700
4110.2885119627	0.0060420334
4112.2173193358	0.0060503273
4114.1461267088	0.0059230495
4116.0749340819	0.0059698196
4118.0037414549	0.0059876405
4119.9325488280	0.0060033165
4121.8613562010	0.0060219802
4123.7901635740	0.0060553998
4125.7189709471	0.0059733475
4127.6477783201	0.0058313087
4129.5765856932	0.0059000505
4131.5053930662	0.0059405928
4133.4342004393	0.0058658030
4135.3630078123	0.0058621112
4137.2918151854	0.0058873417
4139.2206225584	0.0058424324
4141.1494299315	0.0058379830
4143.0782373045	0.0058611985
4145.0070446776	0.0058469689
4146.9358520506	0.0058029238
4148.8646594237	0.0057287668
4150.7934667967	0.0057406649
4152.7222741697	0.0057878811
4154.6510815428	0.0057343263
4156.5798889158	0.0056601171
4158.5086962889	0.0057039950
4160.4375036619	0.0057490971
4162.3663110350	0.0057252795
4164.2951184080	0.0057149259
4166.2239257811	0.0056740991
4168.1527331541	0.0056103650
4170.0815405272	0.0056275297
4172.0103479002	0.0056165601
4173.9391552733	0.0055315802
4175.8679626463	0.0055776751
4177.7967700194	0.0055268919
4179.7255773924	0.0055117155
4181.6543847654	0.0056144530
4183.5831921385	0.0055142837
4185.5119995115	0.0055380752
4187.4408068846	0.0055016335
4189.3696142576	0.0054658181
4191.2984216307	0.0055672023
4193.2272290037	0.0054366570
4195.1560363768	0.0054327073
4197.0848437498	0.0055318996
4199.0136511229	0.0055268542
4200.9424584959	0.0054388167
4202.8712658690	0.0053867446
4204.8000732420	0.0054421369
4206.7288806151	0.0053567896
4208.6576879881	0.0053228564
4210.5864953611	0.0053553451
4212.5153027342	0.0053236503
4214.4441101072	0.0053395843
4216.3729174803	0.0053509222
4218.3017248533	0.0053270133
4220.2305322264	0.0052849315
4222.1593395994	0.0052582468
4224.0881469725	0.0052864803
4226.0169543455	0.0053079305
4227.9457617186	0.0052673975
4229.8745690916	0.0052572819
4231.8033764647	0.0052577066
4233.7321838377	0.0052365256
4235.6609912108	0.0052468376
4237.5897985838	0.0052363994
4239.5186059569	0.0051790979
4241.4474133299	0.0051322686
4243.3762207029	0.0050843852
4245.3050280760	0.0050438372
4247.2338354490	0.0050978255
4249.1626428221	0.0051308917
4251.0914501951	0.0051429318
4253.0202575682	0.0050950693
4254.9490649412	0.0050266157
4256.8778723143	0.0051168064
4258.8066796873	0.0050854259
4260.7354870604	0.0049951738
4262.6642944334	0.0049833516
4264.5931018065	0.0049340604
4266.5219091795	0.0049363067
4268.4507165526	0.0049743885
4270.3795239256	0.0049812347
4272.3083312986	0.0049492107
4274.2371386717	0.0049395091
4276.1659460447	0.0049433885
4278.0947534178	0.0049168710
4280.0235607908	0.0048372238
4281.9523681639	0.0048535131
4283.8811755369	0.0048923260
4285.8099829100	0.0048128446
4287.7387902830	0.0048285103
4289.6675976561	0.0048327586
4291.5964050291	0.0048219264
4293.5252124022	0.0047530164
4295.4540197752	0.0047282493
4297.3828271483	0.0048386659
4299.3116345213	0.0047756862
4301.2404418943	0.0047763456
4303.1692492674	0.0048181638
4305.0980566404	0.0047849682
4307.0268640135	0.0047210818
4308.9556713865	0.0046588210
4310.8844787596	0.0047327112
4312.8132861326	0.0047531817
4314.7420935057	0.0047265040
4316.6709008787	0.0046939137
4318.5997082518	0.0046958923
4320.5285156248	0.0046791285
4322.4573229979	0.0046318052
4324.3861303709	0.0046167634
4326.3149377440	0.0046232687
4328.2437451170	0.0047001876
4330.1725524900	0.0046186317
4332.1013598631	0.0045702662
4334.0301672361	0.0046067275
4335.9589746092	0.0045569227
4337.8877819822	0.0045223134
4339.8165893553	0.0045778360
4341.7453967283	0.0046591936
4343.6742041014	0.0045001553
4345.6030114744	0.0044842018
4347.5318188475	0.0045662620
4349.4606262205	0.0044759256
4351.3894335936	0.0044125905
4353.3182409666	0.0044118892
4355.2470483397	0.0045173243
4357.1758557127	0.0044418578
4359.1046630858	0.0044195177
4361.0334704588	0.0044849468
4362.9622778318	0.0044607613
4364.8910852049	0.0044672443
4366.8198925779	0.0043278113
4368.7486999510	0.0043654796
4370.6775073240	0.0044777947
4372.6063146971	0.0044081276
4374.5351220701	0.0043089315
4376.4639294432	0.0043308954
4378.3927368162	0.0043498855
4380.3215441893	0.0042391224
4382.2503515623	0.0043469705
4384.1791589354	0.0043140827
4386.1079663084	0.0042324052
4388.0367736815	0.0043036044
4389.9655810545	0.0041972692
4391.8943884275	0.0041933265
4393.8231958006	0.0042062951
4395.7520031736	0.0041880719
4397.6808105467	0.0042091124
4399.6096179197	0.0042255241
4401.5384252928	0.0042029382
4403.4672326658	0.0041629975
4405.3960400389	0.0041869367
4407.3248474119	0.0041734632
4409.2536547850	0.0042548580
4411.1824621580	0.0041751806
4413.1112695311	0.0041005593
4415.0400769041	0.0042142691
4416.9688842772	0.0041305274
4418.8976916502	0.0040993546
4420.8264990232	0.0040543345
4422.7553063963	0.0040491577
4424.6841137693	0.0041547809
4426.6129211424	0.0040818965
4428.5417285154	0.0040323739
4430.4705358885	0.0040711118
4432.3993432615	0.0040536183
4434.3281506346	0.0039692689
4436.2569580076	0.0039693806
4438.1857653807	0.0039795730
4440.1145727537	0.0039760377
4442.0433801268	0.0039855670
4443.9721874998	0.0039256066
4445.9009948729	0.0039949678
4447.8298022459	0.0040053604
4449.7586096189	0.0039067953
4451.6874169920	0.0039407485
4453.6162243650	0.0039555314
4455.5450317381	0.0038673731
4457.4738391111	0.0038707317
4459.4026464842	0.0039575417
4461.3314538572	0.0039390596
4463.2602612303	0.0039354805
4465.1890686033	0.0038885539
4467.1178759764	0.0038424525
4469.0466833494	0.0038750242
4470.9754907225	0.0038494812
4472.9042980955	0.0038644313
4474.8331054686	0.0038073973
4476.7619128416	0.0038067792
4478.6907202147	0.0038557479
4480.6195275877	0.0037875082
4482.5483349607	0.0037810397
4484.4771423338	0.0037566046
4486.4059497068	0.0037786015
4488.3347570799	0.0037970315
4490.2635644529	0.0037180900
4492.1923718260	0.0036879692
4494.1211791990	0.0037154593
4496.0499865721	0.0037273741
4497.9787939451	0.0036895070
4499.9076013182	0.0037402543
4501.8364086912	0.0037125046
4503.7652160643	0.0036092848
4505.6940234373	0.0036380622
4507.6228308104	0.0036458699
4509.5516381834	0.0036119095
4511.4804455564	0.0035512887
4513.4092529295	0.0035929363
4515.3380603025	0.0036787675
4517.2668676756	0.0036324332
4519.1956750486	0.0036184597
4521.1244824217	0.0035846638
4523.0532897947	0.0035738735
4524.9820971678	0.0036387439
4526.9109045408	0.0035989936
4528.8397119139	0.0035324253
4530.7685192869	0.0034965416
4532.6973266600	0.0034604012
4534.6261340330	0.0034835502
4536.5549414061	0.0035479302
4538.4837487791	0.0034873211
4540.4125561521	0.0034318715
4542.3413635252	0.0035413969
4544.2701708982	0.0034948511
4546.1989782713	0.0034126008
4548.1277856443	0.0034647794
4550.0565930174	0.0034502596
4551.9854003904	0.0034394315
4553.9142077635	0.0034086208
4555.8430151365	0.0033811899
4557.7718225096	0.0034024520
4559.7006298826	0.0034462838
4561.6294372557	0.0033824993
4563.5582446287	0.0032619378
4565.4870520018	0.0033448818
4567.4158593748	0.0033390564
4569.3446667478	0.0033533927
4571.2734741209	0.0034190740
4573.2022814939	0.0033057886
4575.1310888670	0.0033027343
4577.0598962400	0.0033229589
4578.9887036131	0.0033166381
4580.9175109861	0.0032903762
4582.8463183592	0.0032970158
4584.7751257322	0.0032763295
4586.7039331053	0.0032376819
4588.6327404783	0.0033587459
4590.5615478514	0.0032580351
4592.4903552244	0.0032292330
4594.4191625975	0.0032672011
4596.3479699705	0.0031951659
4598.2767773435	0.0032697166
4600.2055847166	0.0031757602
4602.1343920896	0.0032125195
4604.0631994627	0.0032486683
4605.9920068357	0.0031232133
4607.9208142088	0.0031559886
4609.8496215818	0.0031840743
4611.7784289549	0.0032608460
4613.7072363279	0.0031655752
4615.6360437010	0.0030982709
4617.5648510740	0.0031518592
4619.4936584471	0.0030536642
4621.4224658201	0.0030544868
4623.3512731932	0.0031054181
4625.2800805662	0.0031733336
4627.2088879393	0.0031253756
4629.1376953123	0.0030964050
4631.0665026853	0.0031469581
4632.9953100584	0.0030362788
4634.9241174314	0.0031007519
4636.8529248045	0.0031763308
4638.7817321775	0.0031078530
4640.7105395506	0.0030350150
4642.6393469236	0.0030141531
4644.5681542967	0.0031130197
4646.4969616697	0.0030450514
4648.4257690428	0.0029685176
4650.3545764158	0.0029945655
4652.2833837889	0.0029823389
4654.2121911619	0.0030068522
4656.1409985350	0.0030057500
4658.0698059080	0.0030100704
4659.9986132810	0.0030034354
4661.9274206541	0.0030072846
4663.8562280271	0.0030143494
4665.7850354002	0.0029517696
4667.7138427732	0.0029356079
4669.6426501463	0.0029549655
4671.5714575193	0.0029726895
4673.5002648924	0.0029328857
4675.4290722654	0.0028606756
4677.3578796385	0.0028998004
4679.2866870115	0.0029153640
4681.2154943846	0.0028885026
4683.1443017576	0.0029125782
4685.0731091307	0.0028649524
4687.0019165037	0.0028581168
4688.9307238767	0.0028552494
4690.8595312498	0.0027744928
4692.7883386228	0.0028400961
4694.7171459959	0.0028534466
4696.6459533689	0.0028100410
4698.5747607420	0.0028376123
4700.5035681150	0.0027799937
4702.4323754881	0.0027599791
4704.3611828611	0.0027960418
4706.2899902342	0.0027567993
4708.2187976072	0.0026830493
4710.1476049803	0.0027946667
4712.0764123533	0.0028612353
4714.0052197264	0.0027342276
4715.9340270994	0.0027195816
4717.8628344724	0.0027467543
4719.7916418455	0.0027947291
4721.7204492185	0.0026724543
4723.6492565916	0.0026219618
4725.5780639646	0.0028116347
4727.5068713377	0.0027323221
4729.4356787107	0.0027044248
4731.3644860838	0.0027248340
4733.2932934568	0.0026189312
4735.2221008299	0.0026461235
4737.1509082029	0.0026787969
4739.0797155760	0.0026312422
4741.0085229490	0.0026485035
4742.9373303221	0.0027615712
4744.8661376951	0.0026609246
4746.7949450682	0.0025760999
4748.7237524412	0.0026300426
4750.6525598142	0.0025627413
4752.5813671873	0.0025949217
4754.5101745603	0.0026387440
4756.4389819334	0.0026009218
4758.3677893064	0.0025977753
4760.2965966795	0.0025931709
4762.2254040525	0.0025815789
4764.1542114256	0.0025795940
4766.0830187986	0.0025477372
4768.0118261717	0.0025828828
4769.9406335447	0.0026518260
4771.8694409178	0.0025774078
4773.7982482908	0.0025419779
4775.7270556639	0.0024926630
4777.6558630369	0.0024892276
4779.5846704099	0.0025163686
4781.5134777830	0.0024805926
4783.4422851560	0.0025654128
4785.3710925291	0.0025000661
4787.2998999021	0.0024187840
4789.2287072752	0.0024459912
4791.1575146482	0.0025019962
4793.0863220213	0.0025141856
4795.0151293943	0.0023852398
4796.9439367674	0.0024194033
4798.8727441404	0.0024392342
4800.8015515135	0.0024538334
4802.7303588865	0.0024971848
4804.6591662596	0.0024629077
4806.5879736326	0.0024555095
4808.5167810056	0.0024253926
4810.4455883787	0.0024968889
4812.3743957517	0.0024235952
4814.3032031248	0.0023669410
4816.2320104978	0.0024498422
4818.1608178709	0.0023965468
4820.0896252439	0.0024590762
4822.0184326170	0.0024337422
4823.9472399900	0.0023474544
4825.8760473631	0.0024175737
4827.8048547361	0.0023742211
4829.7336621092	0.0023416574
4831.6624694822	0.0023803399
4833.5912768553	0.0023169704
4835.5200842283	0.0023157974
4837.4488916013	0.0023318187
4839.3776989744	0.0022853208
4841.3065063474	0.0023439620
4843.2353137205	0.0022778660
4845.1641210935	0.0022095777
4847.0929284666	0.0022876104
4849.0217358396	0.0022720401
4850.9505432127	0.0023088902
4852.8793505857	0.0023103650
4854.8081579588	0.0022282912
4856.7369653318	0.0022062347
4858.6657727049	0.0022296612
4860.5945800779	0.0022719954
4862.5233874510	0.0022353446
4864.4521948240	0.0022398112
4866.3810021971	0.0022672359
4868.3098095701	0.0021913825
4870.2386169431	0.0021539098
4872.1674243162	0.0021841067
4874.0962316892	0.0022094462
4876.0250390623	0.0022349746
4877.9538464353	0.0022051111
4879.8826538084	0.0021445560
4881.8114611814	0.0021976731
4883.7402685545	0.0022060955
4885.6690759275	0.0021174324
4887.5978833006	0.0021728256
4889.5266906736	0.0022394655
4891.4554980467	0.0021995362
4893.3843054197	0.0021336125
4895.3131127928	0.0020774831
4897.2419201658	0.0021389611
4899.1707275388	0.0021205433
4901.0995349119	0.0020590606
4903.0283422849	0.0021808301
4904.9571496580	0.0021770289
4906.8859570310	0.0020644723
4908.8147644041	0.0020517232
4910.7435717771	0.0020865914
4912.6723791502	0.0021078805
4914.6011865232	0.0020710244
4916.5299938963	0.0020600921
4918.4588012693	0.0020474286
4920.3876086424	0.0019972839
4922.3164160154	0.0020123129
4924.2452233885	0.0021034167
4926.1740307615	0.0021004532
4928.1028381345	0.0020852052
4930.0316455076	0.0020939745
4931.9604528806	0.0019722842
4933.8892602537	0.0019739233
4935.8180676267	0.0020200438
4937.7468749998	0.0019941614
4939.6756823728	0.0019729510
4941.6044897459	0.0019796181
4943.5332971189	0.0020509483
4945.4621044920	0.0019615395
4947.3909118650	0.0019402662
4949.3197192381	0.0019647323
4951.2485266111	0.0019316197
4953.1773339842	0.0019945740
4955.1061413572	0.0019700609
4957.0349487302	0.0019707775
4958.9637561033	0.0019363130
4960.8925634763	0.0019219508
4962.8213708494	0.0019375291
4964.7501782224	0.0018931052
4966.6789855955	0.0019549220
4968.6077929685	0.0019476681
4970.5366003416	0.0019377535
4972.4654077146	0.0018933568
4974.3942150877	0.0018611484
4976.3230224607	0.0019398250
4978.2518298338	0.0019271523
4980.1806372068	0.0019009017
4982.1094445799	0.0018849464
4984.0382519529	0.0018862013
4985.9670593259	0.0018272237
4987.8958666990	0.0018822518
4989.8246740720	0.0019543108
4991.7534814451	0.0018453000
4993.6822888181	0.0019278505
4995.6110961912	0.0018947427
4997.5399035642	0.0017963166
4999.4687109373	0.0018427973
5001.3975183103	0.0017809374
5003.3263256834	0.0018075244
5005.2551330564	0.0018334311
5007.1839404295	0.0018486360
5009.1127478025	0.0018295641
5011.0415551756	0.0017267407
5012.9703625486	0.0017935410
5014.8991699217	0.0018738516
5016.8279772947	0.0018399170
5018.7567846677	0.0017859943
5020.6855920408	0.0017984775
5022.6143994138	0.0017783602
5024.5432067869	0.0017304316
5026.4720141599	0.0017900488
5028.4008215330	0.0017818959
5030.3296289060	0.0017758866
5032.2584362791	0.0017926367
5034.1872436521	0.0017438084
5036.1160510252	0.0017054576
5038.0448583982	0.0016366367
5039.9736657713	0.0016955689
5041.9024731443	0.0017901210
5043.8312805174	0.0017645807
5045.7600878904	0.0017463244
5047.6888952634	0.0016945077
5049.6177026365	0.0017255115
5051.5465100095	0.0017426199
5053.4753173826	0.0017067944
5055.4041247556	0.0017942421
5057.3329321287	0.0017662051
5059.2617395017	0.0017253007
5061.1905468748	0.0017465258
5063.1193542478	0.0017226757
5065.0481616209	0.0016935236
5066.9769689939	0.0016248652
5068.9057763670	0.0016698872
5070.8345837400	0.0016395206
5072.7633911131	0.0016014420
5074.6921984861	0.0016476265
5076.6210058591	0.0015975323
5078.5498132322	0.0017076682
5080.4786206052	0.0016737985
5082.4074279783	0.0015637606
5084.3362353513	0.0016247594
5086.2650427244	0.0015938128
5088.1938500974	0.0016189682
5090.1226574705	0.0015927935
5092.0514648435	0.0016058518
5093.9802722166	0.0016128167
5095.9090795896	0.0015398065
5097.8378869627	0.0016654159
5099.7666943357	0.0016223819
5101.6955017088	0.0015162420
5103.6243090818	0.0016000407
5105.5531164548	0.0015946084
5107.4819238279	0.0015597194
5109.4107312009	0.0016352920
5111.3395385740	0.0016158462
5113.2683459470	0.0014719294
5115.1971533201	0.0014746711
5117.1259606931	0.0014966262
5119.0547680662	0.0015432367
5120.9835754392	0.0015772791
5122.9123828123	0.0014849113
5124.8411901853	0.0015215153
5126.7699975584	0.0015391239
5128.6988049314	0.0015365318
5130.6276123045	0.0015774117
5132.5564196775	0.0015122937
5134.4852270506	0.0014349597
5136.4140344236	0.0014335568
5138.3428417966	0.0015321778
5140.2716491697	0.0015639884
5142.2004565427	0.0015203063
5144.1292639158	0.0014856907
5146.0580712888	0.0014652702
5147.9868786619	0.0014802697
5149.9156860349	0.0014781876
5151.8444934080	0.0014832076
5153.7733007810	0.0014195114
5155.7021081541	0.0014263928
5157.6309155271	0.0014762066
5159.5597229002	0.0014324959
5161.4885302732	0.0015083371
5163.4173376463	0.0014823528
5165.3461450193	0.0014368652
5167.2749523923	0.0014995355
5169.2037597654	0.0014543480
5171.1325671384	0.0015009970
5173.0613745115	0.0014408847
5174.9901818845	0.0013377847
5176.9189892576	0.0014258090
5178.8477966306	0.0014272179
5180.7766040037	0.0014295289
5182.7054113767	0.0013939766
5184.6342187498	0.0013600276
5186.5630261228	0.0014004442
5188.4918334959	0.0013618732
5190.4206408689	0.0013802507
5192.3494482420	0.0014078136
5194.2782556150	0.0014209279
5196.2070629880	0.0014050340
5198.1358703611	0.0013423890
5200.0646777341	0.0013535026
5201.9934851072	0.0013603696
5203.9222924802	0.0013565251
5205.8510998533	0.0013730186
5207.7799072263	0.0013662576
5209.7087145994	0.0013396237
5211.6375219724	0.0013702821
5213.5663293455	0.0013582440
5215.4951367185	0.0013157870
5217.4239440916	0.0013307834
5219.3527514646	0.0013059311
5221.2815588377	0.0013752172
5223.2103662107	0.0013596618
5225.1391735837	0.0012866816
5227.0679809568	0.0013263687
5228.9967883298	0.0013046550
5230.9255957029	0.0013683729
5232.8544030759	0.0013403294
5234.7832104490	0.0012698038
5236.7120178220	0.0013172710
5238.6408251951	0.0012542512
5240.5696325681	0.0012498209
5242.4984399412	0.0013128666
5244.4272473142	0.0012898787
5246.3560546873	0.0012231400
5248.2848620603	0.0012141401
5250.2136694334	0.0012581107
5252.1424768064	0.0013162475
5254.0712841795	0.0012813698
5256.0000915525	0.0011984116
5257.9288989255	0.0013111810
5259.8577062986	0.0013185935
5261.7865136716	0.0012053710
5263.7153210447	0.0011833600
5265.6441284177	0.0012049915
5267.5729357908	0.0012607800
5269.5017431638	0.0012005295
5271.4305505369	0.0011930435
5273.3593579099	0.0012116751
5275.2881652830	0.0012106487
5277.2169726560	0.0012506396
5279.1457800291	0.0011717952
5281.0745874021	0.0011712548
5283.0033947752	0.0012267714
5284.9322021482	0.0012599330
5286.8610095212	0.0012527930
5288.7898168943	0.0011957129
5290.7186242673	0.0012123671
5292.6474316404	0.0011530197
5294.5762390134	0.0011569270
5296.5050463865	0.0012689752
5298.4338537595	0.0012319111
5300.3626611326	0.0011536840
5302.2914685056	0.0011630806
5304.2202758787	0.0011676751
5306.1490832517	0.0011529638
5308.0778906248	0.0011776669
5310.0066979978	0.0011923941
5311.9355053709	0.0011778277
5313.8643127439	0.0011089724
5315.7931201169	0.0010996002
5317.7219274900	0.0011510673
5319.6507348630	0.0011513100
5321.5795422361	0.0011778378
5323.5083496091	0.0011108590
5325.4371569822	0.0010961266
5327.3659643552	0.0011000403
5329.2947717283	0.0010288019
5331.2235791013	0.0011586975
5333.1523864744	0.0011606165
5335.0811938474	0.0011222090
5337.0100012205	0.0011697786
5338.9388085935	0.0010485142
5340.8676159666	0.0010720985
5342.7964233396	0.0011065947
5344.7252307126	0.0010614655
5346.6540380857	0.0010593185
5348.5828454587	0.0009992898
5350.5116528318	0.0010769360
5352.4404602048	0.0011367219
5354.3692675779	0.0010559233
5356.2980749509	0.0010839759
5358.2268823240	0.0011387696
5360.1556896970	0.0010799535
5362.0844970701	0.0010718838
5364.0133044431	0.0011187182
5365.9421118162	0.0010678701
5367.8709191892	0.0010923584
5369.7997265623	0.0011170553
5371.7285339353	0.0010255746
5373.6573413083	0.0010301993
5375.5861486814	0.0010307822
5377.5149560544	0.0009889500
5379.4437634275	0.0010080812
5381.3725708005	0.0010033748
5383.3013781736	0.0010036294
5385.2301855466	0.0011002740
5387.1589929197	0.0011030796
5389.0878002927	0.0010002811
5391.0166076658	0.0010380787
5392.9454150388	0.0010123343
5394.8742224119	0.0009507673
5396.8030297849	0.0009956529
5398.7318371580	0.0009574996
5400.6606445310	0.0009681247
5402.5894519041	0.0010403770
5404.5182592771	0.0010614740
5406.4470666501	0.0009768346
5408.3758740232	0.0009270471
5410.3046813962	0.0010337563
5412.2334887693	0.0010100649
5414.1622961423	0.0009879348
5416.0911035154	0.0010203406
5418.0199108884	0.0009850711
5419.9487182615	0.0009806680
5421.8775256345	0.0009472632
5423.8063330076	0.0009321549
5425.7351403806	0.0009060954
5427.6639477537	0.0009377633
5429.5927551267	0.0009724658
5431.5215624998	0.0009522112
5433.4503698728	0.0009995786
5435.3791772458	0.0008946809
5437.3079846189	0.0009061109
5439.2367919919	0.0010117564
5441.1655993650	0.0009098325
5443.0944067380	0.0009720703
5445.0232141111	0.0010058034
5446.9520214841	0.0009012731
5448.8808288572	0.0009147105
5450.8096362302	0.0009152825
5452.7384436033	0.0009313961
5454.6672509763	0.0009646574
5456.5960583494	0.0009601534
5458.5248657224	0.0009718220
5460.4536730955	0.0009847624
5462.3824804685	0.0009410724
5464.3112878415	0.0008855109
5466.2400952146	0.0009400697
5468.1689025876	0.0009404483
5470.0977099607	0.0008602091
5472.0265173337	0.0008644640
5473.9553247068	0.0008469080
5475.8841320798	0.0008471262
5477.8129394529	0.0008969735
5479.7417468259	0.0008995549
5481.6705541990	0.0008900709
5483.5993615720	0.0008952515
5485.5281689451	0.0008838271
5487.4569763181	0.0008594681
5489.3857836912	0.0009340979
5491.3145910642	0.0009454486
5493.2433984372	0.0009223928
5495.1722058103	0.0009599667
5497.1010131833	0.0008526295
5499.0298205564	0.0008953400
5500.9586279294	0.0009532338
5502.8874353025	0.0008507103
5504.8162426755	0.0008728612
5506.7450500486	0.0008388184
5508.6738574216	0.0008402116
5510.6026647947	0.0008827992
5512.5314721677	0.0008376065
5514.4602795408	0.0008230332
5516.3890869138	0.0008315925
5518.3178942869	0.0008268934
5520.2467016599	0.0007919106
5522.1755090330	0.0008827876
5524.1043164060	0.0008837064
5526.0331237790	0.0007943142
5527.9619311521	0.0008923512
5529.8907385251	0.0008438336
5531.8195458982	0.0007468292
5533.7483532712	0.0008192497
5535.6771606443	0.0008492154
5537.6059680173	0.0008505648
5539.5347753904	0.0008559760
5541.4635827634	0.0008243416
5543.3923901365	0.0007756435
5545.3211975095	0.0007827699
5547.2500048826	0.0008255631
5549.1788122556	0.0008220327
5551.1076196287	0.0008189282
5553.0364270017	0.0007974143
5554.9652343747	0.0007830636
5556.8940417478	0.0007974834
5558.8228491208	0.0007654845
5560.7516564939	0.0008137735
5562.6804638669	0.0008209263
5564.6092712400	0.0007284899
5566.5380786130	0.0007868131
5568.4668859861	0.0008261977
5570.3956933591	0.0007766685
5572.3245007322	0.0007511480
5574.2533081052	0.0007709887
5576.1821154783	0.0007893959
5578.1109228513	0.0007265690
5580.0397302244	0.0007589991
5581.9685375974	0.0007626229
5583.8973449704	0.0006902222
5585.8261523435	0.0007497519
5587.7549597165	0.0007824501
5589.6837670896	0.0007605205
5591.6125744626	0.0007365582
5593.5413818357	0.0007373883
5595.4701892087	0.0007533105
5597.3989965818	0.0007191038
5599.3278039548	0.0007567203
5601.2566113279	0.0007798984
5603.1854187009	0.0007506770
5605.1142260740	0.0007375720
5607.0430334470	0.0007065410
5608.9718408201	0.0007429081
5610.9006481931	0.0007357785
5612.8294555661	0.0007065467
5614.7582629392	0.0007186484
5616.6870703122	0.0006834418
5618.6158776853	0.0006966088
5620.5446850583	0.0006904014
5622.4734924314	0.0007388808
5624.4022998044	0.0007824999
5626.3311071775	0.0006906624
5628.2599145505	0.0007044704
5630.1887219236	0.0007082046
5632.1175292966	0.0006554335
5634.0463366697	0.0006324217
5635.9751440427	0.0006212231
5637.9039514158	0.0006956495
5639.8327587888	0.0007737237
5641.7615661619	0.0007518761
5643.6903735349	0.0006931207
5645.6191809079	0.0007090366
5647.5479882810	0.0006754454
5649.4767956540	0.0006784343
5651.4056030271	0.0007354038
5653.3344104001	0.0006787959
5655.2632177732	0.0006678238
5657.1920251462	0.0006745093
5659.1208325193	0.0007117086
5661.0496398923	0.0007432412
5662.9784472654	0.0007139304
5664.9072546384	0.0006861548
5666.8360620115	0.0006390198
5668.7648693845	0.0006547694
5670.6936767576	0.0006382889
5672.6224841306	0.0006550180
5674.5512915036	0.0006888012
5676.4800988767	0.0006482237
5678.4089062497	0.0006654609
5680.3377136228	0.0006532543
5682.2665209958	0.0006118886
5684.1953283689	0.0006235860
5686.1241357419	0.0006706798
5688.0529431150	0.0006736139
5689.9817504880	0.0006588745
5691.9105578611	0.0006346761
5693.8393652341	0.0006149434
5695.7681726072	0.0006417757
5697.6969799802	0.0006243234
5699.6257873533	0.0006365740
5701.5545947263	0.0006278546
5703.4834020993	0.0006202944
5705.4122094724	0.0006629454
5707.3410168454	0.0006924950
5709.2698242185	0.0006757753
5711.1986315915	0.0006246890
5713.1274389646	0.0006812754
5715.0562463376	0.0006250257
5716.9850537107	0.0005653686
5718.9138610837	0.0005903761
5720.8426684568	0.0005202632
5722.7714758298	0.0005738239
5724.7002832029	0.0006289508
5726.6290905759	0.0005942334
5728.5578979490	0.0005547775
5730.4867053220	0.0005591870
5732.4155126950	0.0006176681
5734.3443200681	0.0006316500
5736.2731274411	0.0006043041
5738.2019348142	0.0005912787
5740.1307421872	0.0005893620
5742.0595495603	0.0005414323
5743.9883569333	0.0006138289
5745.9171643064	0.0006257789
5747.8459716794	0.0005477370
5749.7747790525	0.0005784255
5751.7035864255	0.0005590100
5753.6323937986	0.0005875784
5755.5612011716	0.0005759271
5757.4900085447	0.0005950840
5759.4188159177	0.0006317163
5761.3476232907	0.0005531022
5763.2764306638	0.0005869599
5765.2052380368	0.0005645637
5767.1340454099	0.0005655900
5769.0628527829	0.0006289849
5770.9916601560	0.0005779803
5772.9204675290	0.0005516099
5774.8492749021	0.0005295313
5776.7780822751	0.0004940337
5778.7068896482	0.0005577079
5780.6356970212	0.0006366000
5782.5645043943	0.0005590609
5784.4933117673	0.0005124248
5786.4221191404	0.0005592951
5788.3509265134	0.0005324004
5790.2797338865	0.0005124804
5792.2085412595	0.0005648524
5794.1373486325	0.0005536269
5796.0661560056	0.0005126253
5797.9949633786	0.0005919960
5799.9237707517	0.0005743423
5801.8525781247	0.0004970322
5803.7813854978	0.0005040450
5805.7101928708	0.0004945192
5807.6390002439	0.0005328305
5809.5678076169	0.0005880264
5811.4966149900	0.0005490303
5813.4254223630	0.0004985561
5815.3542297361	0.0005771636
5817.2830371091	0.0005435294
5819.2118444822	0.0004997677
5821.1406518552	0.0005629271
5823.0694592282	0.0004748947
5824.9982666013	0.0005177861
5826.9270739743	0.0005547203
5828.8558813474	0.0004708731
5830.7846887204	0.0005037647
5832.7134960935	0.0005095248
5834.6423034665	0.0004863286
5836.5711108396	0.0004935480
5838.4999182126	0.0005532013
5840.4287255857	0.0005331741
5842.3575329587	0.0004744086
5844.2863403318	0.0004586936
5846.2151477048	0.0004417274
5848.1439550779	0.0004999696
5850.0727624509	0.0005115984
5852.0015698239	0.0004888070
5853.9303771970	0.0004755310
5855.8591845700	0.0004867623
5857.7879919431	0.0004821855
5859.7167993161	0.0004755015
5861.6456066892	0.0005082501
5863.5744140622	0.0004847691
5865.5032214353	0.0005661191
5867.4320288083	0.0005511064
5869.3608361814	0.0004437491
5871.2896435544	0.0004950282
5873.2184509275	0.0005011969
5875.1472583005	0.0004574587
5877.0760656736	0.0004274247
5879.0048730466	0.0004744716
5880.9336804196	0.0004901150
5882.8624877927	0.0004531501
5884.7912951657	0.0004720556
5886.7201025388	0.0004450645
5888.6489099118	0.0004473439
5890.5777172849	0.0004850364
5892.5065246579	0.0004714181
5894.4353320310	0.0004049031
5896.3641394040	0.0004519068
5898.2929467771	0.0005204590
5900.2217541501	0.0004503231
5902.1505615232	0.0004795137
5904.0793688962	0.0004951431
5906.0081762693	0.0004389871
5907.9369836423	0.0004655531
5909.8657910154	0.0004679463
5911.7945983884	0.0004559793
5913.7234057614	0.0005261179
5915.6522131345	0.0005076625
5917.5810205075	0.0004343878
5919.5098278806	0.0004719149
5921.4386352536	0.0004062262
5923.3674426267	0.0004021911
5925.2962499997	0.0004900685
5927.2250573728	0.0004591828
5929.1538647458	0.0004226626
5931.0826721189	0.0003894859
5933.0114794919	0.0004509420
5934.9402868650	0.0004371978
5936.8690942380	0.0003777074
5938.7979016111	0.0004063374
5940.7267089841	0.0004190999
5942.6555163571	0.0004707816
5944.5843237302	0.0003999159
5946.5131311032	0.0004045595
5948.4419384763	0.0004640332
5950.3707458493	0.0003946393
5952.2995532224	0.0004412839
5954.2283605954	0.0004883063
5956.1571679685	0.0004696702
5958.0859753415	0.0004379628
5960.0147827146	0.0004498877
5961.9435900876	0.0004363698
5963.8723974607	0.0003814602
5965.8012048337	0.0004231275
5967.7300122068	0.0004203370
5969.6588195798	0.0003911562
5971.5876269528	0.0003995422
5973.5164343259	0.0004010730
5975.4452416989	0.0003640834
5977.3740490720	0.0003789719
5979.3028564450	0.0004242362
5981.2316638181	0.0003968510
5983.1604711911	0.0004081879
5985.0892785642	0.0003966990
5987.0180859372	0.0004369718
5988.9468933103	0.0004800690
5990.8757006833	0.0003946443
5992.8045080564	0.0003535114
5994.7333154294	0.0004040733
5996.6621228025	0.0003949114
5998.5909301755	0.0002992006
6000.5197375485	0.0003702124
