399.2631262207	0.0021141726
401.1919335938	0.0022566793
403.1207409668	0.0021891086
405.0495483398	0.0022546370
406.9783557129	0.0028128382
408.9071630859	0.0027571362
410.8359704590	0.0027712986
412.7647778320	0.0032439255
414.6935852051	0.0031906494
416.6223925781	0.0033188798
418.5511999512	0.0030337090
420.4800073242	0.0028644144
422.4088146973	0.0035984844
424.3376220703	0.0028372589
426.2664294434	0.0029148343
428.1952368164	0.0033699488
430.1240441895	0.0028231635
432.0528515625	0.0035909843
433.9816589355	0.0034105734
435.9104663086	0.0031507905
437.8392736816	0.0032371450
439.7680810547	0.0028710817
441.6968884277	0.0028144070
443.6256958008	0.0029207529
445.5545031738	0.0031400933
447.4833105469	0.0022458090
449.4121179199	0.0027624648
451.3409252930	0.0029086685
453.2697326660	0.0020956590
455.1985400391	0.0029992382
457.1273474121	0.0021041310
459.0561547852	0.0016623217
460.9849621582	0.0023918557
462.9137695313	0.0020009866
464.8425769043	0.0018013306
466.7713842773	0.0016397140
468.7001916504	0.0016475886
470.6289990234	0.0015802275
472.5578063965	0.0016306116
474.4866137695	0.0012973952
476.4154211426	0.0010726363
478.3442285156	0.0011347790
480.2730358887	0.0006985012
482.2018432617	0.0007404159
484.1306506348	0.0004397824
486.0594580078	0.0003920733
487.9882653809	0.0004014331
489.9170727539	0.0002706730
491.8458801270	0.0005374672
493.7746875000	0.0002207116
495.7034948730	0.0004139418
497.6323022461	0.0002470356
499.5611096191	0.0003639868
501.4899169922	0.0006002123
503.4187243652	-0.0002316119
505.3475317383	0.0003574186
507.2763391113	0.0005134495
509.2051464844	-0.0000210692
511.1339538574	0.0004117272
513.0627612305	0.0005938098
514.9915686035	0.0005015586
516.9203759766	0.0005324105
518.8491833496	0.0006191012
520.7779907227	0.0004289312
522.7067980957	0.0005820092
524.6356054688	0.0002355687
526.5644128418	-0.0001230043
528.4932202148	0.0005393169
530.4220275879	0.0004330908
532.3508349609	0.0002472108
534.2796423340	0.0003766176
536.2084497070	0.0005788957
538.1372570801	0.0005159487
540.0660644531	0.0003388209
541.9948718262	0.0005512837
543.9236791992	0.0002959025
545.8524865723	0.0005487671
547.7812939453	0.0005570407
549.7101013184	0.0001804162
551.6389086914	0.0004215775
553.5677160645	0.0003386387
555.4965234375	0.0002962128
557.4253308105	0.0003173743
559.3541381836	0.0003274704
561.2829455566	0.0002808344
563.2117529297	0.0002568594
565.1405603027	0.0003616158
567.0693676758	0.0002965285
568.9981750488	0.0003717900
570.9269824219	-0.0000318714
572.8557897949	-0.0000951847
574.7845971680	0.0004060180
576.7134045410	0.0002872946
578.6422119141	0.0003687916
580.5710192871	0.0002551238
582.4998266602	0.0001195806
584.4286340332	0.0005304684
586.3574414063	0.0003422766
588.2862487793	0.0002217896
590.2150561523	0.0002106749
592.1438635254	0.0002264004
594.0726708984	0.0003180816
596.0014782715	0.0000963551
597.9302856445	0.0002068779
599.8590930176	-0.0000129156
601.7879003906	0.0001138302
603.7167077637	0.0004206136
605.6455151367	0.0002001116
607.5743225098	0.0003774640
609.5031298828	0.0002636184
611.4319372559	-0.0002457658
613.3607446289	-0.0000348523
615.2895520020	0.0002215950
617.2183593750	-0.0000409081
619.1471667480	-0.0000732679
621.0759741211	-0.0000516215
623.0047814941	-0.0000332136
624.9335888672	0.0001292711
626.8623962402	0.0003480320
628.7912036133	-0.0000021923
630.7200109863	0.0005652270
632.6488183594	0.0017819089
634.5776257324	0.0022797552
636.5064331055	0.0024189714
638.4352404785	0.0022726166
640.3640478516	0.0028184331
642.2928552246	0.0030321935
644.2216625977	0.0031350995
646.1504699707	0.0037502227
648.0792773438	0.0037024007
650.0080847168	0.0036981110
651.9368920898	0.0040475568
653.8656994629	0.0041903583
655.7945068359	0.0043283738
657.7233142090	0.0046378174
659.6521215820	0.0046160044
661.5809289551	0.0047538946
663.5097363281	0.0051873531
665.4385437012	0.0052682101
667.3673510742	0.0048054019
669.2961584473	0.0049729887
671.2249658203	0.0060878843
673.1537731934	0.0063033877
675.0825805664	0.0065358756
677.0113879395	0.0066226805
678.9401953125	0.0063468609
680.8690026855	0.0065760058
682.7978100586	0.0064204172
684.7266174316	0.0066640098
686.6554248047	0.0069890488
688.5842321777	0.0067389105
690.5130395508	0.0065060994
692.4418469238	0.0070996368
694.3706542969	0.0079592895
696.2994616699	0.0085645001
698.2282690430	0.0097718118
700.1570764160	0.0103680827
702.0858837891	0.0101820631
704.0146911621	0.0096233264
705.9434985352	0.0086394772
707.8723059082	0.0072349170
709.8011132813	0.0055636419
711.7299206543	0.0040858332
713.6587280273	0.0024536424
715.5875354004	0.0012700033
717.5163427734	0.0004796547
719.4451501465	0.0003413699
721.3739575195	0.0006361437
723.3027648926	0.0002909046
725.2315722656	0.0000338284
727.1603796387	0.0001973752
729.0891870117	0.0001329022
731.0179943848	-0.0000242581
732.9468017578	0.0001789699
734.8756091309	0.0000432123
736.8044165039	0.0000887842
738.7332238770	0.0000584788
740.6620312500	-0.0002036217
742.5908386230	0.0001396620
744.5196459961	0.0002028727
746.4484533691	0.0002157633
748.3772607422	-0.0000655101
750.3060681152	-0.0000145899
752.2348754883	0.0001613731
754.1636828613	0.0000964455
756.0924902344	0.0004642357
758.0212976074	0.0000408728
759.9501049805	0.0002063676
761.8789123535	0.0003493733
763.8077197266	0.0003444384
765.7365270996	0.0005748987
767.6653344727	0.0001497614
769.5941418457	0.0003289026
771.5229492188	0.0002301260
773.4517565918	0.0002497745
775.3805639648	0.0003516967
777.3093713379	0.0004209212
779.2381787109	0.0007304788
781.1669860840	0.0002981486
783.0957934570	0.0003005076
785.0246008301	0.0005585044
786.9534082031	0.0006027063
788.8822155762	0.0005712145
790.8110229492	0.0004245850
792.7398303223	0.0005372048
794.6686376953	0.0006070564
796.5974450684	0.0007565167
798.5262524414	0.0011868109
800.4550598145	0.0013793317
802.3838671875	0.0009548991
804.3126745605	0.0008125503
806.2414819336	0.0010697531
808.1702893066	0.0009128843
810.0990966797	0.0003990108
812.0279040527	0.0002504422
813.9567114258	0.0003457408
815.8855187988	0.0002823510
817.8143261719	0.0004802098
819.7431335449	0.0003575413
821.6719409180	0.0003775446
823.6007482910	0.0006334173
825.5295556641	0.0006775027
827.4583630371	0.0010024583
829.3871704102	0.0014304388
831.3159777832	0.0018814257
833.2447851563	0.0016878404
835.1735925293	0.0017752827
837.1023999023	0.0022270721
839.0312072754	0.0020775418
840.9600146484	0.0020936907
842.8888220215	0.0018591648
844.8176293945	0.0014393431
846.7464367676	0.0013609740
848.6752441406	0.0016306504
850.6040515137	0.0014715096
852.5328588867	0.0010136914
854.4616662598	0.0011273541
856.3904736328	0.0009641547
858.3192810059	0.0009206372
860.2480883789	0.0008351451
862.1768957520	0.0005457754
864.1057031250	0.0007478563
866.0345104980	0.0005991361
867.9633178711	0.0004737546
869.8921252441	0.0005236185
871.8209326172	0.0004081668
873.7497399902	0.0004665953
875.6785473633	0.0002777669
877.6073547363	0.0001464443
879.5361621094	0.0003057081
881.4649694824	0.0002725571
883.3937768555	0.0003531978
885.3225842285	0.0005177319
887.2513916016	0.0003871347
889.1801989746	0.0004880629
891.1090063477	0.0004290496
893.0378137207	0.0000745637
894.9666210938	0.0005108635
896.8954284668	0.0005631571
898.8242358398	0.0003484187
900.7530432129	0.0006889491
902.6818505859	0.0004347487
904.6106579590	0.0004692489
906.5394653320	0.0007228882
908.4682727051	0.0006621606
910.3970800781	0.0006318713
912.3258874512	0.0007725835
914.2546948242	0.0009757109
916.1835021973	0.0008644289
918.1123095703	0.0014577508
920.0411169434	0.0016295528
921.9699243164	0.0018296118
923.8987316895	0.0021663527
925.8275390625	0.0018108650
927.7563464355	0.0022783650
929.6851538086	0.0020684025
931.6139611816	0.0025219307
933.5427685547	0.0029631085
935.4715759277	0.0024981431
937.4003833008	0.0032794727
939.3291906738	0.0030644834
941.2579980469	0.0031734244
943.1868054199	0.0034782710
945.1156127930	0.0031940304
947.0444201660	0.0035296625
948.9732275391	0.0031612641
950.9020349121	0.0031413254
952.8308422852	0.0032232755
954.7596496582	0.0030138006
956.6884570313	0.0031174468
958.6172644043	0.0031595000
960.5460717773	0.0029710433
962.4748791504	0.0030559043
964.4036865234	0.0034686245
966.3324938965	0.0034233904
968.2613012695	0.0035868285
970.1901086426	0.0034761059
972.1189160156	0.0037693656
974.0477233887	0.0044436259
975.9765307617	0.0043129944
977.9053381348	0.0046850340
979.8341455078	0.0051150019
981.7629528809	0.0056812800
983.6917602539	0.0065208087
985.6205676270	0.0071496582
987.5493750000	0.0076997140
989.4781823730	0.0083620232
991.4069897461	0.0097573977
993.3357971191	0.0105921291
995.2646044922	0.0111687947
997.1934118652	0.0124378931
999.1222192383	0.0134283546
1001.0510266113	0.0142738726
1002.9798339844	0.0152694993
1004.9086413574	0.0162961613
1006.8374487305	0.0173297338
1008.7662561035	0.0184650645
1010.6950634766	0.0194890108
1012.6238708496	0.0204998963
1014.5526782227	0.0218388420
1016.4814855957	0.0230224207
1018.4102929688	0.0241038799
1020.3391003418	0.0252088066
1022.2679077148	0.0262707844
1024.1967150879	0.0273566898
1026.1255224609	0.0282652043
1028.0543298340	0.0291422904
1029.9831372070	0.0299088340
1031.9119445801	0.0306208245
1033.8407519531	0.0312322862
1035.7695593262	0.0317225568
1037.6983666992	0.0322793424
1039.6271740723	0.0323517472
1041.5559814453	0.0323527865
1043.4847888184	0.0321383700
1045.4135961914	0.0313658863
1047.3424035645	0.0309848804
1049.2712109375	0.0306714475
1051.2000183105	0.0300926045
1053.1288256836	0.0295947976
1055.0576330566	0.0291083846
1056.9864404297	0.0283130668
1058.9152478027	0.0276309401
1060.8440551758	0.0270316750
1062.7728625488	0.0258847028
1064.7016699219	0.0250180028
1066.6304772949	0.0243916698
1068.5592846680	0.0233798586
1070.4880920410	0.0221924987
1072.4168994141	0.0210843496
1074.3457067871	0.0201227255
1076.2745141602	0.0193549730
1078.2033215332	0.0186599083
1080.1321289062	0.0176449567
1082.0609362793	0.0166379716
1083.9897436523	0.0158234276
1085.9185510254	0.0151867084
1087.8473583984	0.0143880881
1089.7761657715	0.0137067549
1091.7049731445	0.0133258626
1093.6337805176	0.0127155036
1095.5625878906	0.0124199688
1097.4913952637	0.0118749663
1099.4202026367	0.0113677969
1101.3490100098	0.0112602068
1103.2778173828	0.0108960234
1105.2066247559	0.0107877143
1107.1354321289	0.0105506312
1109.0642395019	0.0102438554
1110.9930468750	0.0101791173
1112.9218542480	0.0101993978
1114.8506616211	0.0101367263
1116.7794689941	0.0100420211
1118.7082763672	0.0102283582
1120.6370837402	0.0102844257
1122.5658911133	0.0103851315
1124.4946984863	0.0104865450
1126.4235058594	0.0103883091
1128.3523132324	0.0105405003
1130.2811206055	0.0109113548
1132.2099279785	0.0113342255
1134.1387353516	0.0117320493
1136.0675427246	0.0120204054
1137.9963500977	0.0125536267
1139.9251574707	0.0132222883
1141.8539648437	0.0140451025
1143.7827722168	0.0151852500
1145.7115795898	0.0160785988
1147.6403869629	0.0171811357
1149.5691943359	0.0180961415
1151.4980017090	0.0187697243
1153.4268090820	0.0196635388
1155.3556164551	0.0204621628
1157.2844238281	0.0215819702
1159.2132312012	0.0222501084
1161.1420385742	0.0230786316
1163.0708459473	0.0242110379
1164.9996533203	0.0249631125
1166.9284606934	0.0259298123
1168.8572680664	0.0268193372
1170.7860754394	0.0278658178
1172.7148828125	0.0287596043
1174.6436901855	0.0298098903
1176.5724975586	0.0311955232
1178.5013049316	0.0322955921
1180.4301123047	0.0333291665
1182.3589196777	0.0347600132
1184.2877270508	0.0364879929
1186.2165344238	0.0379915200
1188.1453417969	0.0398115702
1190.0741491699	0.0416035317
1192.0029565430	0.0435624942
1193.9317639160	0.0455501564
1195.8605712891	0.0475942269
1197.7893786621	0.0498944372
1199.7181860351	0.0518638343
1201.6469934082	0.0541905016
1203.5758007812	0.0560295060
1205.5046081543	0.0584279150
1207.4334155273	0.0608722791
1209.3622229004	0.0624547340
1211.2910302734	0.0646009892
1213.2198376465	0.0663326979
1215.1486450195	0.0681063831
1217.0774523926	0.0694932044
1219.0062597656	0.0706707910
1220.9350671387	0.0717688724
1222.8638745117	0.0725282952
1224.7926818848	0.0734148249
1226.7214892578	0.0737741888
1228.6502966308	0.0743594468
1230.5791040039	0.0745497569
1232.5079113769	0.0746628940
1234.4367187500	0.0747641623
1236.3655261230	0.0746778548
1238.2943334961	0.0745934099
1240.2231408691	0.0743889809
1242.1519482422	0.0743786693
1244.0807556152	0.0735479295
1246.0095629883	0.0733459890
1247.9383703613	0.0729966462
1249.8671777344	0.0722784847
1251.7959851074	0.0719187409
1253.7247924805	0.0709257573
1255.6535998535	0.0701725483
1257.5824072266	0.0690885335
1259.5112145996	0.0681769550
1261.4400219726	0.0671489537
1263.3688293457	0.0661990047
1265.2976367187	0.0653883964
1267.2264440918	0.0643316135
1269.1552514648	0.0637821555
1271.0840588379	0.0626212209
1273.0128662109	0.0615483597
1274.9416735840	0.0605134815
1276.8704809570	0.0594570301
1278.7992883301	0.0581616126
1280.7280957031	0.0568879545
1282.6569030762	0.0560453162
1284.5857104492	0.0548464060
1286.5145178223	0.0539319292
1288.4433251953	0.0527628437
1290.3721325683	0.0523570143
1292.3009399414	0.0519214645
1294.2297473144	0.0512529425
1296.1585546875	0.0511281490
1298.0873620605	0.0507810786
1300.0161694336	0.0510869995
1301.9449768066	0.0513790846
1303.8737841797	0.0518497527
1305.8025915527	0.0520144179
1307.7313989258	0.0527761355
1309.6602062988	0.0538987368
1311.5890136719	0.0545855872
1313.5178210449	0.0559565872
1315.4466284180	0.0569448285
1317.3754357910	0.0584448054
1319.3042431640	0.0597110391
1321.2330505371	0.0616379976
1323.1618579101	0.0638592541
1325.0906652832	0.0652206540
1327.0194726562	0.0673523247
1328.9482800293	0.0689072758
1330.8770874023	0.0707761496
1332.8058947754	0.0724442899
1334.7347021484	0.0736985803
1336.6635095215	0.0745454878
1338.5923168945	0.0743738711
1340.5211242676	0.0755577385
1342.4499316406	0.0776608363
1344.3787390137	0.0783400312
1346.3075463867	0.0780055672
1348.2363537597	0.0780891180
1350.1651611328	0.0775412172
1352.0939685058	0.0772922710
1354.0227758789	0.0766093582
1355.9515832519	0.0757495910
1357.8803906250	0.0757128596
1359.8091979980	0.0742524639
1361.7380053711	0.0718721449
1363.6668127441	0.0709513202
1365.5956201172	0.0732512176
1367.5244274902	0.0721825361
1369.4532348633	0.0709692314
1371.3820422363	0.0720158219
1373.3108496094	0.0689997971
1375.2396569824	0.0693765432
1377.1684643555	0.0706803948
1379.0972717285	0.0705404580
1381.0260791015	0.0707065687
1382.9548864746	0.0701181442
1384.8836938476	0.0702586323
1386.8125012207	0.0678001940
1388.7413085937	0.0688101649
1390.6701159668	0.0732348114
1392.5989233398	0.0718385875
1394.5277307129	0.0683770850
1396.4565380859	0.0708984360
1398.3853454590	0.0710093379
1400.3141528320	0.0706166923
1402.2429602051	0.0751294196
1404.1717675781	0.0717771575
1406.1005749512	0.0723200589
1408.0293823242	0.0744857937
1409.9581896972	0.0720421672
1411.8869970703	0.0733732879
1413.8158044433	0.0711715668
1415.7446118164	0.0719835609
1417.6734191894	0.0661896616
1419.6022265625	0.0603854805
1421.5310339355	0.0670049563
1423.4598413086	0.0655234903
1425.3886486816	0.0633686781
1427.3174560547	0.0635110289
1429.2462634277	0.0596470535
1431.1750708008	0.0574579537
1433.1038781738	0.0578620173
1435.0326855469	0.0534795858
1436.9614929199	0.0467635766
1438.8903002929	0.0511785522
1440.8191076660	0.0516569726
1442.7479150390	0.0485485271
1444.6767224121	0.0501160845
1446.6055297851	0.0467876010
1448.5343371582	0.0474991612
1450.4631445312	0.0489732698
1452.3919519043	0.0498013794
1454.3207592773	0.0517422184
1456.2495666504	0.0447216444
1458.1783740234	0.0466637872
1460.1071813965	0.0593378767
1462.0359887695	0.0625129044
1463.9647961426	0.0633518845
1465.8936035156	0.0662162006
1467.8224108886	0.0737789124
1469.7512182617	0.0794699788
1471.6800256347	0.0735170841
1473.6088330078	0.0773435161
1475.5376403808	0.0866874605
1477.4664477539	0.0927669406
1479.3952551269	0.1007481292
1481.3240625000	0.1029064059
1483.2528698730	0.1086663455
1485.1816772461	0.1125253588
1487.1104846191	0.1120534241
1489.0392919922	0.1125441194
1490.9680993652	0.1142125875
1492.8969067383	0.1285886168
1494.8257141113	0.1268429458
1496.7545214843	0.1173940301
1498.6833288574	0.1300157160
1500.6121362304	0.1338210702
1502.5409436035	0.1417616606
1504.4697509765	0.1359597147
1506.3985583496	0.1066456363
1508.3273657226	0.1250527948
1510.2561730957	0.1420163214
1512.1849804687	0.1383065134
1514.1137878418	0.1475690305
1516.0425952148	0.1363417804
1517.9714025879	0.1416763067
1519.9002099609	0.1370558143
1521.8290173340	0.1228920892
1523.7578247070	0.1440938413
1525.6866320801	0.1421042234
1527.6154394531	0.1418481171
1529.5442468261	0.1531942040
1531.4730541992	0.1489130557
1533.4018615722	0.1393045187
1535.3306689453	0.1455729157
1537.2594763183	0.1531091630
1539.1882836914	0.1178231016
1541.1170910644	0.1219958961
1543.0458984375	0.1410007626
1544.9747058105	0.1369497776
1546.9035131836	0.1557036638
1548.8323205566	0.1475791037
1550.7611279297	0.1514364183
1552.6899353027	0.1501019299
1554.6187426758	0.1394294798
1556.5475500488	0.1472671181
1558.4763574218	0.1124067456
1560.4051647949	0.1187889427
1562.3339721679	0.1564867347
1564.2627795410	0.1498740911
1566.1915869140	0.1531088948
1568.1203942871	0.1519153863
1570.0492016601	0.1382125467
1571.9780090332	0.1542355716
1573.9068164062	0.1557277739
1575.8356237793	0.1293790042
1577.7644311523	0.1424936801
1579.6932385254	0.1572436690
1581.6220458984	0.1513333023
1583.5508532715	0.1549378932
1585.4796606445	0.1527142525
1587.4084680175	0.1537317634
1589.3372753906	0.1527975798
1591.2660827636	0.1525011808
1593.1948901367	0.1528550088
1595.1236975097	0.1510980278
1597.0525048828	0.1530065238
1598.9813122558	0.1519441009
1600.9101196289	0.1526358724
1602.8389270019	0.1505898982
1604.7677343750	0.1525955200
1606.6965417480	0.1507809460
1608.6253491211	0.1503775716
1610.5541564941	0.1502752304
1612.4829638672	0.1508127451
1614.4117712402	0.1526664197
1616.3405786132	0.1298402101
1618.2693859863	0.1385427117
1620.1981933593	0.1564960778
1622.1270007324	0.1421567649
1624.0558081054	0.1432089508
1625.9846154785	0.1481667757
1627.9134228515	0.1479872167
1629.8422302246	0.1469997168
1631.7710375976	0.1548046470
1633.6998449707	0.1453759372
1635.6286523437	0.1249339730
1637.5574597168	0.1408556700
1639.4862670898	0.1517395228
1641.4150744629	0.1489354521
1643.3438818359	0.1517949402
1645.2726892090	0.1398598254
1647.2014965820	0.1269275546
1649.1303039550	0.1506481618
1651.0591113281	0.1434399784
1652.9879187011	0.1013841033
1654.9167260742	0.1294100434
1656.8455334472	0.1550339162
1658.7743408203	0.1491060257
1660.7031481933	0.1528954208
1662.6319555664	0.1416657269
1664.5607629394	0.1479469538
1666.4895703125	0.1558403373
1668.4183776855	0.1405804306
1670.3471850586	0.1377532780
1672.2759924316	0.1515983939
1674.2047998047	0.1425466985
1676.1336071777	0.1376367956
1678.0624145507	0.1539250016
1679.9912219238	0.1491725743
1681.9200292968	0.1483317018
1683.8488366699	0.1256759018
1685.7776440429	0.1240831912
1687.7064514160	0.1604645252
1689.6352587890	0.1429597735
1691.5640661621	0.1538269818
1693.4928735351	0.1561418921
1695.4216809082	0.1213378012
1697.3504882812	0.1432498693
1699.2792956543	0.1299724132
1701.2081030273	0.1196605563
1703.1369104004	0.1525176764
1705.0657177734	0.1424899548
1706.9945251464	0.1429869533
1708.9233325195	0.1527762115
1710.8521398925	0.1475213617
1712.7809472656	0.1495371759
1714.7097546386	0.1412058920
1716.6385620117	0.1289694458
1718.5673693847	0.1272846162
1720.4961767578	0.1460596919
1722.4249841308	0.1498262286
1724.3537915039	0.1411521435
1726.2825988769	0.1504537910
1728.2114062500	0.1408266723
1730.1402136230	0.1423736662
1732.0690209961	0.1385816932
1733.9978283691	0.1122763008
1735.9266357421	0.1328237653
1737.8554431152	0.1438596100
1739.7842504882	0.1313986778
1741.7130578613	0.1404201984
1743.6418652343	0.1425637305
1745.5706726074	0.1426791847
1747.4994799804	0.1441220939
1749.4282873535	0.1392826438
1751.3570947265	0.1342637092
1753.2859020996	0.1458478272
1755.2147094726	0.1510669291
1757.1435168457	0.1407282799
1759.0723242187	0.1513508707
1761.0011315918	0.1442282498
1762.9299389648	0.1402721405
1764.8587463379	0.1556589901
1766.7875537109	0.1435626149
1768.7163610839	0.1445028484
1770.6451684570	0.1439744234
1772.5739758300	0.1322699487
1774.5027832031	0.1438702345
1776.4315905761	0.1504778862
1778.3603979492	0.1484801471
1780.2892053222	0.1473835111
1782.2180126953	0.1482947767
1784.1468200683	0.1477557868
1786.0756274414	0.1454881430
1788.0044348144	0.1514042169
1789.9332421875	0.1484693885
1791.8620495605	0.1373331696
1793.7908569336	0.1417525113
1795.7196643066	0.1498425901
1797.6484716796	0.1481245458
1799.5772790527	0.1464239955
1801.5060864257	0.1446836293
1803.4348937988	0.1480699480
1805.3637011718	0.1506566405
1807.2925085449	0.1489552557
1809.2213159179	0.1492219567
1811.1501232910	0.1462699175
1813.0789306640	0.1497387439
1815.0077380371	0.1501823962
1816.9365454101	0.1487948895
1818.8653527832	0.1498633623
1820.7941601562	0.1492170691
1822.7229675293	0.1508390456
1824.6517749023	0.1432692856
1826.5805822753	0.1471899599
1828.5093896484	0.1473710835
1830.4381970214	0.1403605491
1832.3670043945	0.1496554762
1834.2958117675	0.1487106979
1836.2246191406	0.1486857682
1838.1534265136	0.1482031941
1840.0822338867	0.1488708705
1842.0110412597	0.1488151252
1843.9398486328	0.1356384158
1845.8686560058	0.1426463574
1847.7974633789	0.1484761238
1849.7262707519	0.1458087713
1851.6550781250	0.1491554677
1853.5838854980	0.1467731297
1855.5126928710	0.1478316784
1857.4415002441	0.1471354365
1859.3703076171	0.1465317011
1861.2991149902	0.1471877992
1863.2279223632	0.1456597000
1865.1567297363	0.1468092501
1867.0855371093	0.1430896819
1869.0143444824	0.1385257244
1870.9431518554	0.1426194757
1872.8719592285	0.1465137899
1874.8007666015	0.1445176005
1876.7295739746	0.1451852322
1878.6583813476	0.1448225379
1880.5871887207	0.1442111433
1882.5159960937	0.1449945718
1884.4448034667	0.1430422366
1886.3736108398	0.1446627080
1888.3024182128	0.1420165002
1890.2312255859	0.1397425234
1892.1600329589	0.1437590718
1894.0888403320	0.1421162486
1896.0176477050	0.1417507231
1897.9464550781	0.1430338472
1899.8752624511	0.1421979070
1901.8040698242	0.1423791200
1903.7328771972	0.1415712237
1905.6616845703	0.1421127319
1907.5904919433	0.1409682482
1909.5192993164	0.1401925087
1911.4481066894	0.1408624351
1913.3769140625	0.1406616271
1915.3057214355	0.1416833401
1917.2345288085	0.1367888749
1919.1633361816	0.1369712651
1921.0921435546	0.1410145909
1923.0209509277	0.1372969449
1924.9497583007	0.1394673139
1926.8785656738	0.1405066848
1928.8073730468	0.1392544061
1930.7361804199	0.1403945088
1932.6649877929	0.1389017254
1934.5937951660	0.1398048401
1936.5226025390	0.1388954520
1938.4514099121	0.1395129561
1940.3802172851	0.1392363012
1942.3090246582	0.1358277202
1944.2378320312	0.1376883090
1946.1666394042	0.1386160254
1948.0954467773	0.1384716630
1950.0242541503	0.1387627721
1951.9530615234	0.1383700669
1953.8818688964	0.1383812726
1955.8106762695	0.1380130947
1957.7394836425	0.1382490247
1959.6682910156	0.1379953623
1961.5970983886	0.1377464831
1963.5259057617	0.1379609406
1965.4547131347	0.1372828782
1967.3835205078	0.1362314820
1969.3123278808	0.1370970309
1971.2411352539	0.1375549734
1973.1699426269	0.1368472278
1975.0987499999	0.1372275651
1977.0275573730	0.1366943121
1978.9563647460	0.1367178559
1980.8851721191	0.1366372705
1982.8139794921	0.1362007558
1984.7427868652	0.1363726258
1986.6715942382	0.1353444606
1988.6004016113	0.1354648173
1990.5292089843	0.1348218918
1992.4580163574	0.1334944069
1994.3868237304	0.1347650588
1996.3156311035	0.1349191368
1998.2444384765	0.1341113448
2000.1732458496	0.1343601495
2002.1020532226	0.1340203583
2004.0308605956	0.1336700320
2005.9596679687	0.1333868504
2007.8884753417	0.1330631524
2009.8172827148	0.1329578757
2011.7460900878	0.1325558275
2013.6748974609	0.1324663162
2015.6037048339	0.1317704022
2017.5325122070	0.1308953166
2019.4613195800	0.1311881989
2021.3901269531	0.1312054843
2023.3189343261	0.1307379007
2025.2477416992	0.1305479109
2027.1765490722	0.1303052902
2029.1053564453	0.1299214661
2031.0341638183	0.1296308935
2032.9629711914	0.1293508112
2034.8917785644	0.1291083395
2036.8205859374	0.1287935078
2038.7493933105	0.1284566820
2040.6782006835	0.1279947907
2042.6070080566	0.1277840436
2044.5358154296	0.1278228760
2046.4646228027	0.1274386346
2048.3934301757	0.1271856725
2050.3222375488	0.1267929673
2052.2510449218	0.1267148852
2054.1798522949	0.1265853941
2056.1086596679	0.1261409521
2058.0374670410	0.1260374635
2059.9662744140	0.1255706847
2061.8950817871	0.1255004108
2063.8238891601	0.1249150634
2065.7526965331	0.1244707853
2067.6815039062	0.1247680262
2069.6103112792	0.1244333684
2071.5391186523	0.1241519451
2073.4679260253	0.1237612441
2075.3967333984	0.1236970723
2077.3255407714	0.1233939230
2079.2543481445	0.1231999695
2081.1831555175	0.1231436953
2083.1119628906	0.1225598603
2085.0407702636	0.1225200593
2086.9695776367	0.1221512109
2088.8983850097	0.1218247712
2090.8271923828	0.1216409504
2092.7559997558	0.1215731129
2094.6848071288	0.1214935854
2096.6136145019	0.1210688129
2098.5424218749	0.1209752560
2100.4712292480	0.1206185073
2102.4000366210	0.1204052567
2104.3288439941	0.1202002168
2106.2576513671	0.1199780032
2108.1864587402	0.1197834760
2110.1152661132	0.1195504665
2112.0440734863	0.1193635613
2113.9728808593	0.1189869940
2115.9016882324	0.1190446019
2117.8304956054	0.1188781261
2119.7593029785	0.1185862869
2121.6881103515	0.1184548661
2123.6169177245	0.1183441728
2125.5457250976	0.1180503964
2127.4745324706	0.1178076044
2129.4033398437	0.1179230511
2131.3321472167	0.1175957024
2133.2609545898	0.1174657568
2135.1897619628	0.1172033846
2137.1185693359	0.1169673279
2139.0473767089	0.1169729829
2140.9761840820	0.1167356819
2142.9049914550	0.1167346984
2144.8337988281	0.1164909080
2146.7626062011	0.1162536442
2148.6914135742	0.1160560101
2150.6202209472	0.1158864722
2152.5490283203	0.1157575548
2154.4778356933	0.1156018451
2156.4066430663	0.1155437827
2158.3354504394	0.1153689474
2160.2642578124	0.1151835620
2162.1930651855	0.1149556413
2164.1218725585	0.1148728728
2166.0506799316	0.1147004217
2167.9794873046	0.1146713793
2169.9082946777	0.1145784333
2171.8371020507	0.1143612042
2173.7659094238	0.1141926944
2175.6947167968	0.1139575392
2177.6235241699	0.1140820831
2179.5523315429	0.1138201803
2181.4811389160	0.1135573536
2183.4099462890	0.1132930368
2185.3387536620	0.1130812019
2187.2675610351	0.1132085621
2189.1963684081	0.1130187511
2191.1251757812	0.1128810123
2193.0539831542	0.1126637012
2194.9827905273	0.1126073450
2196.9115979003	0.1124330312
2198.8404052734	0.1123218983
2200.7692126464	0.1121986806
2202.6980200195	0.1119167060
2204.6268273925	0.1119477525
2206.5556347656	0.1116146594
2208.4844421386	0.1115979478
2210.4132495117	0.1114701405
2212.3420568847	0.1111968756
2214.2708642577	0.1111087352
2216.1996716308	0.1109142154
2218.1284790038	0.1109046116
2220.0572863769	0.1106436402
2221.9860937499	0.1105222404
2223.9149011230	0.1102636829
2225.8437084960	0.1101433486
2227.7725158691	0.1100394875
2229.7013232421	0.1097467691
2231.6301306152	0.1097820401
2233.5589379882	0.1095221043
2235.4877453613	0.1092514992
2237.4165527343	0.1091189086
2239.3453601074	0.1090271547
2241.2741674804	0.1086748093
2243.2029748534	0.1084356755
2245.1317822265	0.1083863527
2247.0605895995	0.1081907749
2248.9893969726	0.1080952138
2250.9182043456	0.1078992113
2252.8470117187	0.1077792943
2254.7758190917	0.1074539572
2256.7046264648	0.1074153483
2258.6334338378	0.1072441787
2260.5622412109	0.1069150865
2262.4910485839	0.1069323868
2264.4198559570	0.1066133231
2266.3486633300	0.1064801365
2268.2774707031	0.1063647270
2270.2062780761	0.1063343585
2272.1350854491	0.1060686111
2274.0638928222	0.1059838533
2275.9927001952	0.1060142517
2277.9215075683	0.1055413932
2279.8503149413	0.1055702567
2281.7791223144	0.1054434180
2283.7079296874	0.1054338589
2285.6367370605	0.1052418947
2287.5655444335	0.1049262434
2289.4943518066	0.1048373878
2291.4231591796	0.1044116318
2293.3519665527	0.1041727141
2295.2807739257	0.1037612706
2297.2095812988	0.1035762131
2299.1383886718	0.1030848622
2301.0671960449	0.1026132256
2302.9960034179	0.1023301929
2304.9248107909	0.1016395986
2306.8536181640	0.1011356339
2308.7824255370	0.1002734676
2310.7112329101	0.0996885449
2312.6400402831	0.0986400992
2314.5688476562	0.0974046737
2316.4976550292	0.0966583490
2318.4264624023	0.0952498168
2320.3552697753	0.0940218866
2322.2840771484	0.0928915516
2324.2128845214	0.0916509926
2326.1416918945	0.0906116813
2328.0704992675	0.0896767452
2329.9993066406	0.0884654373
2331.9281140136	0.0876834020
2333.8569213866	0.0875496119
2335.7857287597	0.0870596617
2337.7145361327	0.0869744122
2339.6433435058	0.0868382454
2341.5721508788	0.0871938094
2343.5009582519	0.0884851366
2345.4297656249	0.0899603069
2347.3585729980	0.0937386826
2349.2873803710	0.0965833217
2351.2161877441	0.0933414772
2353.1449951171	0.0885286555
2355.0738024902	0.0855419412
2357.0026098632	0.0828994960
2358.9314172363	0.0814440325
2360.8602246093	0.0806085840
2362.7890319823	0.0802770108
2364.7178393554	0.0808179975
2366.6466467284	0.0817450583
2368.5754541015	0.0834647641
2370.5042614745	0.0854055956
2372.4330688476	0.0876491144
2374.3618762206	0.0899071693
2376.2906835937	0.0921409130
2378.2194909667	0.0941911489
2380.1482983398	0.0956005827
2382.0771057128	0.0967268795
2384.0059130859	0.0972906053
2385.9347204589	0.0976240486
2387.8635278320	0.0976111367
2389.7923352050	0.0976462141
2391.7211425780	0.0976146013
2393.6499499511	0.0973629877
2395.5787573241	0.0973461419
2397.5075646972	0.0970608592
2399.4363720702	0.0970185772
2401.3651794433	0.0968051106
2403.2939868163	0.0966382474
2405.2227941894	0.0966761410
2407.1516015624	0.0963685960
2409.0804089355	0.0962941349
2411.0092163085	0.0961961076
2412.9380236816	0.0960345417
2414.8668310546	0.0958297476
2416.7956384277	0.0957320035
2418.7244458007	0.0956172198
2420.6532531738	0.0954239517
2422.5820605468	0.0953190178
2424.5108679198	0.0951361656
2426.4396752929	0.0950915664
2428.3684826659	0.0949002132
2430.2972900390	0.0947297513
2432.2260974120	0.0947223678
2434.1549047851	0.0946336240
2436.0837121581	0.0944106579
2438.0125195312	0.0942825526
2439.9413269042	0.0941577405
2441.8701342773	0.0939634293
2443.7989416503	0.0939632133
2445.7277490234	0.0936852694
2447.6565563964	0.0935526043
2449.5853637695	0.0934711546
2451.5141711425	0.0932560116
2453.4429785155	0.0932111740
2455.3717858886	0.0930453762
2457.3005932616	0.0929783881
2459.2294006347	0.0928307772
2461.1582080077	0.0927239805
2463.0870153808	0.0925714225
2465.0158227538	0.0924231410
2466.9446301269	0.0924320370
2468.8734374999	0.0922203809
2470.8022448730	0.0920437798
2472.7310522460	0.0919541717
2474.6598596191	0.0918522626
2476.5886669921	0.0916113257
2478.5174743652	0.0915223658
2480.4462817382	0.0914717391
2482.3750891112	0.0912422687
2484.3038964843	0.0911440551
2486.2327038573	0.0910613984
2488.1615112304	0.0909415111
2490.0903186034	0.0907761976
2492.0191259765	0.0907333791
2493.9479333495	0.0905589834
2495.8767407226	0.0903723091
2497.8055480956	0.0903218836
2499.7343554687	0.0901127234
2501.6631628417	0.0899752378
2503.5919702148	0.0899674818
2505.5207775878	0.0898864418
2507.4495849609	0.0895993114
2509.3783923339	0.0895819813
2511.3071997069	0.0895176828
2513.2360070800	0.0893253386
2515.1648144530	0.0892637894
2517.0936218261	0.0890398622
2519.0224291991	0.0889822394
2520.9512365722	0.0888420194
2522.8800439452	0.0887371451
2524.8088513183	0.0885715038
2526.7376586913	0.0884041190
2528.6664660644	0.0883976370
2530.5952734374	0.0882020369
2532.5240808105	0.0881587863
2534.4528881835	0.0879624039
2536.3816955566	0.0878508464
2538.3105029296	0.0877503827
2540.2393103027	0.0875552744
2542.1681176757	0.0874877572
2544.0969250487	0.0872757137
2546.0257324218	0.0872810334
2547.9545397948	0.0871413052
2549.8833471679	0.0869907439
2551.8121545409	0.0869041756
2553.7409619140	0.0866701007
2555.6697692870	0.0865624845
2557.5985766601	0.0864124447
2559.5273840331	0.0863395631
2561.4561914062	0.0861542672
2563.3849987792	0.0859638304
2565.3138061523	0.0860040337
2567.2426135253	0.0859418809
2569.1714208984	0.0857215524
2571.1002282714	0.0855961740
2573.0290356444	0.0854809061
2574.9578430175	0.0853272974
2576.8866503905	0.0852133408
2578.8154577636	0.0849840567
2580.7442651366	0.0849519074
2582.6730725097	0.0848970413
2584.6018798827	0.0847707540
2586.5306872558	0.0846329331
2588.4594946288	0.0843063593
2590.3883020019	0.0842859298
2592.3171093749	0.0843474194
2594.2459167480	0.0842616856
2596.1747241210	0.0840432271
2598.1035314941	0.0839035660
2600.0323388671	0.0838373303
2601.9611462401	0.0835825279
2603.8899536132	0.0835520029
2605.8187609862	0.0834582299
2607.7475683593	0.0832716003
2609.6763757323	0.0832318366
2611.6051831054	0.0831103027
2613.5339904784	0.0829960331
2615.4627978515	0.0828455389
2617.3916052245	0.0827060342
2619.3204125976	0.0825987235
2621.2492199706	0.0824706927
2623.1780273437	0.0823207647
2625.1068347167	0.0821359977
2627.0356420898	0.0820452571
2628.9644494628	0.0819708109
2630.8932568358	0.0819203556
2632.8220642089	0.0818182901
2634.7508715819	0.0815500095
2636.6796789550	0.0813897252
2638.6084863280	0.0812880546
2640.5372937011	0.0812262297
2642.4661010741	0.0811259300
2644.3949084472	0.0809378773
2646.3237158202	0.0808452442
2648.2525231933	0.0807027817
2650.1813305663	0.0806398094
2652.1101379394	0.0805059224
2654.0389453124	0.0804726109
2655.9677526855	0.0804037303
2657.8965600585	0.0800316632
2659.8253674315	0.0800795034
2661.7541748046	0.0799166709
2663.6829821776	0.0796393082
2665.6117895507	0.0796765536
2667.5405969237	0.0795556456
2669.4694042968	0.0795300230
2671.3982116698	0.0793631524
2673.3270190429	0.0792133808
2675.2558264159	0.0791257173
2677.1846337890	0.0789779425
2679.1134411620	0.0789031982
2681.0422485351	0.0787901431
2682.9710559081	0.0787556171
2684.8998632812	0.0785276219
2686.8286706542	0.0782589167
2688.7574780273	0.0781938285
2690.6862854003	0.0780945718
2692.6150927733	0.0779864341
2694.5439001464	0.0779827535
2696.4727075194	0.0777735859
2698.4015148925	0.0775624067
2700.3303222655	0.0776479840
2702.2591296386	0.0774183720
2704.1879370116	0.0772552043
2706.1167443847	0.0772267431
2708.0455517577	0.0769766271
2709.9743591308	0.0769924000
2711.9031665038	0.0769438148
2713.8319738769	0.0766913816
2715.7607812499	0.0766402185
2717.6895886230	0.0765545517
2719.6183959960	0.0763743371
2721.5472033690	0.0762943029
2723.4760107421	0.0760644600
2725.4048181151	0.0759458318
2727.3336254882	0.0759506822
2729.2624328612	0.0757252872
2731.1912402343	0.0756428242
2733.1200476073	0.0755129755
2735.0488549804	0.0752875432
2736.9776623534	0.0752770081
2738.9064697265	0.0752151832
2740.8352770995	0.0750357360
2742.7640844726	0.0749026313
2744.6928918456	0.0747337341
2746.6216992187	0.0745909810
2748.5505065917	0.0745054781
2750.4793139647	0.0743209124
2752.4081213378	0.0741553232
2754.3369287108	0.0740162358
2756.2657360839	0.0740022957
2758.1945434569	0.0739630610
2760.1233508300	0.0738552958
2762.0521582030	0.0736891627
2763.9809655761	0.0734334067
2765.9097729491	0.0734564364
2767.8385803222	0.0733229816
2769.7673876952	0.0731608719
2771.6961950683	0.0731030405
2773.6250024413	0.0729079172
2775.5538098144	0.0727773309
2777.4826171874	0.0726429820
2779.4114245604	0.0725578666
2781.3402319335	0.0723330677
2783.2690393065	0.0722585469
2785.1978466796	0.0721943602
2787.1266540526	0.0719749779
2789.0554614257	0.0717748106
2790.9842687987	0.0716098547
2792.9130761718	0.0717121363
2794.8418835448	0.0714299679
2796.7706909179	0.0712530762
2798.6994982909	0.0713097304
2800.6283056640	0.0710787624
2802.5571130370	0.0709005594
2804.4859204101	0.0706545711
2806.4147277831	0.0705866739
2808.3435351562	0.0705414489
2810.2723425292	0.0703904331
2812.2011499022	0.0702015609
2814.1299572753	0.0700981319
2816.0587646483	0.0700673312
2817.9875720214	0.0697993189
2819.9163793944	0.0696562156
2821.8451867675	0.0695848912
2823.7739941405	0.0694406554
2825.7028015136	0.0692996234
2827.6316088866	0.0691885799
2829.5604162597	0.0690102428
2831.4892236327	0.0688674897
2833.4180310058	0.0687494799
2835.3468383788	0.0685145408
2837.2756457519	0.0683376938
2839.2044531249	0.0681349114
2841.1332604979	0.0680069551
2843.0620678710	0.0677000284
2844.9908752440	0.0674703121
2846.9196826171	0.0671987534
2848.8484899901	0.0666236430
2850.7772973632	0.0665424317
2852.7061047362	0.0665524527
2854.6349121093	0.0663994700
2856.5637194823	0.0663097054
2858.4925268554	0.0662248209
2860.4213342284	0.0659805089
2862.3501416015	0.0659193993
2864.2789489745	0.0660146326
2866.2077563476	0.0657450706
2868.1365637206	0.0656420290
2870.0653710936	0.0655777454
2871.9941784667	0.0655081570
2873.9229858397	0.0654088408
2875.8517932128	0.0652702078
2877.7806005858	0.0651049390
2879.7094079589	0.0649513900
2881.6382153319	0.0650187880
2883.5670227050	0.0647571534
2885.4958300780	0.0647539347
2887.4246374511	0.0647023022
2889.3534448241	0.0644659102
2891.2822521972	0.0644107759
2893.2110595702	0.0641757697
2895.1398669433	0.0640548170
2897.0686743163	0.0637729168
2898.9974816893	0.0637048408
2900.9262890624	0.0635763109
2902.8550964354	0.0633768067
2904.7839038085	0.0632505789
2906.7127111815	0.0629889295
2908.6415185546	0.0629399419
2910.5703259276	0.0625049621
2912.4991333007	0.0622259974
2914.4279406737	0.0619738698
2916.3567480468	0.0616297498
2918.2855554198	0.0615445636
2920.2143627929	0.0614333935
2922.1431701659	0.0613425747
2924.0719775390	0.0611294694
2926.0007849120	0.0611708313
2927.9295922851	0.0610142834
2929.8583996581	0.0609654598
2931.7872070311	0.0610204786
2933.7160144042	0.0608494692
2935.6448217772	0.0608896092
2937.5736291503	0.0607893243
2939.5024365233	0.0608563833
2941.4312438964	0.0608161427
2943.3600512694	0.0608230866
2945.2888586425	0.0607666969
2947.2176660155	0.0605257303
2949.1464733886	0.0605222173
2951.0752807616	0.0604394376
2953.0040881347	0.0604034699
2954.9328955077	0.0600833893
2956.8617028808	0.0599039942
2958.7905102538	0.0596972778
2960.7193176268	0.0594058074
2962.6481249999	0.0594226047
2964.5769323729	0.0592509136
2966.5057397460	0.0591774508
2968.4345471190	0.0591183156
2970.3633544921	0.0592316836
2972.2921618651	0.0592627600
2974.2209692382	0.0592562556
2976.1497766112	0.0594021939
2978.0785839843	0.0593224466
2980.0073913573	0.0593061149
2981.9361987304	0.0592335835
2983.8650061034	0.0591980591
2985.7938134765	0.0591564178
2987.7226208495	0.0591575950
2989.6514282225	0.0590588674
2991.5802355956	0.0589759499
2993.5090429686	0.0588965788
2995.4378503417	0.0586734600
2997.3666577147	0.0587535501
2999.2954650878	0.0585373044
3001.2242724608	0.0584453084
3003.1530798339	0.0582725406
3005.0818872069	0.0579861850
3007.0106945800	0.0581395328
3008.9395019530	0.0579740033
3010.8683093261	0.0578500479
3012.7971166991	0.0576474890
3014.7259240722	0.0574938208
3016.6547314452	0.0574408919
3018.5835388182	0.0573118329
3020.5123461913	0.0572642200
3022.4411535643	0.0570509657
3024.3699609374	0.0570466518
3026.2987683104	0.0568999909
3028.2275756835	0.0567031838
3030.1563830565	0.0565736964
3032.0851904296	0.0564533398
3034.0139978026	0.0564405099
3035.9428051757	0.0561528131
3037.8716125487	0.0560841672
3039.8004199218	0.0561706275
3041.7292272948	0.0559791327
3043.6580346679	0.0557785332
3045.5868420409	0.0557962544
3047.5156494139	0.0556743145
3049.4444567870	0.0553842708
3051.3732641600	0.0553549081
3053.3020715331	0.0553215481
3055.2308789061	0.0551218167
3057.1596862792	0.0550759621
3059.0884936522	0.0550043881
3061.0173010253	0.0547677577
3062.9461083983	0.0548174605
3064.8749157714	0.0545620285
3066.8037231444	0.0542884544
3068.7325305175	0.0544384420
3070.6613378905	0.0542527586
3072.5901452636	0.0541914925
3074.5189526366	0.0541421324
3076.4477600097	0.0540258847
3078.3765673827	0.0539002791
3080.3053747557	0.0536868274
3082.2341821288	0.0536012389
3084.1629895018	0.0534612127
3086.0917968749	0.0535694137
3088.0206042479	0.0534535199
3089.9494116210	0.0532308482
3091.8782189940	0.0531779826
3093.8070263671	0.0529465228
3095.7358337401	0.0529433414
3097.6646411132	0.0528663173
3099.5934484862	0.0525590703
3101.5222558593	0.0525019318
3103.4510632323	0.0525248460
3105.3798706054	0.0522954985
3107.3086779784	0.0521600470
3109.2374853514	0.0520250089
3111.1662927245	0.0518728867
3113.0951000975	0.0518718101
3115.0239074706	0.0516227111
3116.9527148436	0.0514514521
3118.8815222167	0.0513929203
3120.8103295897	0.0512651131
3122.7391369628	0.0511376821
3124.6679443358	0.0510360226
3126.5967517089	0.0508817099
3128.5255590819	0.0506351888
3130.4543664550	0.0506546460
3132.3831738280	0.0505948067
3134.3119812011	0.0503094308
3136.2407885741	0.0501795895
3138.1695959471	0.0501652509
3140.0984033202	0.0500007346
3142.0272106932	0.0498827621
3143.9560180663	0.0498468578
3145.8848254393	0.0496689789
3147.8136328124	0.0495425276
3149.7424401854	0.0492960922
3151.6712475585	0.0491641313
3153.6000549315	0.0491089970
3155.5288623046	0.0489919148
3157.4576696776	0.0488888510
3159.3864770507	0.0486678705
3161.3152844237	0.0486306027
3163.2440917968	0.0484643430
3165.1728991698	0.0483102575
3167.1017065428	0.0482174791
3169.0305139159	0.0480171591
3170.9593212889	0.0479011573
3172.8881286620	0.0478045344
3174.8169360350	0.0477962941
3176.7457434081	0.0474636294
3178.6745507811	0.0472619198
3180.6033581542	0.0473098569
3182.5321655272	0.0471380949
3184.4609729003	0.0470417887
3186.3897802733	0.0469201803
3188.3185876464	0.0468411930
3190.2473950194	0.0466655940
3192.1762023925	0.0464524552
3194.1050097655	0.0464528948
3196.0338171386	0.0463801175
3197.9626245116	0.0462127998
3199.8914318846	0.0461214148
3201.8202392577	0.0460509919
3203.7490466307	0.0458991975
3205.6778540038	0.0458239019
3207.6066613768	0.0457197502
3209.5354687499	0.0455943383
3211.4642761229	0.0455073267
3213.3930834960	0.0453357808
3215.3218908690	0.0453089923
3217.2506982421	0.0452744924
3219.1795056151	0.0451087244
3221.1083129882	0.0450900868
3223.0371203612	0.0450264104
3224.9659277343	0.0449106470
3226.8947351073	0.0447944924
3228.8235424803	0.0446202606
3230.7523498534	0.0446774848
3232.6811572264	0.0444950312
3234.6099645995	0.0443359539
3236.5387719725	0.0444711894
3238.4675793456	0.0441938937
3240.3963867186	0.0441684388
3242.3251940917	0.0442751795
3244.2540014647	0.0441241823
3246.1828088378	0.0440479815
3248.1116162108	0.0438803099
3250.0404235839	0.0439497679
3251.9692309569	0.0439663492
3253.8980383300	0.0437144041
3255.8268457030	0.0436655469
3257.7556530760	0.0436029583
3259.6844604491	0.0434953645
3261.6132678221	0.0435694605
3263.5420751952	0.0434815064
3265.4708825682	0.0433394760
3267.3996899413	0.0433577187
3269.3284973143	0.0433047116
3271.2573046874	0.0432611406
3273.1861120604	0.0430761576
3275.1149194335	0.0428896323
3277.0437268065	0.0429303162
3278.9725341796	0.0430272147
3280.9013415526	0.0429636985
3282.8301489257	0.0427800193
3284.7589562987	0.0427533835
3286.6877636717	0.0426981226
3288.6165710448	0.0426268689
3290.5453784178	0.0424880497
3292.4741857909	0.0424093679
3294.4029931639	0.0424518213
3296.3318005370	0.0423810408
3298.2606079100	0.0423068926
3300.1894152831	0.0422427878
3302.1182226561	0.0422015190
3304.0470300292	0.0420174710
3305.9758374022	0.0420329645
3307.9046447753	0.0419141129
3309.8334521483	0.0416584536
3311.7622595214	0.0418710187
3313.6910668944	0.0418201983
3315.6198742675	0.0416987464
3317.5486816405	0.0416845605
3319.4774890135	0.0416686945
3321.4062963866	0.0416111499
3323.3351037596	0.0415086672
3325.2639111327	0.0414685532
3327.1927185057	0.0412102640
3329.1215258788	0.0412037894
3331.0503332518	0.0411744490
3332.9791406249	0.0410658047
3334.9079479979	0.0409343615
3336.8367553710	0.0407675281
3338.7655627440	0.0409131609
3340.6943701171	0.0408753492
3342.6231774901	0.0408208892
3344.5519848632	0.0406908542
3346.4807922362	0.0406114087
3348.4095996092	0.0405927300
3350.3384069823	0.0404246040
3352.2672143553	0.0404483788
3354.1960217284	0.0403412804
3356.1248291014	0.0402767658
3358.0536364745	0.0402008183
3359.9824438475	0.0400234200
3361.9112512206	0.0399385355
3363.8400585936	0.0398492143
3365.7688659667	0.0398165137
3367.6976733397	0.0396901444
3369.6264807128	0.0395837873
3371.5552880858	0.0395316258
3373.4840954589	0.0394706875
3375.4129028319	0.0394937396
3377.3417102049	0.0394187272
3379.2705175780	0.0392761752
3381.1993249510	0.0393081903
3383.1281323241	0.0392064415
3385.0569396971	0.0390419587
3386.9857470702	0.0390296094
3388.9145544432	0.0389839299
3390.8433618163	0.0388928577
3392.7721691893	0.0386200808
3394.7009765624	0.0385649465
3396.6297839354	0.0385825112
3398.5585913085	0.0384429544
3400.4873986815	0.0383509770
3402.4162060546	0.0382575318
3404.3450134276	0.0382648706
3406.2738208006	0.0381717980
3408.2026281737	0.0381284133
3410.1314355467	0.0380285308
3412.0602429198	0.0380316973
3413.9890502928	0.0379603244
3415.9178576659	0.0377954692
3417.8466650389	0.0378308892
3419.7754724120	0.0374779403
3421.7042797850	0.0374828354
3423.6330871581	0.0375515893
3425.5618945311	0.0374438986
3427.4907019042	0.0374202356
3429.4195092772	0.0372130647
3431.3483166503	0.0372215956
3433.2771240233	0.0370740220
3435.2059313963	0.0370297208
3437.1347387694	0.0369592384
3439.0635461424	0.0369743742
3440.9923535155	0.0368551314
3442.9211608885	0.0366513431
3444.8499682616	0.0368746072
3446.7787756346	0.0363870934
3448.7075830077	0.0363553762
3450.6363903807	0.0367035344
3452.5651977538	0.0365297571
3454.4940051268	0.0365512371
3456.4228124999	0.0364423059
3458.3516198729	0.0363702849
3460.2804272460	0.0362245440
3462.2092346190	0.0360430628
3464.1380419921	0.0360954963
3466.0668493651	0.0361229554
3467.9956567381	0.0359439403
3469.9244641112	0.0359603688
3471.8532714842	0.0360073932
3473.7820788573	0.0358307585
3475.7108862303	0.0358619094
3477.6396936034	0.0358157679
3479.5685009764	0.0356951654
3481.4973083495	0.0354427844
3483.4261157225	0.0355895907
3485.3549230956	0.0357324928
3487.2837304686	0.0354938321
3489.2125378417	0.0355306715
3491.1413452147	0.0354219787
3493.0701525878	0.0355467796
3494.9989599608	0.0354366377
3496.9277673338	0.0353383571
3498.8565747069	0.0355876386
3500.7853820799	0.0353797227
3502.7141894530	0.0349178724
3504.6429968260	0.0348520204
3506.5718041991	0.0354257599
3508.5006115721	0.0352269374
3510.4294189452	0.0349716991
3512.3582263182	0.0351838022
3514.2870336913	0.0352380984
3516.2158410643	0.0352839977
3518.1446484374	0.0350344852
3520.0734558104	0.0351421647
3522.0022631835	0.0348828956
3523.9310705565	0.0345141143
3525.8598779295	0.0346390270
3527.7886853026	0.0346636623
3529.7174926756	0.0346873403
3531.6463000487	0.0347954631
3533.5751074217	0.0350237265
3535.5039147948	0.0347693451
3537.4327221678	0.0347768962
3539.3615295409	0.0349816233
3541.2903369139	0.0347690061
3543.2191442870	0.0346809849
3545.1479516600	0.0341349691
3547.0767590331	0.0336688571
3549.0055664061	0.0344570279
3550.9343737792	0.0347055569
3552.8631811522	0.0340287425
3554.7919885252	0.0345236957
3556.7207958983	0.0346494317
3558.6496032713	0.0344337821
3560.5784106444	0.0343772918
3562.5072180174	0.0340862945
3564.4360253905	0.0342997201
3566.3648327635	0.0326682404
3568.2936401366	0.0319182649
3570.2224475096	0.0339435749
3572.1512548827	0.0346034728
3574.0800622557	0.0343044885
3576.0088696288	0.0344064683
3577.9376770018	0.0342598855
3579.8664843749	0.0341073275
3581.7952917479	0.0340971723
3583.7240991210	0.0342452675
3585.6529064940	0.0336462334
3587.5817138670	0.0316416323
3589.5105212401	0.0322596282
3591.4393286131	0.0343534090
3593.3681359862	0.0336063057
3595.2969433592	0.0331038758
3597.2257507323	0.0336536914
3599.1545581053	0.0337794758
3601.0833654784	0.0335633345
3603.0121728514	0.0336987451
3604.9409802245	0.0340482965
3606.8697875975	0.0332636982
3608.7985949706	0.0317679048
3610.7274023436	0.0322394073
3612.6562097167	0.0328796878
3614.5850170897	0.0321689397
3616.5138244627	0.0337553918
3618.4426318358	0.0319005176
3620.3714392088	0.0310794394
3622.3002465819	0.0339287519
3624.2290539549	0.0331498273
3626.1578613280	0.0343275964
3628.0866687010	0.0303519815
3630.0154760741	0.0282121785
3631.9442834471	0.0336227566
3633.8730908202	0.0329243615
3635.8018981932	0.0333077982
3637.7307055663	0.0338368528
3639.6595129393	0.0332781971
3641.5883203124	0.0336831808
3643.5171276854	0.0332423598
3645.4459350584	0.0335079134
3647.3747424315	0.0309199467
3649.3035498045	0.0288513713
3651.2323571776	0.0292410180
3653.1611645506	0.0331896171
3655.0899719237	0.0327438042
3657.0187792967	0.0301876068
3658.9475866698	0.0336006060
3660.8763940428	0.0329642892
3662.8052014159	0.0334592462
3664.7340087889	0.0333109200
3666.6628161620	0.0329402313
3668.5916235350	0.0323373303
3670.5204309081	0.0275413357
3672.4492382811	0.0318311192
3674.3780456541	0.0307632349
3676.3068530272	0.0265834201
3678.2356604002	0.0316506177
3680.1644677733	0.0322332010
3682.0932751463	0.0321840942
3684.0220825194	0.0328686088
3685.9508898924	0.0325047895
3687.8796972655	0.0298691392
3689.8085046385	0.0280325375
3691.7373120116	0.0312393550
3693.6661193846	0.0317155942
3695.5949267577	0.0321962759
3697.5237341307	0.0322431177
3699.4525415038	0.0319691151
3701.3813488768	0.0313901454
3703.3101562499	0.0303955004
3705.2389636229	0.0326338932
3707.1677709959	0.0313572288
3709.0965783690	0.0308392383
3711.0253857420	0.0293906927
3712.9541931151	0.0279966220
3714.8830004881	0.0316741429
3716.8118078612	0.0311220847
3718.7406152342	0.0313464589
3720.6694226073	0.0308575109
3722.5982299803	0.0300045982
3724.5270373534	0.0308696013
3726.4558447264	0.0290942378
3728.3846520995	0.0309568960
3730.3134594725	0.0305907056
3732.2422668456	0.0287387632
3734.1710742186	0.0282869525
3736.0998815916	0.0271706358
3738.0286889647	0.0282320101
3739.9574963377	0.0300208181
3741.8863037108	0.0312224887
3743.8151110838	0.0255629290
3745.7439184569	0.0244957749
3747.6727258299	0.0298334770
3749.6015332030	0.0265056435
3751.5303405760	0.0249497481
3753.4591479491	0.0276582111
3755.3879553221	0.0293701403
3757.3167626952	0.0301645529
3759.2455700682	0.0283934902
3761.1743774413	0.0292685628
3763.1031848143	0.0305320472
3765.0319921873	0.0289645102
3766.9607995604	0.0294323787
3768.8896069334	0.0291303135
3770.8184143065	0.0281327665
3772.7472216795	0.0298013426
3774.6760290526	0.0298275389
3776.6048364256	0.0298226029
3778.5336437987	0.0291720815
3780.4624511717	0.0284155831
3782.3912585448	0.0297598690
3784.3200659178	0.0292215031
3786.2488732909	0.0290594921
3788.1776806639	0.0293580517
3790.1064880370	0.0293491464
3792.0352954100	0.0291156378
3793.9641027830	0.0294753686
3795.8929101561	0.0281788334
3797.8217175291	0.0278734956
3799.7505249022	0.0289418474
3801.6793322752	0.0241231509
3803.6081396483	0.0273754615
3805.5369470213	0.0290053133
3807.4657543944	0.0248172656
3809.3945617674	0.0289111622
3811.3233691405	0.0282965489
3813.2521765135	0.0290812608
3815.1809838866	0.0267495960
3817.1097912596	0.0242722444
3819.0385986327	0.0290453248
3820.9674060057	0.0247421116
3822.8962133787	0.0257561579
3824.8250207518	0.0287922528
3826.7538281248	0.0266382881
3828.6826354979	0.0280966163
3830.6114428709	0.0273146965
3832.5402502440	0.0266808495
3834.4690576170	0.0270122122
3836.3978649901	0.0259417500
3838.3266723631	0.0239074975
3840.2554797362	0.0254738592
3842.1842871092	0.0270411316
3844.1130944823	0.0260626823
3846.0419018553	0.0276725255
3847.9707092284	0.0272488780
3849.8995166014	0.0272919461
3851.8283239745	0.0251772851
3853.7571313475	0.0202000327
3855.6859387205	0.0229342245
3857.6147460936	0.0274131224
3859.5435534666	0.0266680978
3861.4723608397	0.0264878124
3863.4011682127	0.0259940960
3865.3299755858	0.0245478284
3867.2587829588	0.0268094428
3869.1875903319	0.0248736478
3871.1163977049	0.0234293416
3873.0452050780	0.0266860984
3874.9740124510	0.0251064785
3876.9028198241	0.0265188739
3878.8316271971	0.0268616527
3880.7604345702	0.0239990540
3882.6892419432	0.0265581273
3884.6180493162	0.0251477081
3886.5468566893	0.0235789306
3888.4756640623	0.0266271215
3890.4044714354	0.0254148003
3892.3332788084	0.0242336206
3894.2620861815	0.0260251351
3896.1908935545	0.0262232851
3898.1197009276	0.0252417941
3900.0485083006	0.0241682231
3901.9773156737	0.0239939876
3903.9061230467	0.0237887539
3905.8349304198	0.0240749791
3907.7637377928	0.0257856492
3909.6925451659	0.0257219635
3911.6213525389	0.0255095325
3913.5501599119	0.0257949643
3915.4789672850	0.0251533166
3917.4077746580	0.0246306248
3919.3365820311	0.0245475546
3921.2653894041	0.0252097696
3923.1941967772	0.0250379164
3925.1230041502	0.0246393271
3927.0518115233	0.0249686502
3928.9806188963	0.0251650587
3930.9094262694	0.0246961806
3932.8382336424	0.0241002105
3934.7670410155	0.0248601139
3936.6958483885	0.0249378271
3938.6246557616	0.0247327499
3940.5534631346	0.0249259118
3942.4822705076	0.0241345353
3944.4110778807	0.0243237093
3946.3398852537	0.0246743821
3948.2686926268	0.0241594706
3950.1974999998	0.0242414176
3952.1263073729	0.0243753828
3954.0551147459	0.0243249647
3955.9839221190	0.0242880248
3957.9127294920	0.0241675191
3959.8415368651	0.0242314264
3961.7703442381	0.0241435673
3963.6991516112	0.0240979344
3965.6279589842	0.0241596624
3967.5567663573	0.0240557157
3969.4855737303	0.0240063071
3971.4143811034	0.0238399878
3973.3431884764	0.0238639601
3975.2719958494	0.0237913318
3977.2008032225	0.0236374196
3979.1296105955	0.0237716865
3981.0584179686	0.0236539207
3982.9872253416	0.0235963948
3984.9160327147	0.0235478505
3986.8448400877	0.0235543158
3988.7736474608	0.0235495195
3990.7024548338	0.0233163647
3992.6312622069	0.0233919173
3994.5600695799	0.0234032385
3996.4888769530	0.0232516192
3998.4176843260	0.0232028384
4000.3464916991	0.0231971145
4002.2752990721	0.0231960863
4004.2041064451	0.0231329873
4006.1329138182	0.0230906047
4008.0617211912	0.0230183266
4009.9905285643	0.0229199771
4011.9193359373	0.0228744596
4013.8481433104	0.0228680298
4015.7769506834	0.0228313003
4017.7057580565	0.0227665193
4019.6345654295	0.0226800181
4021.5633728026	0.0225887485
4023.4921801756	0.0225565918
4025.4209875487	0.0225804467
4027.3497949217	0.0225441139
4029.2786022948	0.0224363729
4031.2074096678	0.0224141702
4033.1362170408	0.0223602988
4035.0650244139	0.0222772937
4036.9938317869	0.0222413782
4038.9226391600	0.0221352540
4040.8514465330	0.0221258588
4042.7802539061	0.0221584849
4044.7090612791	0.0219687410
4046.6378686522	0.0219442528
4048.5666760252	0.0220637657
4050.4954833983	0.0219344757
4052.4242907713	0.0218179412
4054.3530981444	0.0217990130
4056.2819055174	0.0218028352
4058.2107128905	0.0216733254
4060.1395202635	0.0216051880
4062.0683276365	0.0216196049
4063.9971350096	0.0214791708
4065.9259423826	0.0215434618
4067.8547497557	0.0215281490
4069.7835571287	0.0214315131
4071.7123645018	0.0214082301
4073.6411718748	0.0213073120
4075.5699792479	0.0212817229
4077.4987866209	0.0212511569
4079.4275939940	0.0212343000
4081.3564013670	0.0211283024
4083.2852087401	0.0210515372
4085.2140161131	0.0210479163
4087.1428234862	0.0210417472
4089.0716308592	0.0209560655
4091.0004382323	0.0208002999
4092.9292456053	0.0208352394
4094.8580529783	0.0208418351
4096.7868603514	0.0208761971
4098.7156677244	0.0208290927
4100.6444750975	0.0206830986
4102.5732824705	0.0206227601
4104.5020898436	0.0205189213
4106.4308972166	0.0204749629
4108.3597045897	0.0204199553
4110.2885119627	0.0204223040
4112.2173193358	0.0204329751
4114.1461267088	0.0203347318
4116.0749340819	0.0202973634
4118.0037414549	0.0203316100
4119.9325488280	0.0202146396
4121.8613562010	0.0201147459
4123.7901635740	0.0201456472
4125.7189709471	0.0200684480
4127.6477783201	0.0200570896
4129.5765856932	0.0200096238
4131.5053930662	0.0199367981
4133.4342004393	0.0198917873
4135.3630078123	0.0198543705
4137.2918151854	0.0198060796
4139.2206225584	0.0197628774
4141.1494299315	0.0197493322
4143.0782373045	0.0195449963
4145.0070446776	0.0195459314
4146.9358520506	0.0195435788
4148.8646594237	0.0195067786
4150.7934667967	0.0195013899
4152.7222741697	0.0194494277
4154.6510815428	0.0194937252
4156.5798889158	0.0193254277
4158.5086962889	0.0193449706
4160.4375036619	0.0192461386
4162.3663110350	0.0192077812
4164.2951184080	0.0192123242
4166.2239257811	0.0190147348
4168.1527331541	0.0190996006
4170.0815405272	0.0189736113
4172.0103479002	0.0189809501
4173.9391552733	0.0189428404
4175.8679626463	0.0188996326
4177.7967700194	0.0188873205
4179.7255773924	0.0187674463
4181.6543847654	0.0188209638
4183.5831921385	0.0186559707
4185.5119995115	0.0187315140
4187.4408068846	0.0186210256
4189.3696142576	0.0185499527
4191.2984216307	0.0185365714
4193.2272290037	0.0184226446
4195.1560363768	0.0185435973
4197.0848437498	0.0183467437
4199.0136511229	0.0184389763
4200.9424584959	0.0183615945
4202.8712658690	0.0182749350
4204.8000732420	0.0182290021
4206.7288806151	0.0180837363
4208.6576879881	0.0182685964
4210.5864953611	0.0181337968
4212.5153027342	0.0181999393
4214.4441101072	0.0181136802
4216.3729174803	0.0180077292
4218.3017248533	0.0179802775
4220.2305322264	0.0178770535
4222.1593395994	0.0179480091
4224.0881469725	0.0177927539
4226.0169543455	0.0178657267
4227.9457617186	0.0177530833
4229.8745690916	0.0177394785
4231.8033764647	0.0176763572
4233.7321838377	0.0174988285
4235.6609912108	0.0175905302
4237.5897985838	0.0174510889
4239.5186059569	0.0175082758
4241.4474133299	0.0174387321
4243.3762207029	0.0174442083
4245.3050280760	0.0173526946
4247.2338354490	0.0172244683
4249.1626428221	0.0173512287
4251.0914501951	0.0172128864
4253.0202575682	0.0171939731
4254.9490649412	0.0171026364
4256.8778723143	0.0171150938
4258.8066796873	0.0171031021
4260.7354870604	0.0170713328
4262.6642944334	0.0170489475
4264.5931018065	0.0169205219
4266.5219091795	0.0169215295
4268.4507165526	0.0167870019
4270.3795239256	0.0168574117
4272.3083312986	0.0167589597
4274.2371386717	0.0167124830
4276.1659460447	0.0167542417
4278.0947534178	0.0166718047
4280.0235607908	0.0167074241
4281.9523681639	0.0165701658
4283.8811755369	0.0166624188
4285.8099829100	0.0165778175
4287.7387902830	0.0165034309
4289.6675976561	0.0165303834
4291.5964050291	0.0163971055
4293.5252124022	0.0163992327
4295.4540197752	0.0163528584
4297.3828271483	0.0163796730
4299.3116345213	0.0162927657
4301.2404418943	0.0162813254
4303.1692492674	0.0161841027
4305.0980566404	0.0160800274
4307.0268640135	0.0161876697
4308.9556713865	0.0161282402
4310.8844787596	0.0160435289
4312.8132861326	0.0159803927
4314.7420935057	0.0160156935
4316.6709008787	0.0158983655
4318.5997082518	0.0158826988
4320.5285156248	0.0158779882
4322.4573229979	0.0157590136
4324.3861303709	0.0157883205
4326.3149377440	0.0157032087
4328.2437451170	0.0157211274
4330.1725524900	0.0156843793
4332.1013598631	0.0156935304
4334.0301672361	0.0156742111
4335.9589746092	0.0155914249
4337.8877819822	0.0155499950
4339.8165893553	0.0154576022
4341.7453967283	0.0154875163
4343.6742041014	0.0153477807
4345.6030114744	0.0153341461
4347.5318188475	0.0153688202
4349.4606262205	0.0153272515
4351.3894335936	0.0152239632
4353.3182409666	0.0151748471
4355.2470483397	0.0151920300
4357.1758557127	0.0149960797
4359.1046630858	0.0151191521
4361.0334704588	0.0150549170
4362.9622778318	0.0150226373
4364.8910852049	0.0150774121
4366.8198925779	0.0148518309
4368.7486999510	0.0149471015
4370.6775073240	0.0148853194
4372.6063146971	0.0148629900
4374.5351220701	0.0148974629
4376.4639294432	0.0148063060
4378.3927368162	0.0147181442
4380.3215441893	0.0146071129
4382.2503515623	0.0146966949
4384.1791589354	0.0146319810
4386.1079663084	0.0145860910
4388.0367736815	0.0145851132
4389.9655810545	0.0145058678
4391.8943884275	0.0144968722
4393.8231958006	0.0144382827
4395.7520031736	0.0144110862
4397.6808105467	0.0143961925
4399.6096179197	0.0143575296
4401.5384252928	0.0143332118
4403.4672326658	0.0142363906
4405.3960400389	0.0142085999
4407.3248474119	0.0142826512
4409.2536547850	0.0141465571
4411.1824621580	0.0141645977
4413.1112695311	0.0141878892
4415.0400769041	0.0140161337
4416.9688842772	0.0140335178
4418.8976916502	0.0139972018
4420.8264990232	0.0139807025
4422.7553063963	0.0139503349
4424.6841137693	0.0139665464
4426.6129211424	0.0139249368
4428.5417285154	0.0138269365
4430.4705358885	0.0138539746
4432.3993432615	0.0137017341
4434.3281506346	0.0137120355
4436.2569580076	0.0137095684
4438.1857653807	0.0136559187
4440.1145727537	0.0136884153
4442.0433801268	0.0135994134
4443.9721874998	0.0135142189
4445.9009948729	0.0135171376
4447.8298022459	0.0136217438
4449.7586096189	0.0135302581
4451.6874169920	0.0134827504
4453.6162243650	0.0134218149
4455.5450317381	0.0133220125
4457.4738391111	0.0132863214
4459.4026464842	0.0131789735
4461.3314538572	0.0132554900
4463.2602612303	0.0132006258
4465.1890686033	0.0131896157
4467.1178759764	0.0131784864
4469.0466833494	0.0131284902
4470.9754907225	0.0132062649
4472.9042980955	0.0130634448
4474.8331054686	0.0130321067
4476.7619128416	0.0130062439
4478.6907202147	0.0129489210
4480.6195275877	0.0130042844
4482.5483349607	0.0129535021
4484.4771423338	0.0128448494
4486.4059497068	0.0128122028
4488.3347570799	0.0128510762
4490.2635644529	0.0128336474
4492.1923718260	0.0128352996
4494.1211791990	0.0127639929
4496.0499865721	0.0127311805
4497.9787939451	0.0127193369
4499.9076013182	0.0125925560
4501.8364086912	0.0125922877
4503.7652160643	0.0126046482
4505.6940234373	0.0125413211
4507.6228308104	0.0124981198
4509.5516381834	0.0124490000
4511.4804455564	0.0123933079
4513.4092529295	0.0123892371
4515.3380603025	0.0124019803
4517.2668676756	0.0123915449
4519.1956750486	0.0122729056
4521.1244824217	0.0122820009
4523.0532897947	0.0123546543
4524.9820971678	0.0121724699
4526.9109045408	0.0121903662
4528.8397119139	0.0121953264
4530.7685192869	0.0120825944
4532.6973266600	0.0120902602
4534.6261340330	0.0120774694
4536.5549414061	0.0121164285
4538.4837487791	0.0120428391
4540.4125561521	0.0119989067
4542.3413635252	0.0119314454
4544.2701708982	0.0118240155
4546.1989782713	0.0118744019
4548.1277856443	0.0119088767
4550.0565930174	0.0118822828
4551.9854003904	0.0118083935
4553.9142077635	0.0117308740
4555.8430151365	0.0116634369
4557.7718225096	0.0117202997
4559.7006298826	0.0116702262
4561.6294372557	0.0115846004
4563.5582446287	0.0116233919
4565.4870520018	0.0115750022
4567.4158593748	0.0116193462
4569.3446667478	0.0115867415
4571.2734741209	0.0115300212
4573.2022814939	0.0114822565
4575.1310888670	0.0113892630
4577.0598962400	0.0113896113
4578.9887036131	0.0113534536
4580.9175109861	0.0113584436
4582.8463183592	0.0113548283
4584.7751257322	0.0113517316
4586.7039331053	0.0112345079
4588.6327404783	0.0111624133
4590.5615478514	0.0112669608
4592.4903552244	0.0111662401
4594.4191625975	0.0111202979
4596.3479699705	0.0111457575
4598.2767773435	0.0110931303
4600.2055847166	0.0111021921
4602.1343920896	0.0110658258
4604.0631994627	0.0110445013
4605.9920068357	0.0110022090
4607.9208142088	0.0109479707
4609.8496215818	0.0110159731
4611.7784289549	0.0109512378
4613.7072363279	0.0108627155
4615.6360437010	0.0108463187
4617.5648510740	0.0107416958
4619.4936584471	0.0107697528
4621.4224658201	0.0107751377
4623.3512731932	0.0107181435
4625.2800805662	0.0106594935
4627.2088879393	0.0106389392
4629.1376953123	0.0107061286
4631.0665026853	0.0106051397
4632.9953100584	0.0105883358
4634.9241174314	0.0105853714
4636.8529248045	0.0105217285
4638.7817321775	0.0105218366
4640.7105395506	0.0104949605
4642.6393469236	0.0105323065
4644.5681542967	0.0104612950
4646.4969616697	0.0103478711
4648.4257690428	0.0102718258
4650.3545764158	0.0102944868
4652.2833837889	0.0103543997
4654.2121911619	0.0102923419
4656.1409985350	0.0102696903
4658.0698059080	0.0102396514
4659.9986132810	0.0102493409
4661.9274206541	0.0102152228
4663.8562280271	0.0101561267
4665.7850354002	0.0101582222
4667.7138427732	0.0100850966
4669.6426501463	0.0101005211
4671.5714575193	0.0101305414
4673.5002648924	0.0100959409
4675.4290722654	0.0100869574
4677.3578796385	0.0099944621
4679.2866870115	0.0099678785
4681.2154943846	0.0099805091
4683.1443017576	0.0098861037
4685.0731091307	0.0098986235
4687.0019165037	0.0098935515
4688.9307238767	0.0098741557
4690.8595312498	0.0098342411
4692.7883386228	0.0097567337
4694.7171459959	0.0097962115
4696.6459533689	0.0097479038
4698.5747607420	0.0098069068
4700.5035681150	0.0097629363
4702.4323754881	0.0096152406
4704.3611828611	0.0096715922
4706.2899902342	0.0096310917
4708.2187976072	0.0096085053
4710.1476049803	0.0095736515
4712.0764123533	0.0095377546
4714.0052197264	0.0095056389
4715.9340270994	0.0094970446
4717.8628344724	0.0094697177
4719.7916418455	0.0094053838
4721.7204492185	0.0094543910
4723.6492565916	0.0093382671
4725.5780639646	0.0093682799
4727.5068713377	0.0094296681
4729.4356787107	0.0093548754
4731.3644860838	0.0093467440
4733.2932934568	0.0093019027
4735.2221008299	0.0093220118
4737.1509082029	0.0092254374
4739.0797155760	0.0091362819
4741.0085229490	0.0091571324
4742.9373303221	0.0092207771
4744.8661376951	0.0091761881
4746.7949450682	0.0091370083
4748.7237524412	0.0091611613
4750.6525598142	0.0090156756
4752.5813671873	0.0089918859
4754.5101745603	0.0090052076
4756.4389819334	0.0090773646
4758.3677893064	0.0089956876
4760.2965966795	0.0089592710
4762.2254040525	0.0090406146
4764.1542114256	0.0088081993
4766.0830187986	0.0088505652
4768.0118261717	0.0088727809
4769.9406335447	0.0088053271
4771.8694409178	0.0088332240
4773.7982482908	0.0088054305
4775.7270556639	0.0088089388
4777.6558630369	0.0087502282
4779.5846704099	0.0087540504
4781.5134777830	0.0086729433
4783.4422851560	0.0086917505
4785.3710925291	0.0086754803
4787.2998999021	0.0086325984
4789.2287072752	0.0086626690
4791.1575146482	0.0085996166
4793.0863220213	0.0086165462
4795.0151293943	0.0085461913
4796.9439367674	0.0085361265
4798.8727441404	0.0084762527
4800.8015515135	0.0084967799
4802.7303588865	0.0085056778
4804.6591662596	0.0084522581
4806.5879736326	0.0085173668
4808.5167810056	0.0083621982
4810.4455883787	0.0084208865
4812.3743957517	0.0083861519
4814.3032031248	0.0083134715
4816.2320104978	0.0083694998
4818.1608178709	0.0082366467
4820.0896252439	0.0082519129
4822.0184326170	0.0082217958
4823.9472399900	0.0082679745
4825.8760473631	0.0082843807
4827.8048547361	0.0081249960
4829.7336621092	0.0080950782
4831.6624694822	0.0081912633
4833.5912768553	0.0081365947
4835.5200842283	0.0080718966
4837.4488916013	0.0081076697
4839.3776989744	0.0080126440
4841.3065063474	0.0081060790
4843.2353137205	0.0080001373
4845.1641210935	0.0079038888
4847.0929284666	0.0079757180
4849.0217358396	0.0078837052
4850.9505432127	0.0079435948
4852.8793505857	0.0078741349
4854.8081579588	0.0079079717
4856.7369653318	0.0079520065
4858.6657727049	0.0078951204
4860.5945800779	0.0077984538
4862.5233874510	0.0077069644
4864.4521948240	0.0078315809
4866.3810021971	0.0077514914
4868.3098095701	0.0077226944
4870.2386169431	0.0076847179
4872.1674243162	0.0076777525
4874.0962316892	0.0077427011
4876.0250390623	0.0076730195
4877.9538464353	0.0076339440
4879.8826538084	0.0075404281
4881.8114611814	0.0076572588
4883.7402685545	0.0076338509
4885.6690759275	0.0075153131
4887.5978833006	0.0075702136
4889.5266906736	0.0075460966
4891.4554980467	0.0075372541
4893.3843054197	0.0074614831
4895.3131127928	0.0074257338
4897.2419201658	0.0074349409
4899.1707275388	0.0074190246
4901.0995349119	0.0073961527
4903.0283422849	0.0074141053
4904.9571496580	0.0073866500
4906.8859570310	0.0073364172
4908.8147644041	0.0073361415
4910.7435717771	0.0072992761
4912.6723791502	0.0073381956
4914.6011865232	0.0072933687
4916.5299938963	0.0072789779
4918.4588012693	0.0072284061
4920.3876086424	0.0072161285
4922.3164160154	0.0073066866
4924.2452233885	0.0071872119
4926.1740307615	0.0071461159
4928.1028381345	0.0071267318
4930.0316455076	0.0071004285
4931.9604528806	0.0070693186
4933.8892602537	0.0070576267
4935.8180676267	0.0070362259
4937.7468749998	0.0070021972
4939.6756823728	0.0070832628
4941.6044897459	0.0070101344
4943.5332971189	0.0069843009
4945.4621044920	0.0069452543
4947.3909118650	0.0069729798
4949.3197192381	0.0069410307
4951.2485266111	0.0068535949
4953.1773339842	0.0070258314
4955.1061413572	0.0068943664
4957.0349487302	0.0068225763
4958.9637561033	0.0068346225
4960.8925634763	0.0067791510
4962.8213708494	0.0067935744
4964.7501782224	0.0067238780
4966.6789855955	0.0068283137
4968.6077929685	0.0067770733
4970.5366003416	0.0066904086
4972.4654077146	0.0066818399
4974.3942150877	0.0066575832
4976.3230224607	0.0066802208
4978.2518298338	0.0066479356
4980.1806372068	0.0066727847
4982.1094445799	0.0065666763
4984.0382519529	0.0065693664
4985.9670593259	0.0065846918
4987.8958666990	0.0064977678
4989.8246740720	0.0065635536
4991.7534814451	0.0064977286
4993.6822888181	0.0064938152
4995.6110961912	0.0065306844
4997.5399035642	0.0064483159
4999.4687109373	0.0064510065
5001.3975183103	0.0064193942
5003.3263256834	0.0063884733
5005.2551330564	0.0064131310
5007.1839404295	0.0063760513
5009.1127478025	0.0063692508
5011.0415551756	0.0063927332
5012.9703625486	0.0063259020
5014.8991699217	0.0062502944
5016.8279772947	0.0062471633
5018.7567846677	0.0062884642
5020.6855920408	0.0063109463
5022.6143994138	0.0062744375
5024.5432067869	0.0062380163
5026.4720141599	0.0062045166
5028.4008215330	0.0061239367
5030.3296289060	0.0061352765
5032.2584362791	0.0061701662
5034.1872436521	0.0060918750
5036.1160510252	0.0061089536
5038.0448583982	0.0061375941
5039.9736657713	0.0060741240
5041.9024731443	0.0060695489
5043.8312805174	0.0060923207
5045.7600878904	0.0060532959
5047.6888952634	0.0060034515
5049.6177026365	0.0059768097
5051.5465100095	0.0059518851
5053.4753173826	0.0059349118
5055.4041247556	0.0059266672
5057.3329321287	0.0059774304
5059.2617395017	0.0059202462
5061.1905468748	0.0058778878
5063.1193542478	0.0059161992
5065.0481616209	0.0058283685
5066.9769689939	0.0058693867
5068.9057763670	0.0058801752
5070.8345837400	0.0058151255
5072.7633911131	0.0058015948
5074.6921984861	0.0057651233
5076.6210058591	0.0057828873
5078.5498132322	0.0057439501
5080.4786206052	0.0057487362
5082.4074279783	0.0057406132
5084.3362353513	0.0057134130
5086.2650427244	0.0057180366
5088.1938500974	0.0057086619
5090.1226574705	0.0057343347
5092.0514648435	0.0056220149
5093.9802722166	0.0056011565
5095.9090795896	0.0056681405
5097.8378869627	0.0055969437
5099.7666943357	0.0055765971
5101.6955017088	0.0056184381
5103.6243090818	0.0056017963
5105.5531164548	0.0055256742
5107.4819238279	0.0055208583
5109.4107312009	0.0055628344
5111.3395385740	0.0055209398
5113.2683459470	0.0054710060
5115.1971533201	0.0055029085
5117.1259606931	0.0054427399
5119.0547680662	0.0053571477
5120.9835754392	0.0054280348
5122.9123828123	0.0054209912
5124.8411901853	0.0053544492
5126.7699975584	0.0054114321
5128.6988049314	0.0054746913
5130.6276123045	0.0054101907
5132.5564196775	0.0053310897
5134.4852270506	0.0053698607
5136.4140344236	0.0053820089
5138.3428417966	0.0052984981
5140.2716491697	0.0052682278
5142.2004565427	0.0052310769
5144.1292639158	0.0052112667
5146.0580712888	0.0052654673
5147.9868786619	0.0052074157
5149.9156860349	0.0052019465
5151.8444934080	0.0051879724
5153.7733007810	0.0051685488
5155.7021081541	0.0052248999
5157.6309155271	0.0051624542
5159.5597229002	0.0052058282
5161.4885302732	0.0051898640
5163.4173376463	0.0050988747
5165.3461450193	0.0050560855
5167.2749523923	0.0050706547
5169.2037597654	0.0051650307
5171.1325671384	0.0050966069
5173.0613745115	0.0051151328
5174.9901818845	0.0050898395
5176.9189892576	0.0050125830
5178.8477966306	0.0049628224
5180.7766040037	0.0049007270
5182.7054113767	0.0050224056
5184.6342187498	0.0049671317
5186.5630261228	0.0049559567
5188.4918334959	0.0049841106
5190.4206408689	0.0048636552
5192.3494482420	0.0048904931
5194.2782556150	0.0049115582
5196.2070629880	0.0048977239
5198.1358703611	0.0049176319
5200.0646777341	0.0049397787
5201.9934851072	0.0048571685
5203.9222924802	0.0048517510
5205.8510998533	0.0048400066
5207.7799072263	0.0046801073
5209.7087145994	0.0047711674
5211.6375219724	0.0048554968
5213.5663293455	0.0048066406
5215.4951367185	0.0047776243
5217.4239440916	0.0047162399
5219.3527514646	0.0047378740
5221.2815588377	0.0047088228
5223.2103662107	0.0046836659
5225.1391735837	0.0046547111
5227.0679809568	0.0045443289
5228.9967883298	0.0046462985
5230.9255957029	0.0046828119
5232.8544030759	0.0046142670
5234.7832104490	0.0046610814
5236.7120178220	0.0045539765
5238.6408251951	0.0044902470
5240.5696325681	0.0044986554
5242.4984399412	0.0045320215
5244.4272473142	0.0045798542
5246.3560546873	0.0045372276
5248.2848620603	0.0045349402
5250.2136694334	0.0044939248
5252.1424768064	0.0045013246
5254.0712841795	0.0044596270
5256.0000915525	0.0044966261
5257.9288989255	0.0045021023
5259.8577062986	0.0043568807
5261.7865136716	0.0044493550
5263.7153210447	0.0043804673
5265.6441284177	0.0043430440
5267.5729357908	0.0043995008
5269.5017431638	0.0043460955
5271.4305505369	0.0044309683
5273.3593579099	0.0044316635
5275.2881652830	0.0043833577
5277.2169726560	0.0043359743
5279.1457800291	0.0043402114
5281.0745874021	0.0043065324
5283.0033947752	0.0042984188
5284.9322021482	0.0043651387
5286.8610095212	0.0043239761
5288.7898168943	0.0042872359
5290.7186242673	0.0042082872
5292.6474316404	0.0042353440
5294.5762390134	0.0042613605
5296.5050463865	0.0042510224
5298.4338537595	0.0042750956
5300.3626611326	0.0042437511
5302.2914685056	0.0042062155
5304.2202758787	0.0041629225
5306.1490832517	0.0042236838
5308.0778906248	0.0041943593
5310.0066979978	0.0042243451
5311.9355053709	0.0042234985
5313.8643127439	0.0040955860
5315.7931201169	0.0041305292
5317.7219274900	0.0041313954
5319.6507348630	0.0041152723
5321.5795422361	0.0040389588
5323.5083496091	0.0040836511
5325.4371569822	0.0041209077
5327.3659643552	0.0039813099
5329.2947717283	0.0040289108
5331.2235791013	0.0040658969
5333.1523864744	0.0040501864
5335.0811938474	0.0040791892
5337.0100012205	0.0039814506
5338.9388085935	0.0038422826
5340.8676159666	0.0039854720
5342.7964233396	0.0040078247
5344.7252307126	0.0038216976
5346.6540380857	0.0038854631
5348.5828454587	0.0039075902
5350.5116528318	0.0039002709
5352.4404602048	0.0038374118
5354.3692675779	0.0038070562
5356.2980749509	0.0039392123
5358.2268823240	0.0039203004
5360.1556896970	0.0038465864
5362.0844970701	0.0038052395
5364.0133044431	0.0038092295
5365.9421118162	0.0038307984
5367.8709191892	0.0038234396
5369.7997265623	0.0038099661
5371.7285339353	0.0038600094
5373.6573413083	0.0038324129
5375.5861486814	0.0036804588
5377.5149560544	0.0036493854
5379.4437634275	0.0037211352
5381.3725708005	0.0038385959
5383.3013781736	0.0038027889
5385.2301855466	0.0036874125
5387.1589929197	0.0036303499
5389.0878002927	0.0036648903
5391.0166076658	0.0037407605
5392.9454150388	0.0036233759
5394.8742224119	0.0035878229
5396.8030297849	0.0036477423
5398.7318371580	0.0036794860
5400.6606445310	0.0037080091
5402.5894519041	0.0036351979
5404.5182592771	0.0035536382
5406.4470666501	0.0036092778
5408.3758740232	0.0036348286
5410.3046813962	0.0035409862
5412.2334887693	0.0035509262
5414.1622961423	0.0034654581
5416.0911035154	0.0034915861
5418.0199108884	0.0036397171
5419.9487182615	0.0035590776
5421.8775256345	0.0035204419
5423.8063330076	0.0035099396
5425.7351403806	0.0035487774
5427.6639477537	0.0035132389
5429.5927551267	0.0033589816
5431.5215624998	0.0034336844
5433.4503698728	0.0035288641
5435.3791772458	0.0034311954
5437.3079846189	0.0034531318
5439.2367919919	0.0034592282
5441.1655993650	0.0033132508
5443.0944067380	0.0033978948
5445.0232141111	0.0033983167
5446.9520214841	0.0032937389
5448.8808288572	0.0033141267
5450.8096362302	0.0033655977
5452.7384436033	0.0034380469
5454.6672509763	0.0033816171
5456.5960583494	0.0033739689
5458.5248657224	0.0033582407
5460.4536730955	0.0033467286
5462.3824804685	0.0033484516
5464.3112878415	0.0032903748
5466.2400952146	0.0032959594
5468.1689025876	0.0032841223
5470.0977099607	0.0032879049
5472.0265173337	0.0032456028
5473.9553247068	0.0032510096
5475.8841320798	0.0032450042
5477.8129394529	0.0032581552
5479.7417468259	0.0032839607
5481.6705541990	0.0032175281
5483.5993615720	0.0032605240
5485.5281689451	0.0032319976
5487.4569763181	0.0032017834
5489.3857836912	0.0031988013
5491.3145910642	0.0032239391
5493.2433984372	0.0031849137
5495.1722058103	0.0031065522
5497.1010131833	0.0031637424
5499.0298205564	0.0031234745
5500.9586279294	0.0031352239
5502.8874353025	0.0030855380
5504.8162426755	0.0031029480
5506.7450500486	0.0031292997
5508.6738574216	0.0030447822
5510.6026647947	0.0031268781
5512.5314721677	0.0031405920
5514.4602795408	0.0031391936
5516.3890869138	0.0030209804
5518.3178942869	0.0029948899
5520.2467016599	0.0030296186
5522.1755090330	0.0030317935
5524.1043164060	0.0031254017
5526.0331237790	0.0030225702
5527.9619311521	0.0030872815
5529.8907385251	0.0030618438
5531.8195458982	0.0029899534
5533.7483532712	0.0030819760
5535.6771606443	0.0029935653
5537.6059680173	0.0029480746
5539.5347753904	0.0029465470
5541.4635827634	0.0029734806
5543.3923901365	0.0029299993
5545.3211975095	0.0029177172
5547.2500048826	0.0029596570
5549.1788122556	0.0029590470
5551.1076196287	0.0029747824
5553.0364270017	0.0028999997
5554.9652343747	0.0028841631
5556.8940417478	0.0029002626
5558.8228491208	0.0029254290
5560.7516564939	0.0029301569
5562.6804638669	0.0028857838
5564.6092712400	0.0028144112
5566.5380786130	0.0028657978
5568.4668859861	0.0029078894
5570.3956933591	0.0027450535
5572.3245007322	0.0028185747
5574.2533081052	0.0028658630
5576.1821154783	0.0028681667
5578.1109228513	0.0029084301
5580.0397302244	0.0028134736
5581.9685375974	0.0028171102
5583.8973449704	0.0027309239
5585.8261523435	0.0027647419
5587.7549597165	0.0027995708
5589.6837670896	0.0026884726
5591.6125744626	0.0027960117
5593.5413818357	0.0028168003
5595.4701892087	0.0026985302
5597.3989965818	0.0027434644
5599.3278039548	0.0027874862
5601.2566113279	0.0026802421
5603.1854187009	0.0026806174
5605.1142260740	0.0027283232
5607.0430334470	0.0026606587
5608.9718408201	0.0026265099
5610.9006481931	0.0026805045
5612.8294555661	0.0026612915
5614.7582629392	0.0025908714
5616.6870703122	0.0026558745
5618.6158776853	0.0026575234
5620.5446850583	0.0026289183
5622.4734924314	0.0026098187
5624.4022998044	0.0026382415
5626.3311071775	0.0026993782
5628.2599145505	0.0025605126
5630.1887219236	0.0025920579
5632.1175292966	0.0026522572
5634.0463366697	0.0025782299
5635.9751440427	0.0026354496
5637.9039514158	0.0025995187
5639.8327587888	0.0025504020
5641.7615661619	0.0025237915
5643.6903735349	0.0024995033
5645.6191809079	0.0025998068
5647.5479882810	0.0025574584
5649.4767956540	0.0024721655
5651.4056030271	0.0025410671
5653.3344104001	0.0025432482
5655.2632177732	0.0025236520
5657.1920251462	0.0024973564
5659.1208325193	0.0024807933
5661.0496398923	0.0025249864
5662.9784472654	0.0024489858
5664.9072546384	0.0024205444
5666.8360620115	0.0024636432
5668.7648693845	0.0024097962
5670.6936767576	0.0024186154
5672.6224841306	0.0024903545
5674.5512915036	0.0024742759
5676.4800988767	0.0024224380
5678.4089062497	0.0024363941
5680.3377136228	0.0024501788
5682.2665209958	0.0024172738
5684.1953283689	0.0023598704
5686.1241357419	0.0022988436
5688.0529431150	0.0023363943
5689.9817504880	0.0024311841
5691.9105578611	0.0024040451
5693.8393652341	0.0024013019
5695.7681726072	0.0024131560
5697.6969799802	0.0023426241
5699.6257873533	0.0023781289
5701.5545947263	0.0023428826
5703.4834020993	0.0022823797
5705.4122094724	0.0022996569
5707.3410168454	0.0022891564
5709.2698242185	0.0023267604
5711.1986315915	0.0023289854
5713.1274389646	0.0023081182
5715.0562463376	0.0022572663
5716.9850537107	0.0022381041
5718.9138610837	0.0022384711
5720.8426684568	0.0022379626
5722.7714758298	0.0022751791
5724.7002832029	0.0022487896
5726.6290905759	0.0022542551
5728.5578979490	0.0021934952
5730.4867053220	0.0022183305
5732.4155126950	0.0023262049
5734.3443200681	0.0022643595
5736.2731274411	0.0022031716
5738.2019348142	0.0021392102
5740.1307421872	0.0021565256
5742.0595495603	0.0022175410
5743.9883569333	0.0021973914
5745.9171643064	0.0021907254
5747.8459716794	0.0021819193
5749.7747790525	0.0021101495
5751.7035864255	0.0020802645
5753.6323937986	0.0021587573
5755.5612011716	0.0021342784
5757.4900085447	0.0020864285
5759.4188159177	0.0021026845
5761.3476232907	0.0020880084
5763.2764306638	0.0020613186
5765.2052380368	0.0020647345
5767.1340454099	0.0021382370
5769.0628527829	0.0021508646
5770.9916601560	0.0020605307
5772.9204675290	0.0020497241
5774.8492749021	0.0020793781
5776.7780822751	0.0020039445
5778.7068896482	0.0020329459
5780.6356970212	0.0020430267
5782.5645043943	0.0019717242
5784.4933117673	0.0020303661
5786.4221191404	0.0020104991
5788.3509265134	0.0020032388
5790.2797338865	0.0020144526
5792.2085412595	0.0020087208
5794.1373486325	0.0020376956
5796.0661560056	0.0020168342
5797.9949633786	0.0020169185
5799.9237707517	0.0019643377
5801.8525781247	0.0019762544
5803.7813854978	0.0020195544
5805.7101928708	0.0019878196
5807.6390002439	0.0020029466
5809.5678076169	0.0020034150
5811.4966149900	0.0019219371
5813.4254223630	0.0018944645
5815.3542297361	0.0019615998
5817.2830371091	0.0019378611
5819.2118444822	0.0019463683
5821.1406518552	0.0019261708
5823.0694592282	0.0018770362
5824.9982666013	0.0019485670
5826.9270739743	0.0018633660
5828.8558813474	0.0018110389
5830.7846887204	0.0019521604
5832.7134960935	0.0019402821
5834.6423034665	0.0018137298
5836.5711108396	0.0018097705
5838.4999182126	0.0018246672
5840.4287255857	0.0018337843
5842.3575329587	0.0018768541
5844.2863403318	0.0018869904
5846.2151477048	0.0018645099
5848.1439550779	0.0018171861
5850.0727624509	0.0018118264
5852.0015698239	0.0017763615
5853.9303771970	0.0018080005
5855.8591845700	0.0018647088
5857.7879919431	0.0017940735
5859.7167993161	0.0017780075
5861.6456066892	0.0017528178
5863.5744140622	0.0017462985
5865.5032214353	0.0018167454
5867.4320288083	0.0017981068
5869.3608361814	0.0017516490
5871.2896435544	0.0018199402
5873.2184509275	0.0017961578
5875.1472583005	0.0017249209
5877.0760656736	0.0017530082
5879.0048730466	0.0017449791
5880.9336804196	0.0017973037
5882.8624877927	0.0017365534
5884.7912951657	0.0016924427
5886.7201025388	0.0017248846
5888.6489099118	0.0016717294
5890.5777172849	0.0017355683
5892.5065246579	0.0016893016
5894.4353320310	0.0016033540
5896.3641394040	0.0016486300
5898.2929467771	0.0016854624
5900.2217541501	0.0016284854
5902.1505615232	0.0016454291
5904.0793688962	0.0017176241
5906.0081762693	0.0016753945
5907.9369836423	0.0016852997
5909.8657910154	0.0016218512
5911.7945983884	0.0016352942
5913.7234057614	0.0016301679
5915.6522131345	0.0015996450
5917.5810205075	0.0016731259
5919.5098278806	0.0016028550
5921.4386352536	0.0016256321
5923.3674426267	0.0016273849
5925.2962499997	0.0016555503
5927.2250573728	0.0016353745
5929.1538647458	0.0015383977
5931.0826721189	0.0015941532
5933.0114794919	0.0016050412
5934.9402868650	0.0016369965
5936.8690942380	0.0015928890
5938.7979016111	0.0016290058
5940.7267089841	0.0016259698
5942.6555163571	0.0015336433
5944.5843237302	0.0016089536
5946.5131311032	0.0016076004
5948.4419384763	0.0015872663
5950.3707458493	0.0015678667
5952.2995532224	0.0015544558
5954.2283605954	0.0015112215
5956.1571679685	0.0015224339
5958.0859753415	0.0015307970
5960.0147827146	0.0014877364
5961.9435900876	0.0015258620
5963.8723974607	0.0014787347
5965.8012048337	0.0014999041
5967.7300122068	0.0014987033
5969.6588195798	0.0015000217
5971.5876269528	0.0015212020
5973.5164343259	0.0014929037
5975.4452416989	0.0015108529
5977.3740490720	0.0014887516
5979.3028564450	0.0014968228
5981.2316638181	0.0014401244
5983.1604711911	0.0014506258
5985.0892785642	0.0014768254
5987.0180859372	0.0014620930
5988.9468933103	0.0014355031
5990.8757006833	0.0014229559
5992.8045080564	0.0014602039
5994.7333154294	0.0013936348
5996.6621228025	0.0014584033
5998.5909301755	0.0013703019
6000.5197375485	0.0013762026
