399.2631262207	0.0016786633
401.1919335938	0.0022860256
403.1207409668	0.0014934442
405.0495483398	0.0022882605
406.9783557129	0.0025237866
408.9071630859	0.0022143801
410.8359704590	0.0027035512
412.7647778320	0.0026678406
414.6935852051	0.0027594152
416.6223925781	0.0024047771
418.5511999512	0.0022302712
420.4800073242	0.0023205522
422.4088146973	0.0021839263
424.3376220703	0.0027032965
426.2664294434	0.0027735373
428.1952368164	0.0025656484
430.1240441895	0.0029016025
432.0528515625	0.0027220203
433.9816589355	0.0022758897
435.9104663086	0.0025090484
437.8392736816	0.0025991518
439.7680810547	0.0026322226
441.6968884277	0.0026936785
443.6256958008	0.0022908757
445.5545031738	0.0023002205
447.4833105469	0.0025026100
449.4121179199	0.0022076895
451.3409252930	0.0019437216
453.2697326660	0.0023680909
455.1985400391	0.0021159260
457.1273474121	0.0013405001
459.0561547852	0.0017486332
460.9849621582	0.0017957002
462.9137695313	0.0014475327
464.8425769043	0.0015993116
466.7713842773	0.0015027006
468.7001916504	0.0010254250
470.6289990234	0.0009124064
472.5578063965	0.0011583592
474.4866137695	0.0008329656
476.4154211426	0.0007524868
478.3442285156	0.0009869414
480.2730358887	0.0011216012
482.2018432617	0.0008718602
484.1306506348	0.0003723786
486.0594580078	0.0005711707
487.9882653809	0.0003403092
489.9170727539	0.0004369728
491.8458801270	0.0007265614
493.7746875000	0.0004104927
495.7034948730	0.0007873737
497.6323022461	0.0005272386
499.5611096191	0.0003512713
501.4899169922	0.0006854767
503.4187243652	0.0005099163
505.3475317383	0.0003283792
507.2763391113	-0.0000862895
509.2051464844	0.0004307331
511.1339538574	0.0007597516
513.0627612305	0.0003572850
514.9915686035	0.0005281420
516.9203759766	0.0001280817
518.8491833496	0.0000054252
520.7779907227	0.0002483179
522.7067980957	0.0003424916
524.6356054688	0.0006160082
526.5644128418	0.0004171340
528.4932202148	0.0005537840
530.4220275879	0.0002781496
532.3508349609	0.0000292575
534.2796423340	0.0005687872
536.2084497070	0.0002157093
538.1372570801	0.0000856091
540.0660644531	-0.0000963327
541.9948718262	0.0000275425
543.9236791992	0.0006392674
545.8524865723	0.0004070815
547.7812939453	0.0001893071
549.7101013184	0.0001853509
551.6389086914	0.0002010666
553.5677160645	0.0003474070
555.4965234375	0.0005309052
557.4253308105	-0.0000169514
559.3541381836	0.0002219951
561.2829455566	0.0002532278
563.2117529297	-0.0001948902
565.1405603027	0.0003603838
567.0693676758	0.0001434697
568.9981750488	-0.0000103375
570.9269824219	0.0000161921
572.8557897949	0.0000854276
574.7845971680	0.0002470164
576.7134045410	0.0001949061
578.6422119141	0.0004668626
580.5710192871	-0.0002008624
582.4998266602	-0.0001145416
584.4286340332	0.0003422999
586.3574414063	0.0000745071
588.2862487793	0.0004642332
590.2150561523	0.0003504696
592.1438635254	0.0002654674
594.0726708984	0.0003547872
596.0014782715	0.0000057649
597.9302856445	0.0002894840
599.8590930176	0.0003959095
601.7879003906	0.0002941506
603.7167077637	0.0004560076
605.6455151367	-0.0001923923
607.5743225098	0.0000413870
609.5031298828	0.0003688349
611.4319372559	-0.0001888314
613.3607446289	0.0001392727
615.2895520020	0.0001049479
617.2183593750	-0.0000555285
619.1471667480	-0.0000283113
621.0759741211	-0.0001250172
623.0047814941	-0.0000668898
624.9335888672	-0.0001861105
626.8623962402	-0.0001492649
628.7912036133	-0.0000315737
630.7200109863	0.0004573655
632.6488183594	0.0013928413
634.5776257324	0.0019256393
636.5064331055	0.0019209324
638.4352404785	0.0019541751
640.3640478516	0.0020716733
642.2928552246	0.0021650239
644.2216625977	0.0025690366
646.1504699707	0.0026829164
648.0792773438	0.0026864139
650.0080847168	0.0031475141
651.9368920898	0.0034280294
653.8656994629	0.0035910436
655.7945068359	0.0036051222
657.7233142090	0.0035633226
659.6521215820	0.0038782109
661.5809289551	0.0038389922
663.5097363281	0.0039685350
665.4385437012	0.0043882332
667.3673510742	0.0038363887
669.2961584473	0.0039344835
671.2249658203	0.0047021303
673.1537731934	0.0047112973
675.0825805664	0.0050462591
677.0113879395	0.0052616978
678.9401953125	0.0050974321
680.8690026855	0.0052507306
682.7978100586	0.0054544248
684.7266174316	0.0054710242
686.6554248047	0.0053351847
688.5842321777	0.0051733060
690.5130395508	0.0053220754
692.4418469238	0.0058414079
694.3706542969	0.0062016677
696.2994616699	0.0069991676
698.2282690430	0.0079444936
700.1570764160	0.0082194982
702.0858837891	0.0080709290
704.0146911621	0.0076517966
705.9434985352	0.0069855843
707.8723059082	0.0058545880
709.8011132813	0.0049071303
711.7299206543	0.0035837106
713.6587280273	0.0019300680
715.5875354004	0.0011337291
717.5163427734	0.0007949569
719.4451501465	0.0005802103
721.3739575195	0.0004273976
723.3027648926	0.0006326376
725.2315722656	0.0001470966
727.1603796387	-0.0003454138
729.0891870117	0.0001090656
731.0179943848	0.0001553431
732.9468017578	0.0004410458
734.8756091309	0.0002163768
736.8044165039	-0.0001143975
738.7332238770	0.0005069404
740.6620312500	0.0004316063
742.5908386230	0.0000557047
744.5196459961	-0.0000407478
746.4484533691	0.0003250094
748.3772607422	0.0006201912
750.3060681152	0.0003333650
752.2348754883	0.0002730828
754.1636828613	0.0001491194
756.0924902344	0.0002992239
758.0212976074	0.0005978501
759.9501049805	0.0003048648
761.8789123535	0.0003778700
763.8077197266	0.0005871757
765.7365270996	0.0003810124
767.6653344727	0.0005129431
769.5941418457	0.0004253398
771.5229492188	0.0004018544
773.4517565918	0.0006228940
775.3805639648	0.0002414038
777.3093713379	0.0003681586
779.2381787109	0.0004895767
781.1669860840	0.0005084266
783.0957934570	0.0007649151
785.0246008301	0.0004326310
786.9534082031	0.0005282516
788.8822155762	0.0005428148
790.8110229492	0.0002372791
792.7398303223	0.0007357171
794.6686376953	0.0008043670
796.5974450684	0.0004505244
798.5262524414	0.0009381182
800.4550598145	0.0012298762
802.3838671875	0.0010238111
804.3126745605	0.0008365035
806.2414819336	0.0009064065
808.1702893066	0.0011558234
810.0990966797	0.0006435583
812.0279040527	0.0002900343
813.9567114258	0.0005961827
815.8855187988	0.0006368674
817.8143261719	0.0005636030
819.7431335449	0.0004772685
821.6719409180	0.0004558068
823.6007482910	0.0007538262
825.5295556641	0.0008212798
827.4583630371	0.0009758407
829.3871704102	0.0014399842
831.3159777832	0.0012117752
833.2447851563	0.0012797264
835.1735925293	0.0014243039
837.1023999023	0.0015123789
839.0312072754	0.0019887893
840.9600146484	0.0016582061
842.8888220215	0.0015323022
844.8176293945	0.0014596735
846.7464367676	0.0014897948
848.6752441406	0.0014470269
850.6040515137	0.0010172430
852.5328588867	0.0011871846
854.4616662598	0.0010024953
856.3904736328	0.0010270446
858.3192810059	0.0008744305
860.2480883789	0.0008223269
862.1768957520	0.0009340782
864.1057031250	0.0005697239
866.0345104980	0.0006982475
867.9633178711	0.0003045784
869.8921252441	0.0003778162
871.8209326172	0.0004085155
873.7497399902	0.0002379221
875.6785473633	0.0006512965
877.6073547363	0.0003185788
879.5361621094	0.0004606885
881.4649694824	0.0005266814
883.3937768555	0.0003118326
885.3225842285	0.0005535918
887.2513916016	0.0003184545
889.1801989746	0.0002190225
891.1090063477	0.0004809563
893.0378137207	0.0005381472
894.9666210938	0.0006001795
896.8954284668	0.0004597645
898.8242358398	0.0003089690
900.7530432129	0.0007487664
902.6818505859	0.0006186898
904.6106579590	0.0004166607
906.5394653320	0.0007024190
908.4682727051	0.0005541988
910.3970800781	0.0008647697
912.3258874512	0.0009940044
914.2546948242	0.0007680501
916.1835021973	0.0010663385
918.1123095703	0.0012758236
920.0411169434	0.0012310471
921.9699243164	0.0013180232
923.8987316895	0.0014045744
925.8275390625	0.0015001481
927.7563464355	0.0016352031
929.6851538086	0.0015409371
931.6139611816	0.0018973856
933.5427685547	0.0020700383
935.4715759277	0.0022539287
937.4003833008	0.0024894220
939.3291906738	0.0022520295
941.2579980469	0.0027987710
943.1868054199	0.0028602215
945.1156127930	0.0026668524
947.0444201660	0.0027827052
948.9732275391	0.0026557674
950.9020349121	0.0026896724
952.8308422852	0.0022958964
954.7596496582	0.0024453402
956.6884570313	0.0027616704
958.6172644043	0.0026037663
960.5460717773	0.0027789329
962.4748791504	0.0027340590
964.4036865234	0.0026255127
966.3324938965	0.0029023646
968.2613012695	0.0028019045
970.1901086426	0.0028256406
972.1189160156	0.0034198919
974.0477233887	0.0033355136
975.9765307617	0.0034197387
977.9053381348	0.0037965535
979.8341455078	0.0039716056
981.7629528809	0.0045026746
983.6917602539	0.0050977962
985.6205676270	0.0057708342
987.5493750000	0.0062347483
989.4781823730	0.0071020247
991.4069897461	0.0079340199
993.3357971191	0.0085044885
995.2646044922	0.0092913238
997.1934118652	0.0097119948
999.1222192383	0.0106175952
1001.0510266113	0.0114494059
1002.9798339844	0.0119369999
1004.9086413574	0.0129018351
1006.8374487305	0.0138924178
1008.7662561035	0.0145660061
1010.6950634766	0.0154222036
1012.6238708496	0.0165005960
1014.5526782227	0.0172406137
1016.4814855957	0.0180533919
1018.4102929688	0.0188581757
1020.3391003418	0.0198090635
1022.2679077148	0.0206807777
1024.1967150879	0.0215465575
1026.1255224609	0.0224197321
1028.0543298340	0.0226848032
1029.9831372070	0.0235267393
1031.9119445801	0.0243339390
1033.8407519531	0.0247001797
1035.7695593262	0.0251221675
1037.6983666992	0.0252584964
1039.6271740723	0.0254107565
1041.5559814453	0.0255029015
1043.4847888184	0.0253233388
1045.4135961914	0.0248442553
1047.3424035645	0.0246169884
1049.2712109375	0.0240863822
1051.2000183105	0.0234983154
1053.1288256836	0.0234039985
1055.0576330566	0.0228670835
1056.9864404297	0.0222382732
1058.9152478027	0.0215213187
1060.8440551758	0.0209608339
1062.7728625488	0.0204888470
1064.7016699219	0.0197215788
1066.6304772949	0.0190861784
1068.5592846680	0.0183356293
1070.4880920410	0.0175826810
1072.4168994141	0.0167094301
1074.3457067871	0.0157889165
1076.2745141602	0.0152201317
1078.2033215332	0.0144509207
1080.1321289062	0.0137137817
1082.0609362793	0.0133955302
1083.9897436523	0.0125843314
1085.9185510254	0.0119176134
1087.8473583984	0.0116866231
1089.7761657715	0.0109603722
1091.7049731445	0.0105303442
1093.6337805176	0.0101091480
1095.5625878906	0.0095158946
1097.4913952637	0.0092923585
1099.4202026367	0.0092379265
1101.3490100098	0.0091813896
1103.2778173828	0.0086892983
1105.2066247559	0.0084928796
1107.1354321289	0.0085960049
1109.0642395019	0.0082323346
1110.9930468750	0.0078994231
1112.9218542480	0.0079588257
1114.8506616211	0.0080959611
1116.7794689941	0.0080227610
1118.7082763672	0.0079502817
1120.6370837402	0.0078431861
1122.5658911133	0.0078612566
1124.4946984863	0.0082445238
1126.4235058594	0.0083055925
1128.3523132324	0.0081992932
1130.2811206055	0.0086019235
1132.2099279785	0.0088511910
1134.1387353516	0.0089584645
1136.0675427246	0.0094223144
1137.9963500977	0.0098822843
1139.9251574707	0.0104632759
1141.8539648437	0.0113060940
1143.7827722168	0.0120402630
1145.7115795898	0.0126846060
1147.6403869629	0.0135040106
1149.5691943359	0.0141692786
1151.4980017090	0.0149310157
1153.4268090820	0.0156026222
1155.3556164551	0.0161335114
1157.2844238281	0.0170984827
1159.2132312012	0.0175661556
1161.1420385742	0.0182186887
1163.0708459473	0.0189861692
1164.9996533203	0.0193557180
1166.9284606934	0.0201345682
1168.8572680664	0.0208691433
1170.7860754394	0.0218833052
1172.7148828125	0.0226648711
1174.6436901855	0.0234517511
1176.5724975586	0.0244000629
1178.5013049316	0.0249680728
1180.4301123047	0.0260190777
1182.3589196777	0.0270642173
1184.2877270508	0.0283320900
1186.2165344238	0.0296780504
1188.1453417969	0.0309368037
1190.0741491699	0.0325958692
1192.0029565430	0.0339207649
1193.9317639160	0.0354617424
1195.8605712891	0.0373829827
1197.7893786621	0.0388667919
1199.7181860351	0.0405566469
1201.6469934082	0.0424226820
1203.5758007812	0.0438299961
1205.5046081543	0.0456098914
1207.4334155273	0.0472873747
1209.3622229004	0.0488583073
1211.2910302734	0.0504465848
1213.2198376465	0.0516065657
1215.1486450195	0.0532012582
1217.0774523926	0.0541570932
1219.0062597656	0.0548981242
1220.9350671387	0.0558926873
1222.8638745117	0.0565217063
1224.7926818848	0.0572166368
1226.7214892578	0.0574411564
1228.6502966308	0.0577571690
1230.5791040039	0.0580138564
1232.5079113769	0.0581312478
1234.4367187500	0.0582660586
1236.3655261230	0.0580463074
1238.2943334961	0.0578182116
1240.2231408691	0.0578774177
1242.1519482422	0.0579937100
1244.0807556152	0.0573413670
1246.0095629883	0.0571223795
1247.9383703613	0.0571195297
1249.8671777344	0.0563599579
1251.7959851074	0.0557288751
1253.7247924805	0.0552313663
1255.6535998535	0.0547747612
1257.5824072266	0.0540320426
1259.5112145996	0.0530704483
1261.4400219726	0.0522355139
1263.3688293457	0.0516248494
1265.2976367187	0.0509407222
1267.2264440918	0.0502702035
1269.1552514648	0.0497434512
1271.0840588379	0.0490049832
1273.0128662109	0.0481411330
1274.9416735840	0.0472062044
1276.8704809570	0.0464998409
1278.7992883301	0.0455358922
1280.7280957031	0.0445540771
1282.6569030762	0.0435903296
1284.5857104492	0.0428155884
1286.5145178223	0.0423021950
1288.4433251953	0.0412655994
1290.3721325683	0.0408470109
1292.3009399414	0.0404930189
1294.2297473144	0.0401495546
1296.1585546875	0.0398620665
1298.0873620605	0.0396168157
1300.0161694336	0.0400113761
1301.9449768066	0.0400520265
1303.8737841797	0.0405113064
1305.8025915527	0.0408149175
1307.7313989258	0.0412501842
1309.6602062988	0.0421537831
1311.5890136719	0.0427469127
1313.5178210449	0.0437300056
1315.4466284180	0.0446892008
1317.3754357910	0.0458414927
1319.3042431640	0.0470631085
1321.2330505371	0.0484875105
1323.1618579101	0.0499589555
1325.0906652832	0.0512738526
1327.0194726562	0.0524961352
1328.9482800293	0.0538624786
1330.8770874023	0.0554991551
1332.8058947754	0.0563830584
1334.7347021484	0.0576735213
1336.6635095215	0.0582921542
1338.5923168945	0.0579919145
1340.5211242676	0.0590745732
1342.4499316406	0.0607773513
1344.3787390137	0.0612771437
1346.3075463867	0.0609788746
1348.2363537597	0.0609805845
1350.1651611328	0.0605346039
1352.0939685058	0.0603825226
1354.0227758789	0.0596356615
1355.9515832519	0.0589947179
1357.8803906250	0.0590792187
1359.8091979980	0.0579047129
1361.7380053711	0.0560494736
1363.6668127441	0.0554536507
1365.5956201172	0.0572408400
1367.5244274902	0.0561733767
1369.4532348633	0.0554492772
1371.3820422363	0.0561898202
1373.3108496094	0.0536620989
1375.2396569824	0.0541650206
1377.1684643555	0.0552283302
1379.0972717285	0.0551475324
1381.0260791015	0.0550526194
1382.9548864746	0.0545237958
1384.8836938476	0.0547791384
1386.8125012207	0.0529001877
1388.7413085937	0.0537282154
1390.6701159668	0.0570804365
1392.5989233398	0.0559710898
1394.5277307129	0.0534050390
1396.4565380859	0.0553130917
1398.3853454590	0.0554144382
1400.3141528320	0.0553064793
1402.2429602051	0.0585143790
1404.1717675781	0.0558537021
1406.1005749512	0.0563937500
1408.0293823242	0.0579853877
1409.9581896972	0.0563519746
1411.8869970703	0.0569993109
1413.8158044433	0.0551289618
1415.7446118164	0.0560661703
1417.6734191894	0.0514469221
1419.6022265625	0.0473499857
1421.5310339355	0.0524700396
1423.4598413086	0.0508508869
1425.3886486816	0.0493626818
1427.3174560547	0.0494566485
1429.2462634277	0.0463578589
1431.1750708008	0.0449032560
1433.1038781738	0.0451171026
1435.0326855469	0.0414439887
1436.9614929199	0.0364254564
1438.8903002929	0.0400987156
1440.8191076660	0.0404028893
1442.7479150390	0.0380033031
1444.6767224121	0.0392209962
1446.6055297851	0.0365806073
1448.5343371582	0.0372050777
1450.4631445312	0.0382182747
1452.3919519043	0.0388617888
1454.3207592773	0.0403924882
1456.2495666504	0.0349570103
1458.1783740234	0.0366899222
1460.1071813965	0.0463748276
1462.0359887695	0.0488682315
1463.9647961426	0.0493775755
1465.8936035156	0.0515961722
1467.8224108886	0.0578802973
1469.7512182617	0.0617509931
1471.6800256347	0.0571114644
1473.6088330078	0.0604150519
1475.5376403808	0.0674433187
1477.4664477539	0.0721793026
1479.3952551269	0.0782963336
1481.3240625000	0.0802835822
1483.2528698730	0.0845869035
1485.1816772461	0.0870983750
1487.1104846191	0.0870265514
1489.0392919922	0.0871858522
1490.9680993652	0.0884072036
1492.8969067383	0.0997227579
1494.8257141113	0.0980475843
1496.7545214843	0.0911062658
1498.6833288574	0.1009545103
1500.6121362304	0.1034878641
1502.5409436035	0.1097605973
1504.4697509765	0.1048691198
1506.3985583496	0.0825340301
1508.3273657226	0.0971540809
1510.2561730957	0.1095613912
1512.1849804687	0.1069617048
1514.1137878418	0.1138448566
1516.0425952148	0.1051055491
1517.9714025879	0.1095071435
1519.9002099609	0.1053208113
1521.8290173340	0.0951703042
1523.7578247070	0.1113990843
1525.6866320801	0.1093414128
1527.6154394531	0.1097251326
1529.5442468261	0.1180446669
1531.4730541992	0.1144283265
1533.4018615722	0.1070479155
1535.3306689453	0.1122454554
1537.2594763183	0.1175550744
1539.1882836914	0.0903607756
1541.1170910644	0.0948152542
1543.0458984375	0.1087386310
1544.9747058105	0.1054750755
1546.9035131836	0.1200872958
1548.8323205566	0.1136260629
1550.7611279297	0.1169263721
1552.6899353027	0.1155313328
1554.6187426758	0.1078008115
1556.5475500488	0.1133398563
1558.4763574218	0.0862049609
1560.4051647949	0.0922776908
1562.3339721679	0.1206860766
1564.2627795410	0.1153716892
1566.1915869140	0.1180799752
1568.1203942871	0.1167037189
1570.0492016601	0.1066114083
1571.9780090332	0.1189373806
1573.9068164062	0.1193552688
1575.8356237793	0.0993866473
1577.7644311523	0.1099357754
1579.6932385254	0.1210047305
1581.6220458984	0.1163541377
1583.5508532715	0.1193373501
1585.4796606445	0.1176409423
1587.4084680175	0.1181595027
1589.3372753906	0.1175597459
1591.2660827636	0.1173777208
1593.1948901367	0.1175279468
1595.1236975097	0.1163170189
1597.0525048828	0.1177031398
1598.9813122558	0.1169144064
1600.9101196289	0.1173879355
1602.8389270019	0.1158542410
1604.7677343750	0.1173406318
1606.6965417480	0.1159365922
1608.6253491211	0.1158652008
1610.5541564941	0.1155499816
1612.4829638672	0.1160033792
1614.4117712402	0.1170269698
1616.3405786132	0.0996252149
1618.2693859863	0.1070051640
1620.1981933593	0.1202457398
1622.1270007324	0.1092687175
1624.0558081054	0.1101963818
1625.9846154785	0.1138109490
1627.9134228515	0.1138765514
1629.8422302246	0.1130710244
1631.7710375976	0.1188147813
1633.6998449707	0.1112682223
1635.6286523437	0.0960991532
1637.5574597168	0.1085471660
1639.4862670898	0.1161995381
1641.4150744629	0.1143307686
1643.3438818359	0.1167036891
1645.2726892090	0.1069052368
1647.2014965820	0.0975656211
1649.1303039550	0.1159041226
1651.0591113281	0.1095327586
1652.9879187011	0.0782178789
1654.9167260742	0.1002214998
1656.8455334472	0.1189915240
1658.7743408203	0.1142910942
1660.7031481933	0.1172810644
1662.6319555664	0.1086786315
1664.5607629394	0.1136377454
1666.4895703125	0.1197677329
1668.4183776855	0.1078607142
1670.3471850586	0.1059057862
1672.2759924316	0.1164262742
1674.2047998047	0.1091158390
1676.1336071777	0.1059093028
1678.0624145507	0.1181012094
1679.9912219238	0.1142775714
1681.9200292968	0.1136388928
1683.8488366699	0.0961646885
1685.7776440429	0.0958878025
1687.7064514160	0.1229466051
1689.6352587890	0.1094688773
1691.5640661621	0.1184739172
1693.4928735351	0.1190573648
1695.4216809082	0.0932990611
1697.3504882812	0.1102583706
1699.2792956543	0.0994374156
1701.2081030273	0.0925708562
1703.1369104004	0.1170986965
1705.0657177734	0.1092336476
1706.9945251464	0.1100264341
1708.9233325195	0.1170610636
1710.8521398925	0.1131713092
1712.7809472656	0.1147542000
1714.7097546386	0.1082320511
1716.6385620117	0.0988816395
1718.5673693847	0.0979256555
1720.4961767578	0.1119716316
1722.4249841308	0.1144593209
1724.3537915039	0.1084544957
1726.2825988769	0.1154869273
1728.2114062500	0.1080277935
1730.1402136230	0.1093195975
1732.0690209961	0.1059272289
1733.9978283691	0.0863345265
1735.9266357421	0.1024174169
1737.8554431152	0.1101936921
1739.7842504882	0.1009253412
1741.7130578613	0.1079463810
1743.6418652343	0.1091872305
1745.5706726074	0.1093929708
1747.4994799804	0.1104239374
1749.4282873535	0.1067245007
1751.3570947265	0.1030367464
1753.2859020996	0.1117509231
1755.2147094726	0.1154803038
1757.1435168457	0.1078722924
1759.0723242187	0.1159893721
1761.0011315918	0.1102749407
1762.9299389648	0.1078048497
1764.8587463379	0.1191218346
1766.7875537109	0.1097363532
1768.7163610839	0.1108372808
1770.6451684570	0.1099457592
1772.5739758300	0.1014394164
1774.5027832031	0.1103814170
1776.4315905761	0.1149702743
1778.3603979492	0.1135892272
1780.2892053222	0.1127972454
1782.2180126953	0.1133981794
1784.1468200683	0.1130094156
1786.0756274414	0.1114122942
1788.0044348144	0.1158173382
1789.9332421875	0.1134232730
1791.8620495605	0.1049824730
1793.7908569336	0.1087449342
1795.7196643066	0.1148240641
1797.6484716796	0.1132650673
1799.5772790527	0.1121222824
1801.5060864257	0.1106537431
1803.4348937988	0.1132461876
1805.3637011718	0.1151510775
1807.2925085449	0.1139749289
1809.2213159179	0.1141132787
1811.1501232910	0.1117788181
1813.0789306640	0.1147780120
1815.0077380371	0.1147860736
1816.9365454101	0.1135995537
1818.8653527832	0.1143634915
1820.7941601562	0.1138893738
1822.7229675293	0.1152855456
1824.6517749023	0.1094963253
1826.5805822753	0.1126401871
1828.5093896484	0.1125490740
1830.4381970214	0.1073176488
1832.3670043945	0.1144004390
1834.2958117675	0.1134957373
1836.2246191406	0.1136102676
1838.1534265136	0.1131788343
1840.0822338867	0.1136870384
1842.0110412597	0.1135295853
1843.9398486328	0.1036432534
1845.8686560058	0.1089418903
1847.7974633789	0.1132843941
1849.7262707519	0.1114964932
1851.6550781250	0.1138474345
1853.5838854980	0.1120107621
1855.5126928710	0.1128220409
1857.4415002441	0.1121880412
1859.3703076171	0.1117307395
1861.2991149902	0.1121393889
1863.2279223632	0.1111491323
1865.1567297363	0.1120345518
1867.0855371093	0.1090038642
1869.0143444824	0.1056880876
1870.9431518554	0.1088796407
1872.8719592285	0.1117295474
1874.8007666015	0.1102959663
1876.7295739746	0.1107220948
1878.6583813476	0.1102242023
1880.5871887207	0.1097074524
1882.5159960937	0.1104227230
1884.4448034667	0.1091161445
1886.3736108398	0.1102047488
1888.3024182128	0.1082097664
1890.2312255859	0.1067796648
1892.1600329589	0.1095672175
1894.0888403320	0.1081593558
1896.0176477050	0.1080666780
1897.9464550781	0.1088009924
1899.8752624511	0.1082196832
1901.8040698242	0.1085404530
1903.7328771972	0.1077113077
1905.6616845703	0.1080137044
1907.5904919433	0.1072542071
1909.5192993164	0.1068257466
1911.4481066894	0.1072602347
1913.3769140625	0.1070964858
1915.3057214355	0.1077574044
1917.2345288085	0.1040992439
1919.1633361816	0.1043489128
1921.0921435546	0.1071247533
1923.0209509277	0.1045689806
1924.9497583007	0.1060901359
1926.8785656738	0.1067512482
1928.8073730468	0.1060897559
1930.7361804199	0.1065705270
1932.6649877929	0.1055193245
1934.5937951660	0.1064315587
1936.5226025390	0.1056563258
1938.4514099121	0.1059593111
1940.3802172851	0.1057014763
1942.3090246582	0.1032881439
1944.2378320312	0.1046123505
1946.1666394042	0.1054475754
1948.0954467773	0.1051561311
1950.0242541503	0.1051455438
1951.9530615234	0.1050249115
1953.8818688964	0.1050045788
1955.8106762695	0.1048480347
1957.7394836425	0.1050316319
1959.6682910156	0.1047572270
1961.5970983886	0.1045788899
1963.5259057617	0.1045939922
1965.4547131347	0.1041780859
1967.3835205078	0.1035478339
1969.3123278808	0.1040436327
1971.2411352539	0.1044554785
1973.1699426269	0.1040048003
1975.0987499999	0.1039833426
1977.0275573730	0.1036342010
1978.9563647460	0.1036399826
1980.8851721191	0.1033877283
1982.8139794921	0.1032555625
1984.7427868652	0.1034618020
1986.6715942382	0.1028271392
1988.6004016113	0.1028451547
1990.5292089843	0.1019812226
1992.4580163574	0.1011504754
1994.3868237304	0.1022534296
1996.3156311035	0.1022707969
1998.2444384765	0.1017448306
2000.1732458496	0.1017990261
2002.1020532226	0.1014057994
2004.0308605956	0.1012757272
2005.9596679687	0.1010946333
2007.8884753417	0.1008423865
2009.8172827148	0.1007720679
2011.7460900878	0.1003597155
2013.6748974609	0.1002506837
2015.6037048339	0.0997175798
2017.5325122070	0.0990400687
2019.4613195800	0.0993943438
2021.3901269531	0.0994082391
2023.3189343261	0.0989500880
2025.2477416992	0.0987834707
2027.1765490722	0.0985973179
2029.1053564453	0.0984435230
2031.0341638183	0.0983008370
2032.9629711914	0.0980228782
2034.8917785644	0.0977058113
2036.8205859374	0.0974695683
2038.7493933105	0.0973154381
2040.6782006835	0.0968530327
2042.6070080566	0.0966527909
2044.5358154296	0.0965852290
2046.4646228027	0.0962669551
2048.3934301757	0.0963131413
2050.3222375488	0.0959144384
2052.2510449218	0.0956459343
2054.1798522949	0.0956595317
2056.1086596679	0.0953923613
2058.0374670410	0.0951993763
2059.9662744140	0.0948740542
2061.8950817871	0.0948733389
2063.8238891601	0.0943646431
2065.7526965331	0.0939801484
2067.6815039062	0.0940850377
2069.6103112792	0.0938195884
2071.5391186523	0.0938261896
2073.4679260253	0.0935916230
2075.3967333984	0.0934300646
2077.3255407714	0.0932075232
2079.2543481445	0.0929518938
2081.1831555175	0.0929102451
2083.1119628906	0.0926224887
2085.0407702636	0.0925515071
2086.9695776367	0.0923081115
2088.8983850097	0.0919714719
2090.8271923828	0.0917305052
2092.7559997558	0.0916461870
2094.6848071288	0.0915698707
2096.6136145019	0.0913802385
2098.5424218749	0.0912685245
2100.4712292480	0.0909815207
2102.4000366210	0.0907782018
2104.3288439941	0.0906809121
2106.2576513671	0.0905938148
2108.1864587402	0.0903238133
2110.1152661132	0.0901727378
2112.0440734863	0.0900060236
2113.9728808593	0.0897246823
2115.9016882324	0.0896544456
2117.8304956054	0.0895673111
2119.7593029785	0.0895936042
2121.6881103515	0.0892674997
2123.6169177245	0.0891290084
2125.5457250976	0.0890691802
2127.4745324706	0.0888118893
2129.4033398437	0.0888980031
2131.3321472167	0.0887236819
2133.2609545898	0.0884576142
2135.1897619628	0.0882608816
2137.1185693359	0.0882567912
2139.0473767089	0.0881233662
2140.9761840820	0.0879890919
2142.9049914550	0.0878498256
2144.8337988281	0.0875934139
2146.7626062011	0.0876446664
2148.6914135742	0.0874297246
2150.6202209472	0.0874003842
2152.5490283203	0.0871664658
2154.4778356933	0.0870277062
2156.4066430663	0.0870592296
2158.3354504394	0.0867137015
2160.2642578124	0.0866890401
2162.1930651855	0.0864267275
2164.1218725585	0.0864392966
2166.0506799316	0.0863733590
2167.9794873046	0.0862656832
2169.9082946777	0.0863142535
2171.8371020507	0.0859916285
2173.7659094238	0.0860411227
2175.6947167968	0.0858586654
2177.6235241699	0.0857537836
2179.5523315429	0.0856639147
2181.4811389160	0.0854289606
2183.4099462890	0.0854292065
2185.3387536620	0.0853149295
2187.2675610351	0.0851411819
2189.1963684081	0.0849314481
2191.1251757812	0.0849882513
2193.0539831542	0.0848452523
2194.9827905273	0.0846694410
2196.9115979003	0.0845323205
2198.8404052734	0.0844767988
2200.7692126464	0.0844485313
2202.6980200195	0.0841371715
2204.6268273925	0.0842063576
2206.5556347656	0.0840719044
2208.4844421386	0.0840068161
2210.4132495117	0.0838760436
2212.3420568847	0.0835964978
2214.2708642577	0.0836725682
2216.1996716308	0.0833984315
2218.1284790038	0.0833177269
2220.0572863769	0.0833509788
2221.9860937499	0.0831295997
2223.9149011230	0.0829013139
2225.8437084960	0.0828253329
2227.7725158691	0.0826772302
2229.7013232421	0.0824867338
2231.6301306152	0.0824544355
2233.5589379882	0.0822781324
2235.4877453613	0.0822518766
2237.4165527343	0.0819683075
2239.3453601074	0.0817952231
2241.2741674804	0.0818659291
2243.2029748534	0.0816723108
2245.1317822265	0.0815039873
2247.0605895995	0.0812371001
2248.9893969726	0.0811730400
2250.9182043456	0.0811583102
2252.8470117187	0.0810436681
2254.7758190917	0.0807448849
2256.7046264648	0.0805912018
2258.6334338378	0.0806860402
2260.5622412109	0.0804545134
2262.4910485839	0.0803218484
2264.4198559570	0.0802321434
2266.3486633300	0.0801651776
2268.2774707031	0.0799769163
2270.2062780761	0.0797628611
2272.1350854491	0.0797040388
2274.0638928222	0.0796005949
2275.9927001952	0.0795349479
2277.9215075683	0.0792991295
2279.8503149413	0.0793006718
2281.7791223144	0.0791654736
2283.7079296874	0.0790050477
2285.6367370605	0.0790925622
2287.5655444335	0.0787957758
2289.4943518066	0.0786260366
2291.4231591796	0.0785068870
2293.3519665527	0.0782272667
2295.2807739257	0.0779336244
2297.2095812988	0.0777305961
2299.1383886718	0.0775711164
2301.0671960449	0.0772389024
2302.9960034179	0.0768809468
2304.9248107909	0.0764264613
2306.8536181640	0.0759962723
2308.7824255370	0.0755261183
2310.7112329101	0.0749934465
2312.6400402831	0.0744165927
2314.5688476562	0.0736482143
2316.4976550292	0.0728729218
2318.4264624023	0.0721526146
2320.3552697753	0.0712817833
2322.2840771484	0.0702195838
2324.2128845214	0.0694481805
2326.1416918945	0.0688690320
2328.0704992675	0.0681865439
2329.9993066406	0.0675154477
2331.9281140136	0.0669998378
2333.8569213866	0.0666820928
2335.7857287597	0.0663573742
2337.7145361327	0.0664064735
2339.6433435058	0.0665193647
2341.5721508788	0.0666283369
2343.5009582519	0.0673624203
2345.4297656249	0.0684497803
2347.3585729980	0.0708153546
2349.2873803710	0.0725876987
2351.2161877441	0.0705770552
2353.1449951171	0.0675564036
2355.0738024902	0.0653733909
2357.0026098632	0.0634336174
2358.9314172363	0.0624720454
2360.8602246093	0.0619395301
2362.7890319823	0.0616703145
2364.7178393554	0.0619852170
2366.6466467284	0.0626772493
2368.5754541015	0.0636831075
2370.5042614745	0.0650458410
2372.4330688476	0.0666427314
2374.3618762206	0.0681060553
2376.2906835937	0.0695678592
2378.2194909667	0.0707933009
2380.1482983398	0.0717841089
2382.0771057128	0.0725254118
2384.0059130859	0.0728322417
2385.9347204589	0.0730799586
2387.8635278320	0.0731414333
2389.7923352050	0.0730318874
2391.7211425780	0.0730157346
2393.6499499511	0.0729804486
2395.5787573241	0.0727353245
2397.5075646972	0.0726867765
2399.4363720702	0.0725936741
2401.3651794433	0.0723328292
2403.2939868163	0.0723351240
2405.2227941894	0.0721170157
2407.1516015624	0.0721174330
2409.0804089355	0.0720292106
2411.0092163085	0.0717467293
2412.9380236816	0.0718801469
2414.8668310546	0.0717331097
2416.7956384277	0.0714983493
2418.7244458007	0.0713053867
2420.6532531738	0.0712285712
2422.5820605468	0.0712361336
2424.5108679198	0.0711705685
2426.4396752929	0.0710916892
2428.3684826659	0.0707981065
2430.2972900390	0.0707463026
2432.2260974120	0.0707248300
2434.1549047851	0.0706312507
2436.0837121581	0.0705630332
2438.0125195312	0.0703727305
2439.9413269042	0.0703419000
2441.8701342773	0.0703139901
2443.7989416503	0.0701501817
2445.7277490234	0.0699852109
2447.6565563964	0.0698944330
2449.5853637695	0.0698070675
2451.5141711425	0.0697268993
2453.4429785155	0.0695701092
2455.3717858886	0.0694395527
2457.3005932616	0.0693466663
2459.2294006347	0.0692729726
2461.1582080077	0.0691992417
2463.0870153808	0.0689476132
2465.0158227538	0.0690286607
2466.9446301269	0.0689643249
2468.8734374999	0.0687148124
2470.8022448730	0.0687536001
2472.7310522460	0.0685876310
2474.6598596191	0.0684944838
2476.5886669921	0.0683855861
2478.5174743652	0.0682506934
2480.4462817382	0.0681878999
2482.3750891112	0.0680365711
2484.3038964843	0.0679699481
2486.2327038573	0.0678276569
2488.1615112304	0.0677002817
2490.0903186034	0.0676970482
2492.0191259765	0.0675873607
2493.9479333495	0.0673753470
2495.8767407226	0.0673016459
2497.8055480956	0.0671662688
2499.7343554687	0.0670767799
2501.6631628417	0.0670473129
2503.5919702148	0.0669758469
2505.5207775878	0.0669988692
2507.4495849609	0.0667319149
2509.3783923339	0.0666439459
2511.3071997069	0.0666029304
2513.2360070800	0.0664578453
2515.1648144530	0.0664680600
2517.0936218261	0.0662108883
2519.0224291991	0.0662129521
2520.9512365722	0.0661278218
2522.8800439452	0.0658933222
2524.8088513183	0.0659892559
2526.7376586913	0.0658352822
2528.6664660644	0.0656003207
2530.5952734374	0.0655299723
2532.5240808105	0.0654728040
2534.4528881835	0.0653413981
2536.3816955566	0.0653213710
2538.3105029296	0.0653836280
2540.2393103027	0.0652455986
2542.1681176757	0.0650863796
2544.0969250487	0.0649880394
2546.0257324218	0.0649065375
2547.9545397948	0.0647625700
2549.8833471679	0.0645827055
2551.8121545409	0.0645017177
2553.7409619140	0.0644434392
2555.6697692870	0.0643762797
2557.5985766601	0.0642640665
2559.5273840331	0.0640993789
2561.4561914062	0.0641142949
2563.3849987792	0.0640471578
2565.3138061523	0.0637645721
2567.2426135253	0.0637047514
2569.1714208984	0.0636371076
2571.1002282714	0.0634929538
2573.0290356444	0.0634760112
2574.9578430175	0.0633502454
2576.8866503905	0.0631906837
2578.8154577636	0.0631864965
2580.7442651366	0.0631541386
2582.6730725097	0.0630785003
2584.6018798827	0.0629452467
2586.5306872558	0.0627845600
2588.4594946288	0.0628772527
2590.3883020019	0.0627559200
2592.3171093749	0.0625520051
2594.2459167480	0.0624606088
2596.1747241210	0.0622135475
2598.1035314941	0.0622857884
2600.0323388671	0.0621658079
2601.9611462401	0.0619767830
2603.8899536132	0.0620094910
2605.8187609862	0.0617556348
2607.7475683593	0.0617763586
2609.6763757323	0.0617747456
2611.6051831054	0.0615411848
2613.5339904784	0.0615041330
2615.4627978515	0.0613763891
2617.3916052245	0.0613576546
2619.3204125976	0.0613467172
2621.2492199706	0.0610351488
2623.1780273437	0.0610005260
2625.1068347167	0.0610298663
2627.0356420898	0.0608011633
2628.9644494628	0.0607673228
2630.8932568358	0.0607126653
2632.8220642089	0.0605941378
2634.7508715819	0.0604796112
2636.6796789550	0.0603242330
2638.6084863280	0.0602572039
2640.5372937011	0.0602133758
2642.4661010741	0.0601543188
2644.3949084472	0.0599915311
2646.3237158202	0.0598784797
2648.2525231933	0.0597674474
2650.1813305663	0.0598008931
2652.1101379394	0.0598058850
2654.0389453124	0.0595117584
2655.9677526855	0.0595005006
2657.8965600585	0.0595219173
2659.8253674315	0.0594169460
2661.7541748046	0.0592628047
2663.6829821776	0.0591199920
2665.6117895507	0.0591755584
2667.5405969237	0.0589480624
2669.4694042968	0.0587157905
2671.3982116698	0.0587611496
2673.3270190429	0.0586014166
2675.2558264159	0.0583696254
2677.1846337890	0.0583558567
2679.1134411620	0.0583002940
2681.0422485351	0.0582332164
2682.9710559081	0.0581879318
2684.8998632812	0.0580676571
2686.8286706542	0.0580535680
2688.7574780273	0.0579449385
2690.6862854003	0.0577765405
2692.6150927733	0.0576933324
2694.5439001464	0.0576346368
2696.4727075194	0.0575376004
2698.4015148925	0.0574094951
2700.3303222655	0.0573234931
2702.2591296386	0.0572260469
2704.1879370116	0.0572725423
2706.1167443847	0.0571349077
2708.0455517577	0.0568780228
2709.9743591308	0.0569044054
2711.9031665038	0.0569009110
2713.8319738769	0.0567556247
2715.7607812499	0.0565506071
2717.6895886230	0.0564740226
2719.6183959960	0.0564976446
2721.5472033690	0.0564512983
2723.4760107421	0.0563012883
2725.4048181151	0.0561358593
2727.3336254882	0.0560403354
2729.2624328612	0.0559504107
2731.1912402343	0.0558988787
2733.1200476073	0.0558167025
2735.0488549804	0.0556970909
2736.9776623534	0.0555359349
2738.9064697265	0.0554517806
2740.8352770995	0.0553883389
2742.7640844726	0.0552557185
2744.6928918456	0.0551787689
2746.6216992187	0.0551376939
2748.5505065917	0.0551260598
2750.4793139647	0.0549141802
2752.4081213378	0.0548669808
2754.3369287108	0.0549011752
2756.2657360839	0.0546231568
2758.1945434569	0.0545132272
2760.1233508300	0.0544371083
2762.0521582030	0.0543269590
2763.9809655761	0.0542328507
2765.9097729491	0.0541661978
2767.8385803222	0.0541488901
2769.7673876952	0.0540097989
2771.6961950683	0.0539269969
2773.6250024413	0.0537682101
2775.5538098144	0.0536215827
2777.4826171874	0.0536511168
2779.4114245604	0.0535929352
2781.3402319335	0.0534267426
2783.2690393065	0.0532798544
2785.1978466796	0.0531792715
2787.1266540526	0.0530843809
2789.0554614257	0.0529531352
2790.9842687987	0.0528017953
2792.9130761718	0.0527333207
2794.8418835448	0.0526628420
2796.7706909179	0.0525831506
2798.6994982909	0.0524744987
2800.6283056640	0.0522915199
2802.5571130370	0.0522540808
2804.4859204101	0.0522098690
2806.4147277831	0.0520809069
2808.3435351562	0.0519983470
2810.2723425292	0.0518782884
2812.2011499022	0.0517933741
2814.1299572753	0.0516231954
2816.0587646483	0.0514957048
2817.9875720214	0.0515047237
2819.9163793944	0.0512938499
2821.8451867675	0.0512369424
2823.7739941405	0.0510803908
2825.7028015136	0.0508238263
2827.6316088866	0.0509750731
2829.5604162597	0.0507767648
2831.4892236327	0.0506066978
2833.4180310058	0.0505990870
2835.3468383788	0.0503675938
2837.2756457519	0.0502599366
2839.2044531249	0.0501150340
2841.1332604979	0.0499882065
2843.0620678710	0.0497810990
2844.9908752440	0.0496528298
2846.9196826171	0.0493136719
2848.8484899901	0.0489424765
2850.7772973632	0.0490105636
2852.7061047362	0.0487922803
2854.6349121093	0.0487223975
2856.5637194823	0.0486988202
2858.4925268554	0.0485575832
2860.4213342284	0.0485926382
2862.3501416015	0.0485048220
2864.2789489745	0.0484658852
2866.2077563476	0.0483338982
2868.1365637206	0.0482452884
2870.0653710936	0.0482131764
2871.9941784667	0.0481763557
2873.9229858397	0.0480653867
2875.8517932128	0.0479147062
2877.7806005858	0.0478982627
2879.7094079589	0.0477596745
2881.6382153319	0.0477876700
2883.5670227050	0.0477138907
2885.4958300780	0.0476151258
2887.4246374511	0.0476606637
2889.3534448241	0.0474244431
2891.2822521972	0.0472452231
2893.2110595702	0.0470874645
2895.1398669433	0.0470340140
2897.0686743163	0.0470158681
2898.9974816893	0.0466645621
2900.9262890624	0.0465293266
2902.8550964354	0.0466037095
2904.7839038085	0.0464094318
2906.7127111815	0.0462996773
2908.6415185546	0.0460895300
2910.5703259276	0.0458218977
2912.4991333007	0.0457728282
2914.4279406737	0.0453752354
2916.3567480468	0.0451601595
2918.2855554198	0.0450744778
2920.2143627929	0.0449053571
2922.1431701659	0.0449910015
2924.0719775390	0.0448074341
2926.0007849120	0.0446677804
2927.9295922851	0.0446983762
2929.8583996581	0.0447184891
2931.7872070311	0.0446881726
2933.7160144042	0.0446115360
2935.6448217772	0.0445808247
2937.5736291503	0.0445426032
2939.5024365233	0.0445792377
2941.4312438964	0.0445126817
2943.3600512694	0.0446138233
2945.2888586425	0.0445271730
2947.2176660155	0.0443048701
2949.1464733886	0.0444065742
2951.0752807616	0.0442699157
2953.0040881347	0.0440996587
2954.9328955077	0.0439738110
2956.8617028808	0.0438672416
2958.7905102538	0.0437666103
2960.7193176268	0.0436397940
2962.6481249999	0.0435580499
2964.5769323729	0.0433725640
2966.5057397460	0.0433397219
2968.4345471190	0.0433540419
2970.3633544921	0.0434271954
2972.2921618651	0.0433853567
2974.2209692382	0.0433079451
2976.1497766112	0.0435045324
2978.0785839843	0.0434742495
2980.0073913573	0.0434655696
2981.9361987304	0.0435067341
2983.8650061034	0.0433322936
2985.7938134765	0.0433046296
2987.7226208495	0.0432459638
2989.6514282225	0.0431417152
2991.5802355956	0.0431585088
2993.5090429686	0.0430394597
2995.4378503417	0.0429805554
2997.3666577147	0.0429386534
2999.2954650878	0.0427708812
3001.2242724608	0.0426911302
3003.1530798339	0.0426111743
3005.0818872069	0.0426154770
3007.0106945800	0.0424885340
3008.9395019530	0.0423864610
3010.8683093261	0.0423252769
3012.7971166991	0.0420770310
3014.7259240722	0.0421698354
3016.6547314452	0.0420692861
3018.5835388182	0.0418154225
3020.5123461913	0.0417748094
3022.4411535643	0.0416614264
3024.3699609374	0.0417554751
3026.2987683104	0.0416602977
3028.2275756835	0.0414206870
3030.1563830565	0.0413558856
3032.0851904296	0.0412448235
3034.0139978026	0.0412295982
3035.9428051757	0.0411994383
3037.8716125487	0.0410202332
3039.8004199218	0.0409109071
3041.7292272948	0.0408333689
3043.6580346679	0.0407213196
3045.5868420409	0.0406344905
3047.5156494139	0.0404589586
3049.4444567870	0.0404091440
3051.3732641600	0.0404722914
3053.3020715331	0.0403914824
3055.2308789061	0.0402593613
3057.1596862792	0.0401814170
3059.0884936522	0.0401197374
3061.0173010253	0.0399615169
3062.9461083983	0.0399051234
3064.8749157714	0.0397889428
3066.8037231444	0.0396395475
3068.7325305175	0.0396844223
3070.6613378905	0.0396663733
3072.5901452636	0.0395854115
3074.5189526366	0.0393576697
3076.4477600097	0.0393030569
3078.3765673827	0.0393484570
3080.3053747557	0.0390908867
3082.2341821288	0.0390699431
3084.1629895018	0.0391172916
3086.0917968749	0.0389154628
3088.0206042479	0.0388317034
3089.9494116210	0.0388037153
3091.8782189940	0.0387347080
3093.8070263671	0.0386191793
3095.7358337401	0.0384681970
3097.6646411132	0.0384520218
3099.5934484862	0.0382878631
3101.5222558593	0.0380561091
3103.4510632323	0.0380239412
3105.3798706054	0.0379815251
3107.3086779784	0.0379887372
3109.2374853514	0.0378446206
3111.1662927245	0.0376831815
3113.0951000975	0.0377100259
3115.0239074706	0.0375949070
3116.9527148436	0.0374229401
3118.8815222167	0.0373068005
3120.8103295897	0.0372392014
3122.7391369628	0.0371669121
3124.6679443358	0.0371197611
3126.5967517089	0.0370352119
3128.5255590819	0.0369487181
3130.4543664550	0.0368725173
3132.3831738280	0.0366582237
3134.3119812011	0.0366146006
3136.2407885741	0.0365775637
3138.1695959471	0.0364697352
3140.0984033202	0.0363959931
3142.0272106932	0.0361732170
3143.9560180663	0.0360604003
3145.8848254393	0.0360098779
3147.8136328124	0.0358900502
3149.7424401854	0.0358449109
3151.6712475585	0.0357732773
3153.6000549315	0.0355984867
3155.5288623046	0.0355506353
3157.4576696776	0.0355341136
3159.3864770507	0.0353461429
3161.3152844237	0.0353192762
3163.2440917968	0.0352880694
3165.1728991698	0.0350447223
3167.1017065428	0.0349410661
3169.0305139159	0.0348455533
3170.9593212889	0.0347025245
3172.8881286620	0.0345966071
3174.8169360350	0.0344027951
3176.7457434081	0.0343841910
3178.6745507811	0.0343042798
3180.6033581542	0.0341455936
3182.5321655272	0.0342281871
3184.4609729003	0.0340931490
3186.3897802733	0.0339387059
3188.3185876464	0.0339094773
3190.2473950194	0.0338193513
3192.1762023925	0.0336801261
3194.1050097655	0.0335363150
3196.0338171386	0.0336057097
3197.9626245116	0.0334809944
3199.8914318846	0.0332991332
3201.8202392577	0.0332927257
3203.7490466307	0.0332619324
3205.6778540038	0.0332014114
3207.6066613768	0.0330556855
3209.5354687499	0.0330352187
3211.4642761229	0.0329083987
3213.3930834960	0.0327317417
3215.3218908690	0.0327205136
3217.2506982421	0.0326940864
3219.1795056151	0.0326324701
3221.1083129882	0.0325317606
3223.0371203612	0.0325032882
3224.9659277343	0.0324657261
3226.8947351073	0.0324552581
3228.8235424803	0.0323203094
3230.7523498534	0.0321623087
3232.6811572264	0.0321700014
3234.6099645995	0.0320773646
3236.5387719725	0.0320848599
3238.4675793456	0.0320134014
3240.3963867186	0.0319604836
3242.3251940917	0.0320401043
3244.2540014647	0.0318369642
3246.1828088378	0.0317216963
3248.1116162108	0.0317974165
3250.0404235839	0.0317749381
3251.9692309569	0.0316531770
3253.8980383300	0.0315747112
3255.8268457030	0.0315157995
3257.7556530760	0.0314178355
3259.6844604491	0.0315098688
3261.6132678221	0.0314598083
3263.5420751952	0.0312680528
3265.4708825682	0.0313085914
3267.3996899413	0.0312733911
3269.3284973143	0.0312354304
3271.2573046874	0.0311245974
3273.1861120604	0.0310235396
3275.1149194335	0.0310924463
3277.0437268065	0.0309456103
3278.9725341796	0.0310299117
3280.9013415526	0.0309914052
3282.8301489257	0.0307351593
3284.7589562987	0.0308685452
3286.6877636717	0.0307630152
3288.6165710448	0.0307222046
3290.5453784178	0.0307702050
3292.4741857909	0.0305577181
3294.4029931639	0.0305904411
3296.3318005370	0.0305933245
3298.2606079100	0.0304234587
3300.1894152831	0.0304215569
3302.1182226561	0.0304237157
3304.0470300292	0.0302991606
3305.9758374022	0.0303017646
3307.9046447753	0.0301960427
3309.8334521483	0.0301441699
3311.7622595214	0.0302790683
3313.6910668944	0.0301527027
3315.6198742675	0.0300756954
3317.5486816405	0.0300299302
3319.4774890135	0.0299697332
3321.4062963866	0.0299110264
3323.3351037596	0.0298605841
3325.2639111327	0.0299059302
3327.1927185057	0.0297582485
3329.1215258788	0.0297279134
3331.0503332518	0.0296896435
3332.9791406249	0.0295953695
3334.9079479979	0.0295886155
3336.8367553710	0.0293881632
3338.7655627440	0.0293311700
3340.6943701171	0.0293908268
3342.6231774901	0.0294000842
3344.5519848632	0.0293704811
3346.4807922362	0.0292595457
3348.4095996092	0.0292051248
3350.3384069823	0.0290741995
3352.2672143553	0.0289993938
3354.1960217284	0.0290461071
3356.1248291014	0.0289656296
3358.0536364745	0.0289197508
3359.9824438475	0.0288408436
3361.9112512206	0.0287510976
3363.8400585936	0.0287534874
3365.7688659667	0.0286167618
3367.6976733397	0.0285178013
3369.6264807128	0.0284826234
3371.5552880858	0.0285319686
3373.4840954589	0.0285332520
3375.4129028319	0.0284218490
3377.3417102049	0.0283951052
3379.2705175780	0.0282472447
3381.1993249510	0.0282363277
3383.1281323241	0.0282403193
3385.0569396971	0.0280976221
3386.9857470702	0.0279754177
3388.9145544432	0.0279245451
3390.8433618163	0.0278808922
3392.7721691893	0.0276772473
3394.7009765624	0.0277750827
3396.6297839354	0.0277328007
3398.5585913085	0.0275262818
3400.4873986815	0.0275358893
3402.4162060546	0.0274874624
3404.3450134276	0.0275255367
3406.2738208006	0.0274262093
3408.2026281737	0.0273981467
3410.1314355467	0.0273407213
3412.0602429198	0.0272301361
3413.9890502928	0.0272339601
3415.9178576659	0.0272122007
3417.8466650389	0.0272213053
3419.7754724120	0.0269626845
3421.7042797850	0.0268900674
3423.6330871581	0.0269149467
3425.5618945311	0.0269530453
3427.4907019042	0.0269899182
3429.4195092772	0.0267341584
3431.3483166503	0.0267021339
3433.2771240233	0.0266549587
3435.2059313963	0.0265714824
3437.1347387694	0.0265365168
3439.0635461424	0.0264625400
3440.9923535155	0.0263018198
3442.9211608885	0.0262788273
3444.8499682616	0.0263390094
3446.7787756346	0.0259954222
3448.7075830077	0.0261291750
3450.6363903807	0.0263700467
3452.5651977538	0.0262559690
3454.4940051268	0.0262544304
3456.4228124999	0.0260981768
3458.3516198729	0.0260402001
3460.2804272460	0.0260109250
3462.2092346190	0.0259379558
3464.1380419921	0.0259037726
3466.0668493651	0.0258046500
3467.9956567381	0.0257798806
3469.9244641112	0.0258586742
3471.8532714842	0.0258300826
3473.7820788573	0.0256982110
3475.7108862303	0.0256355479
3477.6396936034	0.0256441720
3479.5685009764	0.0256662630
3481.4973083495	0.0254418626
3483.4261157225	0.0254305638
3485.3549230956	0.0255602747
3487.2837304686	0.0254058838
3489.2125378417	0.0254217535
3491.1413452147	0.0254629292
3493.0701525878	0.0254249591
3494.9989599608	0.0254004877
3496.9277673338	0.0253414828
3498.8565747069	0.0253302641
3500.7853820799	0.0252642035
3502.7141894530	0.0249202773
3504.6429968260	0.0250041634
3506.5718041991	0.0253588017
3508.5006115721	0.0250250269
3510.4294189452	0.0249872543
3512.3582263182	0.0251979753
3514.2870336913	0.0252068825
3516.2158410643	0.0251828097
3518.1446484374	0.0250447933
3520.0734558104	0.0251235627
3522.0022631835	0.0250034332
3523.9310705565	0.0247970670
3525.8598779295	0.0247310661
3527.7886853026	0.0247893445
3529.7174926756	0.0248304829
3531.6463000487	0.0248535648
3533.5751074217	0.0250537582
3535.5039147948	0.0248612035
3537.4327221678	0.0247276314
3539.3615295409	0.0248875283
3541.2903369139	0.0248860866
3543.2191442870	0.0247051455
3545.1479516600	0.0242835358
3547.0767590331	0.0241423156
3549.0055664061	0.0246958230
3550.9343737792	0.0247549415
3552.8631811522	0.0243563540
3554.7919885252	0.0246929750
3556.7207958983	0.0246773399
3558.6496032713	0.0245245956
3560.5784106444	0.0244829841
3562.5072180174	0.0243657902
3564.4360253905	0.0244426839
3566.3648327635	0.0232467633
3568.2936401366	0.0228535626
3570.2224475096	0.0242967233
3572.1512548827	0.0246770158
3574.0800622557	0.0244168658
3576.0088696288	0.0244809631
3577.9376770018	0.0243337192
3579.8664843749	0.0243608169
3581.7952917479	0.0243917163
3583.7240991210	0.0244167317
3585.6529064940	0.0239504613
3587.5817138670	0.0224999040
3589.5105212401	0.0230459888
3591.4393286131	0.0244676322
3593.3681359862	0.0238653477
3595.2969433592	0.0234699342
3597.2257507323	0.0238821786
3599.1545581053	0.0240400229
3601.0833654784	0.0238532983
3603.0121728514	0.0240202658
3604.9409802245	0.0243440140
3606.8697875975	0.0237404648
3608.7985949706	0.0226040501
3610.7274023436	0.0231035668
3612.6562097167	0.0234144647
3614.5850170897	0.0228268020
3616.5138244627	0.0241871867
3618.4426318358	0.0227193385
3620.3714392088	0.0221632719
3622.3002465819	0.0241232663
3624.2290539549	0.0236056335
3626.1578613280	0.0244667865
3628.0866687010	0.0215173028
3630.0154760741	0.0202756152
3631.9442834471	0.0239561312
3633.8730908202	0.0234079175
3635.8018981932	0.0237295814
3637.7307055663	0.0240056589
3639.6595129393	0.0237682536
3641.5883203124	0.0239407234
3643.5171276854	0.0235592835
3645.4459350584	0.0237929206
3647.3747424315	0.0219462775
3649.3035498045	0.0204565935
3651.2323571776	0.0208885632
3653.1611645506	0.0237573013
3655.0899719237	0.0232696533
3657.0187792967	0.0214743614
3658.9475866698	0.0239096880
3660.8763940428	0.0235488471
3662.8052014159	0.0237894394
3664.7340087889	0.0236649849
3666.6628161620	0.0234514028
3668.5916235350	0.0228434969
3670.5204309081	0.0197468568
3672.4492382811	0.0227175467
3674.3780456541	0.0217133481
3676.3068530272	0.0190023743
3678.2356604002	0.0225517489
3680.1644677733	0.0229308233
3682.0932751463	0.0229798332
3684.0220825194	0.0233986266
3685.9508898924	0.0230475627
3687.8796972655	0.0211218297
3689.8085046385	0.0199250001
3691.7373120116	0.0222453400
3693.6661193846	0.0225058720
3695.5949267577	0.0228872132
3697.5237341307	0.0228814557
3699.4525415038	0.0225587916
3701.3813488768	0.0222658031
3703.3101562499	0.0216820240
3705.2389636229	0.0231728666
3707.1677709959	0.0222619846
3709.0965783690	0.0219201408
3711.0253857420	0.0208690614
3712.9541931151	0.0199121796
3714.8830004881	0.0224562660
3716.8118078612	0.0221290551
3718.7406152342	0.0223076139
3720.6694226073	0.0218558852
3722.5982299803	0.0213684067
3724.5270373534	0.0219655912
3726.4558447264	0.0206897780
3728.3846520995	0.0220124926
3730.3134594725	0.0217211023
3732.2422668456	0.0205061492
3734.1710742186	0.0200645216
3736.0998815916	0.0192103703
3738.0286889647	0.0201183334
3739.9574963377	0.0214479417
3741.8863037108	0.0220798608
3743.8151110838	0.0179243404
3745.7439184569	0.0173955671
3747.6727258299	0.0211672448
3749.6015332030	0.0186888333
3751.5303405760	0.0177140273
3753.4591479491	0.0196411815
3755.3879553221	0.0207863189
3757.3167626952	0.0214159433
3759.2455700682	0.0202413276
3761.1743774413	0.0208248086
3763.1031848143	0.0215905011
3765.0319921873	0.0205185376
3766.9607995604	0.0208772384
3768.8896069334	0.0205698069
3770.8184143065	0.0199600942
3772.7472216795	0.0210627988
3774.6760290526	0.0210177843
3776.6048364256	0.0210724510
3778.5336437987	0.0205283836
3780.4624511717	0.0200912692
3782.3912585448	0.0210100748
3784.3200659178	0.0205931757
3786.2488732909	0.0206712186
3788.1776806639	0.0208521038
3790.1064880370	0.0206571352
3792.0352954100	0.0205216501
3793.9641027830	0.0208535641
3795.8929101561	0.0199173279
3797.8217175291	0.0197986364
3799.7505249022	0.0205708593
3801.6793322752	0.0172299650
3803.6081396483	0.0194241609
3805.5369470213	0.0204486344
3807.4657543944	0.0176785644
3809.3945617674	0.0204819739
3811.3233691405	0.0200339779
3813.2521765135	0.0205191150
3815.1809838866	0.0188083313
3817.1097912596	0.0172827151
3819.0385986327	0.0204954967
3820.9674060057	0.0173954517
3822.8962133787	0.0182295498
3824.8250207518	0.0202558674
3826.7538281248	0.0187752210
3828.6826354979	0.0199457891
3830.6114428709	0.0192664079
3832.5402502440	0.0188006349
3834.4690576170	0.0190834831
3836.3978649901	0.0181988068
3838.3266723631	0.0168997236
3840.2554797362	0.0180470906
3842.1842871092	0.0190996379
3844.1130944823	0.0184743106
3846.0419018553	0.0195393711
3847.9707092284	0.0192051157
3849.8995166014	0.0191676244
3851.8283239745	0.0176090505
3853.7571313475	0.0141797159
3855.6859387205	0.0161725767
3857.6147460936	0.0192629844
3859.5435534666	0.0187789090
3861.4723608397	0.0185898747
3863.4011682127	0.0181728862
3865.3299755858	0.0173366293
3867.2587829588	0.0187949911
3869.1875903319	0.0174398869
3871.1163977049	0.0166452564
3873.0452050780	0.0188733898
3874.9740124510	0.0177003797
3876.9028198241	0.0186993852
3878.8316271971	0.0189042650
3880.7604345702	0.0168925747
3882.6892419432	0.0187597834
3884.6180493162	0.0176392607
3886.5468566893	0.0166332126
3888.4756640623	0.0188514385
3890.4044714354	0.0177910086
3892.3332788084	0.0171154011
3894.2620861815	0.0184024349
3896.1908935545	0.0184635818
3898.1197009276	0.0178062841
3900.0485083006	0.0170147195
3901.9773156737	0.0168481618
3903.9061230467	0.0166996513
3905.8349304198	0.0169530064
3907.7637377928	0.0181049816
3909.6925451659	0.0181060638
3911.6213525389	0.0179403499
3913.5501599119	0.0181526281
3915.4789672850	0.0176298842
3917.4077746580	0.0171585456
3919.3365820311	0.0172724947
3921.2653894041	0.0176806189
3923.1941967772	0.0176596306
3925.1230041502	0.0173668414
3927.0518115233	0.0175037980
3928.9806188963	0.0177341048
3930.9094262694	0.0172574986
3932.8382336424	0.0169546138
3934.7670410155	0.0174390487
3936.6958483885	0.0174978375
3938.6246557616	0.0174644012
3940.5534631346	0.0174324736
3942.4822705076	0.0169605091
3944.4110778807	0.0170355253
3946.3398852537	0.0173045769
3948.2686926268	0.0169465337
3950.1974999998	0.0169574618
3952.1263073729	0.0172506832
3954.0551147459	0.0170914344
3955.9839221190	0.0169821791
3957.9127294920	0.0169594213
3959.8415368651	0.0169986822
3961.7703442381	0.0168778040
3963.6991516112	0.0168167446
3965.6279589842	0.0169922635
3967.5567663573	0.0169441514
3969.4855737303	0.0169113353
3971.4143811034	0.0168123227
3973.3431884764	0.0167748444
3975.2719958494	0.0166476481
3977.2008032225	0.0165847838
3979.1296105955	0.0167253651
3981.0584179686	0.0165806897
3982.9872253416	0.0165850427
3984.9160327147	0.0165146515
3986.8448400877	0.0164021440
3988.7736474608	0.0163890347
3990.7024548338	0.0163352154
3992.6312622069	0.0163683221
3994.5600695799	0.0162868686
3996.4888769530	0.0162442401
3998.4176843260	0.0161840040
4000.3464916991	0.0162182115
4002.2752990721	0.0161731318
4004.2041064451	0.0160361901
4006.1329138182	0.0160804391
4008.0617211912	0.0160493236
4009.9905285643	0.0160136316
4011.9193359373	0.0159316212
4013.8481433104	0.0159164444
4015.7769506834	0.0158785097
4017.7057580565	0.0158371516
4019.6345654295	0.0158457402
4021.5633728026	0.0157130025
4023.4921801756	0.0157541819
4025.4209875487	0.0157715846
4027.3497949217	0.0156686641
4029.2786022948	0.0156220924
4031.2074096678	0.0156356394
4033.1362170408	0.0156058958
4035.0650244139	0.0154967830
4036.9938317869	0.0154994801
4038.9226391600	0.0154849235
4040.8514465330	0.0154500585
4042.7802539061	0.0153287258
4044.7090612791	0.0152956368
4046.6378686522	0.0154093197
4048.5666760252	0.0152962692
4050.4954833983	0.0152284727
4052.4242907713	0.0152386418
4054.3530981444	0.0151630584
4056.2819055174	0.0151619846
4058.2107128905	0.0151539110
4060.1395202635	0.0150485113
4062.0683276365	0.0150142293
4063.9971350096	0.0150589719
4065.9259423826	0.0150366072
4067.8547497557	0.0149607714
4069.7835571287	0.0148539618
4071.7123645018	0.0148896314
4073.6411718748	0.0148780886
4075.5699792479	0.0147791496
4077.4987866209	0.0148336710
4079.4275939940	0.0147067877
4081.3564013670	0.0146622304
4083.2852087401	0.0147161456
4085.2140161131	0.0146189565
4087.1428234862	0.0146735944
4089.0716308592	0.0146244057
4091.0004382323	0.0145425908
4092.9292456053	0.0145231690
4094.8580529783	0.0144376382
4096.7868603514	0.0144062955
4098.7156677244	0.0143590327
4100.6444750975	0.0143033499
4102.5732824705	0.0143092554
4104.5020898436	0.0143155139
4106.4308972166	0.0141848875
4108.3597045897	0.0142695159
4110.2885119627	0.0142770894
4112.2173193358	0.0140823442
4114.1461267088	0.0141561367
4116.0749340819	0.0140600372
4118.0037414549	0.0140324961
4119.9325488280	0.0140304808
4121.8613562010	0.0139951017
4123.7901635740	0.0140081206
4125.7189709471	0.0138414409
4127.6477783201	0.0139354523
4129.5765856932	0.0138709489
4131.5053930662	0.0137811694
4133.4342004393	0.0137675833
4135.3630078123	0.0136738550
4137.2918151854	0.0137140770
4139.2206225584	0.0136033632
4141.1494299315	0.0136595536
4143.0782373045	0.0136593096
4145.0070446776	0.0136025278
4146.9358520506	0.0135705993
4148.8646594237	0.0135140773
4150.7934667967	0.0135522913
4152.7222741697	0.0133853871
4154.6510815428	0.0134286694
4156.5798889158	0.0134196468
4158.5086962889	0.0133064091
4160.4375036619	0.0133608989
4162.3663110350	0.0132822758
4164.2951184080	0.0132206157
4166.2239257811	0.0132224225
4168.1527331541	0.0131828748
4170.0815405272	0.0130559020
4172.0103479002	0.0131131075
4173.9391552733	0.0131476186
4175.8679626463	0.0130388364
4177.7967700194	0.0130267451
4179.7255773924	0.0130109340
4181.6543847654	0.0130268913
4183.5831921385	0.0129658952
4185.5119995115	0.0128836781
4187.4408068846	0.0128705464
4189.3696142576	0.0129209571
4191.2984216307	0.0128371939
4193.2272290037	0.0127026755
4195.1560363768	0.0127274897
4197.0848437498	0.0127395391
4199.0136511229	0.0127174072
4200.9424584959	0.0126063507
4202.8712658690	0.0125952093
4204.8000732420	0.0126093831
4206.7288806151	0.0125203896
4208.6576879881	0.0124269305
4210.5864953611	0.0124890991
4212.5153027342	0.0124929966
4214.4441101072	0.0123482961
4216.3729174803	0.0124271363
4218.3017248533	0.0123395389
4220.2305322264	0.0123638213
4222.1593395994	0.0123212328
4224.0881469725	0.0121843647
4226.0169543455	0.0122990925
4227.9457617186	0.0121383965
4229.8745690916	0.0121893808
4231.8033764647	0.0121827964
4233.7321838377	0.0121472403
4235.6609912108	0.0121590253
4237.5897985838	0.0119882682
4239.5186059569	0.0120522985
4241.4474133299	0.0119906208
4243.3762207029	0.0120157497
4245.3050280760	0.0119479746
4247.2338354490	0.0118580945
4249.1626428221	0.0119061675
4251.0914501951	0.0118234679
4253.0202575682	0.0118216071
4254.9490649412	0.0117411343
4256.8778723143	0.0117308991
4258.8066796873	0.0117000435
4260.7354870604	0.0117156655
4262.6642944334	0.0116892839
4264.5931018065	0.0116093401
4266.5219091795	0.0116688330
4268.4507165526	0.0116138458
4270.3795239256	0.0115761543
4272.3083312986	0.0115393642
4274.2371386717	0.0115788486
4276.1659460447	0.0114975218
4278.0947534178	0.0114229321
4280.0235607908	0.0114464918
4281.9523681639	0.0114103826
4283.8811755369	0.0113866609
4285.8099829100	0.0113465134
4287.7387902830	0.0114320442
4289.6675976561	0.0112459036
4291.5964050291	0.0112372003
4293.5252124022	0.0112298392
4295.4540197752	0.0110785794
4297.3828271483	0.0111976657
4299.3116345213	0.0110524241
4301.2404418943	0.0111113191
4303.1692492674	0.0110838506
4305.0980566404	0.0110114440
4307.0268640135	0.0110634528
4308.9556713865	0.0109575763
4310.8844787596	0.0109777022
4312.8132861326	0.0109005440
4314.7420935057	0.0110252090
4316.6709008787	0.0109741529
4318.5997082518	0.0109079294
4320.5285156248	0.0109414347
4322.4573229979	0.0107221324
4324.3861303709	0.0107542984
4326.3149377440	0.0107599050
4328.2437451170	0.0107161961
4330.1725524900	0.0106471628
4332.1013598631	0.0106469104
4334.0301672361	0.0106378701
4335.9589746092	0.0105864266
4337.8877819822	0.0106156524
4339.8165893553	0.0104603507
4341.7453967283	0.0105127245
4343.6742041014	0.0105365235
4345.6030114744	0.0104524968
4347.5318188475	0.0104989139
4349.4606262205	0.0104620624
4351.3894335936	0.0103561645
4353.3182409666	0.0103640705
4355.2470483397	0.0104314694
4357.1758557127	0.0102698095
4359.1046630858	0.0102498904
4361.0334704588	0.0102950539
4362.9622778318	0.0102614686
4364.8910852049	0.0102155153
4366.8198925779	0.0101259518
4368.7486999510	0.0102097234
4370.6775073240	0.0101831108
4372.6063146971	0.0101058250
4374.5351220701	0.0100981500
4376.4639294432	0.0100929793
4378.3927368162	0.0100550782
4380.3215441893	0.0099871606
4382.2503515623	0.0100134769
4384.1791589354	0.0099749081
4386.1079663084	0.0099373236
4388.0367736815	0.0099767046
4389.9655810545	0.0099402033
4391.8943884275	0.0098077264
4393.8231958006	0.0098110540
4395.7520031736	0.0098359901
4397.6808105467	0.0097391326
4399.6096179197	0.0097388048
4401.5384252928	0.0097519979
4403.4672326658	0.0096481349
4405.3960400389	0.0096208574
4407.3248474119	0.0097511169
4409.2536547850	0.0096268225
4411.1824621580	0.0095241070
4413.1112695311	0.0095777586
4415.0400769041	0.0094734980
4416.9688842772	0.0094944006
4418.8976916502	0.0094970092
4420.8264990232	0.0094794873
4422.7553063963	0.0094623715
4424.6841137693	0.0094498433
4426.6129211424	0.0094815614
4428.5417285154	0.0094136363
4430.4705358885	0.0093864221
4432.3993432615	0.0093021132
4434.3281506346	0.0093059549
4436.2569580076	0.0093157627
4438.1857653807	0.0092242528
4440.1145727537	0.0091862250
4442.0433801268	0.0091160992
4443.9721874998	0.0091481563
4445.9009948729	0.0091670174
4447.8298022459	0.0091046784
4449.7586096189	0.0091372840
4451.6874169920	0.0091847479
4453.6162243650	0.0090683503
4455.5450317381	0.0090382025
4457.4738391111	0.0090354942
4459.4026464842	0.0088820923
4461.3314538572	0.0089649037
4463.2602612303	0.0089996569
4465.1890686033	0.0089326939
4467.1178759764	0.0088882400
4469.0466833494	0.0087735569
4470.9754907225	0.0088674258
4472.9042980955	0.0089143710
4474.8331054686	0.0088227205
4476.7619128416	0.0088163484
4478.6907202147	0.0088318568
4480.6195275877	0.0087542059
4482.5483349607	0.0087036146
4484.4771423338	0.0087244231
4486.4059497068	0.0086396756
4488.3347570799	0.0086651649
4490.2635644529	0.0086723352
4492.1923718260	0.0085562374
4494.1211791990	0.0086015640
4496.0499865721	0.0085681602
4497.9787939451	0.0084883068
4499.9076013182	0.0085143289
4501.8364086912	0.0084515717
4503.7652160643	0.0084444601
4505.6940234373	0.0084930714
4507.6228308104	0.0084443251
4509.5516381834	0.0084229372
4511.4804455564	0.0083814003
4513.4092529295	0.0083404388
4515.3380603025	0.0084093772
4517.2668676756	0.0083356109
4519.1956750486	0.0082506947
4521.1244824217	0.0083339708
4523.0532897947	0.0082443785
4524.9820971678	0.0082076304
4526.9109045408	0.0082717594
4528.8397119139	0.0082009612
4530.7685192869	0.0081942212
4532.6973266600	0.0081416825
4534.6261340330	0.0081381630
4536.5549414061	0.0081563601
4538.4837487791	0.0080594495
4540.4125561521	0.0080784317
4542.3413635252	0.0080743721
4544.2701708982	0.0079981256
4546.1989782713	0.0079987943
4548.1277856443	0.0079957917
4550.0565930174	0.0079109371
4551.9854003904	0.0079166433
4553.9142077635	0.0079236105
4555.8430151365	0.0078975894
4557.7718225096	0.0079490999
4559.7006298826	0.0078570927
4561.6294372557	0.0078386720
4563.5582446287	0.0078705624
4565.4870520018	0.0077864234
4567.4158593748	0.0077627380
4569.3446667478	0.0077252369
4571.2734741209	0.0076611959
4573.2022814939	0.0076440778
4575.1310888670	0.0076941373
4577.0598962400	0.0076886434
4578.9887036131	0.0076212008
4580.9175109861	0.0075869225
4582.8463183592	0.0076599400
4584.7751257322	0.0076085394
4586.7039331053	0.0074684420
4588.6327404783	0.0075593190
4590.5615478514	0.0074741477
4592.4903552244	0.0074305111
4594.4191625975	0.0075297602
4596.3479699705	0.0074321358
4598.2767773435	0.0073504932
4600.2055847166	0.0073248632
4602.1343920896	0.0074444558
4604.0631994627	0.0074269557
4605.9920068357	0.0072938921
4607.9208142088	0.0072909389
4609.8496215818	0.0072408076
4611.7784289549	0.0072661210
4613.7072363279	0.0072261421
4615.6360437010	0.0072186943
4617.5648510740	0.0073522450
4619.4936584471	0.0072298716
4621.4224658201	0.0071535343
4623.3512731932	0.0072124582
4625.2800805662	0.0070754830
4627.2088879393	0.0071261562
4629.1376953123	0.0071643591
4631.0665026853	0.0069951457
4632.9953100584	0.0070416885
4634.9241174314	0.0070748292
4636.8529248045	0.0069773635
4638.7817321775	0.0069076628
4640.7105395506	0.0069638137
4642.6393469236	0.0069926870
4644.5681542967	0.0069674030
4646.4969616697	0.0069702603
4648.4257690428	0.0068758875
4650.3545764158	0.0068613109
4652.2833837889	0.0068307286
4654.2121911619	0.0068578566
4656.1409985350	0.0068859374
4658.0698059080	0.0068348236
4659.9986132810	0.0068426896
4661.9274206541	0.0067414744
4663.8562280271	0.0067915688
4665.7850354002	0.0068082977
4667.7138427732	0.0067031421
4669.6426501463	0.0067017078
4671.5714575193	0.0066476250
4673.5002648924	0.0066251578
4675.4290722654	0.0066300994
4677.3578796385	0.0065624099
4679.2866870115	0.0065090526
4681.2154943846	0.0066222548
4683.1443017576	0.0066736350
4685.0731091307	0.0065808147
4687.0019165037	0.0065116398
4688.9307238767	0.0065013859
4690.8595312498	0.0065100291
4692.7883386228	0.0065499977
4694.7171459959	0.0065819337
4696.6459533689	0.0064411303
4698.5747607420	0.0064946767
4700.5035681150	0.0065314276
4702.4323754881	0.0064124186
4704.3611828611	0.0063570086
4706.2899902342	0.0063127708
4708.2187976072	0.0064236317
4710.1476049803	0.0063350201
4712.0764123533	0.0062941923
4714.0052197264	0.0062862672
4715.9340270994	0.0062085246
4717.8628344724	0.0062613320
4719.7916418455	0.0061719911
4721.7204492185	0.0062204562
4723.6492565916	0.0062071118
4725.5780639646	0.0061913636
4727.5068713377	0.0061914902
4729.4356787107	0.0060894298
4731.3644860838	0.0061513991
4733.2932934568	0.0061274469
4735.2221008299	0.0061370516
4737.1509082029	0.0061056423
4739.0797155760	0.0060439957
4741.0085229490	0.0060407370
4742.9373303221	0.0059800912
4744.8661376951	0.0059828493
4746.7949450682	0.0060478253
4748.7237524412	0.0060472712
4750.6525598142	0.0059823957
4752.5813671873	0.0060265027
4754.5101745603	0.0059442562
4756.4389819334	0.0059154960
4758.3677893064	0.0059498823
4760.2965966795	0.0058979318
4762.2254040525	0.0059681046
4764.1542114256	0.0059336508
4766.0830187986	0.0058648782
4768.0118261717	0.0058414117
4769.9406335447	0.0058669066
4771.8694409178	0.0057935603
4773.7982482908	0.0057581333
4775.7270556639	0.0058277240
4777.6558630369	0.0057530976
4779.5846704099	0.0057713217
4781.5134777830	0.0057526887
4783.4422851560	0.0057213516
4785.3710925291	0.0057150731
4787.2998999021	0.0057194466
4789.2287072752	0.0056627225
4791.1575146482	0.0056330487
4793.0863220213	0.0057245265
4795.0151293943	0.0056076366
4796.9439367674	0.0056595793
4798.8727441404	0.0056227148
4800.8015515135	0.0055224430
4802.7303588865	0.0056180540
4804.6591662596	0.0055233166
4806.5879736326	0.0055200337
4808.5167810056	0.0055263638
4810.4455883787	0.0054582041
4812.3743957517	0.0054204129
4814.3032031248	0.0054744808
4816.2320104978	0.0054779034
4818.1608178709	0.0054045911
4820.0896252439	0.0053979289
4822.0184326170	0.0053619025
4823.9472399900	0.0054088989
4825.8760473631	0.0053393291
4827.8048547361	0.0053289901
4829.7336621092	0.0053385720
4831.6624694822	0.0053263204
4833.5912768553	0.0053893551
4835.5200842283	0.0052590873
4837.4488916013	0.0052893213
4839.3776989744	0.0053280126
4841.3065063474	0.0052934606
4843.2353137205	0.0052766660
4845.1641210935	0.0052297371
4847.0929284666	0.0052365437
4849.0217358396	0.0051824311
4850.9505432127	0.0051781554
4852.8793505857	0.0051676668
4854.8081579588	0.0052247038
4856.7369653318	0.0052056415
4858.6657727049	0.0051106382
4860.5945800779	0.0051295510
4862.5233874510	0.0051356209
4864.4521948240	0.0051580630
4866.3810021971	0.0050815903
4868.3098095701	0.0050245174
4870.2386169431	0.0050155306
4872.1674243162	0.0050118109
4874.0962316892	0.0049912855
4876.0250390623	0.0049564587
4877.9538464353	0.0049856286
4879.8826538084	0.0049712146
4881.8114611814	0.0049932683
4883.7402685545	0.0049313856
4885.6690759275	0.0048890030
4887.5978833006	0.0049173390
4889.5266906736	0.0048910198
4891.4554980467	0.0049410318
4893.3843054197	0.0049055517
4895.3131127928	0.0048046610
4897.2419201658	0.0048277741
4899.1707275388	0.0048540924
4901.0995349119	0.0047978265
4903.0283422849	0.0048401151
4904.9571496580	0.0048195133
4906.8859570310	0.0047421083
4908.8147644041	0.0047835559
4910.7435717771	0.0047222404
4912.6723791502	0.0046894900
4914.6011865232	0.0047032805
4916.5299938963	0.0047075972
4918.4588012693	0.0047381553
4920.3876086424	0.0047258334
4922.3164160154	0.0047147041
4924.2452233885	0.0046997024
4926.1740307615	0.0046329079
4928.1028381345	0.0045545264
4930.0316455076	0.0045816335
4931.9604528806	0.0045729349
4933.8892602537	0.0046147266
4935.8180676267	0.0046723038
4937.7468749998	0.0045659486
4939.6756823728	0.0045509068
4941.6044897459	0.0045756837
4943.5332971189	0.0045054024
4945.4621044920	0.0044657895
4947.3909118650	0.0045319572
4949.3197192381	0.0044754585
4951.2485266111	0.0044300091
4953.1773339842	0.0045091650
4955.1061413572	0.0044483813
4957.0349487302	0.0044531510
4958.9637561033	0.0044561196
4960.8925634763	0.0044176374
4962.8213708494	0.0043855011
4964.7501782224	0.0043594507
4966.6789855955	0.0044252025
4968.6077929685	0.0043556998
4970.5366003416	0.0043367501
4972.4654077146	0.0043450817
4974.3942150877	0.0043027829
4976.3230224607	0.0043428480
4978.2518298338	0.0042836163
4980.1806372068	0.0042887516
4982.1094445799	0.0042888871
4984.0382519529	0.0042284364
4985.9670593259	0.0042654257
4987.8958666990	0.0041883318
4989.8246740720	0.0041730367
4991.7534814451	0.0042051366
4993.6822888181	0.0041700164
4995.6110961912	0.0042522298
4997.5399035642	0.0041823951
4999.4687109373	0.0041014552
5001.3975183103	0.0041290233
5003.3263256834	0.0040896218
5005.2551330564	0.0041237106
5007.1839404295	0.0041245790
5009.1127478025	0.0041368157
5011.0415551756	0.0041263765
5012.9703625486	0.0040600197
5014.8991699217	0.0040837061
5016.8279772947	0.0040904027
5018.7567846677	0.0040771631
5020.6855920408	0.0040519014
5022.6143994138	0.0040341597
5024.5432067869	0.0040226942
5026.4720141599	0.0040362482
5028.4008215330	0.0040261792
5030.3296289060	0.0039729988
5032.2584362791	0.0039612912
5034.1872436521	0.0039174822
5036.1160510252	0.0039497796
5038.0448583982	0.0040105651
5039.9736657713	0.0039552609
5041.9024731443	0.0038851574
5043.8312805174	0.0038802866
5045.7600878904	0.0038734069
5047.6888952634	0.0038350271
5049.6177026365	0.0038603181
5051.5465100095	0.0038300636
5053.4753173826	0.0037635583
5055.4041247556	0.0037974122
5057.3329321287	0.0037873029
5059.2617395017	0.0037622917
5061.1905468748	0.0038206051
5063.1193542478	0.0037629306
5065.0481616209	0.0037455685
5066.9769689939	0.0037892037
5068.9057763670	0.0036873918
5070.8345837400	0.0037423261
5072.7633911131	0.0037513799
5074.6921984861	0.0036872807
5076.6210058591	0.0037292750
5078.5498132322	0.0036595445
5080.4786206052	0.0036559422
5082.4074279783	0.0036704855
5084.3362353513	0.0036639734
5086.2650427244	0.0036689956
5088.1938500974	0.0036568083
5090.1226574705	0.0036882763
5092.0514648435	0.0036343012
5093.9802722166	0.0035749050
5095.9090795896	0.0036261850
5097.8378869627	0.0036540788
5099.7666943357	0.0036294011
5101.6955017088	0.0036522034
5103.6243090818	0.0035472480
5105.5531164548	0.0035093734
5107.4819238279	0.0036173577
5109.4107312009	0.0035799094
5111.3395385740	0.0035888755
5113.2683459470	0.0035621051
5115.1971533201	0.0035611428
5117.1259606931	0.0035727250
5119.0547680662	0.0034388443
5120.9835754392	0.0034340629
5122.9123828123	0.0034350243
5124.8411901853	0.0034040897
5126.7699975584	0.0034335488
5128.6988049314	0.0034207969
5130.6276123045	0.0033970985
5132.5564196775	0.0033779251
5134.4852270506	0.0033751968
5136.4140344236	0.0034128248
5138.3428417966	0.0033663455
5140.2716491697	0.0033324906
5142.2004565427	0.0033923760
5144.1292639158	0.0034086672
5146.0580712888	0.0034548219
5147.9868786619	0.0033785079
5149.9156860349	0.0032978998
5151.8444934080	0.0033294475
5153.7733007810	0.0032971250
5155.7021081541	0.0032857349
5157.6309155271	0.0032642242
5159.5597229002	0.0032694938
5161.4885302732	0.0031987077
5163.4173376463	0.0031969454
5165.3461450193	0.0032670072
5167.2749523923	0.0031922627
5169.2037597654	0.0032342579
5171.1325671384	0.0032353722
5173.0613745115	0.0031480410
5174.9901818845	0.0031745997
5176.9189892576	0.0031934392
5178.8477966306	0.0031581470
5180.7766040037	0.0032125539
5182.7054113767	0.0031947598
5184.6342187498	0.0031152228
5186.5630261228	0.0031462377
5188.4918334959	0.0030840412
5190.4206408689	0.0031092507
5192.3494482420	0.0031091848
5194.2782556150	0.0030663810
5196.2070629880	0.0030683288
5198.1358703611	0.0030457950
5200.0646777341	0.0031602620
5201.9934851072	0.0030702851
5203.9222924802	0.0030209040
5205.8510998533	0.0030415196
5207.7799072263	0.0029615562
5209.7087145994	0.0030238074
5211.6375219724	0.0029767491
5213.5663293455	0.0030014708
5215.4951367185	0.0030566780
5217.4239440916	0.0029341131
5219.3527514646	0.0029334608
5221.2815588377	0.0030375700
5223.2103662107	0.0030013048
5225.1391735837	0.0029272037
5227.0679809568	0.0029130206
5228.9967883298	0.0029139244
5230.9255957029	0.0029187538
5232.8544030759	0.0028453961
5234.7832104490	0.0029334356
5236.7120178220	0.0029837419
5238.6408251951	0.0028638844
5240.5696325681	0.0028521982
5242.4984399412	0.0028322376
5244.4272473142	0.0028575328
5246.3560546873	0.0028223994
5248.2848620603	0.0027867346
5250.2136694334	0.0028400701
5252.1424768064	0.0027739857
5254.0712841795	0.0027557849
5256.0000915525	0.0027540165
5257.9288989255	0.0027224983
5259.8577062986	0.0028244182
5261.7865136716	0.0027804482
5263.7153210447	0.0026657023
5265.6441284177	0.0027198307
5267.5729357908	0.0027225344
5269.5017431638	0.0027558471
5271.4305505369	0.0027194668
5273.3593579099	0.0027340692
5275.2881652830	0.0027451401
5277.2169726560	0.0026324964
5279.1457800291	0.0027268624
5281.0745874021	0.0026848686
5283.0033947752	0.0026935004
5284.9322021482	0.0026542847
5286.8610095212	0.0026166961
5288.7898168943	0.0027649023
5290.7186242673	0.0026627481
5292.6474316404	0.0026797939
5294.5762390134	0.0026113265
5296.5050463865	0.0026935961
5298.4338537595	0.0027602874
5300.3626611326	0.0025341073
5302.2914685056	0.0026193033
5304.2202758787	0.0026304987
5306.1490832517	0.0026169536
5308.0778906248	0.0025234246
5310.0066979978	0.0025321690
5311.9355053709	0.0025943276
5313.8643127439	0.0025265710
5315.7931201169	0.0026590298
5317.7219274900	0.0025859703
5319.6507348630	0.0025530346
5321.5795422361	0.0025224225
5323.5083496091	0.0025036393
5325.4371569822	0.0025671129
5327.3659643552	0.0024954060
5329.2947717283	0.0024811346
5331.2235791013	0.0024763334
5333.1523864744	0.0025529908
5335.0811938474	0.0024843216
5337.0100012205	0.0024377825
5338.9388085935	0.0024167520
5340.8676159666	0.0024604737
5342.7964233396	0.0025148755
5344.7252307126	0.0022905450
5346.6540380857	0.0024172748
5348.5828454587	0.0024861433
5350.5116528318	0.0024040113
5352.4404602048	0.0024293582
5354.3692675779	0.0023204964
5356.2980749509	0.0023466523
5358.2268823240	0.0024144787
5360.1556896970	0.0023954161
5362.0844970701	0.0023621994
5364.0133044431	0.0024193744
5365.9421118162	0.0023839856
5367.8709191892	0.0024004893
5369.7997265623	0.0024401955
5371.7285339353	0.0023563430
5373.6573413083	0.0023467429
5375.5861486814	0.0022755018
5377.5149560544	0.0023374753
5379.4437634275	0.0022671167
5381.3725708005	0.0022601234
5383.3013781736	0.0024079694
5385.2301855466	0.0022765256
5387.1589929197	0.0022965358
5389.0878002927	0.0023153860
5391.0166076658	0.0022745416
5392.9454150388	0.0022341921
5394.8742224119	0.0022101821
5396.8030297849	0.0022491992
5398.7318371580	0.0022248456
5400.6606445310	0.0023159576
5402.5894519041	0.0022354093
5404.5182592771	0.0021691972
5406.4470666501	0.0023007267
5408.3758740232	0.0022143940
5410.3046813962	0.0021143956
5412.2334887693	0.0021691350
5414.1622961423	0.0021879789
5416.0911035154	0.0021902279
5418.0199108884	0.0021896758
5419.9487182615	0.0021738464
5421.8775256345	0.0021738741
5423.8063330076	0.0021120124
5425.7351403806	0.0021113458
5427.6639477537	0.0021117229
5429.5927551267	0.0020136163
5431.5215624998	0.0020200543
5433.4503698728	0.0021248402
5435.3791772458	0.0021270090
5437.3079846189	0.0020975000
5439.2367919919	0.0021407437
5441.1655993650	0.0020543812
5443.0944067380	0.0020811453
5445.0232141111	0.0020959263
5446.9520214841	0.0019917958
5448.8808288572	0.0020714966
5450.8096362302	0.0020400523
5452.7384436033	0.0020782633
5454.6672509763	0.0021378412
5456.5960583494	0.0021018852
5458.5248657224	0.0021120131
5460.4536730955	0.0019987766
5462.3824804685	0.0020114412
5464.3112878415	0.0020567277
5466.2400952146	0.0020211013
5468.1689025876	0.0019916922
5470.0977099607	0.0019720420
5472.0265173337	0.0020374507
5473.9553247068	0.0020312150
5475.8841320798	0.0019389563
5477.8129394529	0.0018769831
5479.7417468259	0.0019065919
5481.6705541990	0.0019597991
5483.5993615720	0.0019920908
5485.5281689451	0.0019914627
5487.4569763181	0.0019376128
5489.3857836912	0.0019314617
5491.3145910642	0.0019452964
5493.2433984372	0.0019238740
5495.1722058103	0.0019444012
5497.1010131833	0.0019420874
5499.0298205564	0.0018514451
5500.9586279294	0.0018752005
5502.8874353025	0.0019069144
5504.8162426755	0.0018306763
5506.7450500486	0.0018327355
5508.6738574216	0.0019140088
5510.6026647947	0.0019634408
5512.5314721677	0.0018911115
5514.4602795408	0.0018259067
5516.3890869138	0.0018584502
5518.3178942869	0.0019130651
5520.2467016599	0.0018611887
5522.1755090330	0.0018070713
5524.1043164060	0.0018377162
5526.0331237790	0.0017956347
5527.9619311521	0.0018576896
5529.8907385251	0.0018459689
5531.8195458982	0.0017329152
5533.7483532712	0.0018209493
5535.6771606443	0.0018784684
5537.6059680173	0.0018272263
5539.5347753904	0.0017404471
5541.4635827634	0.0017651084
5543.3923901365	0.0017989656
5545.3211975095	0.0017294571
5547.2500048826	0.0017735182
5549.1788122556	0.0017386568
5551.1076196287	0.0017154746
5553.0364270017	0.0018283152
5554.9652343747	0.0018078286
5556.8940417478	0.0017684442
5558.8228491208	0.0017399545
5560.7516564939	0.0017070142
5562.6804638669	0.0016983750
5564.6092712400	0.0016665877
5566.5380786130	0.0017047222
5568.4668859861	0.0017039006
5570.3956933591	0.0017340118
5572.3245007322	0.0017291801
5574.2533081052	0.0016453435
5576.1821154783	0.0016915293
5578.1109228513	0.0016488533
5580.0397302244	0.0016839958
5581.9685375974	0.0017419689
5583.8973449704	0.0016861231
5585.8261523435	0.0017008693
5587.7549597165	0.0016419311
5589.6837670896	0.0016926945
5591.6125744626	0.0016890087
5593.5413818357	0.0016275545
5595.4701892087	0.0016277165
5597.3989965818	0.0015568578
5599.3278039548	0.0016484372
5601.2566113279	0.0016404666
5603.1854187009	0.0016071480
5605.1142260740	0.0016489429
5607.0430334470	0.0015904991
5608.9718408201	0.0015971368
5610.9006481931	0.0015971672
5612.8294555661	0.0016155149
5614.7582629392	0.0015553641
5616.6870703122	0.0015225948
5618.6158776853	0.0015861222
5620.5446850583	0.0016119721
5622.4734924314	0.0016791009
5624.4022998044	0.0015742783
5626.3311071775	0.0015288752
5628.2599145505	0.0015636130
5630.1887219236	0.0014883382
5632.1175292966	0.0015364084
5634.0463366697	0.0015052650
5635.9751440427	0.0014910601
5637.9039514158	0.0015308859
5639.8327587888	0.0014839037
5641.7615661619	0.0015329956
5643.6903735349	0.0015285858
5645.6191809079	0.0014887669
5647.5479882810	0.0015062891
5649.4767956540	0.0015073516
5651.4056030271	0.0015082986
5653.3344104001	0.0015417397
5655.2632177732	0.0015437638
5657.1920251462	0.0014957074
5659.1208325193	0.0015164479
5661.0496398923	0.0014489739
5662.9784472654	0.0014298160
5664.9072546384	0.0015012977
5666.8360620115	0.0014356074
5668.7648693845	0.0014193861
5670.6936767576	0.0014060353
5672.6224841306	0.0014186266
5674.5512915036	0.0015007989
5676.4800988767	0.0014865601
5678.4089062497	0.0013975396
5680.3377136228	0.0013693180
5682.2665209958	0.0014228052
5684.1953283689	0.0013862089
5686.1241357419	0.0013361542
5688.0529431150	0.0013365753
5689.9817504880	0.0013726102
5691.9105578611	0.0013962078
5693.8393652341	0.0013804482
5695.7681726072	0.0013854622
5697.6969799802	0.0013321933
5699.6257873533	0.0013448996
5701.5545947263	0.0014053995
5703.4834020993	0.0013725888
5705.4122094724	0.0013244275
5707.3410168454	0.0013739874
5709.2698242185	0.0013934921
5711.1986315915	0.0012945682
5713.1274389646	0.0012699605
5715.0562463376	0.0012916337
5716.9850537107	0.0013390402
5718.9138610837	0.0013149395
5720.8426684568	0.0013062633
5722.7714758298	0.0013843589
5724.7002832029	0.0013244345
5726.6290905759	0.0012755990
5728.5578979490	0.0012722244
5730.4867053220	0.0013116749
5732.4155126950	0.0013203470
5734.3443200681	0.0012548182
5736.2731274411	0.0013138453
5738.2019348142	0.0013340785
5740.1307421872	0.0012375060
5742.0595495603	0.0012432272
5743.9883569333	0.0012777180
5745.9171643064	0.0012561807
5747.8459716794	0.0013365742
5749.7747790525	0.0012750144
5751.7035864255	0.0011595543
5753.6323937986	0.0012276610
5755.5612011716	0.0012420176
5757.4900085447	0.0012540070
5759.4188159177	0.0012257203
5761.3476232907	0.0012148081
5763.2764306638	0.0012704383
5765.2052380368	0.0012443975
5767.1340454099	0.0012263157
5769.0628527829	0.0012839001
5770.9916601560	0.0012618820
5772.9204675290	0.0011907222
5774.8492749021	0.0012192100
5776.7780822751	0.0011754278
5778.7068896482	0.0012197196
5780.6356970212	0.0012178293
5782.5645043943	0.0011343735
5784.4933117673	0.0012014881
5786.4221191404	0.0011662866
5788.3509265134	0.0011456683
5790.2797338865	0.0010957930
5792.2085412595	0.0011285014
5794.1373486325	0.0012046603
5796.0661560056	0.0011600710
5797.9949633786	0.0011745587
5799.9237707517	0.0011147009
5801.8525781247	0.0011156987
5803.7813854978	0.0011364750
5805.7101928708	0.0011262638
5807.6390002439	0.0011053956
5809.5678076169	0.0011596917
5811.4966149900	0.0011692606
5813.4254223630	0.0010581838
5815.3542297361	0.0011717237
5817.2830371091	0.0011425621
5819.2118444822	0.0011254649
5821.1406518552	0.0011405835
5823.0694592282	0.0010657571
5824.9982666013	0.0011441711
5826.9270739743	0.0010824720
5828.8558813474	0.0010763209
5830.7846887204	0.0010407197
5832.7134960935	0.0010194465
5834.6423034665	0.0010885043
5836.5711108396	0.0010018561
5838.4999182126	0.0010107213
5840.4287255857	0.0010566639
5842.3575329587	0.0010804855
5844.2863403318	0.0010978170
5846.2151477048	0.0010668151
5848.1439550779	0.0010708647
5850.0727624509	0.0011129887
5852.0015698239	0.0010637156
5853.9303771970	0.0010487994
5855.8591845700	0.0010832462
5857.7879919431	0.0010317839
5859.7167993161	0.0010312507
5861.6456066892	0.0009810588
5863.5744140622	0.0010128947
5865.5032214353	0.0010476243
5867.4320288083	0.0010064431
5869.3608361814	0.0010244874
5871.2896435544	0.0010330332
5873.2184509275	0.0010558981
5875.1472583005	0.0009814096
5877.0760656736	0.0010166464
5879.0048730466	0.0010150813
5880.9336804196	0.0009584085
5882.8624877927	0.0009925269
5884.7912951657	0.0009620047
5886.7201025388	0.0010027691
5888.6489099118	0.0009784242
5890.5777172849	0.0009841697
5892.5065246579	0.0009781742
5894.4353320310	0.0009545663
5896.3641394040	0.0009400676
5898.2929467771	0.0009210370
5900.2217541501	0.0010454683
5902.1505615232	0.0010142146
5904.0793688962	0.0009412991
5906.0081762693	0.0008765839
5907.9369836423	0.0009175343
5909.8657910154	0.0009864408
5911.7945983884	0.0009264524
5913.7234057614	0.0009387659
5915.6522131345	0.0008800458
5917.5810205075	0.0009277329
5919.5098278806	0.0009068706
5921.4386352536	0.0008439653
5923.3674426267	0.0009042825
5925.2962499997	0.0008963647
5927.2250573728	0.0008990887
5929.1538647458	0.0008475339
5931.0826721189	0.0008746916
5933.0114794919	0.0008933917
5934.9402868650	0.0008922709
5936.8690942380	0.0009139932
5938.7979016111	0.0009261458
5940.7267089841	0.0008984572
5942.6555163571	0.0008328899
5944.5843237302	0.0009190186
5946.5131311032	0.0008560793
5948.4419384763	0.0008813244
5950.3707458493	0.0009545487
5952.2995532224	0.0008099031
5954.2283605954	0.0007879885
5956.1571679685	0.0007966462
5958.0859753415	0.0008654982
5960.0147827146	0.0009016045
5961.9435900876	0.0008617139
5963.8723974607	0.0008611809
5965.8012048337	0.0008793706
5967.7300122068	0.0009051698
5969.6588195798	0.0008991928
5971.5876269528	0.0009100150
5973.5164343259	0.0008890605
5975.4452416989	0.0008684593
5977.3740490720	0.0008112972
5979.3028564450	0.0008339182
5981.2316638181	0.0008476446
5983.1604711911	0.0007924167
5985.0892785642	0.0008497481
5987.0180859372	0.0007861541
5988.9468933103	0.0008017247
5990.8757006833	0.0008833047
5992.8045080564	0.0007937707
5994.7333154294	0.0008018377
5996.6621228025	0.0008757466
5998.5909301755	0.0008359042
6000.5197375485	0.0008012234
