399.2631262207	0.0020403937
401.1919335938	0.0023340005
403.1207409668	0.0025812218
405.0495483398	0.0028569403
406.9783557129	0.0031731562
408.9071630859	0.0033635097
410.8359704590	0.0031939521
412.7647778320	0.0032626737
414.6935852051	0.0034916108
416.6223925781	0.0035388386
418.5511999512	0.0033485792
420.4800073242	0.0034825923
422.4088146973	0.0038192705
424.3376220703	0.0032462163
426.2664294434	0.0035311691
428.1952368164	0.0035971208
430.1240441895	0.0032326540
432.0528515625	0.0034843050
433.9816589355	0.0034193653
435.9104663086	0.0037493580
437.8392736816	0.0032507121
439.7680810547	0.0031731203
441.6968884277	0.0031932304
443.6256958008	0.0029027411
445.5545031738	0.0033209468
447.4833105469	0.0025742361
449.4121179199	0.0027192545
451.3409252930	0.0027221204
453.2697326660	0.0024396279
455.1985400391	0.0028313624
457.1273474121	0.0019828775
459.0561547852	0.0022638475
460.9849621582	0.0024906807
462.9137695313	0.0017244993
464.8425769043	0.0018876852
466.7713842773	0.0017351299
468.7001916504	0.0014208700
470.6289990234	0.0017552900
472.5578063965	0.0014907718
474.4866137695	0.0009978530
476.4154211426	0.0012230378
478.3442285156	0.0008987554
480.2730358887	0.0005490442
482.2018432617	0.0007993013
484.1306506348	0.0008022410
486.0594580078	0.0004323169
487.9882653809	0.0005382609
489.9170727539	0.0009569846
491.8458801270	0.0003036681
493.7746875000	0.0002584748
495.7034948730	0.0007871677
497.6323022461	0.0004995025
499.5611096191	0.0006595817
501.4899169922	0.0005487347
503.4187243652	0.0002836304
505.3475317383	0.0004559695
507.2763391113	0.0002782842
509.2051464844	0.0007333488
511.1339538574	0.0008372243
513.0627612305	0.0005597484
514.9915686035	0.0010843251
516.9203759766	0.0004595806
518.8491833496	0.0001456956
520.7779907227	0.0007004408
522.7067980957	0.0004790325
524.6356054688	0.0005139295
526.5644128418	0.0004935742
528.4932202148	0.0006037788
530.4220275879	0.0007321170
532.3508349609	0.0001777086
534.2796423340	-0.0000252414
536.2084497070	0.0004482054
538.1372570801	0.0006763891
540.0660644531	0.0002417000
541.9948718262	0.0001887254
543.9236791992	0.0001253886
545.8524865723	0.0002003897
547.7812939453	0.0009264087
549.7101013184	0.0005750878
551.6389086914	0.0000449686
553.5677160645	-0.0000008323
555.4965234375	0.0000782845
557.4253308105	0.0006032946
559.3541381836	0.0003660176
561.2829455566	0.0001616760
563.2117529297	0.0003290353
565.1405603027	0.0002304662
567.0693676758	0.0005944188
568.9981750488	0.0008564923
570.9269824219	0.0003981808
572.8557897949	0.0001676433
574.7845971680	0.0003394494
576.7134045410	0.0003029686
578.6422119141	0.0004898140
580.5710192871	0.0002210986
582.4998266602	0.0002562860
584.4286340332	0.0006775896
586.3574414063	0.0001134530
588.2862487793	0.0002378407
590.2150561523	0.0004176569
592.1438635254	0.0003411444
594.0726708984	0.0001100549
596.0014782715	-0.0003580583
597.9302856445	0.0002002126
599.8590930176	0.0003551330
601.7879003906	0.0003489955
603.7167077637	0.0004412566
605.6455151367	0.0003141470
607.5743225098	0.0002328218
609.5031298828	-0.0001337141
611.4319372559	0.0001804154
613.3607446289	0.0003784946
615.2895520020	0.0001077161
617.2183593750	0.0002028766
619.1471667480	0.0001361918
621.0759741211	0.0001989023
623.0047814941	0.0003842370
624.9335888672	0.0003731398
626.8623962402	0.0003611178
628.7912036133	0.0001743679
630.7200109863	0.0007138886
632.6488183594	0.0011163031
634.5776257324	0.0016174056
636.5064331055	0.0025723081
638.4352404785	0.0025018239
640.3640478516	0.0024546292
642.2928552246	0.0029075495
644.2216625977	0.0034493271
646.1504699707	0.0035904720
648.0792773438	0.0038037091
650.0080847168	0.0043829284
651.9368920898	0.0044053458
653.8656994629	0.0045103952
655.7945068359	0.0048394706
657.7233142090	0.0047763945
659.6521215820	0.0047495263
661.5809289551	0.0050116349
663.5097363281	0.0055181007
665.4385437012	0.0057394700
667.3673510742	0.0049415538
669.2961584473	0.0055431947
671.2249658203	0.0068549169
673.1537731934	0.0064496901
675.0825805664	0.0066014975
677.0113879395	0.0066514784
678.9401953125	0.0065534040
680.8690026855	0.0069172001
682.7978100586	0.0067197978
684.7266174316	0.0067878081
686.6554248047	0.0067643491
688.5842321777	0.0068890755
690.5130395508	0.0072160223
692.4418469238	0.0074790688
694.3706542969	0.0077629890
696.2994616699	0.0085667083
698.2282690430	0.0101251528
700.1570764160	0.0108252084
702.0858837891	0.0105367033
704.0146911621	0.0099489223
705.9434985352	0.0090278853
707.8723059082	0.0075222785
709.8011132813	0.0059146746
711.7299206543	0.0042142444
713.6587280273	0.0025369795
715.5875354004	0.0012677533
717.5163427734	0.0007182481
719.4451501465	0.0010932346
721.3739575195	0.0006199068
723.3027648926	0.0002916214
725.2315722656	0.0004178896
727.1603796387	0.0002208672
729.0891870117	0.0001110233
731.0179943848	-0.0003580454
732.9468017578	0.0000855675
734.8756091309	0.0001513601
736.8044165039	-0.0000994565
738.7332238770	0.0002690804
740.6620312500	0.0001703280
742.5908386230	0.0002279837
744.5196459961	0.0000941851
746.4484533691	0.0000321325
748.3772607422	0.0001573108
750.3060681152	0.0004441696
752.2348754883	0.0004870597
754.1636828613	0.0002208323
756.0924902344	0.0001611411
758.0212976074	0.0002008415
759.9501049805	0.0005896841
761.8789123535	0.0002799726
763.8077197266	0.0003365249
765.7365270996	0.0005076606
767.6653344727	0.0003320248
769.5941418457	0.0006159903
771.5229492188	0.0004423091
773.4517565918	0.0006192636
775.3805639648	0.0005058369
777.3093713379	0.0004429400
779.2381787109	0.0008937620
781.1669860840	0.0005814618
783.0957934570	0.0006693049
785.0246008301	0.0008287148
786.9534082031	0.0006204984
788.8822155762	0.0007553487
790.8110229492	0.0007659828
792.7398303223	0.0006715697
794.6686376953	0.0005076369
796.5974450684	0.0007240020
798.5262524414	0.0015037897
800.4550598145	0.0014728927
802.3838671875	0.0010647280
804.3126745605	0.0011262153
806.2414819336	0.0010894013
808.1702893066	0.0008624150
810.0990966797	0.0007185909
812.0279040527	0.0006819079
813.9567114258	0.0003756281
815.8855187988	0.0005337415
817.8143261719	0.0003953523
819.7431335449	0.0002649861
821.6719409180	0.0009266145
823.6007482910	0.0007226023
825.5295556641	0.0009077169
827.4583630371	0.0010804834
829.3871704102	0.0013834838
831.3159777832	0.0018831789
833.2447851563	0.0015583884
835.1735925293	0.0023973417
837.1023999023	0.0023446113
839.0312072754	0.0017578802
840.9600146484	0.0023356983
842.8888220215	0.0021447334
844.8176293945	0.0017169320
846.7464367676	0.0017072251
848.6752441406	0.0016550890
850.6040515137	0.0013701748
852.5328588867	0.0012565062
854.4616662598	0.0010830760
856.3904736328	0.0010649213
858.3192810059	0.0012146269
860.2480883789	0.0009640943
862.1768957520	0.0008643133
864.1057031250	0.0010212488
866.0345104980	0.0009009810
867.9633178711	0.0004723320
869.8921252441	0.0006448324
871.8209326172	0.0005904115
873.7497399902	0.0004647975
875.6785473633	0.0006267859
877.6073547363	0.0003306891
879.5361621094	0.0005694448
881.4649694824	0.0006803187
883.3937768555	0.0006518236
885.3225842285	0.0003289038
887.2513916016	0.0001338680
889.1801989746	0.0005804535
891.1090063477	0.0003797000
893.0378137207	0.0004971010
894.9666210938	0.0003801559
896.8954284668	0.0003853786
898.8242358398	0.0008310904
900.7530432129	0.0005103693
902.6818505859	0.0005618454
904.6106579590	0.0006267597
906.5394653320	0.0005932809
908.4682727051	0.0009755485
910.3970800781	0.0009679279
912.3258874512	0.0009118932
914.2546948242	0.0012161611
916.1835021973	0.0012624401
918.1123095703	0.0014567630
920.0411169434	0.0016938951
921.9699243164	0.0017898537
923.8987316895	0.0020357673
925.8275390625	0.0019657305
927.7563464355	0.0022393982
929.6851538086	0.0024214238
931.6139611816	0.0025338477
933.5427685547	0.0029134406
935.4715759277	0.0028915165
937.4003833008	0.0032035038
939.3291906738	0.0033928435
941.2579980469	0.0033436394
943.1868054199	0.0035045575
945.1156127930	0.0034980504
947.0444201660	0.0034038015
948.9732275391	0.0033765943
950.9020349121	0.0035360442
952.8308422852	0.0034981095
954.7596496582	0.0031208722
956.6884570313	0.0030774474
958.6172644043	0.0032431523
960.5460717773	0.0031705399
962.4748791504	0.0033568731
964.4036865234	0.0034027998
966.3324938965	0.0034104600
968.2613012695	0.0036605028
970.1901086426	0.0037389151
972.1189160156	0.0039232811
974.0477233887	0.0040929685
975.9765307617	0.0045448951
977.9053381348	0.0048595411
979.8341455078	0.0052595111
981.7629528809	0.0059893690
983.6917602539	0.0064168489
985.6205676270	0.0070889834
987.5493750000	0.0079221725
989.4781823730	0.0090873139
991.4069897461	0.0100074764
993.3357971191	0.0106751546
995.2646044922	0.0116183329
997.1934118652	0.0125390161
999.1222192383	0.0136321867
1001.0510266113	0.0146769099
1002.9798339844	0.0158114061
1004.9086413574	0.0166168325
1006.8374487305	0.0177802853
1008.7662561035	0.0190970767
1010.6950634766	0.0199474245
1012.6238708496	0.0212544650
1014.5526782227	0.0221605264
1016.4814855957	0.0233193096
1018.4102929688	0.0246505216
1020.3391003418	0.0254609734
1022.2679077148	0.0266731102
1024.1967150879	0.0277424138
1026.1255224609	0.0284661278
1028.0543298340	0.0293223113
1029.9831372070	0.0302484669
1031.9119445801	0.0310563240
1033.8407519531	0.0317808241
1035.7695593262	0.0321879536
1037.6983666992	0.0325199813
1039.6271740723	0.0328085311
1041.5559814453	0.0327155851
1043.4847888184	0.0323779061
1045.4135961914	0.0318658277
1047.3424035645	0.0313714668
1049.2712109375	0.0309956297
1051.2000183105	0.0308593102
1053.1288256836	0.0302008297
1055.0576330566	0.0294060800
1056.9864404297	0.0289032832
1058.9152478027	0.0280974880
1060.8440551758	0.0271832645
1062.7728625488	0.0263061523
1064.7016699219	0.0256887339
1066.6304772949	0.0244431160
1068.5592846680	0.0236219801
1070.4880920410	0.0230028499
1072.4168994141	0.0213798936
1074.3457067871	0.0203831475
1076.2745141602	0.0194068849
1078.2033215332	0.0186353736
1080.1321289062	0.0179399829
1082.0609362793	0.0168881286
1083.9897436523	0.0160749406
1085.9185510254	0.0153784603
1087.8473583984	0.0148023069
1089.7761657715	0.0137673691
1091.7049731445	0.0134697864
1093.6337805176	0.0131282266
1095.5625878906	0.0122181829
1097.4913952637	0.0120360460
1099.4202026367	0.0116718346
1101.3490100098	0.0114570148
1103.2778173828	0.0112619065
1105.2066247559	0.0109056681
1107.1354321289	0.0108954217
1109.0642395019	0.0106781051
1110.9930468750	0.0103680100
1112.9218542480	0.0102492347
1114.8506616211	0.0100961560
1116.7794689941	0.0100945253
1118.7082763672	0.0102487095
1120.6370837402	0.0102853384
1122.5658911133	0.0104620922
1124.4946984863	0.0105103124
1126.4235058594	0.0105571561
1128.3523132324	0.0107742455
1130.2811206055	0.0109027904
1132.2099279785	0.0111681782
1134.1387353516	0.0115827024
1136.0675427246	0.0121241771
1137.9963500977	0.0128773842
1139.9251574707	0.0137815895
1141.8539648437	0.0144570665
1143.7827722168	0.0152046476
1145.7115795898	0.0161883738
1147.6403869629	0.0173102990
1149.5691943359	0.0183464214
1151.4980017090	0.0190954283
1153.4268090820	0.0200377889
1155.3556164551	0.0208528787
1157.2844238281	0.0218497552
1159.2132312012	0.0227853358
1161.1420385742	0.0233588107
1163.0708459473	0.0244125761
1164.9996533203	0.0254548769
1166.9284606934	0.0261526257
1168.8572680664	0.0270768385
1170.7860754394	0.0282638147
1172.7148828125	0.0290926937
1174.6436901855	0.0300761089
1176.5724975586	0.0314583406
1178.5013049316	0.0325868428
1180.4301123047	0.0336145759
1182.3589196777	0.0351874009
1184.2877270508	0.0369429663
1186.2165344238	0.0383320935
1188.1453417969	0.0402517803
1190.0741491699	0.0420312211
1192.0029565430	0.0438421033
1193.9317639160	0.0460979119
1195.8605712891	0.0481178835
1197.7893786621	0.0502579883
1199.7181860351	0.0523929670
1201.6469934082	0.0548822433
1203.5758007812	0.0570516624
1205.5046081543	0.0591417626
1207.4334155273	0.0613491535
1209.3622229004	0.0633266047
1211.2910302734	0.0652089939
1213.2198376465	0.0666113943
1215.1486450195	0.0685703307
1217.0774523926	0.0699869841
1219.0062597656	0.0711287931
1220.9350671387	0.0724071115
1222.8638745117	0.0730641857
1224.7926818848	0.0737780184
1226.7214892578	0.0742219836
1228.6502966308	0.0748921633
1230.5791040039	0.0750680715
1232.5079113769	0.0752521157
1234.4367187500	0.0754580498
1236.3655261230	0.0751732960
1238.2943334961	0.0753140301
1240.2231408691	0.0749790817
1242.1519482422	0.0745263547
1244.0807556152	0.0741586387
1246.0095629883	0.0740281492
1247.9383703613	0.0734898597
1249.8671777344	0.0727132112
1251.7959851074	0.0724153593
1253.7247924805	0.0716557875
1255.6535998535	0.0709046796
1257.5824072266	0.0698424578
1259.5112145996	0.0685869828
1261.4400219726	0.0676379800
1263.3688293457	0.0670648962
1265.2976367187	0.0660403818
1267.2264440918	0.0650037155
1269.1552514648	0.0645031333
1271.0840588379	0.0632708296
1273.0128662109	0.0622877851
1274.9416735840	0.0610552318
1276.8704809570	0.0599883720
1278.7992883301	0.0590294600
1280.7280957031	0.0574985370
1282.6569030762	0.0565049648
1284.5857104492	0.0553054437
1286.5145178223	0.0542872362
1288.4433251953	0.0533668846
1290.3721325683	0.0526371673
1292.3009399414	0.0520861819
1294.2297473144	0.0516815931
1296.1585546875	0.0514542535
1298.0873620605	0.0512440801
1300.0161694336	0.0516718999
1301.9449768066	0.0516910776
1303.8737841797	0.0521096624
1305.8025915527	0.0527771823
1307.7313989258	0.0534301624
1309.6602062988	0.0544586256
1311.5890136719	0.0551395416
1313.5178210449	0.0561347157
1315.4466284180	0.0573468469
1317.3754357910	0.0587656051
1319.3042431640	0.0603227168
1321.2330505371	0.0623973981
1323.1618579101	0.0641750097
1325.0906652832	0.0658445358
1327.0194726562	0.0679015890
1328.9482800293	0.0693761110
1330.8770874023	0.0713474303
1332.8058947754	0.0729632676
1334.7347021484	0.0743433386
1336.6635095215	0.0752563775
1338.5923168945	0.0749003068
1340.5211242676	0.0759918466
1342.4499316406	0.0783641264
1344.3787390137	0.0788727850
1346.3075463867	0.0787558407
1348.2363537597	0.0789227486
1350.1651611328	0.0780351907
1352.0939685058	0.0779165477
1354.0227758789	0.0771162808
1355.9515832519	0.0763218701
1357.8803906250	0.0761447102
1359.8091979980	0.0747696310
1361.7380053711	0.0724642724
1363.6668127441	0.0713492632
1365.5956201172	0.0738794953
1367.5244274902	0.0725086927
1369.4532348633	0.0714884400
1371.3820422363	0.0725257024
1373.3108496094	0.0693365261
1375.2396569824	0.0700707883
1377.1684643555	0.0711206496
1379.0972717285	0.0709528327
1381.0260791015	0.0710645542
1382.9548864746	0.0706628188
1384.8836938476	0.0706987455
1386.8125012207	0.0679217428
1388.7413085937	0.0694373250
1390.6701159668	0.0737858936
1392.5989233398	0.0722426623
1394.5277307129	0.0688232854
1396.4565380859	0.0715050548
1398.3853454590	0.0717991740
1400.3141528320	0.0712788850
1402.2429602051	0.0757639259
1404.1717675781	0.0721253455
1406.1005749512	0.0726252496
1408.0293823242	0.0747957304
1409.9581896972	0.0724854171
1411.8869970703	0.0738784820
1413.8158044433	0.0713875592
1415.7446118164	0.0724725723
1417.6734191894	0.0665473416
1419.6022265625	0.0606656820
1421.5310339355	0.0674704909
1423.4598413086	0.0656373054
1425.3886486816	0.0636508986
1427.3174560547	0.0640482605
1429.2462634277	0.0601243116
1431.1750708008	0.0579429306
1433.1038781738	0.0582476407
1435.0326855469	0.0536988899
1436.9614929199	0.0468070060
1438.8903002929	0.0514585115
1440.8191076660	0.0521750040
1442.7479150390	0.0488960668
1444.6767224121	0.0505897403
1446.6055297851	0.0473466516
1448.5343371582	0.0478368551
1450.4631445312	0.0492532067
1452.3919519043	0.0500577241
1454.3207592773	0.0518792272
1456.2495666504	0.0449092835
1458.1783740234	0.0470588431
1460.1071813965	0.0597093329
1462.0359887695	0.0629376322
1463.9647961426	0.0636358187
1465.8936035156	0.0664648414
1467.8224108886	0.0745278001
1469.7512182617	0.0798895434
1471.6800256347	0.0738364905
1473.6088330078	0.0780251324
1475.5376403808	0.0871259272
1477.4664477539	0.0932175666
1479.3952551269	0.1010520980
1481.3240625000	0.1032736748
1483.2528698730	0.1093173921
1485.1816772461	0.1130037829
1487.1104846191	0.1125942171
1489.0392919922	0.1129379794
1490.9680993652	0.1144813448
1492.8969067383	0.1293408871
1494.8257141113	0.1275427938
1496.7545214843	0.1177705973
1498.6833288574	0.1305974424
1500.6121362304	0.1343185306
1502.5409436035	0.1422692239
1504.4697509765	0.1362570524
1506.3985583496	0.1066948399
1508.3273657226	0.1257522255
1510.2561730957	0.1426323652
1512.1849804687	0.1389608979
1514.1137878418	0.1483936757
1516.0425952148	0.1367769241
1517.9714025879	0.1422631145
1519.9002099609	0.1373937428
1521.8290173340	0.1233626455
1523.7578247070	0.1447826177
1525.6866320801	0.1426567733
1527.6154394531	0.1426756680
1529.5442468261	0.1538870186
1531.4730541992	0.1493974775
1533.4018615722	0.1396220624
1535.3306689453	0.1461487710
1537.2594763183	0.1534876376
1539.1882836914	0.1178232878
1541.1170910644	0.1225824058
1543.0458984375	0.1414378285
1544.9747058105	0.1373751611
1546.9035131836	0.1561977416
1548.8323205566	0.1478215158
1550.7611279297	0.1519753337
1552.6899353027	0.1505081654
1554.6187426758	0.1399503499
1556.5475500488	0.1476646662
1558.4763574218	0.1122538000
1560.4051647949	0.1192721575
1562.3339721679	0.1572037935
1564.2627795410	0.1500365287
1566.1915869140	0.1535010636
1568.1203942871	0.1522376239
1570.0492016601	0.1385592520
1571.9780090332	0.1550377160
1573.9068164062	0.1558429599
1575.8356237793	0.1293249726
1577.7644311523	0.1428068280
1579.6932385254	0.1574513167
1581.6220458984	0.1517814100
1583.5508532715	0.1553367078
1585.4796606445	0.1530496776
1587.4084680175	0.1540062129
1589.3372753906	0.1530815363
1591.2660827636	0.1529164463
1593.1948901367	0.1531713009
1595.1236975097	0.1515376121
1597.0525048828	0.1532460600
1598.9813122558	0.1522874534
1600.9101196289	0.1530801356
1602.8389270019	0.1506933421
1604.7677343750	0.1528407931
1606.6965417480	0.1510637701
1608.6253491211	0.1507275105
1610.5541564941	0.1504878998
1612.4829638672	0.1510295719
1614.4117712402	0.1530931592
1616.3405786132	0.1299508214
1618.2693859863	0.1389412582
1620.1981933593	0.1568870246
1622.1270007324	0.1421477646
1624.0558081054	0.1434637010
1625.9846154785	0.1484677494
1627.9134228515	0.1481470764
1629.8422302246	0.1470838189
1631.7710375976	0.1549977660
1633.6998449707	0.1453450620
1635.6286523437	0.1247930527
1637.5574597168	0.1412493736
1639.4862670898	0.1518413723
1641.4150744629	0.1490255594
1643.3438818359	0.1522205472
1645.2726892090	0.1396941096
1647.2014965820	0.1268568635
1649.1303039550	0.1508766115
1651.0591113281	0.1433082223
1652.9879187011	0.1013555080
1654.9167260742	0.1297443211
1656.8455334472	0.1552652717
1658.7743408203	0.1490270048
1660.7031481933	0.1528089345
1662.6319555664	0.1415674984
1664.5607629394	0.1479710340
1666.4895703125	0.1560561657
1668.4183776855	0.1405558139
1670.3471850586	0.1378247887
1672.2759924316	0.1517100334
1674.2047998047	0.1423904449
1676.1336071777	0.1376507580
1678.0624145507	0.1540211439
1679.9912219238	0.1493968815
1681.9200292968	0.1484220326
1683.8488366699	0.1254820228
1685.7776440429	0.1242504269
1687.7064514160	0.1602320224
1689.6352587890	0.1424774528
1691.5640661621	0.1539975107
1693.4928735351	0.1560397446
1695.4216809082	0.1212033778
1697.3504882812	0.1433936954
1699.2792956543	0.1297567189
1701.2081030273	0.1196918637
1703.1369104004	0.1526561975
1705.0657177734	0.1423043907
1706.9945251464	0.1430391818
1708.9233325195	0.1528540552
1710.8521398925	0.1474781334
1712.7809472656	0.1496164203
1714.7097546386	0.1411022842
1716.6385620117	0.1287514865
1718.5673693847	0.1271690577
1720.4961767578	0.1458776593
1722.4249841308	0.1494899243
1724.3537915039	0.1409784555
1726.2825988769	0.1505664289
1728.2114062500	0.1408446431
1730.1402136230	0.1423776746
1732.0690209961	0.1382544935
1733.9978283691	0.1118072420
1735.9266357421	0.1328753680
1737.8554431152	0.1436041892
1739.7842504882	0.1311814487
1741.7130578613	0.1405818760
1743.6418652343	0.1423771083
1745.5706726074	0.1424513906
1747.4994799804	0.1439199448
1749.4282873535	0.1391802728
1751.3570947265	0.1341213286
1753.2859020996	0.1456512213
1755.2147094726	0.1509785652
1757.1435168457	0.1405837536
1759.0723242187	0.1513645202
1761.0011315918	0.1439957768
1762.9299389648	0.1401747465
1764.8587463379	0.1556839645
1766.7875537109	0.1431905776
1768.7163610839	0.1444167793
1770.6451684570	0.1436253786
1772.5739758300	0.1318536997
1774.5027832031	0.1438925564
1776.4315905761	0.1503600180
1778.3603979492	0.1484129429
1780.2892053222	0.1470271647
1782.2180126953	0.1478030384
1784.1468200683	0.1476367712
1786.0756274414	0.1454294920
1788.0044348144	0.1512431651
1789.9332421875	0.1480845809
1791.8620495605	0.1370311975
1793.7908569336	0.1414930373
1795.7196643066	0.1494167447
1797.6484716796	0.1478911787
1799.5772790527	0.1461247951
1801.5060864257	0.1442401111
1803.4348937988	0.1478420496
1805.3637011718	0.1503234655
1807.2925085449	0.1484851241
1809.2213159179	0.1490231156
1811.1501232910	0.1460752785
1813.0789306640	0.1493702084
1815.0077380371	0.1499262601
1816.9365454101	0.1484757215
1818.8653527832	0.1493700445
1820.7941601562	0.1488554031
1822.7229675293	0.1505023390
1824.6517749023	0.1428431869
1826.5805822753	0.1468640864
1828.5093896484	0.1469802409
1830.4381970214	0.1399183571
1832.3670043945	0.1493714452
1834.2958117675	0.1483787000
1836.2246191406	0.1483178139
1838.1534265136	0.1478043497
1840.0822338867	0.1484753788
1842.0110412597	0.1485677063
1843.9398486328	0.1351581812
1845.8686560058	0.1421850622
1847.7974633789	0.1482795179
1849.7262707519	0.1454812586
1851.6550781250	0.1488294750
1853.5838854980	0.1463805139
1855.5126928710	0.1474471092
1857.4415002441	0.1467172801
1859.3703076171	0.1458017081
1861.2991149902	0.1467181444
1863.2279223632	0.1453491449
1865.1567297363	0.1462757289
1867.0855371093	0.1426220834
1869.0143444824	0.1381093562
1870.9431518554	0.1421869993
1872.8719592285	0.1461006552
1874.8007666015	0.1441026926
1876.7295739746	0.1447839439
1878.6583813476	0.1443041861
1880.5871887207	0.1434734166
1882.5159960937	0.1444265842
1884.4448034667	0.1425691098
1886.3736108398	0.1439540237
1888.3024182128	0.1414803565
1890.2312255859	0.1392298043
1892.1600329589	0.1431953758
1894.0888403320	0.1417373866
1896.0176477050	0.1411526501
1897.9464550781	0.1423435211
1899.8752624511	0.1416110992
1901.8040698242	0.1418138742
1903.7328771972	0.1410244703
1905.6616845703	0.1414728165
1907.5904919433	0.1403475106
1909.5192993164	0.1393656433
1911.4481066894	0.1399682462
1913.3769140625	0.1400585920
1915.3057214355	0.1410112977
1917.2345288085	0.1361160874
1919.1633361816	0.1361848712
1921.0921435546	0.1401292384
1923.0209509277	0.1367106140
1924.9497583007	0.1388452947
1926.8785656738	0.1398237497
1928.8073730468	0.1385137737
1930.7361804199	0.1396149695
1932.6649877929	0.1382408142
1934.5937951660	0.1391381621
1936.5226025390	0.1381815374
1938.4514099121	0.1386905313
1940.3802172851	0.1386227012
1942.3090246582	0.1352153718
1944.2378320312	0.1369789839
1946.1666394042	0.1380165219
1948.0954467773	0.1377222240
1950.0242541503	0.1380956173
1951.9530615234	0.1375377178
1953.8818688964	0.1375450194
1955.8106762695	0.1373874545
1957.7394836425	0.1373897344
1959.6682910156	0.1371206939
1961.5970983886	0.1369092017
1963.5259057617	0.1373215020
1965.4547131347	0.1365490854
1967.3835205078	0.1352070272
1969.3123278808	0.1362285912
1971.2411352539	0.1367510855
1973.1699426269	0.1360474527
1975.0987499999	0.1363635361
1977.0275573730	0.1357952058
1978.9563647460	0.1356825233
1980.8851721191	0.1355882734
1982.8139794921	0.1352651715
1984.7427868652	0.1354610622
1986.6715942382	0.1347052157
1988.6004016113	0.1346787214
1990.5292089843	0.1337997168
1992.4580163574	0.1325203329
1994.3868237304	0.1339065582
1996.3156311035	0.1341882348
1998.2444384765	0.1332856715
2000.1732458496	0.1334318072
2002.1020532226	0.1330253929
2004.0308605956	0.1328068972
2005.9596679687	0.1324843466
2007.8884753417	0.1321886033
2009.8172827148	0.1320978701
2011.7460900878	0.1315009296
2013.6748974609	0.1315948814
2015.6037048339	0.1307200491
2017.5325122070	0.1299657226
2019.4613195800	0.1304475665
2021.3901269531	0.1301816702
2023.3189343261	0.1298497021
2025.2477416992	0.1294825673
2027.1765490722	0.1292290688
2029.1053564453	0.1290173233
2031.0341638183	0.1286761910
2032.9629711914	0.1285744905
2034.8917785644	0.1282254010
2036.8205859374	0.1277874112
2038.7493933105	0.1275873631
2040.6782006835	0.1271467805
2042.6070080566	0.1266720891
2044.5358154296	0.1267170757
2046.4646228027	0.1264581382
2048.3934301757	0.1261111796
2050.3222375488	0.1258727312
2052.2510449218	0.1256334484
2054.1798522949	0.1253997982
2056.1086596679	0.1250657439
2058.0374670410	0.1248875111
2059.9662744140	0.1245718896
2061.8950817871	0.1243833527
2063.8238891601	0.1237984151
2065.7526965331	0.1235542074
2067.6815039062	0.1235925406
2069.6103112792	0.1231820434
2071.5391186523	0.1231727153
2073.4679260253	0.1227604747
2075.3967333984	0.1225260049
2077.3255407714	0.1223670691
2079.2543481445	0.1220369786
2081.1831555175	0.1219570637
2083.1119628906	0.1216076389
2085.0407702636	0.1213946640
2086.9695776367	0.1212140918
2088.8983850097	0.1208958924
2090.8271923828	0.1205915883
2092.7559997558	0.1205908656
2094.6848071288	0.1202123538
2096.6136145019	0.1199121177
2098.5424218749	0.1197679564
2100.4712292480	0.1193842441
2102.4000366210	0.1194449440
2104.3288439941	0.1190812886
2106.2576513671	0.1189207435
2108.1864587402	0.1186335832
2110.1152661132	0.1183668450
2112.0440734863	0.1184141785
2113.9728808593	0.1180236489
2115.9016882324	0.1180449203
2117.8304956054	0.1177498400
2119.7593029785	0.1175057888
2121.6881103515	0.1173363775
2123.6169177245	0.1171430573
2125.5457250976	0.1169210821
2127.4745324706	0.1165144295
2129.4033398437	0.1166334003
2131.3321472167	0.1162953824
2133.2609545898	0.1161349043
2135.1897619628	0.1161464453
2137.1185693359	0.1158387735
2139.0473767089	0.1156971157
2140.9761840820	0.1155883074
2142.9049914550	0.1154972613
2144.8337988281	0.1152943969
2146.7626062011	0.1151895970
2148.6914135742	0.1150276363
2150.6202209472	0.1148421839
2152.5490283203	0.1144794896
2154.4778356933	0.1143889353
2156.4066430663	0.1143522114
2158.3354504394	0.1140793636
2160.2642578124	0.1139580980
2162.1930651855	0.1137235314
2164.1218725585	0.1137832254
2166.0506799316	0.1135637984
2167.9794873046	0.1133531630
2169.9082946777	0.1132048070
2171.8371020507	0.1131062955
2173.7659094238	0.1129501015
2175.6947167968	0.1125612557
2177.6235241699	0.1127434745
2179.5523315429	0.1123872995
2181.4811389160	0.1122336984
2183.4099462890	0.1121280789
2185.3387536620	0.1119284257
2187.2675610351	0.1119648442
2189.1963684081	0.1115659028
2191.1251757812	0.1116461307
2193.0539831542	0.1112914830
2194.9827905273	0.1111747175
2196.9115979003	0.1112136096
2198.8404052734	0.1108897105
2200.7692126464	0.1108311862
2202.6980200195	0.1106385887
2204.6268273925	0.1106358692
2206.5556347656	0.1103983968
2208.4844421386	0.1103546843
2210.4132495117	0.1100890487
2212.3420568847	0.1098655611
2214.2708642577	0.1098022312
2216.1996716308	0.1095063537
2218.1284790038	0.1095470637
2220.0572863769	0.1092903465
2221.9860937499	0.1092387736
2223.9149011230	0.1089302301
2225.8437084960	0.1087428704
2227.7725158691	0.1086517423
2229.7013232421	0.1082919538
2231.6301306152	0.1082979441
2233.5589379882	0.1080890298
2235.4877453613	0.1080843955
2237.4165527343	0.1077376306
2239.3453601074	0.1075756252
2241.2741674804	0.1074770689
2243.2029748534	0.1070512757
2245.1317822265	0.1070604920
2247.0605895995	0.1068969816
2248.9893969726	0.1066772565
2250.9182043456	0.1064533293
2252.8470117187	0.1064539850
2254.7758190917	0.1060998216
2256.7046264648	0.1059172004
2258.6334338378	0.1058251560
2260.5622412109	0.1053980887
2262.4910485839	0.1054695398
2264.4198559570	0.1051529422
2266.3486633300	0.1051603407
2268.2774707031	0.1050257534
2270.2062780761	0.1047519222
2272.1350854491	0.1047769934
2274.0638928222	0.1044727713
2275.9927001952	0.1045500338
2277.9215075683	0.1044317409
2279.8503149413	0.1042995453
2281.7791223144	0.1041116640
2283.7079296874	0.1039549559
2285.6367370605	0.1037419885
2287.5655444335	0.1033885479
2289.4943518066	0.1033286452
2291.4231591796	0.1029859707
2293.3519665527	0.1027531624
2295.2807739257	0.1023087502
2297.2095812988	0.1019284874
2299.1383886718	0.1015580446
2301.0671960449	0.1010899693
2302.9960034179	0.1008558124
2304.9248107909	0.1002702564
2306.8536181640	0.0996597856
2308.7824255370	0.0987841114
2310.7112329101	0.0979363471
2312.6400402831	0.0969868302
2314.5688476562	0.0960606635
2316.4976550292	0.0951428041
2318.4264624023	0.0936607048
2320.3552697753	0.0924139321
2322.2840771484	0.0910476595
2324.2128845214	0.0898312926
2326.1416918945	0.0889070332
2328.0704992675	0.0879660845
2329.9993066406	0.0868399292
2331.9281140136	0.0859249905
2333.8569213866	0.0857905895
2335.7857287597	0.0852796137
2337.7145361327	0.0850924402
2339.6433435058	0.0850655437
2341.5721508788	0.0853245035
2343.5009582519	0.0867381543
2345.4297656249	0.0882094949
2347.3585729980	0.0918701440
2349.2873803710	0.0948686674
2351.2161877441	0.0916367918
2353.1449951171	0.0868395716
2355.0738024902	0.0837619752
2357.0026098632	0.0810648352
2358.9314172363	0.0794628412
2360.8602246093	0.0785181224
2362.7890319823	0.0784320086
2364.7178393554	0.0790492892
2366.6466467284	0.0799126700
2368.5754541015	0.0815582126
2370.5042614745	0.0834312737
2372.4330688476	0.0857330114
2374.3618762206	0.0882014334
2376.2906835937	0.0904247165
2378.2194909667	0.0924343914
2380.1482983398	0.0940764397
2382.0771057128	0.0952565074
2384.0059130859	0.0957873166
2385.9347204589	0.0961089954
2387.8635278320	0.0961990878
2389.7923352050	0.0961286351
2391.7211425780	0.0959970057
2393.6499499511	0.0958461836
2395.5787573241	0.0957235768
2397.5075646972	0.0955897868
2399.4363720702	0.0953920633
2401.3651794433	0.0952602699
2403.2939868163	0.0954062343
2405.2227941894	0.0950029194
2407.1516015624	0.0947878063
2409.0804089355	0.0947912559
2411.0092163085	0.0944989547
2412.9380236816	0.0945707113
2414.8668310546	0.0943891555
2416.7956384277	0.0941344351
2418.7244458007	0.0939632505
2420.6532531738	0.0939227119
2422.5820605468	0.0937684402
2424.5108679198	0.0935351551
2426.4396752929	0.0934768170
2428.3684826659	0.0932671130
2430.2972900390	0.0933212563
2432.2260974120	0.0929695070
2434.1549047851	0.0928063840
2436.0837121581	0.0928654373
2438.0125195312	0.0925577506
2439.9413269042	0.0925839692
2441.8701342773	0.0923854783
2443.7989416503	0.0922531486
2445.7277490234	0.0921663791
2447.6565563964	0.0920067281
2449.5853637695	0.0918364003
2451.5141711425	0.0915532112
2453.4429785155	0.0915600061
2455.3717858886	0.0915251151
2457.3005932616	0.0914187729
2459.2294006347	0.0911442190
2461.1582080077	0.0909248590
2463.0870153808	0.0908936709
2465.0158227538	0.0907895416
2466.9446301269	0.0906890929
2468.8734374999	0.0905093998
2470.8022448730	0.0903595537
2472.7310522460	0.0903522670
2474.6598596191	0.0901716352
2476.5886669921	0.0898927301
2478.5174743652	0.0899963677
2480.4462817382	0.0897588283
2482.3750891112	0.0894457847
2484.3038964843	0.0895562172
2486.2327038573	0.0893901885
2488.1615112304	0.0892514437
2490.0903186034	0.0891409814
2492.0191259765	0.0889416039
2493.9479333495	0.0888251215
2495.8767407226	0.0887537226
2497.8055480956	0.0885633603
2499.7343554687	0.0884696320
2501.6631628417	0.0884133130
2503.5919702148	0.0881879628
2505.5207775878	0.0882042497
2507.4495849609	0.0880260319
2509.3783923339	0.0878788009
2511.3071997069	0.0877835304
2513.2360070800	0.0876123905
2515.1648144530	0.0875461698
2517.0936218261	0.0872509554
2519.0224291991	0.0872707069
2520.9512365722	0.0872575194
2522.8800439452	0.0870069414
2524.8088513183	0.0868494064
2526.7376586913	0.0867948681
2528.6664660644	0.0867230222
2530.5952734374	0.0864501074
2532.5240808105	0.0864085853
2534.4528881835	0.0863111764
2536.3816955566	0.0860888809
2538.3105029296	0.0859864131
2540.2393103027	0.0859798044
2542.1681176757	0.0858179182
2544.0969250487	0.0855028629
2546.0257324218	0.0854764283
2547.9545397948	0.0853947625
2549.8833471679	0.0851862878
2551.8121545409	0.0850434080
2553.7409619140	0.0849611461
2555.6697692870	0.0848218650
2557.5985766601	0.0847559944
2559.5273840331	0.0846415609
2561.4561914062	0.0843731016
2563.3849987792	0.0843613446
2565.3138061523	0.0842118114
2567.2426135253	0.0840279460
2569.1714208984	0.0839676037
2571.1002282714	0.0838965476
2573.0290356444	0.0837903619
2574.9578430175	0.0835338831
2576.8866503905	0.0834916085
2578.8154577636	0.0834573954
2580.7442651366	0.0832261443
2582.6730725097	0.0830620974
2584.6018798827	0.0830173492
2586.5306872558	0.0829147398
2588.4594946288	0.0827864856
2590.3883020019	0.0825692192
2592.3171093749	0.0824318528
2594.2459167480	0.0824786872
2596.1747241210	0.0823136047
2598.1035314941	0.0821893960
2600.0323388671	0.0819381177
2601.9611462401	0.0817817673
2603.8899536132	0.0817811340
2605.8187609862	0.0815766528
2607.7475683593	0.0815121755
2609.6763757323	0.0813335627
2611.6051831054	0.0812997222
2613.5339904784	0.0812154263
2615.4627978515	0.0809134394
2617.3916052245	0.0809805840
2619.3204125976	0.0809774548
2621.2492199706	0.0806808174
2623.1780273437	0.0804949626
2625.1068347167	0.0804307014
2627.0356420898	0.0803084373
2628.9644494628	0.0801726133
2630.8932568358	0.0799002796
2632.8220642089	0.0799039751
2634.7508715819	0.0799393952
2636.6796789550	0.0796017945
2638.6084863280	0.0795044303
2640.5372937011	0.0794420838
2642.4661010741	0.0793342143
2644.3949084472	0.0792178959
2646.3237158202	0.0791235641
2648.2525231933	0.0788751841
2650.1813305663	0.0786932409
2652.1101379394	0.0788228735
2654.0389453124	0.0786016583
2655.9677526855	0.0785234720
2657.8965600585	0.0783958137
2659.8253674315	0.0781106800
2661.7541748046	0.0781151801
2663.6829821776	0.0780628100
2665.6117895507	0.0779248327
2667.5405969237	0.0777117163
2669.4694042968	0.0776762962
2671.3982116698	0.0774828643
2673.3270190429	0.0773352087
2675.2558264159	0.0772885829
2677.1846337890	0.0770346224
2679.1134411620	0.0771248490
2681.0422485351	0.0770052895
2682.9710559081	0.0767708719
2684.8998632812	0.0767464638
2686.8286706542	0.0766049400
2688.7574780273	0.0765047520
2690.6862854003	0.0763841271
2692.6150927733	0.0763070285
2694.5439001464	0.0761462897
2696.4727075194	0.0760385841
2698.4015148925	0.0759674162
2700.3303222655	0.0756916255
2702.2591296386	0.0756766051
2704.1879370116	0.0755577981
2706.1167443847	0.0753980726
2708.0455517577	0.0754212141
2709.9743591308	0.0750486553
2711.9031665038	0.0749344677
2713.8319738769	0.0749269426
2715.7607812499	0.0748119876
2717.6895886230	0.0747938901
2719.6183959960	0.0744251236
2721.5472033690	0.0743313879
2723.4760107421	0.0742707253
2725.4048181151	0.0740692839
2727.3336254882	0.0739799216
2729.2624328612	0.0739083141
2731.1912402343	0.0738440007
2733.1200476073	0.0736068487
2735.0488549804	0.0736013204
2736.9776623534	0.0733432025
2738.9064697265	0.0732544884
2740.8352770995	0.0733438507
2742.7640844726	0.0730353594
2744.6928918456	0.0729894266
2746.6216992187	0.0727790222
2748.5505065917	0.0727331638
2750.4793139647	0.0726376325
2752.4081213378	0.0723762512
2754.3369287108	0.0724218711
2756.2657360839	0.0723044798
2758.1945434569	0.0722084939
2760.1233508300	0.0720004812
2762.0521582030	0.0718408972
2763.9809655761	0.0716449693
2765.9097729491	0.0714876950
2767.8385803222	0.0714465380
2769.7673876952	0.0712356940
2771.6961950683	0.0711940080
2773.6250024413	0.0709780306
2775.5538098144	0.0708143339
2777.4826171874	0.0708217919
2779.4114245604	0.0706789419
2781.3402319335	0.0705528855
2783.2690393065	0.0704776794
2785.1978466796	0.0703431070
2787.1266540526	0.0702284425
2789.0554614257	0.0700976551
2790.9842687987	0.0698132366
2792.9130761718	0.0698283166
2794.8418835448	0.0696553811
2796.7706909179	0.0694261789
2798.6994982909	0.0694280639
2800.6283056640	0.0691403449
2802.5571130370	0.0690789223
2804.4859204101	0.0690151453
2806.4147277831	0.0687913597
2808.3435351562	0.0686128587
2810.2723425292	0.0684943795
2812.2011499022	0.0683802590
2814.1299572753	0.0681260228
2816.0587646483	0.0680208579
2817.9875720214	0.0679718554
2819.9163793944	0.0678641349
2821.8451867675	0.0677045733
2823.7739941405	0.0676068962
2825.7028015136	0.0674064904
2827.6316088866	0.0672565848
2829.5604162597	0.0672344342
2831.4892236327	0.0669953525
2833.4180310058	0.0668815747
2835.3468383788	0.0667281076
2837.2756457519	0.0664418042
2839.2044531249	0.0662778616
2841.1332604979	0.0662433729
2843.0620678710	0.0659353361
2844.9908752440	0.0655013844
2846.9196826171	0.0653259158
2848.8484899901	0.0649258196
2850.7772973632	0.0647456795
2852.7061047362	0.0647678375
2854.6349121093	0.0645687729
2856.5637194823	0.0644555539
2858.4925268554	0.0643734261
2860.4213342284	0.0642310679
2862.3501416015	0.0642584339
2864.2789489745	0.0642510951
2866.2077563476	0.0638772398
2868.1365637206	0.0638322234
2870.0653710936	0.0637632608
2871.9941784667	0.0635017604
2873.9229858397	0.0635572970
2875.8517932128	0.0634320974
2877.7806005858	0.0632732064
2879.7094079589	0.0631599277
2881.6382153319	0.0630618855
2883.5670227050	0.0630086213
2885.4958300780	0.0629515797
2887.4246374511	0.0628609359
2889.3534448241	0.0626836270
2891.2822521972	0.0624794848
2893.2110595702	0.0622971281
2895.1398669433	0.0622763634
2897.0686743163	0.0621058382
2898.9974816893	0.0619847775
2900.9262890624	0.0617896914
2902.8550964354	0.0615553223
2904.7839038085	0.0614908822
2906.7127111815	0.0611941516
2908.6415185546	0.0610366389
2910.5703259276	0.0607602037
2912.4991333007	0.0604702011
2914.4279406737	0.0602028109
2916.3567480468	0.0598588511
2918.2855554198	0.0597556233
2920.2143627929	0.0595092773
2922.1431701659	0.0594986677
2924.0719775390	0.0595162362
2926.0007849120	0.0593525469
2927.9295922851	0.0592036545
2929.8583996581	0.0591267422
2931.7872070311	0.0591757596
2933.7160144042	0.0589896664
2935.6448217772	0.0590773299
2937.5736291503	0.0591439977
2939.5024365233	0.0590077899
2941.4312438964	0.0590939149
2943.3600512694	0.0590031296
2945.2888586425	0.0588806421
2947.2176660155	0.0587966070
2949.1464733886	0.0587561354
2951.0752807616	0.0586851016
2953.0040881347	0.0584407859
2954.9328955077	0.0582475103
2956.8617028808	0.0580012053
2958.7905102538	0.0578488261
2960.7193176268	0.0577854700
2962.6481249999	0.0575954393
2964.5769323729	0.0575439632
2966.5057397460	0.0575025603
2968.4345471190	0.0574432760
2970.3633544921	0.0575183555
2972.2921618651	0.0575560853
2974.2209692382	0.0575664714
2976.1497766112	0.0575396270
2978.0785839843	0.0575309098
2980.0073913573	0.0574808866
2981.9361987304	0.0574503094
2983.8650061034	0.0574045926
2985.7938134765	0.0572919771
2987.7226208495	0.0573039576
2989.6514282225	0.0571836904
2991.5802355956	0.0571567900
2993.5090429686	0.0570417196
2995.4378503417	0.0568005256
2997.3666577147	0.0569338351
2999.2954650878	0.0568382666
3001.2242724608	0.0566032641
3003.1530798339	0.0565446094
3005.0818872069	0.0564010665
3007.0106945800	0.0563426763
3008.9395019530	0.0562745109
3010.8683093261	0.0560066849
3012.7971166991	0.0558651686
3014.7259240722	0.0557738319
3016.6547314452	0.0557029694
3018.5835388182	0.0557236299
3020.5123461913	0.0554592274
3022.4411535643	0.0553745180
3024.3699609374	0.0553008765
3026.2987683104	0.0550997630
3028.2275756835	0.0550714657
3030.1563830565	0.0548054129
3032.0851904296	0.0546818189
3034.0139978026	0.0546127334
3035.9428051757	0.0544786751
3037.8716125487	0.0544365719
3039.8004199218	0.0543892980
3041.7292272948	0.0542401522
3043.6580346679	0.0540131256
3045.5868420409	0.0540375374
3047.5156494139	0.0538281202
3049.4444567870	0.0536269061
3051.3732641600	0.0536603965
3053.3020715331	0.0535508357
3055.2308789061	0.0533242226
3057.1596862792	0.0531440675
3059.0884936522	0.0532313660
3061.0173010253	0.0531302691
3062.9461083983	0.0530038998
3064.8749157714	0.0528051928
3066.8037231444	0.0525543727
3068.7325305175	0.0526361316
3070.6613378905	0.0524832606
3072.5901452636	0.0522926599
3074.5189526366	0.0523625985
3076.4477600097	0.0522927679
3078.3765673827	0.0519625507
3080.3053747557	0.0518900380
3082.2341821288	0.0520033427
3084.1629895018	0.0518419482
3086.0917968749	0.0516801849
3088.0206042479	0.0515843630
3089.9494116210	0.0514532477
3091.8782189940	0.0513666496
3093.8070263671	0.0513248071
3095.7358337401	0.0511571914
3097.6646411132	0.0511064529
3099.5934484862	0.0509567335
3101.5222558593	0.0506887585
3103.4510632323	0.0507018492
3105.3798706054	0.0505011454
3107.3086779784	0.0503459238
3109.2374853514	0.0502924770
3111.1662927245	0.0501277223
3113.0951000975	0.0500630587
3115.0239074706	0.0499407053
3116.9527148436	0.0497184061
3118.8815222167	0.0496471561
3120.8103295897	0.0496797413
3122.7391369628	0.0493965670
3124.6679443358	0.0492426977
3126.5967517089	0.0491212420
3128.5255590819	0.0490134656
3130.4543664550	0.0490485094
3132.3831738280	0.0487650372
3134.3119812011	0.0486041680
3136.2407885741	0.0485403016
3138.1695959471	0.0485220067
3140.0984033202	0.0483505800
3142.0272106932	0.0481685922
3143.9560180663	0.0481474400
3145.8848254393	0.0479333103
3147.8136328124	0.0479178652
3149.7424401854	0.0476731211
3151.6712475585	0.0473754704
3153.6000549315	0.0473299697
3155.5288623046	0.0472414568
3157.4576696776	0.0471349061
3159.3864770507	0.0469507165
3161.3152844237	0.0469096974
3163.2440917968	0.0467441976
3165.1728991698	0.0466045216
3167.1017065428	0.0465231910
3169.0305139159	0.0463771150
3170.9593212889	0.0463439673
3172.8881286620	0.0462091938
3174.8169360350	0.0460315794
3176.7457434081	0.0457799174
3178.6745507811	0.0456414521
3180.6033581542	0.0457221195
3182.5321655272	0.0456871763
3184.4609729003	0.0454108007
3186.3897802733	0.0452161133
3188.3185876464	0.0451639444
3190.2473950194	0.0450742953
3192.1762023925	0.0449708104
3194.1050097655	0.0447775126
3196.0338171386	0.0446836799
3197.9626245116	0.0445685908
3199.8914318846	0.0445069037
3201.8202392577	0.0444878377
3203.7490466307	0.0442622565
3205.6778540038	0.0441430360
3207.6066613768	0.0440892205
3209.5354687499	0.0439834744
3211.4642761229	0.0438309163
3213.3930834960	0.0437070653
3215.3218908690	0.0436366424
3217.2506982421	0.0435977653
3219.1795056151	0.0434780344
3221.1083129882	0.0434010550
3223.0371203612	0.0433643535
3224.9659277343	0.0431670509
3226.8947351073	0.0432108231
3228.8235424803	0.0431296974
3230.7523498534	0.0429404601
3232.6811572264	0.0428985097
3234.6099645995	0.0428422540
3236.5387719725	0.0428226814
3238.4675793456	0.0426698029
3240.3963867186	0.0426661968
3242.3251940917	0.0425727963
3244.2540014647	0.0424611717
3246.1828088378	0.0423993468
3248.1116162108	0.0422983207
3250.0404235839	0.0423660576
3251.9692309569	0.0421617180
3253.8980383300	0.0420299470
3255.8268457030	0.0420255065
3257.7556530760	0.0419559591
3259.6844604491	0.0419286415
3261.6132678221	0.0418912992
3263.5420751952	0.0418465100
3265.4708825682	0.0417520255
3267.3996899413	0.0417151377
3269.3284973143	0.0415979549
3271.2573046874	0.0415674523
3273.1861120604	0.0415555909
3275.1149194335	0.0414820835
3277.0437268065	0.0413312837
3278.9725341796	0.0412291624
3280.9013415526	0.0413307920
3282.8301489257	0.0412092395
3284.7589562987	0.0411642194
3286.6877636717	0.0410628915
3288.6165710448	0.0409241170
3290.5453784178	0.0409607142
3292.4741857909	0.0408182032
3294.4029931639	0.0407938622
3296.3318005370	0.0408391729
3298.2606079100	0.0406964943
3300.1894152831	0.0405758880
3302.1182226561	0.0405743308
3304.0470300292	0.0404180251
3305.9758374022	0.0403992608
3307.9046447753	0.0404313877
3309.8334521483	0.0402358584
3311.7622595214	0.0401602760
3313.6910668944	0.0401116461
3315.6198742675	0.0401582532
3317.5486816405	0.0400604531
3319.4774890135	0.0399458334
3321.4062963866	0.0398708545
3323.3351037596	0.0397435315
3325.2639111327	0.0398078561
3327.1927185057	0.0397053659
3329.1215258788	0.0396267995
3331.0503332518	0.0395559035
3332.9791406249	0.0395264626
3334.9079479979	0.0394188873
3336.8367553710	0.0391933471
3338.7655627440	0.0391924568
3340.6943701171	0.0390736163
3342.6231774901	0.0390476212
3344.5519848632	0.0390772484
3346.4807922362	0.0390580408
3348.4095996092	0.0389442965
3350.3384069823	0.0387839638
3352.2672143553	0.0388047770
3354.1960217284	0.0386876613
3356.1248291014	0.0385765061
3358.0536364745	0.0385288671
3359.9824438475	0.0384944305
3361.9112512206	0.0384340957
3363.8400585936	0.0382682905
3365.7688659667	0.0381297991
3367.6976733397	0.0381111167
3369.6264807128	0.0380644388
3371.5552880858	0.0379798338
3373.4840954589	0.0379637778
3375.4129028319	0.0378259569
3377.3417102049	0.0377994068
3379.2705175780	0.0377343297
3381.1993249510	0.0376243517
3383.1281323241	0.0375445858
3385.0569396971	0.0373503864
3386.9857470702	0.0373764858
3388.9145544432	0.0373801291
3390.8433618163	0.0371477529
3392.7721691893	0.0369947106
3394.7009765624	0.0371450782
3396.6297839354	0.0369846448
3398.5585913085	0.0367298611
3400.4873986815	0.0367740430
3402.4162060546	0.0366834514
3404.3450134276	0.0366932601
3406.2738208006	0.0365224183
3408.2026281737	0.0364594534
3410.1314355467	0.0365636051
3412.0602429198	0.0364739001
3413.9890502928	0.0363679640
3415.9178576659	0.0362730771
3417.8466650389	0.0362401754
3419.7754724120	0.0359701589
3421.7042797850	0.0358851403
3423.6330871581	0.0359348617
3425.5618945311	0.0358786210
3427.4907019042	0.0357932597
3429.4195092772	0.0357525311
3431.3483166503	0.0357006080
3433.2771240233	0.0355190374
3435.2059313963	0.0355775580
3437.1347387694	0.0352990665
3439.0635461424	0.0352514982
3440.9923535155	0.0352759138
3442.9211608885	0.0350616053
3444.8499682616	0.0351204798
3446.7787756346	0.0347378030
3448.7075830077	0.0348269008
3450.6363903807	0.0350897945
3452.5651977538	0.0349577889
3454.4940051268	0.0348618254
3456.4228124999	0.0347692408
3458.3516198729	0.0347255766
3460.2804272460	0.0345311761
3462.2092346190	0.0345996171
3464.1380419921	0.0345519707
3466.0668493651	0.0345019735
3467.9956567381	0.0343910605
3469.9244641112	0.0342925675
3471.8532714842	0.0345156193
3473.7820788573	0.0343176425
3475.7108862303	0.0342039019
3477.6396936034	0.0342891626
3479.5685009764	0.0341736041
3481.4973083495	0.0339101888
3483.4261157225	0.0340439379
3485.3549230956	0.0340932794
3487.2837304686	0.0338803232
3489.2125378417	0.0340234563
3491.1413452147	0.0339410156
3493.0701525878	0.0340430848
3494.9989599608	0.0339854434
3496.9277673338	0.0337581187
3498.8565747069	0.0338272452
3500.7853820799	0.0337322056
3502.7141894530	0.0332811773
3504.6429968260	0.0331831723
3506.5718041991	0.0337701440
3508.5006115721	0.0334977508
3510.4294189452	0.0334223509
3512.3582263182	0.0336899832
3514.2870336913	0.0336021073
3516.2158410643	0.0337098949
3518.1446484374	0.0334576853
3520.0734558104	0.0335234851
3522.0022631835	0.0332121365
3523.9310705565	0.0328498930
3525.8598779295	0.0330474377
3527.7886853026	0.0330142230
3529.7174926756	0.0331051126
3531.6463000487	0.0332827941
3533.5751074217	0.0334855877
3535.5039147948	0.0330858976
3537.4327221678	0.0329643637
3539.3615295409	0.0334011689
3541.2903369139	0.0332191251
3543.2191442870	0.0329955667
3545.1479516600	0.0325338691
3547.0767590331	0.0321551710
3549.0055664061	0.0329095721
3550.9343737792	0.0330607556
3552.8631811522	0.0324803442
3554.7919885252	0.0330442302
3556.7207958983	0.0331323557
3558.6496032713	0.0327829197
3560.5784106444	0.0326820463
3562.5072180174	0.0325866640
3564.4360253905	0.0327049047
3566.3648327635	0.0311262421
3568.2936401366	0.0305127949
3570.2224475096	0.0322916992
3572.1512548827	0.0328924060
3574.0800622557	0.0326513126
3576.0088696288	0.0326707400
3577.9376770018	0.0325105190
3579.8664843749	0.0325132012
3581.7952917479	0.0325383171
3583.7240991210	0.0325953215
3585.6529064940	0.0319961980
3587.5817138670	0.0300355405
3589.5105212401	0.0306348335
3591.4393286131	0.0326040387
3593.3681359862	0.0319511965
3595.2969433592	0.0315179229
3597.2257507323	0.0319485068
3599.1545581053	0.0321188197
3601.0833654784	0.0319417864
3603.0121728514	0.0321141109
3604.9409802245	0.0325084627
3606.8697875975	0.0316559225
3608.7985949706	0.0302261654
3610.7274023436	0.0307559371
3612.6562097167	0.0312278308
3614.5850170897	0.0305244513
3616.5138244627	0.0321391448
3618.4426318358	0.0302678756
3620.3714392088	0.0294772796
3622.3002465819	0.0322597660
3624.2290539549	0.0315951481
3626.1578613280	0.0326649323
3628.0866687010	0.0287379492
3630.0154760741	0.0267880112
3631.9442834471	0.0319560431
3633.8730908202	0.0312911533
3635.8018981932	0.0316564441
3637.7307055663	0.0322052985
3639.6595129393	0.0316928923
3641.5883203124	0.0319866091
3643.5171276854	0.0317070559
3645.4459350584	0.0319335610
3647.3747424315	0.0293883849
3649.3035498045	0.0274408907
3651.2323571776	0.0277879015
3653.1611645506	0.0316148736
3655.0899719237	0.0311444476
3657.0187792967	0.0286817774
3658.9475866698	0.0319583192
3660.8763940428	0.0313328430
3662.8052014159	0.0316371061
3664.7340087889	0.0314949900
3666.6628161620	0.0313246325
3668.5916235350	0.0306298640
3670.5204309081	0.0261167623
3672.4492382811	0.0302300397
3674.3780456541	0.0290784873
3676.3068530272	0.0252072848
3678.2356604002	0.0300872959
3680.1644677733	0.0306117311
3682.0932751463	0.0305292476
3684.0220825194	0.0312549546
3685.9508898924	0.0309145972
3687.8796972655	0.0283240248
3689.8085046385	0.0265420359
3691.7373120116	0.0295088552
3693.6661193846	0.0300729945
3695.5949267577	0.0305493828
3697.5237341307	0.0305148438
3699.4525415038	0.0302646793
3701.3813488768	0.0296962038
3703.3101562499	0.0288570262
3705.2389636229	0.0309389848
3707.1677709959	0.0296787657
3709.0965783690	0.0292770118
3711.0253857420	0.0278731696
3712.9541931151	0.0265020542
3714.8830004881	0.0299455337
3716.8118078612	0.0295248851
3718.7406152342	0.0297576636
3720.6694226073	0.0292181000
3722.5982299803	0.0284985304
3724.5270373534	0.0292139128
3726.4558447264	0.0275212824
3728.3846520995	0.0293811746
3730.3134594725	0.0289320536
3732.2422668456	0.0272121206
3734.1710742186	0.0267055221
3736.0998815916	0.0256491974
3738.0286889647	0.0268440172
3739.9574963377	0.0284227226
3741.8863037108	0.0294946097
3743.8151110838	0.0241054296
3745.7439184569	0.0231400728
3747.6727258299	0.0283489209
3749.6015332030	0.0250608753
3751.5303405760	0.0235786270
3753.4591479491	0.0261989497
3755.3879553221	0.0277640726
3757.3167626952	0.0285579972
3759.2455700682	0.0268699322
3761.1743774413	0.0276542399
3763.1031848143	0.0288526043
3765.0319921873	0.0274440087
3766.9607995604	0.0278373063
3768.8896069334	0.0275500398
3770.8184143065	0.0266850926
3772.7472216795	0.0281880051
3774.6760290526	0.0282061175
3776.6048364256	0.0281838682
3778.5336437987	0.0275987573
3780.4624511717	0.0268541388
3782.3912585448	0.0280544199
3784.3200659178	0.0276040696
3786.2488732909	0.0275174901
3788.1776806639	0.0278696809
3790.1064880370	0.0276986435
3792.0352954100	0.0274389684
3793.9641027830	0.0278163925
3795.8929101561	0.0265801530
3797.8217175291	0.0264064353
3799.7505249022	0.0273183472
3801.6793322752	0.0227621291
3803.6081396483	0.0258654784
3805.5369470213	0.0274149235
3807.4657543944	0.0234250911
3809.3945617674	0.0271861181
3811.3233691405	0.0266974140
3813.2521765135	0.0274056420
3815.1809838866	0.0252198279
3817.1097912596	0.0229142010
3819.0385986327	0.0273841396
3820.9674060057	0.0232790951
3822.8962133787	0.0242159776
3824.8250207518	0.0271806382
3826.7538281248	0.0251092464
3828.6826354979	0.0266228151
3830.6114428709	0.0258860197
3832.5402502440	0.0251121260
3834.4690576170	0.0254663564
3836.3978649901	0.0244266801
3838.3266723631	0.0226276349
3840.2554797362	0.0241848528
3842.1842871092	0.0255945660
3844.1130944823	0.0246452093
3846.0419018553	0.0261111334
3847.9707092284	0.0257411003
3849.8995166014	0.0258181244
3851.8283239745	0.0237297639
3853.7571313475	0.0189162977
3855.6859387205	0.0215363652
3857.6147460936	0.0258339904
3859.5435534666	0.0251836218
3861.4723608397	0.0249633826
3863.4011682127	0.0244526621
3865.3299755858	0.0231678449
3867.2587829588	0.0252659805
3869.1875903319	0.0234412514
3871.1163977049	0.0220902190
3873.0452050780	0.0251423176
3874.9740124510	0.0236272775
3876.9028198241	0.0249223188
3878.8316271971	0.0252388790
3880.7604345702	0.0225391872
3882.6892419432	0.0250444822
3884.6180493162	0.0237066858
3886.5468566893	0.0222085640
3888.4756640623	0.0250879377
3890.4044714354	0.0239147358
3892.3332788084	0.0227486566
3894.2620861815	0.0244018752
3896.1908935545	0.0247448273
3898.1197009276	0.0238124132
3900.0485083006	0.0227579288
3901.9773156737	0.0225805379
3903.9061230467	0.0223303549
3905.8349304198	0.0227110051
3907.7637377928	0.0243301541
3909.6925451659	0.0242800601
3911.6213525389	0.0241109952
3913.5501599119	0.0243846960
3915.4789672850	0.0237386338
3917.4077746580	0.0231815353
3919.3365820311	0.0231363196
3921.2653894041	0.0236218050
3923.1941967772	0.0234812796
3925.1230041502	0.0232591312
3927.0518115233	0.0234513413
3928.9806188963	0.0235773958
3930.9094262694	0.0232438687
3932.8382336424	0.0226795264
3934.7670410155	0.0233270489
3936.6958483885	0.0234785713
3938.6246557616	0.0232688226
3940.5534631346	0.0234155487
3942.4822705076	0.0227408484
3944.4110778807	0.0228762478
3946.3398852537	0.0231568106
3948.2686926268	0.0226114653
3950.1974999998	0.0226658545
3952.1263073729	0.0228867512
3954.0551147459	0.0229680538
3955.9839221190	0.0229379181
3957.9127294920	0.0227415971
3959.8415368651	0.0228157714
3961.7703442381	0.0226222891
3963.6991516112	0.0225723274
3965.6279589842	0.0228367373
3967.5567663573	0.0226568840
3969.4855737303	0.0225270428
3971.4143811034	0.0224934109
3973.3431884764	0.0224618893
3975.2719958494	0.0223367736
3977.2008032225	0.0222712941
3979.1296105955	0.0223686825
3981.0584179686	0.0222170018
3982.9872253416	0.0221934505
3984.9160327147	0.0221413653
3986.8448400877	0.0220641233
3988.7736474608	0.0220142305
3990.7024548338	0.0219100229
3992.6312622069	0.0219865795
3994.5600695799	0.0218661390
3996.4888769530	0.0217880681
3998.4176843260	0.0218511187
4000.3464916991	0.0218080357
4002.2752990721	0.0217584968
4004.2041064451	0.0216551553
4006.1329138182	0.0216466188
4008.0617211912	0.0215671249
4009.9905285643	0.0214196108
4011.9193359373	0.0215669721
4013.8481433104	0.0214912072
4015.7769506834	0.0212628543
4017.7057580565	0.0213891044
4019.6345654295	0.0213305727
4021.5633728026	0.0211773477
4023.4921801756	0.0211675465
4025.4209875487	0.0211123154
4027.3497949217	0.0210520476
4029.2786022948	0.0210448559
4031.2074096678	0.0210096575
4033.1362170408	0.0208487660
4035.0650244139	0.0209356882
4036.9938317869	0.0209902823
4038.9226391600	0.0208286401
4040.8514465330	0.0207615364
4042.7802539061	0.0206339024
4044.7090612791	0.0205600094
4046.6378686522	0.0206102319
4048.5666760252	0.0206271000
4050.4954833983	0.0205203034
4052.4242907713	0.0204548612
4054.3530981444	0.0204350948
4056.2819055174	0.0203629248
4058.2107128905	0.0202983525
4060.1395202635	0.0202289633
4062.0683276365	0.0201991946
4063.9971350096	0.0201683976
4065.9259423826	0.0201314539
4067.8547497557	0.0201022457
4069.7835571287	0.0201196950
4071.7123645018	0.0200227089
4073.6411718748	0.0199952405
4075.5699792479	0.0200119466
4077.4987866209	0.0198606681
4079.4275939940	0.0198979191
4081.3564013670	0.0198355243
4083.2852087401	0.0197131280
4085.2140161131	0.0196849909
4087.1428234862	0.0196984392
4089.0716308592	0.0196647197
4091.0004382323	0.0194950663
4092.9292456053	0.0195242390
4094.8580529783	0.0195105597
4096.7868603514	0.0194865949
4098.7156677244	0.0193607900
4100.6444750975	0.0192354731
4102.5732824705	0.0193503220
4104.5020898436	0.0192952491
4106.4308972166	0.0191415157
4108.3597045897	0.0190689228
4110.2885119627	0.0190913249
4112.2173193358	0.0189895704
4114.1461267088	0.0189667940
4116.0749340819	0.0189828128
4118.0037414549	0.0189695507
4119.9325488280	0.0189893618
4121.8613562010	0.0188303031
4123.7901635740	0.0188575368
4125.7189709471	0.0187919661
4127.6477783201	0.0186684616
4129.5765856932	0.0186148994
4131.5053930662	0.0185412019
4133.4342004393	0.0185799599
4135.3630078123	0.0185394771
4137.2918151854	0.0184767470
4139.2206225584	0.0184373669
4141.1494299315	0.0184759423
4143.0782373045	0.0183077361
4145.0070446776	0.0182416737
4146.9358520506	0.0182270557
4148.8646594237	0.0181672703
4150.7934667967	0.0182217248
4152.7222741697	0.0180009175
4154.6510815428	0.0180455185
4156.5798889158	0.0179798249
4158.5086962889	0.0179344825
4160.4375036619	0.0179780144
4162.3663110350	0.0178311355
4164.2951184080	0.0179386623
4166.2239257811	0.0177854709
4168.1527331541	0.0177512038
4170.0815405272	0.0176880173
4172.0103479002	0.0176235810
4173.9391552733	0.0177083537
4175.8679626463	0.0175389536
4177.7967700194	0.0174953565
4179.7255773924	0.0174354706
4181.6543847654	0.0174175687
4183.5831921385	0.0174008105
4185.5119995115	0.0174171869
4187.4408068846	0.0173187815
4189.3696142576	0.0173209123
4191.2984216307	0.0173307918
4193.2272290037	0.0171422698
4195.1560363768	0.0172516182
4197.0848437498	0.0170414280
4199.0136511229	0.0170599911
4200.9424584959	0.0171017200
4202.8712658690	0.0169213936
4204.8000732420	0.0170884747
4206.7288806151	0.0169363543
4208.6576879881	0.0168158449
4210.5864953611	0.0167324450
4212.5153027342	0.0167246163
4214.4441101072	0.0167808253
4216.3729174803	0.0166966598
4218.3017248533	0.0166472904
4220.2305322264	0.0166206155
4222.1593395994	0.0166486613
4224.0881469725	0.0165042877
4226.0169543455	0.0164990146
4227.9457617186	0.0165136531
4229.8745690916	0.0164591055
4231.8033764647	0.0163956583
4233.7321838377	0.0164082721
4235.6609912108	0.0163800716
4237.5897985838	0.0161976535
4239.5186059569	0.0162574239
4241.4474133299	0.0161358938
4243.3762207029	0.0162191242
4245.3050280760	0.0162653197
4247.2338354490	0.0160853136
4249.1626428221	0.0161137879
4251.0914501951	0.0160047933
4253.0202575682	0.0159841403
4254.9490649412	0.0158659592
4256.8778723143	0.0158637315
4258.8066796873	0.0158543643
4260.7354870604	0.0157935806
4262.6642944334	0.0158046968
4264.5931018065	0.0157095790
4266.5219091795	0.0157619938
4268.4507165526	0.0156717990
4270.3795239256	0.0156444572
4272.3083312986	0.0155341132
4274.2371386717	0.0155486986
4276.1659460447	0.0155087058
4278.0947534178	0.0153255723
4280.0235607908	0.0154976621
4281.9523681639	0.0153253600
4283.8811755369	0.0153411720
4285.8099829100	0.0153757362
4287.7387902830	0.0152479820
4289.6675976561	0.0153366104
4291.5964050291	0.0152319120
4293.5252124022	0.0151657360
4295.4540197752	0.0151074603
4297.3828271483	0.0151124056
4299.3116345213	0.0150501486
4301.2404418943	0.0150309689
4303.1692492674	0.0150172561
4305.0980566404	0.0149461105
4307.0268640135	0.0149674285
4308.9556713865	0.0148651339
4310.8844787596	0.0148805305
4312.8132861326	0.0148105379
4314.7420935057	0.0147900358
4316.6709008787	0.0147319399
4318.5997082518	0.0146136303
4320.5285156248	0.0147382319
4322.4573229979	0.0146756824
4324.3861303709	0.0145836789
4326.3149377440	0.0145754963
4328.2437451170	0.0145069771
4330.1725524900	0.0144301020
4332.1013598631	0.0144736934
4334.0301672361	0.0144134853
4335.9589746092	0.0143252257
4337.8877819822	0.0143725798
4339.8165893553	0.0143485032
4341.7453967283	0.0143517554
4343.6742041014	0.0142132118
4345.6030114744	0.0142040625
4347.5318188475	0.0142234070
4349.4606262205	0.0141326077
4351.3894335936	0.0141363554
4353.3182409666	0.0140702920
4355.2470483397	0.0139806736
4357.1758557127	0.0139054339
4359.1046630858	0.0140196821
4361.0334704588	0.0139431730
4362.9622778318	0.0138892569
4364.8910852049	0.0138788484
4366.8198925779	0.0137152364
4368.7486999510	0.0139032351
4370.6775073240	0.0138530321
4372.6063146971	0.0137159508
4374.5351220701	0.0137197804
4376.4639294432	0.0136273671
4378.3927368162	0.0136016253
4380.3215441893	0.0135985976
4382.2503515623	0.0135963969
4384.1791589354	0.0135215363
4386.1079663084	0.0134912254
4388.0367736815	0.0133489203
4389.9655810545	0.0133762602
4391.8943884275	0.0134744607
4393.8231958006	0.0133426124
4395.7520031736	0.0133592775
4397.6808105467	0.0132974070
4399.6096179197	0.0132031590
4401.5384252928	0.0131843332
4403.4672326658	0.0131932572
4405.3960400389	0.0131458975
4407.3248474119	0.0130813643
4409.2536547850	0.0131349936
4411.1824621580	0.0130983926
4413.1112695311	0.0130596729
4415.0400769041	0.0129706562
4416.9688842772	0.0128876530
4418.8976916502	0.0129357427
4420.8264990232	0.0129123656
4422.7553063963	0.0127928369
4424.6841137693	0.0127892718
4426.6129211424	0.0127987005
4428.5417285154	0.0127187055
4430.4705358885	0.0126893716
4432.3993432615	0.0126212183
4434.3281506346	0.0126858102
4436.2569580076	0.0126835350
4438.1857653807	0.0125570837
4440.1145727537	0.0125453603
4442.0433801268	0.0125147710
4443.9721874998	0.0125231501
4445.9009948729	0.0124771921
4447.8298022459	0.0124494694
4449.7586096189	0.0123857008
4451.6874169920	0.0123922760
4453.6162243650	0.0124269277
4455.5450317381	0.0122855883
4457.4738391111	0.0123192342
4459.4026464842	0.0122389663
4461.3314538572	0.0121298358
4463.2602612303	0.0121255359
4465.1890686033	0.0120884283
4467.1178759764	0.0121380249
4469.0466833494	0.0120635852
4470.9754907225	0.0120618520
4472.9042980955	0.0120019838
4474.8331054686	0.0119730718
4476.7619128416	0.0120876543
4478.6907202147	0.0118503086
4480.6195275877	0.0117489807
4482.5483349607	0.0118807489
4484.4771423338	0.0118326619
4486.4059497068	0.0117986687
4488.3347570799	0.0117972046
4490.2635644529	0.0117629319
4492.1923718260	0.0117198909
4494.1211791990	0.0117094936
4496.0499865721	0.0116731618
4497.9787939451	0.0116303889
4499.9076013182	0.0115701733
4501.8364086912	0.0115317181
4503.7652160643	0.0116050420
4505.6940234373	0.0115062259
4507.6228308104	0.0114799011
4509.5516381834	0.0114969471
4511.4804455564	0.0113949478
4513.4092529295	0.0114454804
4515.3380603025	0.0113562047
4517.2668676756	0.0113504473
4519.1956750486	0.0113527495
4521.1244824217	0.0112202410
4523.0532897947	0.0112660881
4524.9820971678	0.0112216696
4526.9109045408	0.0111784693
4528.8397119139	0.0111493059
4530.7685192869	0.0111638401
4532.6973266600	0.0111572444
4534.6261340330	0.0110630719
4536.5549414061	0.0110859964
4538.4837487791	0.0110104000
4540.4125561521	0.0109756915
4542.3413635252	0.0109609850
4544.2701708982	0.0108909393
4546.1989782713	0.0108679105
4548.1277856443	0.0108347572
4550.0565930174	0.0108283982
4551.9854003904	0.0107449591
4553.9142077635	0.0107150376
4555.8430151365	0.0107870158
4557.7718225096	0.0107295560
4559.7006298826	0.0106342304
4561.6294372557	0.0107038114
4563.5582446287	0.0106559079
4565.4870520018	0.0105383936
4567.4158593748	0.0105714556
4569.3446667478	0.0105455667
4571.2734741209	0.0105015980
4573.2022814939	0.0103909895
4575.1310888670	0.0103500448
4577.0598962400	0.0103656985
4578.9887036131	0.0104006361
4580.9175109861	0.0104707377
4582.8463183592	0.0103110969
4584.7751257322	0.0102728866
4586.7039331053	0.0102713741
4588.6327404783	0.0102400277
4590.5615478514	0.0103286412
4592.4903552244	0.0102397725
4594.4191625975	0.0101729892
4596.3479699705	0.0101938341
4598.2767773435	0.0101827523
4600.2055847166	0.0101535078
4602.1343920896	0.0100969952
4604.0631994627	0.0100995135
4605.9920068357	0.0100875646
4607.9208142088	0.0099770231
4609.8496215818	0.0099461209
4611.7784289549	0.0100004748
4613.7072363279	0.0099836085
4615.6360437010	0.0099201892
4617.5648510740	0.0098446719
4619.4936584471	0.0098247137
4621.4224658201	0.0098050348
4623.3512731932	0.0098070223
4625.2800805662	0.0097991275
4627.2088879393	0.0097531192
4629.1376953123	0.0097695542
4631.0665026853	0.0096743125
4632.9953100584	0.0096114473
4634.9241174314	0.0096422751
4636.8529248045	0.0096017104
4638.7817321775	0.0096270172
4640.7105395506	0.0096307136
4642.6393469236	0.0095097460
4644.5681542967	0.0095053203
4646.4969616697	0.0094838664
4648.4257690428	0.0093721375
4650.3545764158	0.0094394721
4652.2833837889	0.0093841013
4654.2121911619	0.0092905350
4656.1409985350	0.0093501881
4658.0698059080	0.0093680732
4659.9986132810	0.0093638822
4661.9274206541	0.0092756152
4663.8562280271	0.0091857277
4665.7850354002	0.0091605606
4667.7138427732	0.0092474595
4669.6426501463	0.0092161652
4671.5714575193	0.0091166478
4673.5002648924	0.0091363806
4675.4290722654	0.0090951007
4677.3578796385	0.0091228802
4679.2866870115	0.0090575982
4681.2154943846	0.0090055885
4683.1443017576	0.0090126758
4685.0731091307	0.0089805387
4687.0019165037	0.0089643989
4688.9307238767	0.0088714436
4690.8595312498	0.0089189950
4692.7883386228	0.0088782273
4694.7171459959	0.0088497121
4696.6459533689	0.0089170728
4698.5747607420	0.0087918490
4700.5035681150	0.0087281568
4702.4323754881	0.0087973494
4704.3611828611	0.0087910527
4706.2899902342	0.0086887889
4708.2187976072	0.0087296925
4710.1476049803	0.0087115001
4712.0764123533	0.0086086700
4714.0052197264	0.0086141117
4715.9340270994	0.0086141564
4717.8628344724	0.0085947746
4719.7916418455	0.0085327812
4721.7204492185	0.0085670520
4723.6492565916	0.0085612740
4725.5780639646	0.0084789656
4727.5068713377	0.0084609594
4729.4356787107	0.0084650852
4731.3644860838	0.0084695239
4733.2932934568	0.0084529016
4735.2221008299	0.0084579047
4737.1509082029	0.0084240865
4739.0797155760	0.0084024370
4741.0085229490	0.0083530694
4742.9373303221	0.0082919877
4744.8661376951	0.0082852654
4746.7949450682	0.0082956366
4748.7237524412	0.0082398001
4750.6525598142	0.0081955763
4752.5813671873	0.0082863886
4754.5101745603	0.0082362434
4756.4389819334	0.0081873750
4758.3677893064	0.0081535019
4760.2965966795	0.0080932137
4762.2254040525	0.0080737285
4764.1542114256	0.0080411108
4766.0830187986	0.0080894390
4768.0118261717	0.0080162156
4769.9406335447	0.0079648867
4771.8694409178	0.0079452936
4773.7982482908	0.0079340655
4775.7270556639	0.0079639023
4777.6558630369	0.0079740211
4779.5846704099	0.0079874787
4781.5134777830	0.0079222852
4783.4422851560	0.0078795850
4785.3710925291	0.0077633522
4787.2998999021	0.0077767554
4789.2287072752	0.0077672210
4791.1575146482	0.0078045591
4793.0863220213	0.0078865252
4795.0151293943	0.0076832995
4796.9439367674	0.0077123372
4798.8727441404	0.0077184206
4800.8015515135	0.0076526646
4802.7303588865	0.0075410800
4804.6591662596	0.0075547984
4806.5879736326	0.0076963268
4808.5167810056	0.0075441943
4810.4455883787	0.0076022912
4812.3743957517	0.0076004243
4814.3032031248	0.0075291554
4816.2320104978	0.0074418550
4818.1608178709	0.0074699158
4820.0896252439	0.0075584771
4822.0184326170	0.0073874984
4823.9472399900	0.0074752308
4825.8760473631	0.0074292179
4827.8048547361	0.0073834453
4829.7336621092	0.0073012817
4831.6624694822	0.0072669042
4833.5912768553	0.0074313516
4835.5200842283	0.0072945240
4837.4488916013	0.0072633149
4839.3776989744	0.0071838070
4841.3065063474	0.0072769523
4843.2353137205	0.0073100496
4845.1641210935	0.0071180048
4847.0929284666	0.0071479566
4849.0217358396	0.0071780235
4850.9505432127	0.0072003771
4852.8793505857	0.0070845280
4854.8081579588	0.0071690409
4856.7369653318	0.0071471203
4858.6657727049	0.0070680957
4860.5945800779	0.0071021616
4862.5233874510	0.0069453372
4864.4521948240	0.0070423707
4866.3810021971	0.0070392666
4868.3098095701	0.0069547901
4870.2386169431	0.0069158347
4872.1674243162	0.0069055296
4874.0962316892	0.0069152974
4876.0250390623	0.0069083949
4877.9538464353	0.0069106598
4879.8826538084	0.0067834430
4881.8114611814	0.0069035320
4883.7402685545	0.0068063936
4885.6690759275	0.0067427647
4887.5978833006	0.0068323687
4889.5266906736	0.0066532996
4891.4554980467	0.0067644143
4893.3843054197	0.0067487229
4895.3131127928	0.0066054091
4897.2419201658	0.0066502229
4899.1707275388	0.0066965451
4901.0995349119	0.0066964990
4903.0283422849	0.0066027641
4904.9571496580	0.0065539507
4906.8859570310	0.0065957676
4908.8147644041	0.0066106962
4910.7435717771	0.0065699285
4912.6723791502	0.0065993587
4914.6011865232	0.0065406454
4916.5299938963	0.0065594530
4918.4588012693	0.0065237121
4920.3876086424	0.0064106677
4922.3164160154	0.0065218573
4924.2452233885	0.0064172870
4926.1740307615	0.0063696452
4928.1028381345	0.0064209448
4930.0316455076	0.0063691116
4931.9604528806	0.0063947327
4933.8892602537	0.0063326815
4935.8180676267	0.0062972205
4937.7468749998	0.0062926169
4939.6756823728	0.0062757777
4941.6044897459	0.0063055856
4943.5332971189	0.0062978854
4945.4621044920	0.0062371697
4947.3909118650	0.0062180376
4949.3197192381	0.0062045367
4951.2485266111	0.0062316633
4953.1773339842	0.0062451186
4955.1061413572	0.0061375424
4957.0349487302	0.0061096153
4958.9637561033	0.0060779629
4960.8925634763	0.0060760644
4962.8213708494	0.0060839886
4964.7501782224	0.0060219103
4966.6789855955	0.0060398402
4968.6077929685	0.0060854210
4970.5366003416	0.0060365824
4972.4654077146	0.0059395535
4974.3942150877	0.0060011111
4976.3230224607	0.0060107512
4978.2518298338	0.0059468420
4980.1806372068	0.0059070792
4982.1094445799	0.0059401356
4984.0382519529	0.0060067885
4985.9670593259	0.0058929506
4987.8958666990	0.0058860034
4989.8246740720	0.0058614975
4991.7534814451	0.0058206250
4993.6822888181	0.0058314633
4995.6110961912	0.0058038412
4997.5399035642	0.0058027417
4999.4687109373	0.0057410337
5001.3975183103	0.0057936264
5003.3263256834	0.0057062786
5005.2551330564	0.0056813899
5007.1839404295	0.0057529835
5009.1127478025	0.0056350240
5011.0415551756	0.0056721591
5012.9703625486	0.0056510782
5014.8991699217	0.0056788009
5016.8279772947	0.0056862459
5018.7567846677	0.0055352617
5020.6855920408	0.0055890884
5022.6143994138	0.0055933520
5024.5432067869	0.0055211829
5026.4720141599	0.0055472460
5028.4008215330	0.0055419421
5030.3296289060	0.0054953475
5032.2584362791	0.0054745236
5034.1872436521	0.0054849992
5036.1160510252	0.0055103926
5038.0448583982	0.0054615680
5039.9736657713	0.0054171048
5041.9024731443	0.0054690754
5043.8312805174	0.0054368572
5045.7600878904	0.0053672856
5047.6888952634	0.0053712563
5049.6177026365	0.0053726025
5051.5465100095	0.0053206533
5053.4753173826	0.0052577667
5055.4041247556	0.0053084791
5057.3329321287	0.0053844033
5059.2617395017	0.0052584121
5061.1905468748	0.0052108997
5063.1193542478	0.0052780081
5065.0481616209	0.0052115582
5066.9769689939	0.0052420544
5068.9057763670	0.0052405139
5070.8345837400	0.0052137719
5072.7633911131	0.0051633911
5074.6921984861	0.0051090568
5076.6210058591	0.0052165501
5078.5498132322	0.0051438613
5080.4786206052	0.0051326510
5082.4074279783	0.0051687742
5084.3362353513	0.0051383926
5086.2650427244	0.0051268050
5088.1938500974	0.0049884170
5090.1226574705	0.0050357813
5092.0514648435	0.0050490750
5093.9802722166	0.0049772039
5095.9090795896	0.0049800826
5097.8378869627	0.0049046571
5099.7666943357	0.0049664397
5101.6955017088	0.0050290152
5103.6243090818	0.0049357908
5105.5531164548	0.0049941652
5107.4819238279	0.0050070016
5109.4107312009	0.0048339353
5111.3395385740	0.0048583946
5113.2683459470	0.0048183659
5115.1971533201	0.0047955932
5117.1259606931	0.0048137954
5119.0547680662	0.0047378819
5120.9835754392	0.0049139690
5122.9123828123	0.0048286198
5124.8411901853	0.0047829989
5126.7699975584	0.0048269997
5128.6988049314	0.0046159495
5130.6276123045	0.0047263671
5132.5564196775	0.0047219861
5134.4852270506	0.0046757469
5136.4140344236	0.0047196355
5138.3428417966	0.0046631396
5140.2716491697	0.0047250977
5142.2004565427	0.0046684183
5144.1292639158	0.0046831174
5146.0580712888	0.0046528140
5147.9868786619	0.0046072737
5149.9156860349	0.0046290066
5151.8444934080	0.0045652427
5153.7733007810	0.0047323583
5155.7021081541	0.0046410928
5157.6309155271	0.0045233266
5159.5597229002	0.0046079867
5161.4885302732	0.0044314838
5163.4173376463	0.0044972701
5165.3461450193	0.0045228601
5167.2749523923	0.0044510383
5169.2037597654	0.0045395847
5171.1325671384	0.0044605713
5173.0613745115	0.0044865264
5174.9901818845	0.0044748038
5176.9189892576	0.0043804995
5178.8477966306	0.0044177221
5180.7766040037	0.0044864444
5182.7054113767	0.0044677090
5184.6342187498	0.0043895002
5186.5630261228	0.0044358904
5188.4918334959	0.0043412596
5190.4206408689	0.0042837528
5192.3494482420	0.0043743774
5194.2782556150	0.0043195528
5196.2070629880	0.0042794859
5198.1358703611	0.0042753774
5200.0646777341	0.0042934557
5201.9934851072	0.0043409895
5203.9222924802	0.0043343515
5205.8510998533	0.0041962657
5207.7799072263	0.0041547501
5209.7087145994	0.0042372663
5211.6375219724	0.0041851820
5213.5663293455	0.0041828565
5215.4951367185	0.0041933674
5217.4239440916	0.0041067642
5219.3527514646	0.0040753642
5221.2815588377	0.0041492684
5223.2103662107	0.0041536074
5225.1391735837	0.0041080965
5227.0679809568	0.0041145543
5228.9967883298	0.0040985299
5230.9255957029	0.0041227331
5232.8544030759	0.0040575769
5234.7832104490	0.0040306421
5236.7120178220	0.0040399376
5238.6408251951	0.0039694067
5240.5696325681	0.0040443162
5242.4984399412	0.0039876006
5244.4272473142	0.0039109513
5246.3560546873	0.0040025851
5248.2848620603	0.0039010600
5250.2136694334	0.0039324155
5252.1424768064	0.0040954291
5254.0712841795	0.0039093513
5256.0000915525	0.0038607847
5257.9288989255	0.0039350474
5259.8577062986	0.0038541697
5261.7865136716	0.0039412491
5263.7153210447	0.0039016160
5265.6441284177	0.0038037801
5267.5729357908	0.0038757273
5269.5017431638	0.0038895044
5271.4305505369	0.0038706022
5273.3593579099	0.0038811839
5275.2881652830	0.0038797790
5277.2169726560	0.0038199089
5279.1457800291	0.0038144547
5281.0745874021	0.0038325891
5283.0033947752	0.0038115690
5284.9322021482	0.0037634042
5286.8610095212	0.0037815291
5288.7898168943	0.0038064530
5290.7186242673	0.0037391307
5292.6474316404	0.0037314107
5294.5762390134	0.0037091300
5296.5050463865	0.0037277367
5298.4338537595	0.0037158853
5300.3626611326	0.0036791186
5302.2914685056	0.0036563948
5304.2202758787	0.0036381129
5306.1490832517	0.0036770953
5308.0778906248	0.0036021566
5310.0066979978	0.0036369474
5311.9355053709	0.0036731602
5313.8643127439	0.0037144865
5315.7931201169	0.0036970109
5317.7219274900	0.0035857330
5319.6507348630	0.0036443924
5321.5795422361	0.0036086719
5323.5083496091	0.0036367164
5325.4371569822	0.0035333387
5327.3659643552	0.0034727112
5329.2947717283	0.0035179737
5331.2235791013	0.0034482731
5333.1523864744	0.0035475972
5335.0811938474	0.0034595151
5337.0100012205	0.0034537322
5338.9388085935	0.0034163678
5340.8676159666	0.0034588906
5342.7964233396	0.0035647312
5344.7252307126	0.0033212625
5346.6540380857	0.0033932733
5348.5828454587	0.0033617043
5350.5116528318	0.0033404240
5352.4404602048	0.0033934778
5354.3692675779	0.0032414403
5356.2980749509	0.0033650217
5358.2268823240	0.0033665635
5360.1556896970	0.0033394904
5362.0844970701	0.0033645360
5364.0133044431	0.0033111125
5365.9421118162	0.0033199147
5367.8709191892	0.0032999008
5369.7997265623	0.0033044321
5371.7285339353	0.0033227839
5373.6573413083	0.0033597520
5375.5861486814	0.0033337795
5377.5149560544	0.0033223387
5379.4437634275	0.0033599483
5381.3725708005	0.0032837195
5383.3013781736	0.0032506215
5385.2301855466	0.0032814951
5387.1589929197	0.0031756181
5389.0878002927	0.0031635719
5391.0166076658	0.0032375718
5392.9454150388	0.0031549316
5394.8742224119	0.0031518443
5396.8030297849	0.0031536790
5398.7318371580	0.0031018625
5400.6606445310	0.0031426039
5402.5894519041	0.0031902897
5404.5182592771	0.0031576089
5406.4470666501	0.0031492973
5408.3758740232	0.0031481874
5410.3046813962	0.0030606303
5412.2334887693	0.0030771792
5414.1622961423	0.0030381312
5416.0911035154	0.0030380222
5418.0199108884	0.0031146412
5419.9487182615	0.0030784097
5421.8775256345	0.0030641463
5423.8063330076	0.0030525574
5425.7351403806	0.0031361897
5427.6639477537	0.0030586077
5429.5927551267	0.0029162392
5431.5215624998	0.0030229953
5433.4503698728	0.0030762346
5435.3791772458	0.0029575047
5437.3079846189	0.0029743726
5439.2367919919	0.0030730572
5441.1655993650	0.0028745811
5443.0944067380	0.0028900583
5445.0232141111	0.0029740683
5446.9520214841	0.0028797318
5448.8808288572	0.0029730387
5450.8096362302	0.0029430659
5452.7384436033	0.0029161316
5454.6672509763	0.0029397705
5456.5960583494	0.0029555419
5458.5248657224	0.0029362496
5460.4536730955	0.0028143108
5462.3824804685	0.0028226902
5464.3112878415	0.0028578313
5466.2400952146	0.0028787912
5468.1689025876	0.0029344966
5470.0977099607	0.0029155293
5472.0265173337	0.0028239067
5473.9553247068	0.0028069173
5475.8841320798	0.0027355412
5477.8129394529	0.0027895726
5479.7417468259	0.0029309811
5481.6705541990	0.0027888678
5483.5993615720	0.0027821213
5485.5281689451	0.0028583079
5487.4569763181	0.0027871435
5489.3857836912	0.0027188119
5491.3145910642	0.0027576329
5493.2433984372	0.0027628564
5495.1722058103	0.0026848787
5497.1010131833	0.0027079568
5499.0298205564	0.0027050679
5500.9586279294	0.0027894829
5502.8874353025	0.0027981848
5504.8162426755	0.0027228678
5506.7450500486	0.0026912456
5508.6738574216	0.0026224642
5510.6026647947	0.0026195592
5512.5314721677	0.0026182667
5514.4602795408	0.0026361374
5516.3890869138	0.0025645737
5518.3178942869	0.0026517543
5520.2467016599	0.0026990864
5522.1755090330	0.0026073172
5524.1043164060	0.0026529131
5526.0331237790	0.0025871531
5527.9619311521	0.0026520509
5529.8907385251	0.0026034513
5531.8195458982	0.0025551645
5533.7483532712	0.0026355097
5535.6771606443	0.0025242800
5537.6059680173	0.0025155025
5539.5347753904	0.0025611981
5541.4635827634	0.0026206640
5543.3923901365	0.0025489703
5545.3211975095	0.0024883526
5547.2500048826	0.0025845715
5549.1788122556	0.0026300701
5551.1076196287	0.0025226800
5553.0364270017	0.0024260718
5554.9652343747	0.0025370051
5556.8940417478	0.0025262597
5558.8228491208	0.0025274232
5560.7516564939	0.0024617310
5562.6804638669	0.0024456552
5564.6092712400	0.0025129584
5566.5380786130	0.0023917109
5568.4668859861	0.0024811451
5570.3956933591	0.0024238927
5572.3245007322	0.0023544030
5574.2533081052	0.0024381606
5576.1821154783	0.0023935335
5578.1109228513	0.0024716882
5580.0397302244	0.0024755215
5581.9685375974	0.0023740479
5583.8973449704	0.0023684334
5585.8261523435	0.0024402947
5587.7549597165	0.0023899172
5589.6837670896	0.0023380218
5591.6125744626	0.0023608496
5593.5413818357	0.0023333814
5595.4701892087	0.0023868522
5597.3989965818	0.0023814752
5599.3278039548	0.0023648306
5601.2566113279	0.0023901705
5603.1854187009	0.0023442858
5605.1142260740	0.0023256051
5607.0430334470	0.0023548948
5608.9718408201	0.0023355295
5610.9006481931	0.0023274049
5612.8294555661	0.0023129648
5614.7582629392	0.0022834539
5616.6870703122	0.0022802139
5618.6158776853	0.0022417381
5620.5446850583	0.0023669656
5622.4734924314	0.0023037510
5624.4022998044	0.0021967967
5626.3311071775	0.0022837881
5628.2599145505	0.0021644128
5630.1887219236	0.0022653195
5632.1175292966	0.0022836647
5634.0463366697	0.0021636277
5635.9751440427	0.0022193696
5637.9039514158	0.0021639583
5639.8327587888	0.0021747216
5641.7615661619	0.0021841882
5643.6903735349	0.0022242717
5645.6191809079	0.0022043353
5647.5479882810	0.0021910954
5649.4767956540	0.0022236216
5651.4056030271	0.0021050486
5653.3344104001	0.0021637545
5655.2632177732	0.0021570516
5657.1920251462	0.0020722742
5659.1208325193	0.0021426952
5661.0496398923	0.0021692785
5662.9784472654	0.0021452303
5664.9072546384	0.0021074889
5666.8360620115	0.0020701927
5668.7648693845	0.0020227730
5670.6936767576	0.0020849900
5672.6224841306	0.0021018684
5674.5512915036	0.0020141937
5676.4800988767	0.0020465422
5678.4089062497	0.0020819013
5680.3377136228	0.0021166857
5682.2665209958	0.0020861172
5684.1953283689	0.0020304220
5686.1241357419	0.0020591845
5688.0529431150	0.0019799350
5689.9817504880	0.0019839483
5691.9105578611	0.0020190128
5693.8393652341	0.0019473999
5695.7681726072	0.0019902601
5697.6969799802	0.0019876079
5699.6257873533	0.0019732141
5701.5545947263	0.0019736486
5703.4834020993	0.0019948692
5705.4122094724	0.0020422477
5707.3410168454	0.0019461485
5709.2698242185	0.0019530568
5711.1986315915	0.0019203094
5713.1274389646	0.0018861222
5715.0562463376	0.0019955351
5716.9850537107	0.0019935700
5718.9138610837	0.0019797608
5720.8426684568	0.0018993632
5722.7714758298	0.0018837297
5724.7002832029	0.0019202582
5726.6290905759	0.0019038976
5728.5578979490	0.0019401638
5730.4867053220	0.0018946981
5732.4155126950	0.0018923583
5734.3443200681	0.0018822423
5736.2731274411	0.0018725721
5738.2019348142	0.0018600255
5740.1307421872	0.0017699905
5742.0595495603	0.0018309602
5743.9883569333	0.0018672607
5745.9171643064	0.0018376873
5747.8459716794	0.0018508434
5749.7747790525	0.0018453069
5751.7035864255	0.0018173363
5753.6323937986	0.0017559135
5755.5612011716	0.0017596046
5757.4900085447	0.0017940963
5759.4188159177	0.0018170687
5761.3476232907	0.0018486008
5763.2764306638	0.0018399021
5765.2052380368	0.0017763817
5767.1340454099	0.0017533858
5769.0628527829	0.0017645491
5770.9916601560	0.0017387833
5772.9204675290	0.0018368257
5774.8492749021	0.0018662700
5776.7780822751	0.0017520852
5778.7068896482	0.0017184804
5780.6356970212	0.0016805395
5782.5645043943	0.0017264874
5784.4933117673	0.0017543994
5786.4221191404	0.0016645251
5788.3509265134	0.0016266515
5790.2797338865	0.0016873728
5792.2085412595	0.0017502361
5794.1373486325	0.0016832338
5796.0661560056	0.0017044882
5797.9949633786	0.0017047167
5799.9237707517	0.0016402933
5801.8525781247	0.0016965419
5803.7813854978	0.0017068906
5805.7101928708	0.0017263081
5807.6390002439	0.0017042792
5809.5678076169	0.0016735444
5811.4966149900	0.0016593222
5813.4254223630	0.0016356765
5815.3542297361	0.0016880282
5817.2830371091	0.0016773625
5819.2118444822	0.0016671501
5821.1406518552	0.0016427794
5823.0694592282	0.0016283481
5824.9982666013	0.0016391751
5826.9270739743	0.0015835975
5828.8558813474	0.0015708308
5830.7846887204	0.0015957265
5832.7134960935	0.0015799822
5834.6423034665	0.0015922852
5836.5711108396	0.0016368405
5838.4999182126	0.0015426630
5840.4287255857	0.0015441882
5842.3575329587	0.0015571457
5844.2863403318	0.0015042820
5846.2151477048	0.0015602401
5848.1439550779	0.0014899552
5850.0727624509	0.0015758991
5852.0015698239	0.0015999542
5853.9303771970	0.0014404117
5855.8591845700	0.0015135121
5857.7879919431	0.0015932679
5859.7167993161	0.0015842458
5861.6456066892	0.0015114272
5863.5744140622	0.0015063845
5865.5032214353	0.0015144125
5867.4320288083	0.0015010645
5869.3608361814	0.0014900661
5871.2896435544	0.0014121510
5873.2184509275	0.0014516544
5875.1472583005	0.0015154161
5877.0760656736	0.0014801493
5879.0048730466	0.0014240721
5880.9336804196	0.0014903741
5882.8624877927	0.0014623447
5884.7912951657	0.0014068930
5886.7201025388	0.0015005162
5888.6489099118	0.0014255180
5890.5777172849	0.0013863144
5892.5065246579	0.0014570442
5894.4353320310	0.0014518866
5896.3641394040	0.0014006139
5898.2929467771	0.0014483135
5900.2217541501	0.0014506343
5902.1505615232	0.0013565319
5904.0793688962	0.0014076084
5906.0081762693	0.0013883552
5907.9369836423	0.0013910832
5909.8657910154	0.0014044973
5911.7945983884	0.0014092505
5913.7234057614	0.0014510420
5915.6522131345	0.0013665876
5917.5810205075	0.0013679769
5919.5098278806	0.0013446747
5921.4386352536	0.0012795364
5923.3674426267	0.0013532357
5925.2962499997	0.0014224900
5927.2250573728	0.0013503723
5929.1538647458	0.0013411614
5931.0826721189	0.0013512608
5933.0114794919	0.0013012346
5934.9402868650	0.0013743803
5936.8690942380	0.0013499670
5938.7979016111	0.0013382954
5940.7267089841	0.0013445131
5942.6555163571	0.0013100002
5944.5843237302	0.0012779168
5946.5131311032	0.0012837257
5948.4419384763	0.0013471732
5950.3707458493	0.0012738699
5952.2995532224	0.0013462475
5954.2283605954	0.0013249270
5956.1571679685	0.0012836270
5958.0859753415	0.0013051466
5960.0147827146	0.0012069091
5961.9435900876	0.0012514420
5963.8723974607	0.0011879280
5965.8012048337	0.0012607123
5967.7300122068	0.0012571339
5969.6588195798	0.0012118802
5971.5876269528	0.0013055168
5973.5164343259	0.0011732894
5975.4452416989	0.0012321032
5977.3740490720	0.0012171916
5979.3028564450	0.0011476061
5981.2316638181	0.0012257521
5983.1604711911	0.0012122509
5985.0892785642	0.0011579844
5987.0180859372	0.0011812469
5988.9468933103	0.0012702123
5990.8757006833	0.0011943805
5992.8045080564	0.0012326962
5994.7333154294	0.0012347403
5996.6621228025	0.0011708707
5998.5909301755	0.0012176484
6000.5197375485	0.0011801987
