399.2631262207	0.0015310058
401.1919335938	0.0019125032
403.1207409668	0.0018973314
405.0495483398	0.0025153938
406.9783557129	0.0023089277
408.9071630859	0.0017359135
410.8359704590	0.0025201626
412.7647778320	0.0022827857
414.6935852051	0.0020853395
416.6223925781	0.0017948681
418.5511999512	0.0018086019
420.4800073242	0.0024899719
422.4088146973	0.0024545311
424.3376220703	0.0029521692
426.2664294434	0.0027803755
428.1952368164	0.0026995055
430.1240441895	0.0029046764
432.0528515625	0.0023194787
433.9816589355	0.0026992662
435.9104663086	0.0031807213
437.8392736816	0.0029364326
439.7680810547	0.0025385031
441.6968884277	0.0025418610
443.6256958008	0.0026580605
445.5545031738	0.0024823810
447.4833105469	0.0021052547
449.4121179199	0.0020534643
451.3409252930	0.0024919091
453.2697326660	0.0019742574
455.1985400391	0.0017747872
457.1273474121	0.0018276001
459.0561547852	0.0013689736
460.9849621582	0.0018877293
462.9137695313	0.0019430239
464.8425769043	0.0014921406
466.7713842773	0.0013524310
468.7001916504	0.0012206405
470.6289990234	0.0014047832
472.5578063965	0.0013869277
474.4866137695	0.0016239805
476.4154211426	0.0015904824
478.3442285156	0.0010427933
480.2730358887	0.0011651057
482.2018432617	0.0011222749
484.1306506348	0.0008208901
486.0594580078	0.0008680139
487.9882653809	0.0010496356
489.9170727539	0.0009464904
491.8458801270	0.0007046066
493.7746875000	0.0010672524
495.7034948730	0.0012482255
497.6323022461	0.0011286326
499.5611096191	0.0009662382
501.4899169922	0.0011034071
503.4187243652	0.0011298414
505.3475317383	0.0003900199
507.2763391113	0.0009299004
509.2051464844	0.0010588982
511.1339538574	0.0005513319
513.0627612305	0.0010313364
514.9915686035	0.0005790351
516.9203759766	0.0006992845
518.8491833496	0.0009265678
520.7779907227	0.0006486353
522.7067980957	0.0008276601
524.6356054688	0.0005293470
526.5644128418	0.0008489529
528.4932202148	0.0007636412
530.4220275879	0.0003956739
532.3508349609	0.0009517812
534.2796423340	0.0010931855
536.2084497070	0.0010819780
538.1372570801	0.0011334447
540.0660644531	0.0010264218
541.9948718262	0.0007346295
543.9236791992	0.0006122575
545.8524865723	0.0008676489
547.7812939453	0.0008854561
549.7101013184	0.0006638342
551.6389086914	0.0007998641
553.5677160645	0.0008240680
555.4965234375	0.0005990516
557.4253308105	0.0010304032
559.3541381836	0.0007071934
561.2829455566	0.0005063801
563.2117529297	0.0010195986
565.1405603027	0.0005751705
567.0693676758	0.0009120362
568.9981750488	0.0007346120
570.9269824219	0.0001205955
572.8557897949	0.0009182091
574.7845971680	0.0009134291
576.7134045410	0.0007583665
578.6422119141	0.0007813439
580.5710192871	0.0005186286
582.4998266602	0.0006517553
584.4286340332	0.0007309519
586.3574414063	0.0009456306
588.2862487793	0.0007750283
590.2150561523	0.0006671651
592.1438635254	0.0010372370
594.0726708984	0.0007724398
596.0014782715	0.0006221354
597.9302856445	0.0008652290
599.8590930176	0.0007578995
601.7879003906	0.0006720971
603.7167077637	0.0006439283
605.6455151367	0.0008235042
607.5743225098	0.0011608583
609.5031298828	0.0007705268
611.4319372559	0.0004779504
613.3607446289	0.0006910444
615.2895520020	0.0008195913
617.2183593750	0.0009487796
619.1471667480	0.0005165993
621.0759741211	0.0004960862
623.0047814941	0.0008975138
624.9335888672	0.0006299090
626.8623962402	0.0005291769
628.7912036133	0.0006913794
630.7200109863	0.0009893291
632.6488183594	0.0009892853
634.5776257324	0.0013676847
636.5064331055	0.0020702914
638.4352404785	0.0018528817
640.3640478516	0.0018465214
642.2928552246	0.0021001240
644.2216625977	0.0022566291
646.1504699707	0.0025530905
648.0792773438	0.0028700773
650.0080847168	0.0030785517
651.9368920898	0.0029014042
653.8656994629	0.0029030247
655.7945068359	0.0033848598
657.7233142090	0.0035216126
659.6521215820	0.0033048755
661.5809289551	0.0036285822
663.5097363281	0.0039980067
665.4385437012	0.0041066725
667.3673510742	0.0039071366
669.2961584473	0.0038690090
671.2249658203	0.0045740157
673.1537731934	0.0046382900
675.0825805664	0.0045871013
677.0113879395	0.0046857027
678.9401953125	0.0046393410
680.8690026855	0.0053444393
682.7978100586	0.0053190952
684.7266174316	0.0047288239
686.6554248047	0.0049616126
688.5842321777	0.0050798287
690.5130395508	0.0051177172
692.4418469238	0.0054569957
694.3706542969	0.0055902582
696.2994616699	0.0061065666
698.2282690430	0.0072124638
700.1570764160	0.0078887502
702.0858837891	0.0076554501
704.0146911621	0.0070894519
705.9434985352	0.0064380653
707.8723059082	0.0052839145
709.8011132813	0.0042847497
711.7299206543	0.0031592376
713.6587280273	0.0018029325
715.5875354004	0.0011156860
717.5163427734	0.0007109848
719.4451501465	0.0007600339
721.3739575195	0.0007176962
723.3027648926	0.0006061588
725.2315722656	0.0006017669
727.1603796387	0.0003571752
729.0891870117	0.0005017720
731.0179943848	0.0003835154
732.9468017578	0.0003833711
734.8756091309	0.0007707064
736.8044165039	0.0008483576
738.7332238770	0.0005971715
740.6620312500	0.0005228695
742.5908386230	0.0008325690
744.5196459961	0.0005986544
746.4484533691	0.0006584768
748.3772607422	0.0006671265
750.3060681152	0.0005575961
752.2348754883	0.0008336424
754.1636828613	0.0007901463
756.0924902344	0.0008114215
758.0212976074	0.0006268605
759.9501049805	0.0006722094
761.8789123535	0.0007484154
763.8077197266	0.0007050565
765.7365270996	0.0006447125
767.6653344727	0.0004273851
769.5941418457	0.0007084958
771.5229492188	0.0006987907
773.4517565918	0.0003907525
775.3805639648	0.0005034334
777.3093713379	0.0008196501
779.2381787109	0.0008274677
781.1669860840	0.0009088658
783.0957934570	0.0008774818
785.0246008301	0.0004059647
786.9534082031	0.0004421168
788.8822155762	0.0007419879
790.8110229492	0.0010357674
792.7398303223	0.0009773863
794.6686376953	0.0009405391
796.5974450684	0.0010474741
798.5262524414	0.0010387875
800.4550598145	0.0012074943
802.3838671875	0.0011457922
804.3126745605	0.0012414058
806.2414819336	0.0009339504
808.1702893066	0.0008440597
810.0990966797	0.0009630945
812.0279040527	0.0005874346
813.9567114258	0.0006995288
815.8855187988	0.0006383298
817.8143261719	0.0008766900
819.7431335449	0.0009584702
821.6719409180	0.0007450894
823.6007482910	0.0009423009
825.5295556641	0.0007067185
827.4583630371	0.0008964334
829.3871704102	0.0012351505
831.3159777832	0.0012396651
833.2447851563	0.0013595652
835.1735925293	0.0014377676
837.1023999023	0.0015247236
839.0312072754	0.0016173767
840.9600146484	0.0016554894
842.8888220215	0.0015170127
844.8176293945	0.0014031990
846.7464367676	0.0013730346
848.6752441406	0.0012288095
850.6040515137	0.0011517225
852.5328588867	0.0011255380
854.4616662598	0.0008427838
856.3904736328	0.0009408012
858.3192810059	0.0012504607
860.2480883789	0.0010143826
862.1768957520	0.0007635126
864.1057031250	0.0004980115
866.0345104980	0.0005463352
867.9633178711	0.0008149252
869.8921252441	0.0007223120
871.8209326172	0.0007618588
873.7497399902	0.0008572489
875.6785473633	0.0007793868
877.6073547363	0.0006435311
879.5361621094	0.0005753227
881.4649694824	0.0005902427
883.3937768555	0.0006037736
885.3225842285	0.0006123760
887.2513916016	0.0006964292
889.1801989746	0.0006950331
891.1090063477	0.0007206795
893.0378137207	0.0008700250
894.9666210938	0.0008377570
896.8954284668	0.0007458035
898.8242358398	0.0006943427
900.7530432129	0.0007546668
902.6818505859	0.0004707159
904.6106579590	0.0004738166
906.5394653320	0.0009111246
908.4682727051	0.0005541226
910.3970800781	0.0004755364
912.3258874512	0.0005628797
914.2546948242	0.0005113886
916.1835021973	0.0009845138
918.1123095703	0.0010862417
920.0411169434	0.0011876449
921.9699243164	0.0015073915
923.8987316895	0.0013926349
925.8275390625	0.0013716337
927.7563464355	0.0015655293
929.6851538086	0.0016042055
931.6139611816	0.0016504168
933.5427685547	0.0018922521
935.4715759277	0.0020900292
937.4003833008	0.0021635424
939.3291906738	0.0023163059
941.2579980469	0.0023853285
943.1868054199	0.0024507905
945.1156127930	0.0025588255
947.0444201660	0.0024912367
948.9732275391	0.0024594823
950.9020349121	0.0024102898
952.8308422852	0.0024858224
954.7596496582	0.0023225842
956.6884570313	0.0019761692
958.6172644043	0.0023973449
960.5460717773	0.0026723789
962.4748791504	0.0025020060
964.4036865234	0.0024176978
966.3324938965	0.0024202983
968.2613012695	0.0026848405
970.1901086426	0.0028246297
972.1189160156	0.0027885358
974.0477233887	0.0029884318
975.9765307617	0.0033506062
977.9053381348	0.0035142265
979.8341455078	0.0038000094
981.7629528809	0.0041657174
983.6917602539	0.0045961263
985.6205676270	0.0050903489
987.5493750000	0.0054823169
989.4781823730	0.0062712375
991.4069897461	0.0067830044
993.3357971191	0.0074477880
995.2646044922	0.0084630502
997.1934118652	0.0090578645
999.1222192383	0.0098726107
1001.0510266113	0.0104707330
1002.9798339844	0.0109931584
1004.9086413574	0.0120203970
1006.8374487305	0.0129431933
1008.7662561035	0.0135103706
1010.6950634766	0.0141846491
1012.6238708496	0.0150599610
1014.5526782227	0.0158568006
1016.4814855957	0.0166932084
1018.4102929688	0.0173787810
1020.3391003418	0.0180572011
1022.2679077148	0.0187550113
1024.1967150879	0.0195358731
1026.1255224609	0.0204612873
1028.0543298340	0.0210410506
1029.9831372070	0.0215793066
1031.9119445801	0.0223510191
1033.8407519531	0.0228716433
1035.7695593262	0.0229603220
1037.6983666992	0.0233564861
1039.6271740723	0.0236661192
1041.5559814453	0.0233286954
1043.4847888184	0.0232130848
1045.4135961914	0.0231545735
1047.3424035645	0.0227192231
1049.2712109375	0.0224308223
1051.2000183105	0.0220917240
1053.1288256836	0.0213396847
1055.0576330566	0.0211040899
1056.9864404297	0.0208296850
1058.9152478027	0.0200291015
1060.8440551758	0.0196257979
1062.7728625488	0.0189708695
1064.7016699219	0.0183352381
1066.6304772949	0.0179060288
1068.5592846680	0.0169192553
1070.4880920410	0.0161649249
1072.4168994141	0.0156728551
1074.3457067871	0.0147066452
1076.2745141602	0.0140135977
1078.2033215332	0.0134804342
1080.1321289062	0.0126520442
1082.0609362793	0.0122768097
1083.9897436523	0.0116526522
1085.9185510254	0.0109433644
1087.8473583984	0.0106313899
1089.7761657715	0.0100772316
1091.7049731445	0.0095731951
1093.6337805176	0.0091486108
1095.5625878906	0.0088859890
1097.4913952637	0.0087988712
1099.4202026367	0.0086444002
1101.3490100098	0.0082366997
1103.2778173828	0.0081055472
1105.2066247559	0.0079337340
1107.1354321289	0.0074693346
1109.0642395019	0.0076259458
1110.9930468750	0.0073598018
1112.9218542480	0.0072072614
1114.8506616211	0.0075528342
1116.7794689941	0.0074087586
1118.7082763672	0.0072153481
1120.6370837402	0.0071947714
1122.5658911133	0.0075197527
1124.4946984863	0.0075224354
1126.4235058594	0.0075668236
1128.3523132324	0.0079217730
1130.2811206055	0.0080188485
1132.2099279785	0.0081447046
1134.1387353516	0.0083390670
1136.0675427246	0.0087052081
1137.9963500977	0.0090309065
1139.9251574707	0.0095890518
1141.8539648437	0.0103716478
1143.7827722168	0.0111846551
1145.7115795898	0.0118235685
1147.6403869629	0.0123630371
1149.5691943359	0.0131448871
1151.4980017090	0.0137321111
1153.4268090820	0.0144639211
1155.3556164551	0.0149897058
1157.2844238281	0.0156108802
1159.2132312012	0.0165080689
1161.1420385742	0.0168477446
1163.0708459473	0.0174268410
1164.9996533203	0.0181860961
1166.9284606934	0.0186922401
1168.8572680664	0.0193957910
1170.7860754394	0.0202906653
1172.7148828125	0.0211254563
1174.6436901855	0.0220538378
1176.5724975586	0.0228121765
1178.5013049316	0.0234664548
1180.4301123047	0.0244349558
1182.3589196777	0.0254655294
1184.2877270508	0.0265657082
1186.2165344238	0.0276326444
1188.1453417969	0.0287774540
1190.0741491699	0.0299981348
1192.0029565430	0.0315062962
1193.9317639160	0.0330329649
1195.8605712891	0.0345096998
1197.7893786621	0.0362922177
1199.7181860351	0.0377551690
1201.6469934082	0.0395332053
1203.5758007812	0.0413542539
1205.5046081543	0.0428485423
1207.4334155273	0.0443843082
1209.3622229004	0.0458463579
1211.2910302734	0.0471745431
1213.2198376465	0.0483576506
1215.1486450195	0.0497982427
1217.0774523926	0.0507201292
1219.0062597656	0.0516573936
1220.9350671387	0.0526119247
1222.8638745117	0.0530960932
1224.7926818848	0.0534678698
1226.7214892578	0.0537511706
1228.6502966308	0.0544423759
1230.5791040039	0.0544716492
1232.5079113769	0.0546737537
1234.4367187500	0.0548875444
1236.3655261230	0.0544528589
1238.2943334961	0.0544959307
1240.2231408691	0.0544396900
1242.1519482422	0.0543090887
1244.0807556152	0.0539183915
1246.0095629883	0.0537618883
1247.9383703613	0.0534234047
1249.8671777344	0.0529792160
1251.7959851074	0.0526464283
1253.7247924805	0.0519511253
1255.6535998535	0.0516475588
1257.5824072266	0.0506394804
1259.5112145996	0.0498858094
1261.4400219726	0.0491874591
1263.3688293457	0.0483011603
1265.2976367187	0.0479687676
1267.2264440918	0.0470794663
1269.1552514648	0.0465162843
1271.0840588379	0.0457868353
1273.0128662109	0.0449750982
1274.9416735840	0.0442964584
1276.8704809570	0.0435100570
1278.7992883301	0.0426001139
1280.7280957031	0.0415019169
1282.6569030762	0.0409084484
1284.5857104492	0.0401115045
1286.5145178223	0.0395308882
1288.4433251953	0.0386171490
1290.3721325683	0.0379020274
1292.3009399414	0.0377606601
1294.2297473144	0.0372598320
1296.1585546875	0.0373486429
1298.0873620605	0.0373240188
1300.0161694336	0.0374027565
1301.9449768066	0.0373878554
1303.8737841797	0.0377060845
1305.8025915527	0.0383846089
1307.7313989258	0.0383295640
1309.6602062988	0.0392307341
1311.5890136719	0.0399846286
1313.5178210449	0.0404039547
1315.4466284180	0.0416571721
1317.3754357910	0.0426215082
1319.3042431640	0.0436891764
1321.2330505371	0.0451089144
1323.1618579101	0.0464891866
1325.0906652832	0.0478197038
1327.0194726562	0.0491344370
1328.9482800293	0.0503484868
1330.8770874023	0.0514971018
1332.8058947754	0.0530095175
1334.7347021484	0.0541466773
1336.6635095215	0.0543987080
1338.5923168945	0.0542862974
1340.5211242676	0.0550424755
1342.4499316406	0.0569062755
1344.3787390137	0.0573287085
1346.3075463867	0.0573363826
1348.2363537597	0.0573672131
1350.1651611328	0.0567128435
1352.0939685058	0.0568742082
1354.0227758789	0.0560526922
1355.9515832519	0.0556997806
1357.8803906250	0.0555966944
1359.8091979980	0.0544573292
1361.7380053711	0.0526516698
1363.6668127441	0.0515638068
1365.5956201172	0.0537102371
1367.5244274902	0.0528161749
1369.4532348633	0.0521341264
1371.3820422363	0.0528928190
1373.3108496094	0.0504448898
1375.2396569824	0.0509232283
1377.1684643555	0.0516777858
1379.0972717285	0.0516622663
1381.0260791015	0.0516202450
1382.9548864746	0.0514512099
1384.8836938476	0.0515615195
1386.8125012207	0.0494615585
1388.7413085937	0.0504298285
1390.6701159668	0.0536778383
1392.5989233398	0.0527586155
1394.5277307129	0.0497796014
1396.4565380859	0.0518275835
1398.3853454590	0.0521628931
1400.3141528320	0.0515277982
1402.2429602051	0.0551594496
1404.1717675781	0.0524798222
1406.1005749512	0.0529701710
1408.0293823242	0.0547537282
1409.9581896972	0.0526389591
1411.8869970703	0.0536676310
1413.8158044433	0.0520888232
1415.7446118164	0.0527815521
1417.6734191894	0.0484293252
1419.6022265625	0.0442091301
1421.5310339355	0.0492114499
1423.4598413086	0.0478351042
1425.3886486816	0.0461876839
1427.3174560547	0.0464204401
1429.2462634277	0.0435262881
1431.1750708008	0.0420600399
1433.1038781738	0.0426863953
1435.0326855469	0.0391678438
1436.9614929199	0.0337150432
1438.8903002929	0.0371910781
1440.8191076660	0.0379891694
1442.7479150390	0.0357095487
1444.6767224121	0.0369918868
1446.6055297851	0.0345674120
1448.5343371582	0.0346625298
1450.4631445312	0.0357461944
1452.3919519043	0.0363245532
1454.3207592773	0.0378311723
1456.2495666504	0.0328216143
1458.1783740234	0.0337953791
1460.1071813965	0.0433907434
1462.0359887695	0.0459904894
1463.9647961426	0.0462148786
1465.8936035156	0.0484794453
1467.8224108886	0.0542689599
1469.7512182617	0.0584061593
1471.6800256347	0.0537102371
1473.6088330078	0.0563499257
1475.5376403808	0.0635255575
1477.4664477539	0.0680797547
1479.3952551269	0.0738129392
1481.3240625000	0.0754872262
1483.2528698730	0.0799842328
1485.1816772461	0.0827743411
1487.1104846191	0.0824539065
1489.0392919922	0.0829403177
1490.9680993652	0.0838132054
1492.8969067383	0.0947232619
1494.8257141113	0.0936794356
1496.7545214843	0.0861060619
1498.6833288574	0.0957473665
1500.6121362304	0.0986508578
1502.5409436035	0.1044724137
1504.4697509765	0.1006811261
1506.3985583496	0.0779338032
1508.3273657226	0.0914582983
1510.2561730957	0.1049050316
1512.1849804687	0.1017592400
1514.1137878418	0.1091543287
1516.0425952148	0.1006785333
1517.9714025879	0.1041967049
1519.9002099609	0.1011774689
1521.8290173340	0.0901194662
1523.7578247070	0.1062873751
1525.6866320801	0.1051375270
1527.6154394531	0.1046828553
1529.5442468261	0.1133432090
1531.4730541992	0.1100901812
1533.4018615722	0.1027912796
1535.3306689453	0.1072102785
1537.2594763183	0.1134275198
1539.1882836914	0.0866667628
1541.1170910644	0.0892783850
1543.0458984375	0.1041710451
1544.9747058105	0.1006326452
1546.9035131836	0.1151857674
1548.8323205566	0.1091756225
1550.7611279297	0.1117737293
1552.6899353027	0.1113846898
1554.6187426758	0.1028127223
1556.5475500488	0.1091874093
1558.4763574218	0.0827349946
1560.4051647949	0.0865942836
1562.3339721679	0.1157584935
1564.2627795410	0.1109060049
1566.1915869140	0.1131523624
1568.1203942871	0.1125579774
1570.0492016601	0.1020745635
1571.9780090332	0.1140464619
1573.9068164062	0.1156984046
1575.8356237793	0.0953769758
1577.7644311523	0.1049785838
1579.6932385254	0.1168735102
1581.6220458984	0.1122356504
1583.5508532715	0.1148925126
1585.4796606445	0.1132304519
1587.4084680175	0.1139079332
1589.3372753906	0.1133113801
1591.2660827636	0.1131605208
1593.1948901367	0.1134421378
1595.1236975097	0.1118390784
1597.0525048828	0.1136012748
1598.9813122558	0.1128824726
1600.9101196289	0.1134117395
1602.8389270019	0.1119951233
1604.7677343750	0.1134318635
1606.6965417480	0.1121553332
1608.6253491211	0.1118001863
1610.5541564941	0.1116803437
1612.4829638672	0.1118558347
1614.4117712402	0.1137231961
1616.3405786132	0.0962444693
1618.2693859863	0.1022923142
1620.1981933593	0.1165251881
1622.1270007324	0.1055687517
1624.0558081054	0.1063054800
1625.9846154785	0.1099980772
1627.9134228515	0.1100066826
1629.8422302246	0.1093993783
1631.7710375976	0.1150953323
1633.6998449707	0.1082783490
1635.6286523437	0.0923312902
1637.5574597168	0.1044174880
1639.4862670898	0.1130281389
1641.4150744629	0.1109018624
1643.3438818359	0.1132376567
1645.2726892090	0.1041109636
1647.2014965820	0.0939580575
1649.1303039550	0.1118033156
1651.0591113281	0.1073380709
1652.9879187011	0.0748005807
1654.9167260742	0.0953434706
1656.8455334472	0.1158064678
1658.7743408203	0.1110215858
1660.7031481933	0.1139961109
1662.6319555664	0.1054977328
1664.5607629394	0.1098870263
1666.4895703125	0.1165787056
1668.4183776855	0.1048611403
1670.3471850586	0.1020871252
1672.2759924316	0.1129610538
1674.2047998047	0.1063707769
1676.1336071777	0.1023481563
1678.0624145507	0.1149106175
1679.9912219238	0.1112207845
1681.9200292968	0.1108327210
1683.8488366699	0.0938605219
1685.7776440429	0.0917772949
1687.7064514160	0.1197901145
1689.6352587890	0.1065203398
1691.5640661621	0.1146504283
1693.4928735351	0.1173303723
1695.4216809082	0.0900655836
1697.3504882812	0.1066484451
1699.2792956543	0.0971085429
1701.2081030273	0.0884063020
1703.1369104004	0.1138067842
1705.0657177734	0.1064923257
1706.9945251464	0.1066389382
1708.9233325195	0.1145276129
1710.8521398925	0.1104282737
1712.7809472656	0.1120495796
1714.7097546386	0.1057884693
1716.6385620117	0.0962821096
1718.5673693847	0.0946427733
1720.4961767578	0.1089963615
1722.4249841308	0.1125734001
1724.3537915039	0.1055091769
1726.2825988769	0.1126974374
1728.2114062500	0.1056550443
1730.1402136230	0.1064467952
1732.0690209961	0.1041733921
1733.9978283691	0.0836556554
1735.9266357421	0.0989685506
1737.8554431152	0.1080290079
1739.7842504882	0.0981568545
1741.7130578613	0.1050144956
1743.6418652343	0.1069835424
1745.5706726074	0.1069039851
1747.4994799804	0.1079337746
1749.4282873535	0.1045743302
1751.3570947265	0.1004560441
1753.2859020996	0.1089469939
1755.2147094726	0.1135758907
1757.1435168457	0.1054590642
1759.0723242187	0.1135684550
1761.0011315918	0.1084796190
1762.9299389648	0.1048878580
1764.8587463379	0.1170674711
1766.7875537109	0.1077851951
1768.7163610839	0.1081433445
1770.6451684570	0.1080696657
1772.5739758300	0.0987065881
1774.5027832031	0.1077060848
1776.4315905761	0.1128862873
1778.3603979492	0.1113783047
1780.2892053222	0.1106528640
1782.2180126953	0.1111336425
1784.1468200683	0.1111329570
1786.0756274414	0.1091504619
1788.0044348144	0.1136777624
1789.9332421875	0.1117549390
1791.8620495605	0.1028486341
1793.7908569336	0.1063328236
1795.7196643066	0.1124758869
1797.6484716796	0.1112347990
1799.5772790527	0.1100117043
1801.5060864257	0.1085355729
1803.4348937988	0.1113066375
1805.3637011718	0.1132601649
1807.2925085449	0.1119356528
1809.2213159179	0.1121313274
1811.1501232910	0.1099157333
1813.0789306640	0.1125548780
1815.0077380371	0.1128457338
1816.9365454101	0.1119700447
1818.8653527832	0.1127210259
1820.7941601562	0.1121177301
1822.7229675293	0.1135670766
1824.6517749023	0.1076507419
1826.5805822753	0.1105964333
1828.5093896484	0.1110546961
1830.4381970214	0.1053231508
1832.3670043945	0.1124217361
1834.2958117675	0.1119878143
1836.2246191406	0.1118907928
1838.1534265136	0.1115336046
1840.0822338867	0.1118456200
1842.0110412597	0.1123357266
1843.9398486328	0.1020574421
1845.8686560058	0.1069016606
1847.7974633789	0.1121165454
1849.7262707519	0.1099218428
1851.6550781250	0.1123363972
1853.5838854980	0.1107211560
1855.5126928710	0.1114029288
1857.4415002441	0.1109393537
1859.3703076171	0.1103818566
1861.2991149902	0.1110260487
1863.2279223632	0.1099217385
1865.1567297363	0.1108580381
1867.0855371093	0.1080975831
1869.0143444824	0.1043109745
1870.9431518554	0.1073519289
1872.8719592285	0.1105656773
1874.8007666015	0.1092209145
1876.7295739746	0.1096615344
1878.6583813476	0.1093696803
1880.5871887207	0.1088431776
1882.5159960937	0.1095194966
1884.4448034667	0.1082466990
1886.3736108398	0.1092439741
1888.3024182128	0.1072265953
1890.2312255859	0.1057062224
1892.1600329589	0.1086901277
1894.0888403320	0.1073606461
1896.0176477050	0.1068983898
1897.9464550781	0.1079240963
1899.8752624511	0.1075507551
1901.8040698242	0.1077138782
1903.7328771972	0.1071458980
1905.6616845703	0.1075942293
1907.5904919433	0.1066862643
1909.5192993164	0.1060479805
1911.4481066894	0.1065700352
1913.3769140625	0.1065136790
1915.3057214355	0.1073419079
1917.2345288085	0.1036307737
1919.1633361816	0.1036138684
1921.0921435546	0.1067266464
1923.0209509277	0.1039815918
1924.9497583007	0.1055512726
1926.8785656738	0.1064042598
1928.8073730468	0.1054559648
1930.7361804199	0.1064373627
1932.6649877929	0.1052223891
1934.5937951660	0.1059656739
1936.5226025390	0.1053852811
1938.4514099121	0.1055153236
1940.3802172851	0.1054955199
1942.3090246582	0.1028833836
1944.2378320312	0.1042682528
1946.1666394042	0.1052571982
1948.0954467773	0.1049031019
1950.0242541503	0.1051466241
1951.9530615234	0.1048494577
1953.8818688964	0.1049602181
1955.8106762695	0.1048119664
1957.7394836425	0.1049566120
1959.6682910156	0.1049243063
1961.5970983886	0.1044633538
1963.5259057617	0.1047611833
1965.4547131347	0.1043519527
1967.3835205078	0.1033244133
1969.3123278808	0.1041819900
1971.2411352539	0.1045337170
1973.1699426269	0.1040471122
1975.0987499999	0.1042415276
1977.0275573730	0.1037922278
1978.9563647460	0.1039644182
1980.8851721191	0.1037868708
1982.8139794921	0.1034200191
1984.7427868652	0.1036215648
1986.6715942382	0.1030494869
1988.6004016113	0.1031214297
1990.5292089843	0.1025604680
1992.4580163574	0.1015122533
1994.3868237304	0.1024921089
1996.3156311035	0.1028544456
1998.2444384765	0.1021347493
2000.1732458496	0.1022371203
2002.1020532226	0.1019343734
2004.0308605956	0.1018256545
2005.9596679687	0.1017712206
2007.8884753417	0.1014054269
2009.8172827148	0.1013913602
2011.7460900878	0.1010195464
2013.6748974609	0.1010631546
2015.6037048339	0.1003698111
2017.5325122070	0.0996289551
2019.4613195800	0.1001442075
2021.3901269531	0.1000054777
2023.3189343261	0.0997451097
2025.2477416992	0.0996204019
2027.1765490722	0.0994888246
2029.1053564453	0.0993030518
2031.0341638183	0.0990657359
2032.9629711914	0.0989999771
2034.8917785644	0.0986265540
2036.8205859374	0.0984472111
2038.7493933105	0.0984198004
2040.6782006835	0.0981527120
2042.6070080566	0.0979330316
2044.5358154296	0.0977668762
2046.4646228027	0.0975500643
2048.3934301757	0.0975891724
2050.3222375488	0.0973521918
2052.2510449218	0.0969065800
2054.1798522949	0.0967570692
2056.1086596679	0.0966460109
2058.0374670410	0.0965568051
2059.9662744140	0.0961961895
2061.8950817871	0.0961311013
2063.8238891601	0.0958574489
2065.7526965331	0.0955010504
2067.6815039062	0.0956327021
2069.6103112792	0.0954787880
2071.5391186523	0.0954260901
2073.4679260253	0.0951098651
2075.3967333984	0.0948782861
2077.3255407714	0.0947671086
2079.2543481445	0.0944993496
2081.1831555175	0.0943913609
2083.1119628906	0.0942281634
2085.0407702636	0.0941679627
2086.9695776367	0.0938375443
2088.8983850097	0.0936258286
2090.8271923828	0.0934141353
2092.7559997558	0.0933141708
2094.6848071288	0.0933162272
2096.6136145019	0.0930225402
2098.5424218749	0.0929109305
2100.4712292480	0.0927885324
2102.4000366210	0.0927989036
2104.3288439941	0.0925249159
2106.2576513671	0.0923501253
2108.1864587402	0.0922043398
2110.1152661132	0.0920020044
2112.0440734863	0.0921112150
2113.9728808593	0.0916398987
2115.9016882324	0.0914894938
2117.8304956054	0.0915316939
2119.7593029785	0.0914130956
2121.6881103515	0.0913442299
2123.6169177245	0.0910968184
2125.5457250976	0.0910068899
2127.4745324706	0.0908386409
2129.4033398437	0.0907245725
2131.3321472167	0.0906077921
2133.2609545898	0.0905104131
2135.1897619628	0.0902789533
2137.1185693359	0.0901400819
2139.0473767089	0.0901387781
2140.9761840820	0.0899406970
2142.9049914550	0.0899588615
2144.8337988281	0.0899038315
2146.7626062011	0.0898130834
2148.6914135742	0.0895948783
2150.6202209472	0.0893909484
2152.5490283203	0.0894246697
2154.4778356933	0.0893740281
2156.4066430663	0.0891096815
2158.3354504394	0.0888570771
2160.2642578124	0.0888945460
2162.1930651855	0.0887976214
2164.1218725585	0.0887654871
2166.0506799316	0.0886357129
2167.9794873046	0.0885256678
2169.9082946777	0.0884712636
2171.8371020507	0.0882819295
2173.7659094238	0.0882983804
2175.6947167968	0.0880789608
2177.6235241699	0.0880147219
2179.5523315429	0.0879799575
2181.4811389160	0.0878866762
2183.4099462890	0.0877547488
2185.3387536620	0.0875274315
2187.2675610351	0.0875662714
2189.1963684081	0.0873804241
2191.1251757812	0.0873170793
2193.0539831542	0.0872131139
2194.9827905273	0.0870551169
2196.9115979003	0.0870998055
2198.8404052734	0.0869674534
2200.7692126464	0.0867908075
2202.6980200195	0.0867439657
2204.6268273925	0.0866880268
2206.5556347656	0.0864247978
2208.4844421386	0.0864122510
2210.4132495117	0.0863424838
2212.3420568847	0.0862221718
2214.2708642577	0.0860929117
2216.1996716308	0.0859131142
2218.1284790038	0.0859142244
2220.0572863769	0.0856521800
2221.9860937499	0.0856376141
2223.9149011230	0.0855397135
2225.8437084960	0.0853581727
2227.7725158691	0.0852982029
2229.7013232421	0.0850975513
2231.6301306152	0.0850653127
2233.5589379882	0.0849096477
2235.4877453613	0.0847435594
2237.4165527343	0.0845129564
2239.3453601074	0.0844676420
2241.2741674804	0.0844175965
2243.2029748534	0.0843410268
2245.1317822265	0.0842486769
2247.0605895995	0.0838174820
2248.9893969726	0.0838957503
2250.9182043456	0.0838457942
2252.8470117187	0.0835324526
2254.7758190917	0.0834717751
2256.7046264648	0.0833774954
2258.6334338378	0.0832683444
2260.5622412109	0.0831901878
2262.4910485839	0.0830723494
2264.4198559570	0.0828188062
2266.3486633300	0.0827239156
2268.2774707031	0.0826154500
2270.2062780761	0.0826697201
2272.1350854491	0.0825218409
2274.0638928222	0.0823610276
2275.9927001952	0.0824909136
2277.9215075683	0.0822013989
2279.8503149413	0.0822287053
2281.7791223144	0.0822284222
2283.7079296874	0.0819982216
2285.6367370605	0.0818374753
2287.5655444335	0.0816966072
2289.4943518066	0.0815625638
2291.4231591796	0.0812249854
2293.3519665527	0.0811359137
2295.2807739257	0.0809086114
2297.2095812988	0.0807387978
2299.1383886718	0.0804786980
2301.0671960449	0.0800791755
2302.9960034179	0.0797964483
2304.9248107909	0.0793634728
2306.8536181640	0.0790440738
2308.7824255370	0.0783234239
2310.7112329101	0.0777837634
2312.6400402831	0.0772207528
2314.5688476562	0.0763454884
2316.4976550292	0.0755409822
2318.4264624023	0.0746006593
2320.3552697753	0.0739274472
2322.2840771484	0.0727420822
2324.2128845214	0.0718478113
2326.1416918945	0.0713857710
2328.0704992675	0.0704064071
2329.9993066406	0.0696446896
2331.9281140136	0.0690505654
2333.8569213866	0.0687974393
2335.7857287597	0.0685511082
2337.7145361327	0.0684258640
2339.6433435058	0.0684508532
2341.5721508788	0.0686089844
2343.5009582519	0.0696021467
2345.4297656249	0.0707869828
2347.3585729980	0.0734547153
2349.2873803710	0.0756135508
2351.2161877441	0.0732806176
2353.1449951171	0.0698396564
2355.0738024902	0.0674446002
2357.0026098632	0.0653786138
2358.9314172363	0.0643990263
2360.8602246093	0.0636950284
2362.7890319823	0.0634189546
2364.7178393554	0.0638906509
2366.6466467284	0.0646279380
2368.5754541015	0.0658154488
2370.5042614745	0.0672990829
2372.4330688476	0.0690644234
2374.3618762206	0.0708239526
2376.2906835937	0.0724678338
2378.2194909667	0.0739761442
2380.1482983398	0.0750652552
2382.0771057128	0.0757741332
2384.0059130859	0.0763928890
2385.9347204589	0.0766955614
2387.8635278320	0.0765455961
2389.7923352050	0.0766026676
2391.7211425780	0.0764971375
2393.6499499511	0.0763161555
2395.5787573241	0.0762160122
2397.5075646972	0.0760557130
2399.4363720702	0.0761228949
2401.3651794433	0.0759517699
2403.2939868163	0.0758700967
2405.2227941894	0.0758050531
2407.1516015624	0.0756143630
2409.0804089355	0.0755609572
2411.0092163085	0.0754791051
2412.9380236816	0.0752910823
2414.8668310546	0.0751566738
2416.7956384277	0.0753104687
2418.7244458007	0.0749883652
2420.6532531738	0.0747814178
2422.5820605468	0.0748636127
2424.5108679198	0.0747070387
2426.4396752929	0.0746921897
2428.3684826659	0.0744730905
2430.2972900390	0.0745211691
2432.2260974120	0.0744490474
2434.1549047851	0.0742065907
2436.0837121581	0.0742394552
2438.0125195312	0.0740503371
2439.9413269042	0.0740193203
2441.8701342773	0.0739564151
2443.7989416503	0.0737771988
2445.7277490234	0.0737091750
2447.6565563964	0.0737265050
2449.5853637695	0.0736104921
2451.5141711425	0.0733964071
2453.4429785155	0.0732983798
2455.3717858886	0.0731383264
2457.3005932616	0.0731877759
2459.2294006347	0.0731081590
2461.1582080077	0.0729219615
2463.0870153808	0.0728999749
2465.0158227538	0.0727819949
2466.9446301269	0.0726889893
2468.8734374999	0.0725599527
2470.8022448730	0.0725161210
2472.7310522460	0.0724724457
2474.6598596191	0.0722385570
2476.5886669921	0.0720786452
2478.5174743652	0.0721105486
2480.4462817382	0.0721404776
2482.3750891112	0.0719887540
2484.3038964843	0.0718247890
2486.2327038573	0.0718472600
2488.1615112304	0.0717467964
2490.0903186034	0.0715798885
2492.0191259765	0.0715199113
2493.9479333495	0.0712856501
2495.8767407226	0.0713327527
2497.8055480956	0.0712928995
2499.7343554687	0.0710294545
2501.6631628417	0.0710561872
2503.5919702148	0.0708948225
2505.5207775878	0.0708449557
2507.4495849609	0.0707725212
2509.3783923339	0.0706641376
2511.3071997069	0.0707069710
2513.2360070800	0.0705254897
2515.1648144530	0.0704362839
2517.0936218261	0.0703828782
2519.0224291991	0.0703504384
2520.9512365722	0.0702167824
2522.8800439452	0.0700653270
2524.8088513183	0.0700226426
2526.7376586913	0.0698813945
2528.6664660644	0.0698848292
2530.5952734374	0.0698064715
2532.5240808105	0.0696593672
2534.4528881835	0.0695819855
2536.3816955566	0.0694422275
2538.3105029296	0.0693137795
2540.2393103027	0.0692892969
2542.1681176757	0.0692620948
2544.0969250487	0.0690910518
2546.0257324218	0.0689592063
2547.9545397948	0.0688696355
2549.8833471679	0.0689323023
2551.8121545409	0.0687919110
2553.7409619140	0.0684205294
2555.6697692870	0.0684823170
2557.5985766601	0.0684462041
2559.5273840331	0.0682820827
2561.4561914062	0.0683533624
2563.3849987792	0.0682181418
2565.3138061523	0.0679924935
2567.2426135253	0.0679218471
2569.1714208984	0.0679352880
2571.1002282714	0.0678377450
2573.0290356444	0.0676679015
2574.9578430175	0.0676156729
2576.8866503905	0.0674984157
2578.8154577636	0.0674108788
2580.7442651366	0.0673565716
2582.6730725097	0.0672389716
2584.6018798827	0.0672047287
2586.5306872558	0.0671011508
2588.4594946288	0.0669000000
2590.3883020019	0.0667746663
2592.3171093749	0.0667979419
2594.2459167480	0.0668425113
2596.1747241210	0.0667174160
2598.1035314941	0.0664468110
2600.0323388671	0.0664479733
2601.9611462401	0.0664606392
2603.8899536132	0.0662338734
2605.8187609862	0.0662928224
2607.7475683593	0.0660789460
2609.6763757323	0.0660188943
2611.6051831054	0.0660694391
2613.5339904784	0.0655951947
2615.4627978515	0.0656844452
2617.3916052245	0.0656239986
2619.3204125976	0.0655072033
2621.2492199706	0.0656709224
2623.1780273437	0.0654420257
2625.1068347167	0.0654254034
2627.0356420898	0.0652654022
2628.9644494628	0.0651132315
2630.8932568358	0.0650486052
2632.8220642089	0.0649026856
2634.7508715819	0.0649490356
2636.6796789550	0.0648115873
2638.6084863280	0.0646838397
2640.5372937011	0.0645776838
2642.4661010741	0.0644274205
2644.3949084472	0.0643710941
2646.3237158202	0.0643910319
2648.2525231933	0.0642953515
2650.1813305663	0.0641458929
2652.1101379394	0.0641014874
2654.0389453124	0.0639406443
2655.9677526855	0.0638879836
2657.8965600585	0.0638527647
2659.8253674315	0.0636507571
2661.7541748046	0.0635962263
2663.6829821776	0.0637261346
2665.6117895507	0.0636017025
2667.5405969237	0.0633701831
2669.4694042968	0.0633427426
2671.3982116698	0.0632393658
2673.3270190429	0.0631339401
2675.2558264159	0.0630293936
2677.1846337890	0.0630145073
2679.1134411620	0.0629126877
2681.0422485351	0.0627517775
2682.9710559081	0.0628046915
2684.8998632812	0.0626911819
2686.8286706542	0.0625349209
2688.7574780273	0.0624558702
2690.6862854003	0.0623885840
2692.6150927733	0.0622873753
2694.5439001464	0.0621903762
2696.4727075194	0.0620771311
2698.4015148925	0.0619892478
2700.3303222655	0.0619233996
2702.2591296386	0.0617250316
2704.1879370116	0.0617415980
2706.1167443847	0.0617273748
2708.0455517577	0.0616557300
2709.9743591308	0.0614826977
2711.9031665038	0.0612964630
2713.8319738769	0.0613718405
2715.7607812499	0.0612848252
2717.6895886230	0.0612855926
2719.6183959960	0.0611318052
2721.5472033690	0.0608879775
2723.4760107421	0.0608723089
2725.4048181151	0.0608714670
2727.3336254882	0.0607570559
2729.2624328612	0.0605314299
2731.1912402343	0.0605550855
2733.1200476073	0.0604440235
2735.0488549804	0.0603384748
2736.9776623534	0.0602679178
2738.9064697265	0.0601516813
2740.8352770995	0.0600704253
2742.7640844726	0.0599238649
2744.6928918456	0.0599899739
2746.6216992187	0.0598108321
2748.5505065917	0.0597309172
2750.4793139647	0.0595991760
2752.4081213378	0.0594101325
2754.3369287108	0.0594497100
2756.2657360839	0.0592287108
2758.1945434569	0.0592853725
2760.1233508300	0.0591616631
2762.0521582030	0.0589469075
2763.9809655761	0.0588649884
2765.9097729491	0.0587194264
2767.8385803222	0.0587735623
2769.7673876952	0.0586897135
2771.6961950683	0.0587605909
2773.6250024413	0.0585527979
2775.5538098144	0.0582979061
2777.4826171874	0.0583145246
2779.4114245604	0.0580959022
2781.3402319335	0.0580950379
2783.2690393065	0.0579581857
2785.1978466796	0.0577914380
2787.1266540526	0.0578725636
2789.0554614257	0.0577154905
2790.9842687987	0.0575786158
2792.9130761718	0.0575500876
2794.8418835448	0.0574180111
2796.7706909179	0.0573077463
2798.6994982909	0.0572555512
2800.6283056640	0.0571302101
2802.5571130370	0.0569435135
2804.4859204101	0.0568035245
2806.4147277831	0.0567138791
2808.3435351562	0.0566725135
2810.2723425292	0.0566504858
2812.2011499022	0.0565176755
2814.1299572753	0.0563551597
2816.0587646483	0.0561299026
2817.9875720214	0.0560401380
2819.9163793944	0.0560849756
2821.8451867675	0.0559015349
2823.7739941405	0.0558851846
2825.7028015136	0.0558208302
2827.6316088866	0.0555697009
2829.5604162597	0.0555084236
2831.4892236327	0.0554194897
2833.4180310058	0.0553397052
2835.3468383788	0.0552573577
2837.2756457519	0.0550559610
2839.2044531249	0.0549500212
2841.1332604979	0.0548201241
2843.0620678710	0.0544244573
2844.9908752440	0.0542849712
2846.9196826171	0.0541524366
2848.8484899901	0.0537965447
2850.7772973632	0.0536632612
2852.7061047362	0.0534500554
2854.6349121093	0.0533913970
2856.5637194823	0.0534066781
2858.4925268554	0.0533909127
2860.4213342284	0.0532633141
2862.3501416015	0.0530781299
2864.2789489745	0.0532432199
2866.2077563476	0.0531088002
2868.1365637206	0.0529919788
2870.0653710936	0.0529011153
2871.9941784667	0.0526817217
2873.9229858397	0.0527122021
2875.8517932128	0.0526546463
2877.7806005858	0.0526017398
2879.7094079589	0.0524744615
2881.6382153319	0.0524053797
2883.5670227050	0.0523476861
2885.4958300780	0.0522397086
2887.4246374511	0.0522104092
2889.3534448241	0.0521173999
2891.2822521972	0.0520378985
2893.2110595702	0.0518998280
2895.1398669433	0.0517478287
2897.0686743163	0.0515525937
2898.9974816893	0.0515633486
2900.9262890624	0.0515423194
2902.8550964354	0.0513253137
2904.7839038085	0.0511447638
2906.7127111815	0.0509014986
2908.6415185546	0.0508192927
2910.5703259276	0.0505913273
2912.4991333007	0.0503301248
2914.4279406737	0.0501040071
2916.3567480468	0.0498502105
2918.2855554198	0.0497287437
2920.2143627929	0.0496363267
2922.1431701659	0.0496615916
2924.0719775390	0.0494607016
2926.0007849120	0.0493838862
2927.9295922851	0.0494819880
2929.8583996581	0.0494471639
2931.7872070311	0.0494257398
2933.7160144042	0.0494265333
2935.6448217772	0.0495107919
2937.5736291503	0.0493620262
2939.5024365233	0.0493042655
2941.4312438964	0.0493443087
2943.3600512694	0.0492195934
2945.2888586425	0.0491267107
2947.2176660155	0.0489957221
2949.1464733886	0.0490086824
2951.0752807616	0.0490529351
2953.0040881347	0.0489370748
2954.9328955077	0.0488145947
2956.8617028808	0.0486144908
2958.7905102538	0.0483214855
2960.7193176268	0.0483326092
2962.6481249999	0.0482972562
2964.5769323729	0.0480663441
2966.5057397460	0.0480332747
2968.4345471190	0.0480024628
2970.3633544921	0.0481174141
2972.2921618651	0.0481549762
2974.2209692382	0.0481147915
2976.1497766112	0.0481648222
2978.0785839843	0.0480952337
2980.0073913573	0.0480685756
2981.9361987304	0.0481477678
2983.8650061034	0.0481640026
2985.7938134765	0.0479994565
2987.7226208495	0.0480517596
2989.6514282225	0.0479877144
2991.5802355956	0.0478921235
2993.5090429686	0.0479863398
2995.4378503417	0.0477460697
2997.3666577147	0.0476893783
2999.2954650878	0.0476600081
3001.2242724608	0.0474710949
3003.1530798339	0.0474217087
3005.0818872069	0.0474098325
3007.0106945800	0.0472676381
3008.9395019530	0.0471279919
3010.8683093261	0.0471297130
3012.7971166991	0.0469404608
3014.7259240722	0.0468926430
3016.6547314452	0.0467875302
3018.5835388182	0.0466239527
3020.5123461913	0.0465819538
3022.4411535643	0.0464562625
3024.3699609374	0.0464394428
3026.2987683104	0.0462508649
3028.2275756835	0.0462183431
3030.1563830565	0.0461515933
3032.0851904296	0.0459726676
3034.0139978026	0.0459892750
3035.9428051757	0.0458280146
3037.8716125487	0.0457796380
3039.8004199218	0.0457477421
3041.7292272948	0.0456525758
3043.6580346679	0.0456103422
3045.5868420409	0.0455043577
3047.5156494139	0.0452977717
3049.4444567870	0.0452212915
3051.3732641600	0.0452531539
3053.3020715331	0.0450151488
3055.2308789061	0.0449415930
3057.1596862792	0.0448860228
3059.0884936522	0.0447224528
3061.0173010253	0.0447184369
3062.9461083983	0.0446506217
3064.8749157714	0.0445550717
3066.8037231444	0.0444394797
3068.7325305175	0.0444030017
3070.6613378905	0.0443510711
3072.5901452636	0.0442379899
3074.5189526366	0.0441063344
3076.4477600097	0.0439567864
3078.3765673827	0.0440094732
3080.3053747557	0.0439073592
3082.2341821288	0.0437287763
3084.1629895018	0.0437623858
3086.0917968749	0.0435763747
3088.0206042479	0.0434606373
3089.9494116210	0.0434898660
3091.8782189940	0.0433892682
3093.8070263671	0.0433864743
3095.7358337401	0.0432024896
3097.6646411132	0.0430647731
3099.5934484862	0.0430354476
3101.5222558593	0.0429136269
3103.4510632323	0.0428829938
3105.3798706054	0.0427041911
3107.3086779784	0.0426210724
3109.2374853514	0.0425316691
3111.1662927245	0.0424740501
3113.0951000975	0.0424142182
3115.0239074706	0.0421028659
3116.9527148436	0.0420490205
3118.8815222167	0.0420832150
3120.8103295897	0.0420366973
3122.7391369628	0.0417923518
3124.6679443358	0.0416961610
3126.5967517089	0.0417458490
3128.5255590819	0.0415665619
3130.4543664550	0.0415704697
3132.3831738280	0.0413845703
3134.3119812011	0.0412599370
3136.2407885741	0.0412883908
3138.1695959471	0.0411237888
3140.0984033202	0.0409332663
3142.0272106932	0.0408097804
3143.9560180663	0.0408377834
3145.8848254393	0.0405743681
3147.8136328124	0.0404921845
3149.7424401854	0.0405003168
3151.6712475585	0.0402677990
3153.6000549315	0.0402942076
3155.5288623046	0.0401230007
3157.4576696776	0.0399687365
3159.3864770507	0.0400448442
3161.3152844237	0.0399514362
3163.2440917968	0.0398080982
3165.1728991698	0.0396696478
3167.1017065428	0.0394934453
3169.0305139159	0.0394415483
3170.9593212889	0.0393472165
3172.8881286620	0.0390881002
3174.8169360350	0.0390976965
3176.7457434081	0.0390298218
3178.6745507811	0.0388471186
3180.6033581542	0.0389337428
3182.5321655272	0.0388575867
3184.4609729003	0.0386527516
3186.3897802733	0.0385767967
3188.3185876464	0.0385616645
3190.2473950194	0.0383902192
3192.1762023925	0.0381844155
3194.1050097655	0.0382444784
3196.0338171386	0.0381219685
3197.9626245116	0.0378566496
3199.8914318846	0.0379370674
3201.8202392577	0.0379845053
3203.7490466307	0.0378301442
3205.6778540038	0.0377156064
3207.6066613768	0.0375460088
3209.5354687499	0.0374051929
3211.4642761229	0.0374518260
3213.3930834960	0.0374358594
3215.3218908690	0.0372838080
3217.2506982421	0.0372319855
3219.1795056151	0.0371268168
3221.1083129882	0.0369572490
3223.0371203612	0.0369616710
3224.9659277343	0.0369799063
3226.8947351073	0.0368853435
3228.8235424803	0.0368910879
3230.7523498534	0.0368739255
3232.6811572264	0.0366375037
3234.6099645995	0.0366523638
3236.5387719725	0.0366636813
3238.4675793456	0.0364863276
3240.3963867186	0.0365055725
3242.3251940917	0.0364197046
3244.2540014647	0.0362979099
3246.1828088378	0.0362581909
3248.1116162108	0.0362981670
3250.0404235839	0.0362383537
3251.9692309569	0.0360682011
3253.8980383300	0.0360577628
3255.8268457030	0.0360262841
3257.7556530760	0.0360336192
3259.6844604491	0.0359749272
3261.6132678221	0.0359533504
3263.5420751952	0.0359237865
3265.4708825682	0.0358120389
3267.3996899413	0.0357888453
3269.3284973143	0.0357725769
3271.2573046874	0.0357340798
3273.1861120604	0.0354628637
3275.1149194335	0.0355244391
3277.0437268065	0.0356714018
3278.9725341796	0.0355460718
3280.9013415526	0.0355106108
3282.8301489257	0.0353099033
3284.7589562987	0.0353165343
3286.6877636717	0.0353564993
3288.6165710448	0.0353181884
3290.5453784178	0.0353001282
3292.4741857909	0.0351482779
3294.4029931639	0.0350998119
3296.3318005370	0.0350823551
3298.2606079100	0.0350848585
3300.1894152831	0.0350195803
3302.1182226561	0.0349568427
3304.0470300292	0.0348924547
3305.9758374022	0.0348704085
3307.9046447753	0.0348245390
3309.8334521483	0.0347274989
3311.7622595214	0.0347264409
3313.6910668944	0.0346742868
3315.6198742675	0.0346704796
3317.5486816405	0.0345740393
3319.4774890135	0.0345673077
3321.4062963866	0.0345845558
3323.3351037596	0.0345360897
3325.2639111327	0.0343678184
3327.1927185057	0.0342149585
3329.1215258788	0.0343813822
3331.0503332518	0.0341629982
3332.9791406249	0.0341668203
3334.9079479979	0.0342016518
3336.8367553710	0.0339426175
3338.7655627440	0.0339965783
3340.6943701171	0.0339285284
3342.6231774901	0.0339730717
3344.5519848632	0.0338651463
3346.4807922362	0.0337723121
3348.4095996092	0.0337813348
3350.3384069823	0.0336914770
3352.2672143553	0.0337292999
3354.1960217284	0.0335585065
3356.1248291014	0.0335024670
3358.0536364745	0.0334416926
3359.9824438475	0.0333326496
3361.9112512206	0.0332782269
3363.8400585936	0.0332402103
3365.7688659667	0.0331814699
3367.6976733397	0.0330892578
3369.6264807128	0.0331515893
3371.5552880858	0.0330559947
3373.4840954589	0.0329697654
3375.4129028319	0.0329182670
3377.3417102049	0.0329516456
3379.2705175780	0.0328568146
3381.1993249510	0.0327478610
3383.1281323241	0.0328065455
3385.0569396971	0.0325200781
3386.9857470702	0.0325159393
3388.9145544432	0.0326078348
3390.8433618163	0.0324464068
3392.7721691893	0.0322741456
3394.7009765624	0.0322617404
3396.6297839354	0.0323123783
3398.5585913085	0.0320972204
3400.4873986815	0.0320897028
3402.4162060546	0.0320297331
3404.3450134276	0.0319621712
3406.2738208006	0.0320425332
3408.2026281737	0.0319750160
3410.1314355467	0.0319181606
3412.0602429198	0.0318738073
3413.9890502928	0.0317755789
3415.9178576659	0.0316706300
3417.8466650389	0.0316998549
3419.7754724120	0.0315182097
3421.7042797850	0.0313566327
3423.6330871581	0.0314402394
3425.5618945311	0.0314227194
3427.4907019042	0.0312865451
3429.4195092772	0.0311915968
3431.3483166503	0.0311388690
3433.2771240233	0.0310664587
3435.2059313963	0.0311389156
3437.1347387694	0.0310220681
3439.0635461424	0.0310236942
3440.9923535155	0.0309330598
3442.9211608885	0.0307681412
3444.8499682616	0.0308564566
3446.7787756346	0.0305250026
3448.7075830077	0.0305681787
3450.6363903807	0.0306876022
3452.5651977538	0.0305952728
3454.4940051268	0.0306622460
3456.4228124999	0.0305850003
3458.3516198729	0.0305343345
3460.2804272460	0.0303828381
3462.2092346190	0.0304156393
3464.1380419921	0.0304443464
3466.0668493651	0.0304619577
3467.9956567381	0.0303418040
3469.9244641112	0.0302660391
3471.8532714842	0.0303419568
3473.7820788573	0.0300312079
3475.7108862303	0.0300960541
3477.6396936034	0.0301936828
3479.5685009764	0.0300461631
3481.4973083495	0.0298580416
3483.4261157225	0.0299254451
3485.3549230956	0.0300535448
3487.2837304686	0.0297683664
3489.2125378417	0.0298926104
3491.1413452147	0.0299278013
3493.0701525878	0.0299145319
3494.9989599608	0.0299572796
3496.9277673338	0.0297606643
3498.8565747069	0.0298441201
3500.7853820799	0.0298717543
3502.7141894530	0.0294745676
3504.6429968260	0.0293777045
3506.5718041991	0.0298206098
3508.5006115721	0.0295801815
3510.4294189452	0.0294183753
3512.3582263182	0.0296754278
3514.2870336913	0.0298282448
3516.2158410643	0.0299021602
3518.1446484374	0.0295429565
3520.0734558104	0.0296579674
3522.0022631835	0.0294898003
3523.9310705565	0.0291034915
3525.8598779295	0.0292825457
3527.7886853026	0.0292572938
3529.7174926756	0.0293042473
3531.6463000487	0.0295174271
3533.5751074217	0.0296825524
3535.5039147948	0.0294109695
3537.4327221678	0.0292792954
3539.3615295409	0.0295566022
3541.2903369139	0.0294579975
3543.2191442870	0.0293271393
3545.1479516600	0.0289669260
3547.0767590331	0.0285447836
3549.0055664061	0.0291896351
3550.9343737792	0.0293123126
3552.8631811522	0.0287634805
3554.7919885252	0.0293781701
3556.7207958983	0.0293763727
3558.6496032713	0.0291427840
3560.5784106444	0.0291329827
3562.5072180174	0.0289203972
3564.4360253905	0.0291544423
3566.3648327635	0.0276790932
3568.2936401366	0.0270764418
3570.2224475096	0.0288076624
3572.1512548827	0.0292438492
3574.0800622557	0.0289997682
3576.0088696288	0.0291035175
3577.9376770018	0.0289912615
3579.8664843749	0.0290117674
3581.7952917479	0.0289520789
3583.7240991210	0.0290165450
3585.6529064940	0.0286556073
3587.5817138670	0.0267715901
3589.5105212401	0.0272406396
3591.4393286131	0.0291745290
3593.3681359862	0.0284953509
3595.2969433592	0.0281198472
3597.2257507323	0.0285286419
3599.1545581053	0.0286322068
3601.0833654784	0.0285650454
3603.0121728514	0.0286996104
3604.9409802245	0.0290733352
3606.8697875975	0.0283788927
3608.7985949706	0.0269931257
3610.7274023436	0.0272829104
3612.6562097167	0.0278412532
3614.5850170897	0.0273607988
3616.5138244627	0.0287493411
3618.4426318358	0.0271308608
3620.3714392088	0.0264015459
3622.3002465819	0.0289062578
3624.2290539549	0.0283044912
3626.1578613280	0.0292772036
3628.0866687010	0.0257842094
3630.0154760741	0.0239310339
3631.9442834471	0.0286324620
3633.8730908202	0.0280518755
3635.8018981932	0.0283465236
3637.7307055663	0.0288361348
3639.6595129393	0.0284570679
3641.5883203124	0.0287417695
3643.5171276854	0.0283572301
3645.4459350584	0.0287192315
3647.3747424315	0.0264357291
3649.3035498045	0.0245937463
3651.2323571776	0.0249424130
3653.1611645506	0.0283299871
3655.0899719237	0.0280390009
3657.0187792967	0.0258806497
3658.9475866698	0.0288058575
3660.8763940428	0.0282890052
3662.8052014159	0.0285955332
3664.7340087889	0.0284678284
3666.6628161620	0.0282886326
3668.5916235350	0.0277036354
3670.5204309081	0.0235265158
3672.4492382811	0.0272668358
3674.3780456541	0.0263288021
3676.3068530272	0.0226852521
3678.2356604002	0.0270633213
3680.1644677733	0.0275978260
3682.0932751463	0.0276452415
3684.0220825194	0.0282462314
3685.9508898924	0.0278430954
3687.8796972655	0.0256147608
3689.8085046385	0.0239387117
3691.7373120116	0.0266616717
3693.6661193846	0.0271799657
3695.5949267577	0.0276128892
3697.5237341307	0.0276747197
3699.4525415038	0.0273841619
3701.3813488768	0.0269187503
3703.3101562499	0.0260773934
3705.2389636229	0.0280191861
3707.1677709959	0.0269862618
3709.0965783690	0.0265641361
3711.0253857420	0.0253280587
3712.9541931151	0.0239560381
3714.8830004881	0.0271568913
3716.8118078612	0.0268443152
3718.7406152342	0.0270132385
3720.6694226073	0.0265156459
3722.5982299803	0.0257995222
3724.5270373534	0.0266709141
3726.4558447264	0.0250810068
3728.3846520995	0.0266136676
3730.3134594725	0.0263048392
3732.2422668456	0.0246921238
3734.1710742186	0.0242590681
3736.0998815916	0.0233743414
3738.0286889647	0.0243516676
3739.9574963377	0.0258208141
3741.8863037108	0.0269748494
3743.8151110838	0.0218817964
3745.7439184569	0.0208500400
3747.6727258299	0.0257873088
3749.6015332030	0.0227557756
3751.5303405760	0.0212705936
3753.4591479491	0.0238150619
3755.3879553221	0.0252980739
3757.3167626952	0.0259881932
3759.2455700682	0.0245519467
3761.1743774413	0.0252226070
3763.1031848143	0.0263459552
3765.0319921873	0.0251164548
3766.9607995604	0.0254999660
3768.8896069334	0.0251995847
3770.8184143065	0.0242930502
3772.7472216795	0.0257414505
3774.6760290526	0.0257106945
3776.6048364256	0.0257912017
3778.5336437987	0.0252423733
3780.4624511717	0.0245066620
3782.3912585448	0.0257481858
3784.3200659178	0.0251544788
3786.2488732909	0.0251186639
3788.1776806639	0.0254923552
3790.1064880370	0.0254108980
3792.0352954100	0.0252546053
3793.9641027830	0.0255245827
3795.8929101561	0.0243800189
3797.8217175291	0.0241118893
3799.7505249022	0.0251412820
3801.6793322752	0.0208601952
3803.6081396483	0.0237114001
3805.5369470213	0.0252857991
3807.4657543944	0.0214107707
3809.3945617674	0.0250717141
3811.3233691405	0.0246080440
3813.2521765135	0.0251930226
3815.1809838866	0.0231971908
3817.1097912596	0.0209980942
3819.0385986327	0.0252009686
3820.9674060057	0.0213188827
3822.8962133787	0.0222101472
3824.8250207518	0.0250174552
3826.7538281248	0.0231030770
3828.6826354979	0.0244462471
3830.6114428709	0.0237229206
3832.5402502440	0.0230477378
3834.4690576170	0.0234743040
3836.3978649901	0.0225063674
3838.3266723631	0.0206677690
3840.2554797362	0.0222884268
3842.1842871092	0.0235560760
3844.1130944823	0.0225402229
3846.0419018553	0.0240560994
3847.9707092284	0.0237138011
3849.8995166014	0.0238162000
3851.8283239745	0.0218409225
3853.7571313475	0.0173528679
3855.6859387205	0.0197697692
3857.6147460936	0.0237863548
3859.5435534666	0.0232679062
3861.4723608397	0.0230820552
3863.4011682127	0.0226908997
3865.3299755858	0.0213872045
3867.2587829588	0.0232830849
3869.1875903319	0.0216068830
3871.1163977049	0.0203211755
3873.0452050780	0.0232363883
3874.9740124510	0.0219125189
3876.9028198241	0.0231756289
3878.8316271971	0.0234098881
3880.7604345702	0.0208573714
3882.6892419432	0.0231782123
3884.6180493162	0.0219778046
3886.5468566893	0.0205839239
3888.4756640623	0.0232069679
3890.4044714354	0.0221435837
3892.3332788084	0.0210539438
3894.2620861815	0.0227019787
3896.1908935545	0.0229959600
3898.1197009276	0.0221314766
3900.0485083006	0.0212454200
3901.9773156737	0.0209676214
3903.9061230467	0.0207545944
3905.8349304198	0.0210183449
3907.7637377928	0.0225097649
3909.6925451659	0.0225685239
3911.6213525389	0.0222825501
3913.5501599119	0.0225736350
3915.4789672850	0.0220579728
3917.4077746580	0.0215261020
3919.3365820311	0.0214874912
3921.2653894041	0.0220450610
3923.1941967772	0.0218815394
3925.1230041502	0.0215766206
3927.0518115233	0.0219885986
3928.9806188963	0.0220791157
3930.9094262694	0.0216464959
3932.8382336424	0.0212083124
3934.7670410155	0.0218204521
3936.6958483885	0.0219617654
3938.6246557616	0.0216195583
3940.5534631346	0.0217626784
3942.4822705076	0.0212248787
3944.4110778807	0.0212913081
3946.3398852537	0.0216242038
3948.2686926268	0.0212238729
3950.1974999998	0.0213216692
3952.1263073729	0.0214792415
3954.0551147459	0.0214419980
3955.9839221190	0.0213671252
3957.9127294920	0.0212926269
3959.8415368651	0.0213874970
3961.7703442381	0.0211783834
3963.6991516112	0.0211458169
3965.6279589842	0.0212900136
3967.5567663573	0.0212175343
3969.4855737303	0.0211366154
3971.4143811034	0.0210979991
3973.3431884764	0.0210867170
3975.2719958494	0.0208549313
3977.2008032225	0.0209572390
3979.1296105955	0.0209926628
3981.0584179686	0.0207439810
3982.9872253416	0.0208955929
3984.9160327147	0.0207490139
3986.8448400877	0.0206702780
3988.7736474608	0.0207487457
3990.7024548338	0.0205470547
3992.6312622069	0.0205698535
3994.5600695799	0.0205420591
3996.4888769530	0.0204311013
3998.4176843260	0.0205365643
4000.3464916991	0.0205043573
4002.2752990721	0.0203733668
4004.2041064451	0.0204457454
4006.1329138182	0.0204088110
4008.0617211912	0.0203250442
4009.9905285643	0.0202958174
4011.9193359373	0.0202720724
4013.8481433104	0.0202183202
4015.7769506834	0.0200863928
4017.7057580565	0.0201181173
4019.6345654295	0.0199801028
4021.5633728026	0.0199471377
4023.4921801756	0.0200488176
4025.4209875487	0.0198964309
4027.3497949217	0.0198866278
4029.2786022948	0.0198864788
4031.2074096678	0.0198410116
4033.1362170408	0.0197347812
4035.0650244139	0.0196855739
4036.9938317869	0.0197213143
4038.9226391600	0.0196139514
4040.8514465330	0.0196025986
4042.7802539061	0.0195501409
4044.7090612791	0.0195039622
4046.6378686522	0.0195443351
4048.5666760252	0.0194311012
4050.4954833983	0.0193692632
4052.4242907713	0.0193893369
4054.3530981444	0.0193501823
4056.2819055174	0.0193124413
4058.2107128905	0.0192285553
4060.1395202635	0.0191503018
4062.0683276365	0.0190968532
4063.9971350096	0.0191189740
4065.9259423826	0.0191106685
4067.8547497557	0.0189900771
4069.7835571287	0.0190664120
4071.7123645018	0.0190039035
4073.6411718748	0.0188996568
4075.5699792479	0.0189661533
4077.4987866209	0.0188792162
4079.4275939940	0.0188319795
4081.3564013670	0.0188032053
4083.2852087401	0.0187472478
4085.2140161131	0.0186903775
4087.1428234862	0.0186844151
4089.0716308592	0.0186354201
4091.0004382323	0.0186414234
4092.9292456053	0.0186306983
4094.8580529783	0.0184430815
4096.7868603514	0.0184813831
4098.7156677244	0.0184218977
4100.6444750975	0.0184339285
4102.5732824705	0.0184307080
4104.5020898436	0.0182988457
4106.4308972166	0.0183729455
4108.3597045897	0.0182679333
4110.2885119627	0.0182782449
4112.2173193358	0.0182116795
4114.1461267088	0.0180827044
4116.0749340819	0.0181148630
4118.0037414549	0.0180904325
4119.9325488280	0.0180092379
4121.8613562010	0.0179234892
4123.7901635740	0.0180389620
4125.7189709471	0.0179469809
4127.6477783201	0.0179137439
4129.5765856932	0.0179502107
4131.5053930662	0.0178540982
4133.4342004393	0.0177898444
4135.3630078123	0.0176203549
4137.2918151854	0.0176243596
4139.2206225584	0.0176416077
4141.1494299315	0.0176656283
4143.0782373045	0.0176215917
4145.0070446776	0.0175530091
4146.9358520506	0.0174893066
4148.8646594237	0.0174730681
4150.7934667967	0.0175318979
4152.7222741697	0.0173624270
4154.6510815428	0.0174326226
4156.5798889158	0.0173201971
4158.5086962889	0.0172111727
4160.4375036619	0.0173226111
4162.3663110350	0.0171675533
4164.2951184080	0.0171231981
4166.2239257811	0.0170559548
4168.1527331541	0.0171372313
4170.0815405272	0.0171282608
4172.0103479002	0.0169656891
4173.9391552733	0.0169478562
4175.8679626463	0.0169367995
4177.7967700194	0.0169523135
4179.7255773924	0.0168908965
4181.6543847654	0.0169361122
4183.5831921385	0.0168717280
4185.5119995115	0.0167608783
4187.4408068846	0.0167428926
4189.3696142576	0.0167050008
4191.2984216307	0.0167068355
4193.2272290037	0.0166494995
4195.1560363768	0.0165305138
4197.0848437498	0.0164909642
4199.0136511229	0.0165612362
4200.9424584959	0.0164462812
4202.8712658690	0.0164705552
4204.8000732420	0.0164920501
4206.7288806151	0.0164045170
4208.6576879881	0.0163593218
4210.5864953611	0.0162171908
4212.5153027342	0.0162509866
4214.4441101072	0.0161758065
4216.3729174803	0.0162382089
4218.3017248533	0.0162854828
4220.2305322264	0.0162050147
4222.1593395994	0.0161722209
4224.0881469725	0.0160092488
4226.0169543455	0.0160277728
4227.9457617186	0.0159260631
4229.8745690916	0.0159634538
4231.8033764647	0.0159665160
4233.7321838377	0.0158645920
4235.6609912108	0.0159158166
4237.5897985838	0.0158246830
4239.5186059569	0.0158312395
4241.4474133299	0.0157572348
4243.3762207029	0.0157406107
4245.3050280760	0.0157022551
4247.2338354490	0.0157019142
4249.1626428221	0.0156475920
4251.0914501951	0.0154892709
4253.0202575682	0.0156067107
4254.9490649412	0.0155457482
4256.8778723143	0.0155673884
4258.8066796873	0.0155313741
4260.7354870604	0.0154157644
4262.6642944334	0.0153747592
4264.5931018065	0.0152900964
4266.5219091795	0.0153566059
4268.4507165526	0.0152903870
4270.3795239256	0.0153206196
4272.3083312986	0.0153272878
4274.2371386717	0.0152378958
4276.1659460447	0.0151733179
4278.0947534178	0.0151489936
4280.0235607908	0.0151546616
4281.9523681639	0.0151073085
4283.8811755369	0.0151422713
4285.8099829100	0.0150248110
4287.7387902830	0.0149883553
4289.6675976561	0.0149290804
4291.5964050291	0.0149196368
4293.5252124022	0.0150092524
4295.4540197752	0.0148605462
4297.3828271483	0.0147990724
4299.3116345213	0.0148003539
4301.2404418943	0.0148053616
4303.1692492674	0.0147560351
4305.0980566404	0.0147394296
4307.0268640135	0.0146642160
4308.9556713865	0.0145974457
4310.8844787596	0.0146091226
4312.8132861326	0.0145882498
4314.7420935057	0.0145912990
4316.6709008787	0.0144590093
4318.5997082518	0.0145208258
4320.5285156248	0.0144216595
4322.4573229979	0.0143424943
4324.3861303709	0.0143625699
4326.3149377440	0.0142787257
4328.2437451170	0.0143646589
4330.1725524900	0.0142093860
4332.1013598631	0.0143158007
4334.0301672361	0.0142053040
4335.9589746092	0.0141170546
4337.8877819822	0.0143462922
4339.8165893553	0.0141006541
4341.7453967283	0.0141269425
4343.6742041014	0.0141089056
4345.6030114744	0.0140073309
4347.5318188475	0.0139529221
4349.4606262205	0.0138831623
4351.3894335936	0.0139109064
4353.3182409666	0.0138420314
4355.2470483397	0.0139156245
4357.1758557127	0.0137856472
4359.1046630858	0.0138051463
4361.0334704588	0.0138494577
4362.9622778318	0.0137344953
4364.8910852049	0.0137605537
4366.8198925779	0.0136421192
4368.7486999510	0.0136677679
4370.6775073240	0.0137500763
4372.6063146971	0.0136748925
4374.5351220701	0.0135723725
4376.4639294432	0.0135788228
4378.3927368162	0.0134718046
4380.3215441893	0.0134330420
4382.2503515623	0.0135258101
4384.1791589354	0.0133664347
4386.1079663084	0.0133773265
4388.0367736815	0.0134135354
4389.9655810545	0.0133727789
4391.8943884275	0.0133203967
4393.8231958006	0.0132112671
4395.7520031736	0.0131844515
4397.6808105467	0.0131912790
4399.6096179197	0.0132127693
4401.5384252928	0.0131332949
4403.4672326658	0.0131318122
4405.3960400389	0.0130905407
4407.3248474119	0.0130593209
4409.2536547850	0.0130740339
4411.1824621580	0.0130342590
4413.1112695311	0.0130297299
4415.0400769041	0.0129165873
4416.9688842772	0.0129569359
4418.8976916502	0.0129702240
4420.8264990232	0.0128665045
4422.7553063963	0.0128097143
4424.6841137693	0.0128249023
4426.6129211424	0.0128692463
4428.5417285154	0.0127363373
4430.4705358885	0.0127422139
4432.3993432615	0.0127693545
4434.3281506346	0.0127024073
4436.2569580076	0.0126399016
4438.1857653807	0.0125431353
4440.1145727537	0.0125174746
4442.0433801268	0.0125146136
4443.9721874998	0.0125106480
4445.9009948729	0.0124651007
4447.8298022459	0.0124788322
4449.7586096189	0.0124441870
4451.6874169920	0.0123734018
4453.6162243650	0.0123939496
4455.5450317381	0.0123405661
4457.4738391111	0.0123550687
4459.4026464842	0.0123661030
4461.3314538572	0.0121883992
4463.2602612303	0.0121780839
4465.1890686033	0.0122518465
4467.1178759764	0.0121227223
4469.0466833494	0.0121418349
4470.9754907225	0.0121319117
4472.9042980955	0.0120644625
4474.8331054686	0.0120938225
4476.7619128416	0.0120377839
4478.6907202147	0.0120788068
4480.6195275877	0.0120133869
4482.5483349607	0.0119327791
4484.4771423338	0.0119255390
4486.4059497068	0.0119426642
4488.3347570799	0.0119812712
4490.2635644529	0.0118542472
4492.1923718260	0.0118388748
4494.1211791990	0.0117771430
4496.0499865721	0.0117208334
4497.9787939451	0.0117444983
4499.9076013182	0.0117259342
4501.8364086912	0.0117479013
4503.7652160643	0.0116767958
4505.6940234373	0.0116344709
4507.6228308104	0.0115629230
4509.5516381834	0.0115676615
4511.4804455564	0.0115807503
4513.4092529295	0.0114926193
4515.3380603025	0.0114527401
4517.2668676756	0.0114459088
4519.1956750486	0.0115195708
4521.1244824217	0.0114616426
4523.0532897947	0.0114430962
4524.9820971678	0.0113707222
4526.9109045408	0.0112684211
4528.8397119139	0.0113502648
4530.7685192869	0.0112757217
4532.6973266600	0.0113010760
4534.6261340330	0.0113010854
4536.5549414061	0.0111761196
4538.4837487791	0.0111836549
4540.4125561521	0.0111715999
4542.3413635252	0.0111715123
4544.2701708982	0.0111649353
4546.1989782713	0.0111249592
4548.1277856443	0.0110475188
4550.0565930174	0.0110130552
4551.9854003904	0.0110005792
4553.9142077635	0.0109759718
4555.8430151365	0.0109637361
4557.7718225096	0.0109061226
4559.7006298826	0.0109268939
4561.6294372557	0.0108705563
4563.5582446287	0.0108135622
4565.4870520018	0.0108537115
4567.4158593748	0.0107739810
4569.3446667478	0.0107008070
4571.2734741209	0.0107009364
4573.2022814939	0.0106727723
4575.1310888670	0.0106028402
4577.0598962400	0.0106647834
4578.9887036131	0.0106264111
4580.9175109861	0.0105345948
4582.8463183592	0.0106496550
4584.7751257322	0.0105806785
4586.7039331053	0.0105834343
4588.6327404783	0.0105667897
4590.5615478514	0.0104007209
4592.4903552244	0.0104165114
4594.4191625975	0.0104034105
4596.3479699705	0.0104442555
4598.2767773435	0.0103761610
4600.2055847166	0.0103317713
4602.1343920896	0.0103342682
4604.0631994627	0.0102647133
4605.9920068357	0.0103861988
4607.9208142088	0.0103607327
4609.8496215818	0.0103271538
4611.7784289549	0.0102320854
4613.7072363279	0.0101283565
4615.6360437010	0.0101631833
4617.5648510740	0.0101253297
4619.4936584471	0.0101297945
4621.4224658201	0.0100138532
4623.3512731932	0.0100773536
4625.2800805662	0.0100749433
4627.2088879393	0.0099946503
4629.1376953123	0.0100543834
4631.0665026853	0.0099199358
4632.9953100584	0.0100248354
4634.9241174314	0.0099911205
4636.8529248045	0.0098342430
4638.7817321775	0.0099078827
4640.7105395506	0.0098766200
4642.6393469236	0.0098619740
4644.5681542967	0.0098574096
4646.4969616697	0.0098103927
4648.4257690428	0.0097515192
4650.3545764158	0.0097947922
4652.2833837889	0.0097520109
4654.2121911619	0.0096840896
4656.1409985350	0.0096870549
4658.0698059080	0.0095906025
4659.9986132810	0.0096501168
4661.9274206541	0.0097147711
4663.8562280271	0.0096545108
4665.7850354002	0.0095517365
4667.7138427732	0.0095408782
4669.6426501463	0.0095679788
4671.5714575193	0.0095087253
4673.5002648924	0.0094722286
4675.4290722654	0.0094073024
4677.3578796385	0.0094054025
4679.2866870115	0.0094614737
4681.2154943846	0.0095076542
4683.1443017576	0.0093926890
4685.0731091307	0.0093333591
4687.0019165037	0.0093550654
4688.9307238767	0.0092463410
4690.8595312498	0.0093461396
4692.7883386228	0.0093850465
4694.7171459959	0.0092830630
4696.6459533689	0.0092363115
4698.5747607420	0.0092299283
4700.5035681150	0.0092278160
4702.4323754881	0.0091429828
4704.3611828611	0.0091224248
4706.2899902342	0.0091503011
4708.2187976072	0.0091911498
4710.1476049803	0.0091199409
4712.0764123533	0.0090366323
4714.0052197264	0.0089942701
4715.9340270994	0.0089929029
4717.8628344724	0.0089947972
4719.7916418455	0.0088809356
4721.7204492185	0.0089321863
4723.6492565916	0.0089668110
4725.5780639646	0.0089768283
4727.5068713377	0.0089444220
4729.4356787107	0.0088275727
4731.3644860838	0.0088415612
4733.2932934568	0.0088414084
4735.2221008299	0.0088191591
4737.1509082029	0.0087443125
4739.0797155760	0.0087957485
4741.0085229490	0.0088121034
4742.9373303221	0.0087494291
4744.8661376951	0.0087722000
4746.7949450682	0.0086616706
4748.7237524412	0.0086409487
4750.6525598142	0.0086537823
4752.5813671873	0.0086342394
4754.5101745603	0.0086378977
4756.4389819334	0.0086181741
4758.3677893064	0.0085958242
4760.2965966795	0.0085269418
4762.2254040525	0.0085376371
4764.1542114256	0.0085194418
4766.0830187986	0.0084450562
4768.0118261717	0.0085105095
4769.9406335447	0.0085104704
4771.8694409178	0.0084106550
4773.7982482908	0.0084572593
4775.7270556639	0.0083384812
4777.6558630369	0.0082958201
4779.5846704099	0.0083889896
4781.5134777830	0.0082681468
4783.4422851560	0.0083180889
4785.3710925291	0.0082581714
4787.2998999021	0.0082415268
4789.2287072752	0.0083118612
4791.1575146482	0.0081947986
4793.0863220213	0.0082392003
4795.0151293943	0.0082552619
4796.9439367674	0.0082040187
4798.8727441404	0.0081026945
4800.8015515135	0.0081379805
4802.7303588865	0.0081547946
4804.6591662596	0.0080996500
4806.5879736326	0.0081278542
4808.5167810056	0.0080239708
4810.4455883787	0.0080687534
4812.3743957517	0.0080241002
4814.3032031248	0.0079883095
4816.2320104978	0.0080107823
4818.1608178709	0.0079259668
4820.0896252439	0.0079137441
4822.0184326170	0.0079118703
4823.9472399900	0.0079729687
4825.8760473631	0.0078528300
4827.8048547361	0.0078389812
4829.7336621092	0.0078382697
4831.6624694822	0.0078259679
4833.5912768553	0.0078970026
4835.5200842283	0.0077290814
4837.4488916013	0.0077884514
4839.3776989744	0.0077823247
4841.3065063474	0.0076966835
4843.2353137205	0.0076925843
4845.1641210935	0.0076821167
4847.0929284666	0.0077466937
4849.0217358396	0.0075661261
4850.9505432127	0.0075559244
4852.8793505857	0.0076623429
4854.8081579588	0.0075675198
4856.7369653318	0.0075631104
4858.6657727049	0.0076432345
4860.5945800779	0.0076107918
4862.5233874510	0.0076086204
4864.4521948240	0.0075770644
4866.3810021971	0.0074270093
4868.3098095701	0.0075084344
4870.2386169431	0.0075083151
4872.1674243162	0.0074429605
4874.0962316892	0.0074096471
4876.0250390623	0.0073395120
4877.9538464353	0.0074215378
4879.8826538084	0.0074118041
4881.8114611814	0.0073983907
4883.7402685545	0.0073406706
4885.6690759275	0.0072873575
4887.5978833006	0.0072895335
4889.5266906736	0.0072384113
4891.4554980467	0.0072548781
4893.3843054197	0.0072435476
4895.3131127928	0.0072743194
4897.2419201658	0.0072918283
4899.1707275388	0.0072476128
4901.0995349119	0.0072037382
4903.0283422849	0.0071844021
4904.9571496580	0.0071304948
4906.8859570310	0.0070692259
4908.8147644041	0.0070997970
4910.7435717771	0.0070857238
4912.6723791502	0.0070744678
4914.6011865232	0.0070909415
4916.5299938963	0.0071605500
4918.4588012693	0.0070902165
4920.3876086424	0.0069821700
4922.3164160154	0.0069958121
4924.2452233885	0.0069291713
4926.1740307615	0.0069815433
4928.1028381345	0.0069765998
4930.0316455076	0.0069485223
4931.9604528806	0.0069634756
4933.8892602537	0.0068908427
4935.8180676267	0.0068833362
4937.7468749998	0.0068565542
4939.6756823728	0.0068201954
4941.6044897459	0.0067594908
4943.5332971189	0.0067953756
4945.4621044920	0.0067818947
4947.3909118650	0.0067252945
4949.3197192381	0.0067437170
4951.2485266111	0.0066433474
4953.1773339842	0.0066965986
4955.1061413572	0.0067035994
4957.0349487302	0.0066675344
4958.9637561033	0.0067167366
4960.8925634763	0.0066351364
4962.8213708494	0.0066265380
4964.7501782224	0.0066135582
4966.6789855955	0.0066162897
4968.6077929685	0.0066353753
4970.5366003416	0.0065839747
4972.4654077146	0.0065665953
4974.3942150877	0.0065611685
4976.3230224607	0.0065558851
4978.2518298338	0.0065240385
4980.1806372068	0.0065337643
4982.1094445799	0.0064894967
4984.0382519529	0.0064532058
4985.9670593259	0.0065207290
4987.8958666990	0.0064964327
4989.8246740720	0.0064580417
4991.7534814451	0.0064133583
4993.6822888181	0.0063914419
4995.6110961912	0.0063851858
4997.5399035642	0.0063466853
4999.4687109373	0.0063706273
5001.3975183103	0.0063324641
5003.3263256834	0.0063345199
5005.2551330564	0.0063249180
5007.1839404295	0.0062229056
5009.1127478025	0.0062220460
5011.0415551756	0.0062287068
5012.9703625486	0.0062560583
5014.8991699217	0.0062385472
5016.8279772947	0.0061833039
5018.7567846677	0.0061588590
5020.6855920408	0.0060749236
5022.6143994138	0.0061073834
5024.5432067869	0.0062180846
5026.4720141599	0.0062252311
5028.4008215330	0.0061732898
5030.3296289060	0.0061657452
5032.2584362791	0.0061120493
5034.1872436521	0.0060710106
5036.1160510252	0.0061112167
5038.0448583982	0.0060195988
5039.9736657713	0.0060010599
5041.9024731443	0.0060563395
5043.8312805174	0.0060218559
5045.7600878904	0.0059949472
5047.6888952634	0.0059232395
5049.6177026365	0.0058991611
5051.5465100095	0.0059360573
5053.4753173826	0.0058889035
5055.4041247556	0.0058537256
5057.3329321287	0.0059081563
5059.2617395017	0.0058765411
5061.1905468748	0.0058570476
5063.1193542478	0.0058551310
5065.0481616209	0.0057824552
5066.9769689939	0.0057996335
5068.9057763670	0.0057575470
5070.8345837400	0.0057896394
5072.7633911131	0.0058437306
5074.6921984861	0.0057361610
5076.6210058591	0.0057499614
5078.5498132322	0.0057135676
5080.4786206052	0.0056699603
5082.4074279783	0.0057620346
5084.3362353513	0.0057389271
5086.2650427244	0.0057079345
5088.1938500974	0.0057036513
5090.1226574705	0.0056332061
5092.0514648435	0.0056136115
5093.9802722166	0.0056175701
5095.9090795896	0.0055928621
5097.8378869627	0.0055525973
5099.7666943357	0.0055568647
5101.6955017088	0.0055328598
5103.6243090818	0.0054721399
5105.5531164548	0.0055429777
5107.4819238279	0.0055143936
5109.4107312009	0.0055171857
5111.3395385740	0.0055759121
5113.2683459470	0.0054637631
5115.1971533201	0.0054213163
5117.1259606931	0.0053981538
5119.0547680662	0.0054678358
5120.9835754392	0.0054904278
5122.9123828123	0.0054257796
5124.8411901853	0.0054367995
5126.7699975584	0.0054031839
5128.6988049314	0.0054277051
5130.6276123045	0.0053736744
5132.5564196775	0.0053522736
5134.4852270506	0.0053106733
5136.4140344236	0.0053010909
5138.3428417966	0.0053448537
5140.2716491697	0.0051702876
5142.2004565427	0.0052420609
5144.1292639158	0.0052900095
5146.0580712888	0.0051939981
5147.9868786619	0.0052474774
5149.9156860349	0.0051999334
5151.8444934080	0.0052086255
5153.7733007810	0.0052980660
5155.7021081541	0.0052575469
5157.6309155271	0.0051246588
5159.5597229002	0.0051133316
5161.4885302732	0.0051985472
5163.4173376463	0.0052158423
5165.3461450193	0.0050853305
5167.2749523923	0.0050588693
5169.2037597654	0.0051703500
5171.1325671384	0.0050945189
5173.0613745115	0.0050683869
5174.9901818845	0.0050719157
5176.9189892576	0.0050535728
5178.8477966306	0.0050178333
5180.7766040037	0.0049965749
5182.7054113767	0.0050547430
5184.6342187498	0.0049596662
5186.5630261228	0.0049664015
5188.4918334959	0.0049883183
5190.4206408689	0.0049235201
5192.3494482420	0.0049076537
5194.2782556150	0.0049125482
5196.2070629880	0.0049485918
5198.1358703611	0.0048941411
5200.0646777341	0.0049002171
5201.9934851072	0.0049050353
5203.9222924802	0.0049118046
5205.8510998533	0.0048618084
5207.7799072263	0.0046944218
5209.7087145994	0.0047771637
5211.6375219724	0.0048915423
5213.5663293455	0.0048341793
5215.4951367185	0.0048240409
5217.4239440916	0.0048194877
5219.3527514646	0.0047681527
5221.2815588377	0.0048147324
5223.2103662107	0.0048294473
5225.1391735837	0.0047741989
5227.0679809568	0.0047631827
5228.9967883298	0.0047392421
5230.9255957029	0.0047364701
5232.8544030759	0.0046953727
5234.7832104490	0.0047004949
5236.7120178220	0.0046816124
5238.6408251951	0.0046442300
5240.5696325681	0.0047364477
5242.4984399412	0.0046874704
5244.4272473142	0.0046076789
5246.3560546873	0.0045717936
5248.2848620603	0.0044509070
5250.2136694334	0.0045285742
5252.1424768064	0.0046814177
5254.0712841795	0.0045838486
5256.0000915525	0.0045026429
5257.9288989255	0.0045098127
5259.8577062986	0.0045549395
5261.7865136716	0.0045398753
5263.7153210447	0.0043573128
5265.6441284177	0.0044002067
5267.5729357908	0.0044767563
5269.5017431638	0.0044279965
5271.4305505369	0.0044558598
5273.3593579099	0.0044330554
5275.2881652830	0.0043880949
5277.2169726560	0.0043681008
5279.1457800291	0.0043928791
5281.0745874021	0.0044249920
5283.0033947752	0.0044596381
5284.9322021482	0.0044090804
5286.8610095212	0.0044022198
5288.7898168943	0.0044113379
5290.7186242673	0.0042683901
5292.6474316404	0.0043065911
5294.5762390134	0.0043599871
5296.5050463865	0.0043546082
5298.4338537595	0.0044054855
5300.3626611326	0.0043829856
5302.2914685056	0.0043209847
5304.2202758787	0.0043377234
5306.1490832517	0.0043058544
5308.0778906248	0.0041874009
5310.0066979978	0.0042986413
5311.9355053709	0.0042604813
5313.8643127439	0.0041741515
5315.7931201169	0.0042371834
5317.7219274900	0.0042222273
5319.6507348630	0.0042827968
5321.5795422361	0.0042051002
5323.5083496091	0.0041970080
5325.4371569822	0.0042430153
5327.3659643552	0.0041911015
5329.2947717283	0.0041960352
5331.2235791013	0.0041690562
5333.1523864744	0.0041456809
5335.0811938474	0.0041468977
5337.0100012205	0.0041397065
5338.9388085935	0.0040182117
5340.8676159666	0.0040939385
5342.7964233396	0.0041282251
5344.7252307126	0.0039717676
5346.6540380857	0.0040238826
5348.5828454587	0.0040380475
5350.5116528318	0.0040580546
5352.4404602048	0.0040314067
5354.3692675779	0.0039666137
5356.2980749509	0.0039662370
5358.2268823240	0.0039889137
5360.1556896970	0.0040515792
5362.0844970701	0.0039939829
5364.0133044431	0.0039014011
5365.9421118162	0.0039125318
5367.8709191892	0.0040063020
5369.7997265623	0.0039811842
5371.7285339353	0.0039652064
5373.6573413083	0.0038831502
5375.5861486814	0.0037932438
5377.5149560544	0.0038733208
5379.4437634275	0.0038598496
5381.3725708005	0.0039343927
5383.3013781736	0.0038831413
5385.2301855466	0.0037829862
5387.1589929197	0.0038306070
5389.0878002927	0.0038882729
5391.0166076658	0.0038747252
5392.9454150388	0.0037128776
5394.8742224119	0.0037728171
5396.8030297849	0.0037642727
5398.7318371580	0.0037472695
5400.6606445310	0.0038313209
5402.5894519041	0.0037313043
5404.5182592771	0.0037219520
5406.4470666501	0.0037462912
5408.3758740232	0.0037192847
5410.3046813962	0.0036975844
5412.2334887693	0.0037120678
5414.1622961423	0.0036693253
5416.0911035154	0.0036971562
5418.0199108884	0.0037246917
5419.9487182615	0.0036717595
5421.8775256345	0.0037043532
5423.8063330076	0.0036571841
5425.7351403806	0.0036951872
5427.6639477537	0.0036439099
5429.5927551267	0.0035570739
5431.5215624998	0.0036284062
5433.4503698728	0.0036422634
5435.3791772458	0.0035604918
5437.3079846189	0.0035133383
5439.2367919919	0.0035959648
5441.1655993650	0.0035080127
5443.0944067380	0.0035327969
5445.0232141111	0.0035456577
5446.9520214841	0.0035107236
5448.8808288572	0.0035515139
5450.8096362302	0.0033922270
5452.7384436033	0.0035291710
5454.6672509763	0.0035533486
5456.5960583494	0.0034447554
5458.5248657224	0.0035253945
5460.4536730955	0.0035014078
5462.3824804685	0.0034836160
5464.3112878415	0.0034119168
5466.2400952146	0.0034329873
5468.1689025876	0.0034194356
5470.0977099607	0.0033688343
5472.0265173337	0.0034462544
5473.9553247068	0.0034747440
5475.8841320798	0.0033656778
5477.8129394529	0.0033357604
5479.7417468259	0.0034676411
5481.6705541990	0.0034094276
5483.5993615720	0.0033586198
5485.5281689451	0.0033461491
5487.4569763181	0.0033315378
5489.3857836912	0.0033616256
5491.3145910642	0.0033194744
5493.2433984372	0.0032938118
5495.1722058103	0.0033091761
5497.1010131833	0.0033663609
5499.0298205564	0.0033100245
5500.9586279294	0.0033090489
5502.8874353025	0.0032900574
5504.8162426755	0.0032717767
5506.7450500486	0.0033309544
5508.6738574216	0.0032122643
5510.6026647947	0.0031815416
5512.5314721677	0.0032463332
5514.4602795408	0.0033038924
5516.3890869138	0.0032231091
5518.3178942869	0.0032305280
5520.2467016599	0.0033007739
5522.1755090330	0.0032054107
5524.1043164060	0.0032617804
5526.0331237790	0.0032237866
5527.9619311521	0.0032263198
5529.8907385251	0.0032311329
5531.8195458982	0.0031891488
5533.7483532712	0.0032558113
5535.6771606443	0.0031637927
5537.6059680173	0.0031286916
5539.5347753904	0.0031390591
5541.4635827634	0.0031455671
5543.3923901365	0.0031163499
5545.3211975095	0.0030910489
5547.2500048826	0.0031257349
5549.1788122556	0.0031318753
5551.1076196287	0.0030930429
5553.0364270017	0.0030619265
5554.9652343747	0.0031418609
5556.8940417478	0.0030335130
5558.8228491208	0.0030530207
5560.7516564939	0.0031232554
5562.6804638669	0.0030077950
5564.6092712400	0.0030229534
5566.5380786130	0.0029877536
5568.4668859861	0.0030181152
5570.3956933591	0.0029467470
5572.3245007322	0.0029386892
5574.2533081052	0.0030461187
5576.1821154783	0.0029944088
5578.1109228513	0.0030619993
5580.0397302244	0.0030226451
5581.9685375974	0.0029847249
5583.8973449704	0.0029912223
5585.8261523435	0.0029796970
5587.7549597165	0.0030229767
5589.6837670896	0.0029464131
5591.6125744626	0.0029216185
5593.5413818357	0.0029399907
5595.4701892087	0.0029474536
5597.3989965818	0.0029216828
5599.3278039548	0.0029023911
5601.2566113279	0.0029194034
5603.1854187009	0.0028971359
5605.1142260740	0.0028918493
5607.0430334470	0.0028926092
5608.9718408201	0.0028775586
5610.9006481931	0.0028212895
5612.8294555661	0.0028280304
5614.7582629392	0.0028580027
5616.6870703122	0.0028620097
5618.6158776853	0.0028575701
5620.5446850583	0.0028155688
5622.4734924314	0.0028192168
5624.4022998044	0.0028177649
5626.3311071775	0.0028393161
5628.2599145505	0.0028320323
5630.1887219236	0.0028045168
5632.1175292966	0.0027935198
5634.0463366697	0.0027479138
5635.9751440427	0.0027627158
5637.9039514158	0.0027318806
5639.8327587888	0.0027367300
5641.7615661619	0.0027960609
5643.6903735349	0.0027593272
5645.6191809079	0.0027364530
5647.5479882810	0.0027081240
5649.4767956540	0.0027146079
5651.4056030271	0.0027419624
5653.3344104001	0.0027023596
5655.2632177732	0.0027449839
5657.1920251462	0.0027102497
5659.1208325193	0.0025838697
5661.0496398923	0.0026868042
5662.9784472654	0.0027327253
5664.9072546384	0.0026568854
5666.8360620115	0.0026733968
5668.7648693845	0.0026188036
5670.6936767576	0.0025858979
5672.6224841306	0.0025614819
5674.5512915036	0.0025725062
5676.4800988767	0.0026354473
5678.4089062497	0.0025889045
5680.3377136228	0.0026345968
5682.2665209958	0.0026134667
5684.1953283689	0.0025255142
5686.1241357419	0.0025884681
5688.0529431150	0.0025254362
5689.9817504880	0.0025216204
5691.9105578611	0.0026283418
5693.8393652341	0.0025583829
5695.7681726072	0.0025443663
5697.6969799802	0.0025767395
5699.6257873533	0.0025394829
5701.5545947263	0.0025164653
5703.4834020993	0.0024818219
5705.4122094724	0.0025084615
5707.3410168454	0.0025014100
5709.2698242185	0.0025011036
5711.1986315915	0.0025100661
5713.1274389646	0.0024446780
5715.0562463376	0.0025222197
5716.9850537107	0.0024918164
5718.9138610837	0.0024354863
5720.8426684568	0.0024983846
5722.7714758298	0.0024656942
5724.7002832029	0.0025046584
5726.6290905759	0.0024137916
5728.5578979490	0.0023737964
5730.4867053220	0.0024459620
5732.4155126950	0.0023835930
5734.3443200681	0.0024059364
5736.2731274411	0.0023486745
5738.2019348142	0.0023360655
5740.1307421872	0.0023769897
5742.0595495603	0.0024035063
5743.9883569333	0.0024489076
5745.9171643064	0.0023524910
5747.8459716794	0.0023523166
5749.7747790525	0.0023451375
5751.7035864255	0.0023169545
5753.6323937986	0.0023064832
5755.5612011716	0.0023145508
5757.4900085447	0.0023973859
5759.4188159177	0.0023778505
5761.3476232907	0.0023500556
5763.2764306638	0.0022897983
5765.2052380368	0.0023335405
5767.1340454099	0.0023367968
5769.0628527829	0.0022399912
5770.9916601560	0.0022908805
5772.9204675290	0.0022594268
5774.8492749021	0.0022569601
5776.7780822751	0.0022646007
5778.7068896482	0.0022681765
5780.6356970212	0.0022647469
5782.5645043943	0.0022068564
5784.4933117673	0.0022969469
5786.4221191404	0.0023040860
5788.3509265134	0.0022149435
5790.2797338865	0.0021932460
5792.2085412595	0.0022048410
5794.1373486325	0.0022176360
5796.0661560056	0.0022300137
5797.9949633786	0.0021609627
5799.9237707517	0.0021285624
5801.8525781247	0.0022152271
5803.7813854978	0.0021445749
5805.7101928708	0.0021263286
5807.6390002439	0.0021937033
5809.5678076169	0.0021981206
5811.4966149900	0.0021388377
5813.4254223630	0.0020776608
5815.3542297361	0.0021496040
5817.2830371091	0.0021244995
5819.2118444822	0.0021177270
5821.1406518552	0.0021108864
5823.0694592282	0.0020541081
5824.9982666013	0.0021253303
5826.9270739743	0.0021404154
5828.8558813474	0.0021263971
5830.7846887204	0.0021311210
5832.7134960935	0.0020786200
5834.6423034665	0.0020476980
5836.5711108396	0.0020782030
5838.4999182126	0.0020718859
5840.4287255857	0.0020908045
5842.3575329587	0.0020592730
5844.2863403318	0.0020424318
5846.2151477048	0.0020982288
5848.1439550779	0.0019830116
5850.0727624509	0.0020318278
5852.0015698239	0.0021135600
5853.9303771970	0.0020559330
5855.8591845700	0.0020470677
5857.7879919431	0.0019815988
5859.7167993161	0.0019939016
5861.6456066892	0.0020383564
5863.5744140622	0.0020191725
5865.5032214353	0.0019143349
5867.4320288083	0.0019615071
5869.3608361814	0.0020244457
5871.2896435544	0.0019137147
5873.2184509275	0.0019339942
5875.1472583005	0.0019402658
5877.0760656736	0.0019949591
5879.0048730466	0.0019963430
5880.9336804196	0.0018785178
5882.8624877927	0.0018352058
5884.7912951657	0.0019373177
5886.7201025388	0.0019758279
5888.6489099118	0.0018133480
5890.5777172849	0.0019316145
5892.5065246579	0.0018953178
5894.4353320310	0.0018463342
5896.3641394040	0.0019792402
5898.2929467771	0.0018378814
5900.2217541501	0.0019419710
5902.1505615232	0.0019246174
5904.0793688962	0.0018288535
5906.0081762693	0.0019132447
5907.9369836423	0.0018351634
5909.8657910154	0.0018697127
5911.7945983884	0.0018250376
5913.7234057614	0.0018371202
5915.6522131345	0.0018825391
5917.5810205075	0.0017863556
5919.5098278806	0.0018417162
5921.4386352536	0.0017973394
5923.3674426267	0.0018128220
5925.2962499997	0.0018890817
5927.2250573728	0.0017961566
5929.1538647458	0.0018304014
5931.0826721189	0.0018083130
5933.0114794919	0.0017733838
5934.9402868650	0.0018592482
5936.8690942380	0.0017719732
5938.7979016111	0.0017268300
5940.7267089841	0.0018261727
5942.6555163571	0.0018379247
5944.5843237302	0.0017699408
5946.5131311032	0.0017449623
5948.4419384763	0.0017502410
5950.3707458493	0.0017285044
5952.2995532224	0.0017278189
5954.2283605954	0.0017260343
5956.1571679685	0.0017336609
5958.0859753415	0.0017199696
5960.0147827146	0.0016971084
5961.9435900876	0.0017040214
5963.8723974607	0.0017209728
5965.8012048337	0.0017173854
5967.7300122068	0.0016941160
5969.6588195798	0.0017284708
5971.5876269528	0.0017006758
5973.5164343259	0.0017103103
5975.4452416989	0.0017339218
5977.3740490720	0.0016771313
5979.3028564450	0.0016754721
5981.2316638181	0.0016530984
5983.1604711911	0.0016573200
5985.0892785642	0.0016564589
5987.0180859372	0.0016855171
5988.9468933103	0.0016423021
5990.8757006833	0.0015829955
5992.8045080564	0.0016539394
5994.7333154294	0.0015907178
5996.6621228025	0.0016258958
5998.5909301755	0.0016963866
6000.5197375485	0.0016479027
