399.2631262207	0.0017808201
401.1919335938	0.0020705634
403.1207409668	0.0020514233
405.0495483398	0.0023776577
406.9783557129	0.0025955257
408.9071630859	0.0027029135
410.8359704590	0.0030778202
412.7647778320	0.0029998585
414.6935852051	0.0031438083
416.6223925781	0.0030803191
418.5511999512	0.0025791351
420.4800073242	0.0030408180
422.4088146973	0.0030801380
424.3376220703	0.0027752812
426.2664294434	0.0027338532
428.1952368164	0.0031502501
430.1240441895	0.0035428861
432.0528515625	0.0029843939
433.9816589355	0.0034505031
435.9104663086	0.0031962160
437.8392736816	0.0027181897
439.7680810547	0.0034404194
441.6968884277	0.0029879538
443.6256958008	0.0027668243
445.5545031738	0.0027610809
447.4833105469	0.0028094891
449.4121179199	0.0028813751
451.3409252930	0.0025471216
453.2697326660	0.0026636091
455.1985400391	0.0023232186
457.1273474121	0.0017704836
459.0561547852	0.0016838545
460.9849621582	0.0022658110
462.9137695313	0.0020485916
464.8425769043	0.0014897014
466.7713842773	0.0017175720
468.7001916504	0.0016170566
470.6289990234	0.0016920278
472.5578063965	0.0011947681
474.4866137695	0.0010827184
476.4154211426	0.0010800292
478.3442285156	0.0005826876
480.2730358887	0.0008115842
482.2018432617	0.0008591451
484.1306506348	0.0011997538
486.0594580078	0.0005578008
487.9882653809	0.0004889242
489.9170727539	0.0012823225
491.8458801270	0.0004054079
493.7746875000	0.0002959712
495.7034948730	0.0002759634
497.6323022461	0.0003451348
499.5611096191	0.0007057401
501.4899169922	0.0004497641
503.4187243652	0.0007531417
505.3475317383	0.0005773350
507.2763391113	0.0002351063
509.2051464844	0.0001927051
511.1339538574	0.0003589765
513.0627612305	0.0005667639
514.9915686035	0.0004028694
516.9203759766	0.0002053018
518.8491833496	-0.0000881687
520.7779907227	0.0002628624
522.7067980957	0.0004522047
524.6356054688	0.0000882720
526.5644128418	0.0002785074
528.4932202148	0.0003925801
530.4220275879	0.0002144464
532.3508349609	0.0002027865
534.2796423340	-0.0000266028
536.2084497070	0.0001956445
538.1372570801	0.0003087342
540.0660644531	0.0000619901
541.9948718262	0.0005529925
543.9236791992	0.0002030119
545.8524865723	0.0000164918
547.7812939453	0.0003386561
549.7101013184	0.0001411077
551.6389086914	0.0002215422
553.5677160645	0.0000164325
555.4965234375	0.0003506149
557.4253308105	0.0001918180
559.3541381836	-0.0001606798
561.2829455566	0.0002501968
563.2117529297	-0.0001197170
565.1405603027	0.0001130290
567.0693676758	0.0004080464
568.9981750488	0.0001009660
570.9269824219	0.0001873700
572.8557897949	-0.0000426457
574.7845971680	-0.0000163385
576.7134045410	0.0003624017
578.6422119141	0.0001267992
580.5710192871	-0.0000205391
582.4998266602	0.0001208456
584.4286340332	0.0000277138
586.3574414063	0.0003554134
588.2862487793	0.0004893832
590.2150561523	-0.0001304065
592.1438635254	0.0000342401
594.0726708984	0.0007092743
596.0014782715	0.0004230729
597.9302856445	0.0000270423
599.8590930176	0.0002582616
601.7879003906	0.0003008590
603.7167077637	-0.0000130727
605.6455151367	-0.0001483047
607.5743225098	-0.0001395574
609.5031298828	-0.0000947188
611.4319372559	0.0000829112
613.3607446289	0.0001537879
615.2895520020	-0.0001745992
617.2183593750	-0.0000433830
619.1471667480	0.0002048535
621.0759741211	0.0001210444
623.0047814941	0.0003348916
624.9335888672	0.0001440946
626.8623962402	-0.0001191816
628.7912036133	0.0000407037
630.7200109863	0.0008669560
632.6488183594	0.0013699287
634.5776257324	0.0018767698
636.5064331055	0.0025685793
638.4352404785	0.0023619125
640.3640478516	0.0028044889
642.2928552246	0.0025677765
644.2216625977	0.0025124857
646.1504699707	0.0036938188
648.0792773438	0.0033774530
650.0080847168	0.0035757455
651.9368920898	0.0040252553
653.8656994629	0.0036082705
655.7945068359	0.0042065200
657.7233142090	0.0046711154
659.6521215820	0.0045748865
661.5809289551	0.0046324199
663.5097363281	0.0047876481
665.4385437012	0.0048338776
667.3673510742	0.0045886235
669.2961584473	0.0049123731
671.2249658203	0.0055031069
673.1537731934	0.0056506703
675.0825805664	0.0059875706
677.0113879395	0.0062142680
678.9401953125	0.0061672837
680.8690026855	0.0063301800
682.7978100586	0.0063613523
684.7266174316	0.0061717997
686.6554248047	0.0060979417
688.5842321777	0.0062432280
690.5130395508	0.0066561969
692.4418469238	0.0069294712
694.3706542969	0.0071282745
696.2994616699	0.0082854517
698.2282690430	0.0094588734
700.1570764160	0.0098591577
702.0858837891	0.0100136651
704.0146911621	0.0093453359
705.9434985352	0.0082119424
707.8723059082	0.0070199324
709.8011132813	0.0055020917
711.7299206543	0.0037158397
713.6587280273	0.0023745098
715.5875354004	0.0015969621
717.5163427734	0.0008350372
719.4451501465	0.0006994687
721.3739575195	0.0005290016
723.3027648926	0.0003219775
725.2315722656	0.0005413704
727.1603796387	0.0004217993
729.0891870117	0.0002975712
731.0179943848	0.0001374929
732.9468017578	-0.0000689232
734.8756091309	-0.0000654951
736.8044165039	-0.0000119949
738.7332238770	0.0000164748
740.6620312500	0.0000771637
742.5908386230	0.0000762974
744.5196459961	0.0002897230
746.4484533691	0.0002893483
748.3772607422	-0.0000996205
750.3060681152	0.0003342033
752.2348754883	0.0004676501
754.1636828613	0.0002537690
756.0924902344	0.0001929877
758.0212976074	0.0000527958
759.9501049805	0.0003802830
761.8789123535	0.0003193984
763.8077197266	0.0004612573
765.7365270996	0.0007796698
767.6653344727	0.0006389607
769.5941418457	0.0005913775
771.5229492188	0.0005244330
773.4517565918	0.0004348379
775.3805639648	0.0004633086
777.3093713379	0.0006133020
779.2381787109	0.0005139897
781.1669860840	0.0007806037
783.0957934570	0.0006325394
785.0246008301	0.0002899743
786.9534082031	0.0006461729
788.8822155762	0.0003285006
790.8110229492	0.0005731292
792.7398303223	0.0008566240
794.6686376953	0.0008334580
796.5974450684	0.0011508956
798.5262524414	0.0010725468
800.4550598145	0.0015686385
802.3838671875	0.0013520910
804.3126745605	0.0008426763
806.2414819336	0.0011928612
808.1702893066	0.0007929013
810.0990966797	0.0003718302
812.0279040527	0.0005531879
813.9567114258	0.0005368623
815.8855187988	0.0006001849
817.8143261719	0.0006084327
819.7431335449	0.0004592180
821.6719409180	0.0006657445
823.6007482910	0.0006461770
825.5295556641	0.0007177829
827.4583630371	0.0009513064
829.3871704102	0.0010239665
831.3159777832	0.0014769447
833.2447851563	0.0018541730
835.1735925293	0.0020299912
837.1023999023	0.0020584757
839.0312072754	0.0021312586
840.9600146484	0.0021500569
842.8888220215	0.0019518489
844.8176293945	0.0016688816
846.7464367676	0.0013191851
848.6752441406	0.0013457672
850.6040515137	0.0013340081
852.5328588867	0.0013395054
854.4616662598	0.0012506919
856.3904736328	0.0008817271
858.3192810059	0.0008860837
860.2480883789	0.0008306119
862.1768957520	0.0005968377
864.1057031250	0.0005686744
866.0345104980	0.0004497149
867.9633178711	0.0003837460
869.8921252441	0.0007084568
871.8209326172	0.0006799801
873.7497399902	0.0004611506
875.6785473633	0.0006711885
877.6073547363	0.0008064273
879.5361621094	0.0006635137
881.4649694824	0.0005208405
883.3937768555	0.0005519906
885.3225842285	0.0005275243
887.2513916016	0.0003841626
889.1801989746	0.0001176634
891.1090063477	0.0003355258
893.0378137207	0.0005644333
894.9666210938	0.0004293220
896.8954284668	0.0006516328
898.8242358398	0.0004650066
900.7530432129	0.0005454984
902.6818505859	0.0006393380
904.6106579590	0.0005154588
906.5394653320	0.0007047809
908.4682727051	0.0006146570
910.3970800781	0.0008026761
912.3258874512	0.0008183468
914.2546948242	0.0008287323
916.1835021973	0.0009879953
918.1123095703	0.0012567514
920.0411169434	0.0013223647
921.9699243164	0.0013201375
923.8987316895	0.0018519820
925.8275390625	0.0016706553
927.7563464355	0.0019430165
929.6851538086	0.0023619146
931.6139611816	0.0024444216
933.5427685547	0.0027427934
935.4715759277	0.0027017249
937.4003833008	0.0028674537
939.3291906738	0.0027666776
941.2579980469	0.0032332065
943.1868054199	0.0033153826
945.1156127930	0.0030508921
947.0444201660	0.0035107385
948.9732275391	0.0030780355
950.9020349121	0.0030522938
952.8308422852	0.0031490298
954.7596496582	0.0028112447
956.6884570313	0.0030282682
958.6172644043	0.0030963277
960.5460717773	0.0029014158
962.4748791504	0.0029789086
964.4036865234	0.0032220210
966.3324938965	0.0031597484
968.2613012695	0.0031703482
970.1901086426	0.0033407961
972.1189160156	0.0036635855
974.0477233887	0.0040175351
975.9765307617	0.0042781504
977.9053381348	0.0045486093
979.8341455078	0.0051038982
981.7629528809	0.0054942984
983.6917602539	0.0056939456
985.6205676270	0.0068086307
987.5493750000	0.0073684477
989.4781823730	0.0081500988
991.4069897461	0.0094098486
993.3357971191	0.0099421963
995.2646044922	0.0109849218
997.1934118652	0.0117305340
999.1222192383	0.0128070302
1001.0510266113	0.0138426535
1002.9798339844	0.0146783311
1004.9086413574	0.0161056332
1006.8374487305	0.0166865177
1008.7662561035	0.0174767114
1010.6950634766	0.0185925700
1012.6238708496	0.0196017232
1014.5526782227	0.0204076171
1016.4814855957	0.0214037281
1018.4102929688	0.0229003131
1020.3391003418	0.0238681771
1022.2679077148	0.0250127353
1024.1967150879	0.0257612932
1026.1255224609	0.0265958980
1028.0543298340	0.0278547145
1029.9831372070	0.0284255594
1031.9119445801	0.0292361174
1033.8407519531	0.0296181068
1035.7695593262	0.0298226848
1037.6983666992	0.0305641890
1039.6271740723	0.0307559147
1041.5559814453	0.0305656195
1043.4847888184	0.0301783159
1045.4135961914	0.0298386067
1047.3424035645	0.0294995084
1049.2712109375	0.0288774483
1051.2000183105	0.0284480490
1053.1288256836	0.0279343352
1055.0576330566	0.0272914134
1056.9864404297	0.0266011823
1058.9152478027	0.0259733815
1060.8440551758	0.0253598206
1062.7728625488	0.0244653597
1064.7016699219	0.0238910969
1066.6304772949	0.0229484681
1068.5592846680	0.0217440575
1070.4880920410	0.0208283272
1072.4168994141	0.0197862703
1074.3457067871	0.0190370623
1076.2745141602	0.0180765130
1078.2033215332	0.0173121244
1080.1321289062	0.0166323539
1082.0609362793	0.0156605169
1083.9897436523	0.0151017904
1085.9185510254	0.0142957736
1087.8473583984	0.0136468494
1089.7761657715	0.0131731797
1091.7049731445	0.0125448313
1093.6337805176	0.0119671058
1095.5625878906	0.0112845963
1097.4913952637	0.0110832509
1099.4202026367	0.0109715089
1101.3490100098	0.0107632224
1103.2778173828	0.0105145462
1105.2066247559	0.0100675132
1107.1354321289	0.0100897886
1109.0642395019	0.0100639379
1110.9930468750	0.0097256340
1112.9218542480	0.0095822290
1114.8506616211	0.0094953524
1116.7794689941	0.0094806664
1118.7082763672	0.0094090216
1120.6370837402	0.0095427940
1122.5658911133	0.0096060373
1124.4946984863	0.0095320819
1126.4235058594	0.0099280719
1128.3523132324	0.0099589601
1130.2811206055	0.0101292878
1132.2099279785	0.0106352679
1134.1387353516	0.0107988156
1136.0675427246	0.0112310797
1137.9963500977	0.0118165854
1139.9251574707	0.0125485174
1141.8539648437	0.0132635497
1143.7827722168	0.0142959049
1145.7115795898	0.0155231245
1147.6403869629	0.0161419120
1149.5691943359	0.0169699155
1151.4980017090	0.0179525726
1153.4268090820	0.0186564252
1155.3556164551	0.0193920638
1157.2844238281	0.0202009007
1159.2132312012	0.0210127532
1161.1420385742	0.0219145864
1163.0708459473	0.0226954781
1164.9996533203	0.0233682804
1166.9284606934	0.0244073626
1168.8572680664	0.0252511576
1170.7860754394	0.0259625092
1172.7148828125	0.0271349698
1174.6436901855	0.0282108001
1176.5724975586	0.0292523801
1178.5013049316	0.0303805731
1180.4301123047	0.0312516205
1182.3589196777	0.0327001661
1184.2877270508	0.0342562422
1186.2165344238	0.0356739387
1188.1453417969	0.0375712812
1190.0741491699	0.0390951000
1192.0029565430	0.0408738367
1193.9317639160	0.0424905792
1195.8605712891	0.0442909896
1197.7893786621	0.0467875078
1199.7181860351	0.0488062501
1201.6469934082	0.0510477610
1203.5758007812	0.0527989343
1205.5046081543	0.0548065193
1207.4334155273	0.0568648838
1209.3622229004	0.0584677979
1211.2910302734	0.0606569275
1213.2198376465	0.0620890483
1215.1486450195	0.0636702478
1217.0774523926	0.0651104227
1219.0062597656	0.0661839396
1220.9350671387	0.0674007386
1222.8638745117	0.0679942071
1224.7926818848	0.0684909523
1226.7214892578	0.0690165460
1228.6502966308	0.0696486235
1230.5791040039	0.0696913451
1232.5079113769	0.0697799027
1234.4367187500	0.0699401125
1236.3655261230	0.0698063970
1238.2943334961	0.0698050633
1240.2231408691	0.0694781244
1242.1519482422	0.0692351013
1244.0807556152	0.0688733757
1246.0095629883	0.0687081963
1247.9383703613	0.0682911426
1249.8671777344	0.0677036941
1251.7959851074	0.0671276227
1253.7247924805	0.0665152818
1255.6535998535	0.0661885738
1257.5824072266	0.0649456233
1259.5112145996	0.0637266040
1261.4400219726	0.0627107024
1263.3688293457	0.0620757043
1265.2976367187	0.0613879487
1267.2264440918	0.0602961741
1269.1552514648	0.0596691892
1271.0840588379	0.0586404465
1273.0128662109	0.0578763783
1274.9416735840	0.0567683354
1276.8704809570	0.0556032620
1278.7992883301	0.0546171293
1280.7280957031	0.0534378886
1282.6569030762	0.0525747575
1284.5857104492	0.0514950380
1286.5145178223	0.0506282039
1288.4433251953	0.0496551320
1290.3721325683	0.0492236316
1292.3009399414	0.0485937372
1294.2297473144	0.0482428148
1296.1585546875	0.0481970608
1298.0873620605	0.0475330725
1300.0161694336	0.0480677485
1301.9449768066	0.0480344594
1303.8737841797	0.0484249145
1305.8025915527	0.0492361821
1307.7313989258	0.0496201441
1309.6602062988	0.0508978963
1311.5890136719	0.0514423139
1313.5178210449	0.0523657501
1315.4466284180	0.0537523516
1317.3754357910	0.0547973886
1319.3042431640	0.0561997592
1321.2330505371	0.0580258779
1323.1618579101	0.0596796721
1325.0906652832	0.0614013001
1327.0194726562	0.0633162856
1328.9482800293	0.0647112131
1330.8770874023	0.0665253848
1332.8058947754	0.0680317134
1334.7347021484	0.0693303645
1336.6635095215	0.0699948370
1338.5923168945	0.0695165768
1340.5211242676	0.0705270246
1342.4499316406	0.0727769360
1344.3787390137	0.0735315830
1346.3075463867	0.0732498020
1348.2363537597	0.0732237697
1350.1651611328	0.0727237910
1352.0939685058	0.0725601166
1354.0227758789	0.0717261359
1355.9515832519	0.0709345341
1357.8803906250	0.0707402229
1359.8091979980	0.0694605857
1361.7380053711	0.0671052337
1363.6668127441	0.0661401302
1365.5956201172	0.0688011944
1367.5244274902	0.0675939023
1369.4532348633	0.0666838884
1371.3820422363	0.0677435771
1373.3108496094	0.0643411577
1375.2396569824	0.0648075938
1377.1684643555	0.0661343187
1379.0972717285	0.0661412179
1381.0260791015	0.0660738423
1382.9548864746	0.0654798672
1384.8836938476	0.0657400936
1386.8125012207	0.0630973652
1388.7413085937	0.0643564165
1390.6701159668	0.0686672628
1392.5989233398	0.0670332462
1394.5277307129	0.0635994524
1396.4565380859	0.0663397089
1398.3853454590	0.0664472580
1400.3141528320	0.0657970607
1402.2429602051	0.0706075430
1404.1717675781	0.0671624541
1406.1005749512	0.0674857646
1408.0293823242	0.0697723776
1409.9581896972	0.0674602017
1411.8869970703	0.0687477142
1413.8158044433	0.0663149878
1415.7446118164	0.0675301552
1417.6734191894	0.0615420640
1419.6022265625	0.0556822605
1421.5310339355	0.0629028380
1423.4598413086	0.0609889850
1425.3886486816	0.0590828583
1427.3174560547	0.0596158057
1429.2462634277	0.0554024354
1431.1750708008	0.0536738858
1433.1038781738	0.0543037876
1435.0326855469	0.0495556220
1436.9614929199	0.0429022461
1438.8903002929	0.0477178171
1440.8191076660	0.0484419689
1442.7479150390	0.0453744307
1444.6767224121	0.0471475422
1446.6055297851	0.0440524891
1448.5343371582	0.0445562303
1450.4631445312	0.0457272679
1452.3919519043	0.0466223955
1454.3207592773	0.0484371036
1456.2495666504	0.0411257222
1458.1783740234	0.0430569127
1460.1071813965	0.0556695908
1462.0359887695	0.0587712005
1463.9647961426	0.0590438768
1465.8936035156	0.0614098608
1467.8224108886	0.0693309605
1469.7512182617	0.0742281452
1471.6800256347	0.0676460266
1473.6088330078	0.0718576461
1475.5376403808	0.0805917829
1477.4664477539	0.0865540057
1479.3952551269	0.0941459686
1481.3240625000	0.0957454443
1483.2528698730	0.1016225591
1485.1816772461	0.1047656983
1487.1104846191	0.1041983962
1489.0392919922	0.1042411625
1490.9680993652	0.1054054275
1492.8969067383	0.1202239245
1494.8257141113	0.1177797541
1496.7545214843	0.1080103666
1498.6833288574	0.1206963062
1500.6121362304	0.1241906583
1502.5409436035	0.1320395172
1504.4697509765	0.1254260391
1506.3985583496	0.0959482640
1508.3273657226	0.1149404794
1510.2561730957	0.1315638423
1512.1849804687	0.1279190481
1514.1137878418	0.1373140365
1516.0425952148	0.1254887879
1517.9714025879	0.1307441294
1519.9002099609	0.1259722710
1521.8290173340	0.1120009869
1523.7578247070	0.1334158033
1525.6866320801	0.1310169995
1527.6154394531	0.1309977174
1529.5442468261	0.1423480511
1531.4730541992	0.1375873387
1533.4018615722	0.1277401745
1535.3306689453	0.1345070302
1537.2594763183	0.1419142038
1539.1882836914	0.1060782969
1541.1170910644	0.1110414863
1543.0458984375	0.1296155006
1544.9747058105	0.1253479570
1546.9035131836	0.1447507143
1548.8323205566	0.1362499297
1550.7611279297	0.1402771473
1552.6899353027	0.1388093084
1554.6187426758	0.1282088161
1556.5475500488	0.1356930137
1558.4763574218	0.1000896692
1560.4051647949	0.1077209860
1562.3339721679	0.1455565393
1564.2627795410	0.1383139044
1566.1915869140	0.1419799328
1568.1203942871	0.1402956247
1570.0492016601	0.1267106086
1571.9780090332	0.1434319615
1573.9068164062	0.1441493481
1575.8356237793	0.1175993681
1577.7644311523	0.1315646172
1579.6932385254	0.1462872475
1581.6220458984	0.1398614049
1583.5508532715	0.1435918808
1585.4796606445	0.1416642368
1587.4084680175	0.1423569918
1589.3372753906	0.1413388550
1591.2660827636	0.1411631107
1593.1948901367	0.1415829957
1595.1236975097	0.1399082839
1597.0525048828	0.1417042911
1598.9813122558	0.1410682946
1600.9101196289	0.1416159570
1602.8389270019	0.1392918974
1604.7677343750	0.1414837539
1606.6965417480	0.1394282877
1608.6253491211	0.1392281055
1610.5541564941	0.1391086280
1612.4829638672	0.1397376955
1614.4117712402	0.1414968967
1616.3405786132	0.1182594299
1618.2693859863	0.1275848895
1620.1981933593	0.1453566998
1622.1270007324	0.1305189729
1624.0558081054	0.1318296343
1625.9846154785	0.1368347108
1627.9134228515	0.1365371048
1629.8422302246	0.1357491612
1631.7710375976	0.1436311603
1633.6998449707	0.1333883107
1635.6286523437	0.1131436378
1637.5574597168	0.1297204643
1639.4862670898	0.1402122527
1641.4150744629	0.1375118345
1643.3438818359	0.1404766738
1645.2726892090	0.1281051338
1647.2014965820	0.1153384298
1649.1303039550	0.1393238157
1651.0591113281	0.1315103024
1652.9879187011	0.0898084268
1654.9167260742	0.1185718924
1656.8455334472	0.1435146034
1658.7743408203	0.1376033276
1660.7031481933	0.1414770037
1662.6319555664	0.1296603680
1664.5607629394	0.1363807172
1666.4895703125	0.1445209682
1668.4183776855	0.1284875274
1670.3471850586	0.1258032173
1672.2759924316	0.1400423348
1674.2047998047	0.1304004788
1676.1336071777	0.1257872432
1678.0624145507	0.1423371136
1679.9912219238	0.1374282539
1681.9200292968	0.1363777369
1683.8488366699	0.1135052592
1685.7776440429	0.1129355729
1687.7064514160	0.1486609876
1689.6352587890	0.1307845563
1691.5640661621	0.1426462084
1693.4928735351	0.1439962089
1695.4216809082	0.1096050292
1697.3504882812	0.1317489743
1699.2792956543	0.1175862178
1701.2081030273	0.1082088724
1703.1369104004	0.1408179402
1705.0657177734	0.1302382350
1706.9945251464	0.1312766373
1708.9233325195	0.1409619451
1710.8521398925	0.1359627992
1712.7809472656	0.1379880011
1714.7097546386	0.1291862726
1716.6385620117	0.1173894256
1718.5673693847	0.1159447283
1720.4961767578	0.1345679462
1722.4249841308	0.1383081377
1724.3537915039	0.1297942400
1726.2825988769	0.1394578367
1728.2114062500	0.1297392845
1730.1402136230	0.1313933432
1732.0690209961	0.1272203922
1733.9978283691	0.1008494571
1735.9266357421	0.1221671104
1737.8554431152	0.1325342059
1739.7842504882	0.1202320755
1741.7130578613	0.1297437847
1743.6418652343	0.1311242282
1745.5706726074	0.1311882734
1747.4994799804	0.1324564070
1749.4282873535	0.1275511980
1751.3570947265	0.1227722466
1753.2859020996	0.1342649013
1755.2147094726	0.1392244995
1757.1435168457	0.1289206445
1759.0723242187	0.1396814585
1761.0011315918	0.1321308315
1762.9299389648	0.1287006140
1764.8587463379	0.1440578699
1766.7875537109	0.1315178424
1768.7163610839	0.1330111921
1770.6451684570	0.1316989660
1772.5739758300	0.1200283021
1774.5027832031	0.1324125826
1776.4315905761	0.1385968328
1778.3603979492	0.1366195381
1780.2892053222	0.1354427338
1782.2180126953	0.1364664137
1784.1468200683	0.1361025572
1786.0756274414	0.1336229295
1788.0044348144	0.1397155672
1789.9332421875	0.1364537925
1791.8620495605	0.1252864897
1793.7908569336	0.1300738305
1795.7196643066	0.1379582286
1797.6484716796	0.1363666356
1799.5772790527	0.1346128583
1801.5060864257	0.1327448189
1803.4348937988	0.1362617314
1805.3637011718	0.1386136711
1807.2925085449	0.1370964944
1809.2213159179	0.1373817921
1811.1501232910	0.1342344880
1813.0789306640	0.1378777027
1815.0077380371	0.1382954419
1816.9365454101	0.1369686872
1818.8653527832	0.1378973126
1820.7941601562	0.1372478157
1822.7229675293	0.1389302313
1824.6517749023	0.1312891394
1826.5805822753	0.1353366673
1828.5093896484	0.1351975948
1830.4381970214	0.1282796115
1832.3670043945	0.1377144754
1834.2958117675	0.1366713643
1836.2246191406	0.1368153542
1838.1534265136	0.1363091767
1840.0822338867	0.1370950490
1842.0110412597	0.1367850751
1843.9398486328	0.1235693172
1845.8686560058	0.1307413578
1847.7974633789	0.1366502792
1849.7262707519	0.1344123483
1851.6550781250	0.1374327987
1853.5838854980	0.1348769665
1855.5126928710	0.1360821724
1857.4415002441	0.1352276504
1859.3703076171	0.1346053183
1861.2991149902	0.1352600455
1863.2279223632	0.1339180470
1865.1567297363	0.1350071132
1867.0855371093	0.1311014295
1869.0143444824	0.1264986992
1870.9431518554	0.1306623220
1872.8719592285	0.1347414255
1874.8007666015	0.1328030825
1876.7295739746	0.1334302425
1878.6583813476	0.1329019219
1880.5871887207	0.1323196888
1882.5159960937	0.1331512183
1884.4448034667	0.1311937571
1886.3736108398	0.1328115165
1888.3024182128	0.1301883608
1890.2312255859	0.1281382889
1892.1600329589	0.1321232021
1894.0888403320	0.1302950382
1896.0176477050	0.1297297478
1897.9464550781	0.1310955286
1899.8752624511	0.1305279583
1901.8040698242	0.1306745112
1903.7328771972	0.1297793984
1905.6616845703	0.1302644461
1907.5904919433	0.1292718947
1909.5192993164	0.1285080612
1911.4481066894	0.1290789098
1913.3769140625	0.1290096045
1915.3057214355	0.1300603449
1917.2345288085	0.1251728833
1919.1633361816	0.1252792180
1921.0921435546	0.1292203367
1923.0209509277	0.1255601346
1924.9497583007	0.1278487295
1926.8785656738	0.1288050562
1928.8073730468	0.1273739040
1930.7361804199	0.1285674572
1932.6649877929	0.1271310300
1934.5937951660	0.1281634718
1936.5226025390	0.1272930950
1938.4514099121	0.1277466416
1940.3802172851	0.1274251789
1942.3090246582	0.1240342110
1944.2378320312	0.1260192692
1946.1666394042	0.1269394755
1948.0954467773	0.1267305613
1950.0242541503	0.1270861179
1951.9530615234	0.1266392767
1953.8818688964	0.1267142296
1955.8106762695	0.1263119876
1957.7394836425	0.1264641583
1959.6682910156	0.1262669861
1961.5970983886	0.1258906871
1963.5259057617	0.1262460351
1965.4547131347	0.1256349683
1967.3835205078	0.1243634969
1969.3123278808	0.1253395081
1971.2411352539	0.1259632707
1973.1699426269	0.1252879202
1975.0987499999	0.1255393177
1977.0275573730	0.1249742135
1978.9563647460	0.1249773428
1980.8851721191	0.1248007938
1982.8139794921	0.1245668977
1984.7427868652	0.1248017251
1986.6715942382	0.1238181069
1988.6004016113	0.1238692850
1990.5292089843	0.1229659393
1992.4580163574	0.1218029261
1994.3868237304	0.1231507808
1996.3156311035	0.1232909411
1998.2444384765	0.1225400716
2000.1732458496	0.1226415932
2002.1020532226	0.1224675477
2004.0308605956	0.1222558990
2005.9596679687	0.1217653155
2007.8884753417	0.1214848235
2009.8172827148	0.1214185357
2011.7460900878	0.1209925413
2013.6748974609	0.1208729669
2015.6037048339	0.1200530380
2017.5325122070	0.1193923354
2019.4613195800	0.1198014542
2021.3901269531	0.1197968200
2023.3189343261	0.1194735169
2025.2477416992	0.1191816553
2027.1765490722	0.1188759655
2029.1053564453	0.1186391562
2031.0341638183	0.1183460802
2032.9629711914	0.1179908738
2034.8917785644	0.1178189069
2036.8205859374	0.1175732389
2038.7493933105	0.1173278242
2040.6782006835	0.1168703735
2042.6070080566	0.1164527982
2044.5358154296	0.1164112091
2046.4646228027	0.1160443276
2048.3934301757	0.1160343215
2050.3222375488	0.1158163249
2052.2510449218	0.1155209988
2054.1798522949	0.1152844727
2056.1086596679	0.1148871332
2058.0374670410	0.1148817167
2059.9662744140	0.1143816859
2061.8950817871	0.1142822653
2063.8238891601	0.1138527542
2065.7526965331	0.1133570671
2067.6815039062	0.1135163605
2069.6103112792	0.1131846458
2071.5391186523	0.1130546778
2073.4679260253	0.1127785891
2075.3967333984	0.1126740277
2077.3255407714	0.1124497950
2079.2543481445	0.1120961830
2081.1831555175	0.1118320078
2083.1119628906	0.1115459949
2085.0407702636	0.1115609258
2086.9695776367	0.1111751944
2088.8983850097	0.1109871566
2090.8271923828	0.1106902212
2092.7559997558	0.1105967909
2094.6848071288	0.1104345769
2096.6136145019	0.1100913435
2098.5424218749	0.1100995094
2100.4712292480	0.1097191274
2102.4000366210	0.1095961928
2104.3288439941	0.1092158705
2106.2576513671	0.1090960056
2108.1864587402	0.1089799777
2110.1152661132	0.1086937487
2112.0440734863	0.1087495387
2113.9728808593	0.1082737669
2115.9016882324	0.1081214845
2117.8304956054	0.1079911366
2119.7593029785	0.1079160571
2121.6881103515	0.1077017486
2123.6169177245	0.1074368060
2125.5457250976	0.1073349491
2127.4745324706	0.1070445329
2129.4033398437	0.1071442962
2131.3321472167	0.1068424284
2133.2609545898	0.1066540256
2135.1897619628	0.1064826846
2137.1185693359	0.1062195972
2139.0473767089	0.1062481403
2140.9761840820	0.1061625928
2142.9049914550	0.1060386598
2144.8337988281	0.1056821495
2146.7626062011	0.1055747271
2148.6914135742	0.1053448468
2150.6202209472	0.1052771807
2152.5490283203	0.1053294018
2154.4778356933	0.1051018611
2156.4066430663	0.1049689054
2158.3354504394	0.1047301143
2160.2642578124	0.1045790911
2162.1930651855	0.1044437289
2164.1218725585	0.1043979600
2166.0506799316	0.1041662991
2167.9794873046	0.1040599197
2169.9082946777	0.1038347781
2171.8371020507	0.1036082581
2173.7659094238	0.1036741734
2175.6947167968	0.1033585221
2177.6235241699	0.1033590734
2179.5523315429	0.1030577123
2181.4811389160	0.1028926522
2183.4099462890	0.1029316783
2185.3387536620	0.1026149914
2187.2675610351	0.1025364250
2189.1963684081	0.1022863239
2191.1251757812	0.1022777855
2193.0539831542	0.1022752300
2194.9827905273	0.1021838188
2196.9115979003	0.1019133329
2198.8404052734	0.1016959399
2200.7692126464	0.1016412675
2202.6980200195	0.1014457345
2204.6268273925	0.1014126092
2206.5556347656	0.1012069732
2208.4844421386	0.1011840850
2210.4132495117	0.1008878052
2212.3420568847	0.1008404344
2214.2708642577	0.1008176953
2216.1996716308	0.1003150642
2218.1284790038	0.1003881544
2220.0572863769	0.1003106460
2221.9860937499	0.1000750810
2223.9149011230	0.0997560844
2225.8437084960	0.0997725949
2227.7725158691	0.0996922255
2229.7013232421	0.0993691087
2231.6301306152	0.0993961766
2233.5589379882	0.0990865231
2235.4877453613	0.0989941955
2237.4165527343	0.0987842530
2239.3453601074	0.0986030847
2241.2741674804	0.0984311029
2243.2029748534	0.0982215405
2245.1317822265	0.0981726721
2247.0605895995	0.0977813900
2248.9893969726	0.0977719128
2250.9182043456	0.0975648314
2252.8470117187	0.0972967893
2254.7758190917	0.0973002613
2256.7046264648	0.0971135795
2258.6334338378	0.0968945324
2260.5622412109	0.0967536420
2262.4910485839	0.0966550708
2264.4198559570	0.0965036154
2266.3486633300	0.0964283124
2268.2774707031	0.0961305797
2270.2062780761	0.0960936844
2272.1350854491	0.0959334224
2274.0638928222	0.0956977531
2275.9927001952	0.0956362635
2277.9215075683	0.0954565108
2279.8503149413	0.0955603272
2281.7791223144	0.0953298807
2283.7079296874	0.0953098685
2285.6367370605	0.0950073078
2287.5655444335	0.0946981609
2289.4943518066	0.0946411788
2291.4231591796	0.0940632224
2293.3519665527	0.0940703303
2295.2807739257	0.0936686397
2297.2095812988	0.0932169631
2299.1383886718	0.0929939896
2301.0671960449	0.0924526155
2302.9960034179	0.0921148062
2304.9248107909	0.0915037692
2306.8536181640	0.0907591432
2308.7824255370	0.0898327753
2310.7112329101	0.0891538858
2312.6400402831	0.0881337151
2314.5688476562	0.0869645104
2316.4976550292	0.0860580727
2318.4264624023	0.0845340639
2320.3552697753	0.0833365768
2322.2840771484	0.0820365846
2324.2128845214	0.0807222575
2326.1416918945	0.0798705220
2328.0704992675	0.0787227154
2329.9993066406	0.0775554478
2331.9281140136	0.0768625885
2333.8569213866	0.0765977204
2335.7857287597	0.0760728642
2337.7145361327	0.0759985447
2339.6433435058	0.0760347098
2341.5721508788	0.0760545582
2343.5009582519	0.0773222893
2345.4297656249	0.0790476725
2347.3585729980	0.0829867721
2349.2873803710	0.0861223489
2351.2161877441	0.0826290622
2353.1449951171	0.0776695013
2355.0738024902	0.0744142830
2357.0026098632	0.0716578811
2358.9314172363	0.0703037977
2360.8602246093	0.0694727600
2362.7890319823	0.0694228113
2364.7178393554	0.0698311701
2366.6466467284	0.0708181113
2368.5754541015	0.0726558566
2370.5042614745	0.0746015012
2372.4330688476	0.0770026892
2374.3618762206	0.0794415399
2376.2906835937	0.0820770487
2378.2194909667	0.0841639787
2380.1482983398	0.0856530890
2382.0771057128	0.0868936032
2384.0059130859	0.0874545351
2385.9347204589	0.0878160298
2387.8635278320	0.0878617913
2389.7923352050	0.0879455805
2391.7211425780	0.0877803564
2393.6499499511	0.0877219811
2395.5787573241	0.0876581073
2397.5075646972	0.0873379707
2399.4363720702	0.0873637199
2401.3651794433	0.0871102884
2403.2939868163	0.0870485753
2405.2227941894	0.0868983418
2407.1516015624	0.0867565647
2409.0804089355	0.0867074281
2411.0092163085	0.0865216628
2412.9380236816	0.0864076614
2414.8668310546	0.0860439539
2416.7956384277	0.0860599577
2418.7244458007	0.0859227255
2420.6532531738	0.0857903808
2422.5820605468	0.0856937319
2424.5108679198	0.0855818093
2426.4396752929	0.0856042206
2428.3684826659	0.0853121281
2430.2972900390	0.0852412358
2432.2260974120	0.0848504454
2434.1549047851	0.0848281235
2436.0837121581	0.0849075019
2438.0125195312	0.0846752822
2439.9413269042	0.0846732855
2441.8701342773	0.0843688250
2443.7989416503	0.0843986869
2445.7277490234	0.0842349306
2447.6565563964	0.0839775577
2449.5853637695	0.0838404000
2451.5141711425	0.0837012306
2453.4429785155	0.0837303028
2455.3717858886	0.0834932104
2457.3005932616	0.0835016593
2459.2294006347	0.0833805054
2461.1582080077	0.0832136720
2463.0870153808	0.0831267238
2465.0158227538	0.0829203278
2466.9446301269	0.0828277916
2468.8734374999	0.0827079117
2470.8022448730	0.0826525241
2472.7310522460	0.0825607926
2474.6598596191	0.0823793709
2476.5886669921	0.0821438134
2478.5174743652	0.0821708441
2480.4462817382	0.0820530578
2482.3750891112	0.0818575770
2484.3038964843	0.0818435252
2486.2327038573	0.0816035196
2488.1615112304	0.0815072134
2490.0903186034	0.0813858882
2492.0191259765	0.0813419223
2493.9479333495	0.0812425911
2495.8767407226	0.0810633153
2497.8055480956	0.0810444802
2499.7343554687	0.0808424354
2501.6631628417	0.0806724578
2503.5919702148	0.0805421025
2505.5207775878	0.0804671198
2507.4495849609	0.0803570300
2509.3783923339	0.0803072527
2511.3071997069	0.0802231282
2513.2360070800	0.0799498409
2515.1648144530	0.0798815489
2517.0936218261	0.0798563510
2519.0224291991	0.0797437578
2520.9512365722	0.0796103701
2522.8800439452	0.0794148743
2524.8088513183	0.0792029202
2526.7376586913	0.0791184902
2528.6664660644	0.0789523050
2530.5952734374	0.0789160803
2532.5240808105	0.0788404942
2534.4528881835	0.0786161870
2536.3816955566	0.0787285566
2538.3105029296	0.0784996301
2540.2393103027	0.0783223212
2542.1681176757	0.0782486796
2544.0969250487	0.0780654699
2546.0257324218	0.0781164169
2547.9545397948	0.0779085234
2549.8833471679	0.0778963640
2551.8121545409	0.0778554976
2553.7409619140	0.0775631219
2555.6697692870	0.0774177909
2557.5985766601	0.0773169249
2559.5273840331	0.0771943182
2561.4561914062	0.0770444870
2563.3849987792	0.0770309195
2565.3138061523	0.0770223141
2567.2426135253	0.0768889412
2569.1714208984	0.0766406059
2571.1002282714	0.0765718445
2573.0290356444	0.0764299035
2574.9578430175	0.0762456357
2576.8866503905	0.0761732757
2578.8154577636	0.0759456009
2580.7442651366	0.0760136619
2582.6730725097	0.0759458393
2584.6018798827	0.0757045746
2586.5306872558	0.0755463690
2588.4594946288	0.0753338411
2590.3883020019	0.0753245056
2592.3171093749	0.0753117576
2594.2459167480	0.0751101226
2596.1747241210	0.0748638362
2598.1035314941	0.0748323798
2600.0323388671	0.0747468323
2601.9611462401	0.0746696442
2603.8899536132	0.0746016353
2605.8187609862	0.0744741559
2607.7475683593	0.0744221807
2609.6763757323	0.0741747618
2611.6051831054	0.0740827769
2613.5339904784	0.0740292817
2615.4627978515	0.0739135444
2617.3916052245	0.0738009736
2619.3204125976	0.0737029240
2621.2492199706	0.0736573488
2623.1780273437	0.0734741762
2625.1068347167	0.0734483600
2627.0356420898	0.0733151585
2628.9644494628	0.0731761903
2630.8932568358	0.0731365681
2632.8220642089	0.0728783682
2634.7508715819	0.0726950318
2636.6796789550	0.0726674050
2638.6084863280	0.0725841671
2640.5372937011	0.0724698901
2642.4661010741	0.0723860711
2644.3949084472	0.0721522421
2646.3237158202	0.0720751286
2648.2525231933	0.0720124990
2650.1813305663	0.0718457177
2652.1101379394	0.0718415156
2654.0389453124	0.0716722161
2655.9677526855	0.0715213642
2657.8965600585	0.0715353787
2659.8253674315	0.0713467002
2661.7541748046	0.0710487962
2663.6829821776	0.0709980577
2665.6117895507	0.0708979815
2667.5405969237	0.0708491802
2669.4694042968	0.0708007514
2671.3982116698	0.0705986694
2673.3270190429	0.0706150383
2675.2558264159	0.0704706013
2677.1846337890	0.0703469664
2679.1134411620	0.0701955259
2681.0422485351	0.0700736642
2682.9710559081	0.0700515658
2684.8998632812	0.0698661655
2686.8286706542	0.0697650313
2688.7574780273	0.0696002841
2690.6862854003	0.0696098879
2692.6150927733	0.0693850219
2694.5439001464	0.0692956299
2696.4727075194	0.0693110675
2698.4015148925	0.0689679831
2700.3303222655	0.0689987317
2702.2591296386	0.0688018575
2704.1879370116	0.0687255561
2706.1167443847	0.0687408000
2708.0455517577	0.0685594678
2709.9743591308	0.0684247017
2711.9031665038	0.0681735426
2713.8319738769	0.0682392418
2715.7607812499	0.0680674538
2717.6895886230	0.0678273886
2719.6183959960	0.0678386539
2721.5472033690	0.0677900761
2723.4760107421	0.0676653236
2725.4048181151	0.0675532967
2727.3336254882	0.0674016699
2729.2624328612	0.0671899766
2731.1912402343	0.0671468079
2733.1200476073	0.0669338629
2735.0488549804	0.0669625401
2736.9776623534	0.0669125170
2738.9064697265	0.0667018294
2740.8352770995	0.0666811243
2742.7640844726	0.0664725602
2744.6928918456	0.0665017590
2746.6216992187	0.0663696006
2748.5505065917	0.0661826730
2750.4793139647	0.0660670698
2752.4081213378	0.0658678114
2754.3369287108	0.0657691658
2756.2657360839	0.0656900927
2758.1945434569	0.0656440109
2760.1233508300	0.0653633028
2762.0521582030	0.0653360859
2763.9809655761	0.0652735680
2765.9097729491	0.0651092231
2767.8385803222	0.0650885403
2769.7673876952	0.0648449361
2771.6961950683	0.0647172630
2773.6250024413	0.0646389425
2775.5538098144	0.0645580739
2777.4826171874	0.0643792301
2779.4114245604	0.0642820001
2781.3402319335	0.0642210096
2783.2690393065	0.0640025288
2785.1978466796	0.0638485253
2787.1266540526	0.0637350753
2789.0554614257	0.0637431592
2790.9842687987	0.0636176467
2792.9130761718	0.0634059161
2794.8418835448	0.0632408410
2796.7706909179	0.0631686151
2798.6994982909	0.0630790442
2800.6283056640	0.0629523918
2802.5571130370	0.0628232658
2804.4859204101	0.0627411529
2806.4147277831	0.0627098083
2808.3435351562	0.0622781813
2810.2723425292	0.0622245744
2812.2011499022	0.0622480065
2814.1299572753	0.0620034970
2816.0587646483	0.0619631931
2817.9875720214	0.0617145374
2819.9163793944	0.0616218373
2821.8451867675	0.0615428463
2823.7739941405	0.0614695549
2825.7028015136	0.0613319948
2827.6316088866	0.0611664057
2829.5604162597	0.0610236824
2831.4892236327	0.0607837960
2833.4180310058	0.0608338043
2835.3468383788	0.0606113560
2837.2756457519	0.0604518652
2839.2044531249	0.0602667853
2841.1332604979	0.0600320622
2843.0620678710	0.0600111559
2844.9908752440	0.0596443862
2846.9196826171	0.0592741072
2848.8484899901	0.0588531271
2850.7772973632	0.0587425828
2852.7061047362	0.0587415621
2854.6349121093	0.0586119592
2856.5637194823	0.0585666336
2858.4925268554	0.0583457425
2860.4213342284	0.0584354624
2862.3501416015	0.0583882220
2864.2789489745	0.0581382066
2866.2077563476	0.0581038967
2868.1365637206	0.0579609200
2870.0653710936	0.0577980801
2871.9941784667	0.0577753372
2873.9229858397	0.0576910898
2875.8517932128	0.0575080663
2877.7806005858	0.0574600846
2879.7094079589	0.0573838577
2881.6382153319	0.0573185645
2883.5670227050	0.0572728738
2885.4958300780	0.0571837239
2887.4246374511	0.0571066290
2889.3534448241	0.0569439232
2891.2822521972	0.0567281097
2893.2110595702	0.0565567985
2895.1398669433	0.0564939678
2897.0686743163	0.0563641451
2898.9974816893	0.0562270582
2900.9262890624	0.0560264029
2902.8550964354	0.0558009595
2904.7839038085	0.0557151586
2906.7127111815	0.0555240773
2908.6415185546	0.0553217418
2910.5703259276	0.0552266240
2912.4991333007	0.0549317040
2914.4279406737	0.0544804484
2916.3567480468	0.0542576909
2918.2855554198	0.0540879667
2920.2143627929	0.0540249497
2922.1431701659	0.0539228991
2924.0719775390	0.0537467524
2926.0007849120	0.0537960567
2927.9295922851	0.0537108630
2929.8583996581	0.0536816344
2931.7872070311	0.0536616035
2933.7160144042	0.0536141843
2935.6448217772	0.0535602272
2937.5736291503	0.0535331666
2939.5024365233	0.0536054298
2941.4312438964	0.0534606837
2943.3600512694	0.0534902513
2945.2888586425	0.0534645319
2947.2176660155	0.0533729456
2949.1464733886	0.0532927923
2951.0752807616	0.0531403944
2953.0040881347	0.0530461408
2954.9328955077	0.0527566597
2956.8617028808	0.0526518077
2958.7905102538	0.0526139662
2960.7193176268	0.0524401926
2962.6481249999	0.0521475598
2964.5769323729	0.0521107092
2966.5057397460	0.0521359406
2968.4345471190	0.0520122647
2970.3633544921	0.0522147827
2972.2921618651	0.0521391928
2974.2209692382	0.0521669760
2976.1497766112	0.0521921813
2978.0785839843	0.0521281883
2980.0073913573	0.0522224158
2981.9361987304	0.0520710126
2983.8650061034	0.0521031618
2985.7938134765	0.0519486107
2987.7226208495	0.0518898889
2989.6514282225	0.0518928170
2991.5802355956	0.0517078191
2993.5090429686	0.0517021604
2995.4378503417	0.0515971482
2997.3666577147	0.0515982285
2999.2954650878	0.0515353344
3001.2242724608	0.0513566881
3003.1530798339	0.0511769429
3005.0818872069	0.0511062965
3007.0106945800	0.0511156693
3008.9395019530	0.0509992242
3010.8683093261	0.0507931858
3012.7971166991	0.0506271496
3014.7259240722	0.0505849198
3016.6547314452	0.0504323617
3018.5835388182	0.0504385084
3020.5123461913	0.0503638014
3022.4411535643	0.0502170995
3024.3699609374	0.0500789359
3026.2987683104	0.0499099866
3028.2275756835	0.0498705655
3030.1563830565	0.0496286973
3032.0851904296	0.0495815575
3034.0139978026	0.0494410992
3035.9428051757	0.0493635386
3037.8716125487	0.0493569151
3039.8004199218	0.0491181090
3041.7292272948	0.0490897223
3043.6580346679	0.0490089580
3045.5868420409	0.0489829406
3047.5156494139	0.0487092361
3049.4444567870	0.0485748649
3051.3732641600	0.0485896766
3053.3020715331	0.0484202430
3055.2308789061	0.0483519323
3057.1596862792	0.0481216684
3059.0884936522	0.0481458977
3061.0173010253	0.0480449907
3062.9461083983	0.0479326025
3064.8749157714	0.0478180833
3066.8037231444	0.0476430766
3068.7325305175	0.0477220714
3070.6613378905	0.0475065075
3072.5901452636	0.0474560931
3074.5189526366	0.0473321863
3076.4477600097	0.0471817106
3078.3765673827	0.0472116172
3080.3053747557	0.0470999330
3082.2341821288	0.0470013209
3084.1629895018	0.0468271747
3086.0917968749	0.0467994846
3088.0206042479	0.0466874428
3089.9494116210	0.0465017669
3091.8782189940	0.0464058407
3093.8070263671	0.0462992564
3095.7358337401	0.0461766124
3097.6646411132	0.0462036170
3099.5934484862	0.0461253822
3101.5222558593	0.0458443984
3103.4510632323	0.0459105931
3105.3798706054	0.0457372852
3107.3086779784	0.0455643609
3109.2374853514	0.0455347970
3111.1662927245	0.0453675091
3113.0951000975	0.0452776700
3115.0239074706	0.0450515822
3116.9527148436	0.0449845567
3118.8815222167	0.0449030697
3120.8103295897	0.0448009744
3122.7391369628	0.0446187891
3124.6679443358	0.0446266532
3126.5967517089	0.0446586236
3128.5255590819	0.0442694351
3130.4543664550	0.0442764834
3132.3831738280	0.0441361107
3134.3119812011	0.0439902134
3136.2407885741	0.0440130904
3138.1695959471	0.0437574834
3140.0984033202	0.0436623432
3142.0272106932	0.0435264707
3143.9560180663	0.0434402823
3145.8848254393	0.0433351286
3147.8136328124	0.0432324409
3149.7424401854	0.0430821851
3151.6712475585	0.0428353697
3153.6000549315	0.0427942052
3155.5288623046	0.0426590368
3157.4576696776	0.0425710529
3159.3864770507	0.0424829088
3161.3152844237	0.0422782451
3163.2440917968	0.0422057956
3165.1728991698	0.0421592668
3167.1017065428	0.0420319512
3169.0305139159	0.0418554544
3170.9593212889	0.0417750515
3172.8881286620	0.0417014547
3174.8169360350	0.0415369943
3176.7457434081	0.0414170623
3178.6745507811	0.0412472934
3180.6033581542	0.0411276780
3182.5321655272	0.0411454774
3184.4609729003	0.0410195664
3186.3897802733	0.0408214107
3188.3185876464	0.0407170802
3190.2473950194	0.0406903550
3192.1762023925	0.0405280739
3194.1050097655	0.0404363275
3196.0338171386	0.0404320657
3197.9626245116	0.0401978716
3199.8914318846	0.0401965417
3201.8202392577	0.0401542895
3203.7490466307	0.0399923995
3205.6778540038	0.0399179123
3207.6066613768	0.0397946164
3209.5354687499	0.0397289023
3211.4642761229	0.0395894498
3213.3930834960	0.0395229608
3215.3218908690	0.0392817855
3217.2506982421	0.0392417870
3219.1795056151	0.0392889008
3221.1083129882	0.0391083695
3223.0371203612	0.0391976088
3224.9659277343	0.0390284657
3226.8947351073	0.0389232337
3228.8235424803	0.0388597175
3230.7523498534	0.0387630388
3232.6811572264	0.0387011096
3234.6099645995	0.0384466127
3236.5387719725	0.0385758802
3238.4675793456	0.0385398120
3240.3963867186	0.0384380892
3242.3251940917	0.0384365916
3244.2540014647	0.0382595956
3246.1828088378	0.0381974466
3248.1116162108	0.0381765366
3250.0404235839	0.0382367745
3251.9692309569	0.0380786918
3253.8980383300	0.0378784016
3255.8268457030	0.0378452688
3257.7556530760	0.0378219411
3259.6844604491	0.0378100872
3261.6132678221	0.0377321355
3263.5420751952	0.0376610346
3265.4708825682	0.0376072265
3267.3996899413	0.0376075469
3269.3284973143	0.0375281870
3271.2573046874	0.0374424607
3273.1861120604	0.0374289304
3275.1149194335	0.0373267680
3277.0437268065	0.0372376144
3278.9725341796	0.0372475274
3280.9013415526	0.0371595547
3282.8301489257	0.0371134803
3284.7589562987	0.0372092389
3286.6877636717	0.0370399803
3288.6165710448	0.0368911326
3290.5453784178	0.0368179753
3292.4741857909	0.0366737768
3294.4029931639	0.0367039777
3296.3318005370	0.0367247835
3298.2606079100	0.0366134457
3300.1894152831	0.0366056785
3302.1182226561	0.0366343744
3304.0470300292	0.0364225581
3305.9758374022	0.0363485813
3307.9046447753	0.0363204926
3309.8334521483	0.0361974090
3311.7622595214	0.0361128896
3313.6910668944	0.0360953510
3315.6198742675	0.0361643098
3317.5486816405	0.0360122137
3319.4774890135	0.0360003188
3321.4062963866	0.0358933434
3323.3351037596	0.0357914791
3325.2639111327	0.0358328782
3327.1927185057	0.0356494337
3329.1215258788	0.0356711224
3331.0503332518	0.0355456136
3332.9791406249	0.0354703367
3334.9079479979	0.0354807824
3336.8367553710	0.0353645198
3338.7655627440	0.0353235528
3340.6943701171	0.0352408327
3342.6231774901	0.0352598503
3344.5519848632	0.0351202823
3346.4807922362	0.0350676998
3348.4095996092	0.0350417942
3350.3384069823	0.0348922983
3352.2672143553	0.0348478928
3354.1960217284	0.0347725824
3356.1248291014	0.0347218588
3358.0536364745	0.0346674025
3359.9824438475	0.0346331634
3361.9112512206	0.0344700292
3363.8400585936	0.0343166441
3365.7688659667	0.0343021229
3367.6976733397	0.0343351364
3369.6264807128	0.0342424214
3371.5552880858	0.0341526717
3373.4840954589	0.0341469310
3375.4129028319	0.0339877829
3377.3417102049	0.0340011008
3379.2705175780	0.0338794664
3381.1993249510	0.0338013992
3383.1281323241	0.0338128582
3385.0569396971	0.0336731300
3386.9857470702	0.0336205959
3388.9145544432	0.0335262753
3390.8433618163	0.0334243178
3392.7721691893	0.0331907868
3394.7009765624	0.0332636088
3396.6297839354	0.0331267379
3398.5585913085	0.0329845287
3400.4873986815	0.0331233740
3402.4162060546	0.0328783058
3404.3450134276	0.0330324546
3406.2738208006	0.0329637192
3408.2026281737	0.0328162014
3410.1314355467	0.0327895135
3412.0602429198	0.0326255634
3413.9890502928	0.0326860994
3415.9178576659	0.0325781107
3417.8466650389	0.0326024741
3419.7754724120	0.0323102027
3421.7042797850	0.0321625769
3423.6330871581	0.0323189199
3425.5618945311	0.0322468691
3427.4907019042	0.0321619436
3429.4195092772	0.0320213512
3431.3483166503	0.0321066193
3433.2771240233	0.0319233760
3435.2059313963	0.0317811221
3437.1347387694	0.0317795426
3439.0635461424	0.0317386687
3440.9923535155	0.0316357762
3442.9211608885	0.0314603820
3444.8499682616	0.0315563716
3446.7787756346	0.0312441476
3448.7075830077	0.0311604142
3450.6363903807	0.0313284174
3452.5651977538	0.0313167274
3454.4940051268	0.0313552395
3456.4228124999	0.0311903432
3458.3516198729	0.0310894828
3460.2804272460	0.0309377927
3462.2092346190	0.0309232082
3464.1380419921	0.0310028363
3466.0668493651	0.0310057271
3467.9956567381	0.0308672525
3469.9244641112	0.0307709835
3471.8532714842	0.0309451092
3473.7820788573	0.0308431946
3475.7108862303	0.0307142064
3477.6396936034	0.0307841711
3479.5685009764	0.0307130571
3481.4973083495	0.0304306839
3483.4261157225	0.0304388031
3485.3549230956	0.0305667110
3487.2837304686	0.0304716751
3489.2125378417	0.0304004662
3491.1413452147	0.0304111876
3493.0701525878	0.0304902121
3494.9989599608	0.0303018391
3496.9277673338	0.0302501246
3498.8565747069	0.0303696729
3500.7853820799	0.0302562267
3502.7141894530	0.0297534652
3504.6429968260	0.0297894049
3506.5718041991	0.0303723365
3508.5006115721	0.0299185552
3510.4294189452	0.0298754480
3512.3582263182	0.0301982518
3514.2870336913	0.0300821476
3516.2158410643	0.0301550590
3518.1446484374	0.0300572570
3520.0734558104	0.0301118232
3522.0022631835	0.0298309624
3523.9310705565	0.0295526814
3525.8598779295	0.0296586771
3527.7886853026	0.0296061430
3529.7174926756	0.0296006836
3531.6463000487	0.0299117379
3533.5751074217	0.0301069431
3535.5039147948	0.0296857879
3537.4327221678	0.0296733528
3539.3615295409	0.0299040955
3541.2903369139	0.0297896974
3543.2191442870	0.0295325685
3545.1479516600	0.0289946198
3547.0767590331	0.0287586674
3549.0055664061	0.0294414982
3550.9343737792	0.0296320170
3552.8631811522	0.0291287489
3554.7919885252	0.0295563340
3556.7207958983	0.0295480154
3558.6496032713	0.0293612648
3560.5784106444	0.0292547941
3562.5072180174	0.0290316399
3564.4360253905	0.0292337630
3566.3648327635	0.0275973380
3568.2936401366	0.0270513073
3570.2224475096	0.0289801024
3572.1512548827	0.0294372551
3574.0800622557	0.0291603282
3576.0088696288	0.0292311497
3577.9376770018	0.0291026570
3579.8664843749	0.0292053036
3581.7952917479	0.0291674137
3583.7240991210	0.0291219857
3585.6529064940	0.0285103340
3587.5817138670	0.0266605355
3589.5105212401	0.0273373388
3591.4393286131	0.0291705243
3593.3681359862	0.0284889191
3595.2969433592	0.0280323904
3597.2257507323	0.0284532141
3599.1545581053	0.0286377147
3601.0833654784	0.0283754319
3603.0121728514	0.0286119580
3604.9409802245	0.0290481411
3606.8697875975	0.0281459093
3608.7985949706	0.0267817490
3610.7274023436	0.0273637064
3612.6562097167	0.0277848914
3614.5850170897	0.0271929242
3616.5138244627	0.0287346430
3618.4426318358	0.0267548859
3620.3714392088	0.0261682812
3622.3002465819	0.0288613327
3624.2290539549	0.0281700939
3626.1578613280	0.0291752368
3628.0866687010	0.0253294297
3630.0154760741	0.0236366764
3631.9442834471	0.0285007264
3633.8730908202	0.0278581418
3635.8018981932	0.0282580815
3637.7307055663	0.0287130885
3639.6595129393	0.0283090379
3641.5883203124	0.0285280980
3643.5171276854	0.0283128805
3645.4459350584	0.0284375697
3647.3747424315	0.0259361286
3649.3035498045	0.0242190938
3651.2323571776	0.0245310366
3653.1611645506	0.0282131471
3655.0899719237	0.0277124327
3657.0187792967	0.0254474320
3658.9475866698	0.0285997540
3660.8763940428	0.0279413201
3662.8052014159	0.0283700526
3664.7340087889	0.0281217564
3666.6628161620	0.0279241670
3668.5916235350	0.0272400938
3670.5204309081	0.0229248293
3672.4492382811	0.0269737877
3674.3780456541	0.0257478282
3676.3068530272	0.0221302211
3678.2356604002	0.0267354883
3680.1644677733	0.0270980708
3682.0932751463	0.0273052379
3684.0220825194	0.0279711206
3685.9508898924	0.0274743531
3687.8796972655	0.0250704028
3689.8085046385	0.0234154388
3691.7373120116	0.0262125283
3693.6661193846	0.0267513767
3695.5949267577	0.0272751749
3697.5237341307	0.0272283144
3699.4525415038	0.0270415694
3701.3813488768	0.0264391974
3703.3101562499	0.0255401842
3705.2389636229	0.0277473815
3707.1677709959	0.0265302956
3709.0965783690	0.0258860309
3711.0253857420	0.0246072821
3712.9541931151	0.0234132595
3714.8830004881	0.0266706739
3716.8118078612	0.0262635760
3718.7406152342	0.0264874715
3720.6694226073	0.0260124374
3722.5982299803	0.0252610780
3724.5270373534	0.0259827897
3726.4558447264	0.0243882835
3728.3846520995	0.0260450002
3730.3134594725	0.0257707834
3732.2422668456	0.0240350794
3734.1710742186	0.0235619918
3736.0998815916	0.0226658992
3738.0286889647	0.0235769022
3739.9574963377	0.0252653845
3741.8863037108	0.0263675041
3743.8151110838	0.0210449100
3745.7439184569	0.0201355033
3747.6727258299	0.0251277927
3749.6015332030	0.0219549481
3751.5303405760	0.0205764230
3753.4591479491	0.0231470987
3755.3879553221	0.0246310085
3757.3167626952	0.0255027805
3759.2455700682	0.0237801019
3761.1743774413	0.0245439038
3763.1031848143	0.0257697925
3765.0319921873	0.0243092030
3766.9607995604	0.0248235129
3768.8896069334	0.0244083330
3770.8184143065	0.0235447437
3772.7472216795	0.0250709224
3774.6760290526	0.0251208115
3776.6048364256	0.0252007842
3778.5336437987	0.0244295839
3780.4624511717	0.0236971825
3782.3912585448	0.0249417350
3784.3200659178	0.0244961083
3786.2488732909	0.0243459493
3788.1776806639	0.0247503556
3790.1064880370	0.0247356184
3792.0352954100	0.0245271921
3793.9641027830	0.0249012187
3795.8929101561	0.0235533472
3797.8217175291	0.0234540999
3799.7505249022	0.0243995991
3801.6793322752	0.0200006757
3803.6081396483	0.0228635706
3805.5369470213	0.0243253745
3807.4657543944	0.0207550190
3809.3945617674	0.0241589621
3811.3233691405	0.0236487798
3813.2521765135	0.0244181901
3815.1809838866	0.0222832784
3817.1097912596	0.0201471485
3819.0385986327	0.0243207440
3820.9674060057	0.0204945542
3822.8962133787	0.0213991515
3824.8250207518	0.0241811406
3826.7538281248	0.0223075468
3828.6826354979	0.0236574970
3830.6114428709	0.0228674635
3832.5402502440	0.0222514980
3834.4690576170	0.0226154551
3836.3978649901	0.0214860700
3838.3266723631	0.0198551435
3840.2554797362	0.0213199146
3842.1842871092	0.0225160308
3844.1130944823	0.0216404926
3846.0419018553	0.0232049674
3847.9707092284	0.0229598861
3849.8995166014	0.0228579119
3851.8283239745	0.0208334625
3853.7571313475	0.0163746886
3855.6859387205	0.0189036429
3857.6147460936	0.0228820257
3859.5435534666	0.0222814232
3861.4723608397	0.0222038943
3863.4011682127	0.0216355100
3865.3299755858	0.0204445422
3867.2587829588	0.0223519523
3869.1875903319	0.0206098668
3871.1163977049	0.0194935519
3873.0452050780	0.0221884772
3874.9740124510	0.0207828768
3876.9028198241	0.0222759098
3878.8316271971	0.0224468783
3880.7604345702	0.0197990723
3882.6892419432	0.0222834833
3884.6180493162	0.0208929591
3886.5468566893	0.0194894969
3888.4756640623	0.0223054215
3890.4044714354	0.0210661218
3892.3332788084	0.0200867467
3894.2620861815	0.0217050649
3896.1908935545	0.0219186209
3898.1197009276	0.0210471470
3900.0485083006	0.0200909358
3901.9773156737	0.0199803300
3903.9061230467	0.0196753051
3905.8349304198	0.0200620778
3907.7637377928	0.0216133539
3909.6925451659	0.0214548819
3911.6213525389	0.0213263668
3913.5501599119	0.0215981770
3915.4789672850	0.0210409481
3917.4077746580	0.0204574578
3919.3365820311	0.0202877037
3921.2653894041	0.0209895819
3923.1941967772	0.0208683461
3925.1230041502	0.0204688609
3927.0518115233	0.0208296124
3928.9806188963	0.0209509209
3930.9094262694	0.0205202438
3932.8382336424	0.0200899895
3934.7670410155	0.0206713285
3936.6958483885	0.0207295939
3938.6246557616	0.0206007306
3940.5534631346	0.0208239164
3942.4822705076	0.0201420076
3944.4110778807	0.0202635638
3946.3398852537	0.0206300840
3948.2686926268	0.0200473703
3950.1974999998	0.0200786870
3952.1263073729	0.0203925669
3954.0551147459	0.0203645211
3955.9839221190	0.0203081015
3957.9127294920	0.0202222597
3959.8415368651	0.0202666484
3961.7703442381	0.0201196186
3963.6991516112	0.0200170744
3965.6279589842	0.0200913679
3967.5567663573	0.0199454762
3969.4855737303	0.0198889226
3971.4143811034	0.0198718738
3973.3431884764	0.0198119190
3975.2719958494	0.0196965002
3977.2008032225	0.0197580364
3979.1296105955	0.0198125504
3981.0584179686	0.0196021069
3982.9872253416	0.0195403621
3984.9160327147	0.0195238702
3986.8448400877	0.0196221732
3988.7736474608	0.0195069350
3990.7024548338	0.0193416327
3992.6312622069	0.0193387158
3994.5600695799	0.0192593373
3996.4888769530	0.0193322990
3998.4176843260	0.0192268137
4000.3464916991	0.0192369558
4002.2752990721	0.0192259178
4004.2041064451	0.0191577561
4006.1329138182	0.0192450210
4008.0617211912	0.0190083198
4009.9905285643	0.0189090464
4011.9193359373	0.0189574137
4013.8481433104	0.0189114381
4015.7769506834	0.0188748389
4017.7057580565	0.0188662373
4019.6345654295	0.0188002251
4021.5633728026	0.0187180806
4023.4921801756	0.0186768956
4025.4209875487	0.0185541362
4027.3497949217	0.0186096728
4029.2786022948	0.0185845178
4031.2074096678	0.0185575262
4033.1362170408	0.0185118094
4035.0650244139	0.0183300264
4036.9938317869	0.0183966048
4038.9226391600	0.0183500908
4040.8514465330	0.0183676817
4042.7802539061	0.0183190480
4044.7090612791	0.0181152634
4046.6378686522	0.0181685127
4048.5666760252	0.0180897973
4050.4954833983	0.0181273241
4052.4242907713	0.0181607604
4054.3530981444	0.0179864261
4056.2819055174	0.0180456936
4058.2107128905	0.0180378910
4060.1395202635	0.0179310925
4062.0683276365	0.0178479999
4063.9971350096	0.0178271346
4065.9259423826	0.0178583842
4067.8547497557	0.0177259054
4069.7835571287	0.0177089684
4071.7123645018	0.0177605450
4073.6411718748	0.0176641662
4075.5699792479	0.0175313279
4077.4987866209	0.0175272115
4079.4275939940	0.0175048895
4081.3564013670	0.0173478797
4083.2852087401	0.0174099598
4085.2140161131	0.0174058750
4087.1428234862	0.0173356198
4089.0716308592	0.0173392892
4091.0004382323	0.0172181949
4092.9292456053	0.0171837732
4094.8580529783	0.0171763003
4096.7868603514	0.0171693154
4098.7156677244	0.0171143226
4100.6444750975	0.0170388147
4102.5732824705	0.0169440731
4104.5020898436	0.0168661848
4106.4308972166	0.0168551262
4108.3597045897	0.0168120526
4110.2885119627	0.0168461949
4112.2173193358	0.0168189332
4114.1461267088	0.0168292373
4116.0749340819	0.0167532489
4118.0037414549	0.0166839510
4119.9325488280	0.0166725703
4121.8613562010	0.0165680051
4123.7901635740	0.0165906753
4125.7189709471	0.0164789334
4127.6477783201	0.0164841842
4129.5765856932	0.0163760521
4131.5053930662	0.0162549578
4133.4342004393	0.0163786132
4135.3630078123	0.0162650049
4137.2918151854	0.0162280388
4139.2206225584	0.0161607824
4141.1494299315	0.0161620677
4143.0782373045	0.0161254257
4145.0070446776	0.0160874762
4146.9358520506	0.0161510035
4148.8646594237	0.0159642976
4150.7934667967	0.0159261748
4152.7222741697	0.0159425102
4154.6510815428	0.0159380399
4156.5798889158	0.0158262327
4158.5086962889	0.0157980807
4160.4375036619	0.0158434212
4162.3663110350	0.0157751981
4164.2951184080	0.0157589801
4166.2239257811	0.0155789638
4168.1527331541	0.0156261772
4170.0815405272	0.0155930892
4172.0103479002	0.0154602826
4173.9391552733	0.0154669434
4175.8679626463	0.0154473204
4177.7967700194	0.0154951336
4179.7255773924	0.0154170617
4181.6543847654	0.0154450759
4183.5831921385	0.0153526850
4185.5119995115	0.0152828246
4187.4408068846	0.0152580868
4189.3696142576	0.0151812835
4191.2984216307	0.0151922628
4193.2272290037	0.0151004149
4195.1560363768	0.0151623599
4197.0848437498	0.0150822252
4199.0136511229	0.0150660425
4200.9424584959	0.0150141465
4202.8712658690	0.0148899714
4204.8000732420	0.0149399396
4206.7288806151	0.0148304738
4208.6576879881	0.0148563422
4210.5864953611	0.0147925690
4212.5153027342	0.0147796879
4214.4441101072	0.0147576761
4216.3729174803	0.0146392277
4218.3017248533	0.0146386251
4220.2305322264	0.0145425647
4222.1593395994	0.0146119520
4224.0881469725	0.0145994686
4226.0169543455	0.0144772576
4227.9457617186	0.0144281657
4229.8745690916	0.0144769605
4231.8033764647	0.0144081200
4233.7321838377	0.0142497979
4235.6609912108	0.0143092712
4237.5897985838	0.0142933410
4239.5186059569	0.0142467218
4241.4474133299	0.0141957179
4243.3762207029	0.0142484307
4245.3050280760	0.0141760260
4247.2338354490	0.0140530355
4249.1626428221	0.0141213965
4251.0914501951	0.0140477140
4253.0202575682	0.0139994342
4254.9490649412	0.0139579587
4256.8778723143	0.0139930509
4258.8066796873	0.0139123127
4260.7354870604	0.0138408821
4262.6642944334	0.0138902906
4264.5931018065	0.0137527380
4266.5219091795	0.0137639511
4268.4507165526	0.0137894433
4270.3795239256	0.0137436800
4272.3083312986	0.0136379208
4274.2371386717	0.0135548878
4276.1659460447	0.0135666160
4278.0947534178	0.0136199854
4280.0235607908	0.0135881081
4281.9523681639	0.0134293512
4283.8811755369	0.0134702325
4285.8099829100	0.0133824125
4287.7387902830	0.0133199841
4289.6675976561	0.0133785028
4291.5964050291	0.0133818612
4293.5252124022	0.0133921970
4295.4540197752	0.0132567771
4297.3828271483	0.0131692160
4299.3116345213	0.0131165702
4301.2404418943	0.0131986476
4303.1692492674	0.0132152159
4305.0980566404	0.0130583812
4307.0268640135	0.0130236298
4308.9556713865	0.0130122062
4310.8844787596	0.0129665965
4312.8132861326	0.0130143259
4314.7420935057	0.0129635707
4316.6709008787	0.0127437804
4318.5997082518	0.0128667504
4320.5285156248	0.0128157381
4322.4573229979	0.0127246398
4324.3861303709	0.0128592774
4326.3149377440	0.0127034243
4328.2437451170	0.0127336802
4330.1725524900	0.0126863830
4332.1013598631	0.0126099605
4334.0301672361	0.0126484912
4335.9589746092	0.0125829829
4337.8877819822	0.0126408422
4339.8165893553	0.0125991553
4341.7453967283	0.0125053059
4343.6742041014	0.0124641908
4345.6030114744	0.0123831071
4347.5318188475	0.0123128649
4349.4606262205	0.0124272555
4351.3894335936	0.0123953503
4353.3182409666	0.0122805852
4355.2470483397	0.0122513287
4357.1758557127	0.0122008976
4359.1046630858	0.0122754024
4361.0334704588	0.0121781360
4362.9622778318	0.0122048948
4364.8910852049	0.0121124983
4366.8198925779	0.0120403748
4368.7486999510	0.0121496161
4370.6775073240	0.0119412150
4372.6063146971	0.0119854771
4374.5351220701	0.0119408593
4376.4639294432	0.0118804928
4378.3927368162	0.0118875224
4380.3215441893	0.0118192881
4382.2503515623	0.0119126495
4384.1791589354	0.0117771802
4386.1079663084	0.0117401471
4388.0367736815	0.0117207579
4389.9655810545	0.0116571672
4391.8943884275	0.0116760144
4393.8231958006	0.0116418581
4395.7520031736	0.0116182789
4397.6808105467	0.0115609337
4399.6096179197	0.0115052629
4401.5384252928	0.0114650819
4403.4672326658	0.0114699788
4405.3960400389	0.0114495866
4407.3248474119	0.0114801992
4409.2536547850	0.0113607794
4411.1824621580	0.0113182357
4413.1112695311	0.0113191083
4415.0400769041	0.0112362057
4416.9688842772	0.0113599021
4418.8976916502	0.0112110246
4420.8264990232	0.0112178102
4422.7553063963	0.0112016667
4424.6841137693	0.0111128055
4426.6129211424	0.0112371715
4428.5417285154	0.0110793207
4430.4705358885	0.0110781156
4432.3993432615	0.0110526178
4434.3281506346	0.0110467430
4436.2569580076	0.0110735008
4438.1857653807	0.0110154217
4440.1145727537	0.0109914774
4442.0433801268	0.0108556189
4443.9721874998	0.0108958688
4445.9009948729	0.0108496584
4447.8298022459	0.0108310245
4449.7586096189	0.0108236801
4451.6874169920	0.0107252393
4453.6162243650	0.0106838578
4455.5450317381	0.0106850285
4457.4738391111	0.0107379947
4459.4026464842	0.0106207626
4461.3314538572	0.0106203575
4463.2602612303	0.0105704367
4465.1890686033	0.0105282832
4467.1178759764	0.0104910880
4469.0466833494	0.0103551336
4470.9754907225	0.0104746521
4472.9042980955	0.0104954336
4474.8331054686	0.0104147643
4476.7619128416	0.0103511903
4478.6907202147	0.0103666577
4480.6195275877	0.0103010312
4482.5483349607	0.0102478787
4484.4771423338	0.0103096347
4486.4059497068	0.0102313422
4488.3347570799	0.0102379667
4490.2635644529	0.0101447590
4492.1923718260	0.0101444833
4494.1211791990	0.0100807846
4496.0499865721	0.0099944714
4497.9787939451	0.0101677738
4499.9076013182	0.0100533720
4501.8364086912	0.0099995583
4503.7652160643	0.0099844299
4505.6940234373	0.0099378265
4507.6228308104	0.0100090373
4509.5516381834	0.0099292658
4511.4804455564	0.0098735057
4513.4092529295	0.0098825470
4515.3380603025	0.0098709371
4517.2668676756	0.0098778084
4519.1956750486	0.0099369129
4521.1244824217	0.0098201809
4523.0532897947	0.0097018359
4524.9820971678	0.0097264685
4526.9109045408	0.0096852407
4528.8397119139	0.0097182225
4530.7685192869	0.0096828975
4532.6973266600	0.0095838327
4534.6261340330	0.0095606223
4536.5549414061	0.0095673418
4538.4837487791	0.0095583368
4540.4125561521	0.0094859852
4542.3413635252	0.0094544422
4544.2701708982	0.0094781201
4546.1989782713	0.0094338302
4548.1277856443	0.0093550384
4550.0565930174	0.0093506072
4551.9854003904	0.0092765316
4553.9142077635	0.0092953946
4555.8430151365	0.0093662180
4557.7718225096	0.0092716375
4559.7006298826	0.0092342421
4561.6294372557	0.0091524646
4563.5582446287	0.0091190040
4565.4870520018	0.0091497190
4567.4158593748	0.0091512166
4569.3446667478	0.0091853617
4571.2734741209	0.0091016144
4573.2022814939	0.0090954946
4575.1310888670	0.0090298802
4577.0598962400	0.0089571588
4578.9887036131	0.0090662576
4580.9175109861	0.0089868847
4582.8463183592	0.0089582261
4584.7751257322	0.0089579644
4586.7039331053	0.0088922158
4588.6327404783	0.0089577325
4590.5615478514	0.0088916076
4592.4903552244	0.0088539459
4594.4191625975	0.0088098822
4596.3479699705	0.0086690532
4598.2767773435	0.0086950306
4600.2055847166	0.0087253377
4602.1343920896	0.0087182987
4604.0631994627	0.0086985454
4605.9920068357	0.0086249951
4607.9208142088	0.0085614454
4609.8496215818	0.0085514337
4611.7784289549	0.0085730972
4613.7072363279	0.0085349306
4615.6360437010	0.0084950710
4617.5648510740	0.0085365027
4619.4936584471	0.0085432623
4621.4224658201	0.0084795216
4623.3512731932	0.0084851738
4625.2800805662	0.0084260739
4627.2088879393	0.0083309729
4629.1376953123	0.0083447499
4631.0665026853	0.0083145900
4632.9953100584	0.0083277393
4634.9241174314	0.0084115639
4636.8529248045	0.0083257556
4638.7817321775	0.0082189925
4640.7105395506	0.0082711615
4642.6393469236	0.0081813522
4644.5681542967	0.0081269015
4646.4969616697	0.0081613418
4648.4257690428	0.0080926511
4650.3545764158	0.0081056599
4652.2833837889	0.0080496492
4654.2121911619	0.0080823144
4656.1409985350	0.0080808494
4658.0698059080	0.0080129271
4659.9986132810	0.0080627166
4661.9274206541	0.0079601090
4663.8562280271	0.0079144137
4665.7850354002	0.0079090958
4667.7138427732	0.0079640374
4669.6426501463	0.0079374034
4671.5714575193	0.0078463461
4673.5002648924	0.0078809410
4675.4290722654	0.0078057060
4677.3578796385	0.0077790427
4679.2866870115	0.0077013136
4681.2154943846	0.0077659441
4683.1443017576	0.0078196675
4685.0731091307	0.0077012270
4687.0019165037	0.0077444576
4688.9307238767	0.0076928586
4690.8595312498	0.0076846252
4692.7883386228	0.0076633329
4694.7171459959	0.0075992849
4696.6459533689	0.0076052593
4698.5747607420	0.0075475345
4700.5035681150	0.0075338967
4702.4323754881	0.0075521083
4704.3611828611	0.0075043943
4706.2899902342	0.0075189248
4708.2187976072	0.0075576436
4710.1476049803	0.0074349204
4712.0764123533	0.0074650445
4714.0052197264	0.0073826490
4715.9340270994	0.0073515531
4717.8628344724	0.0074665984
4719.7916418455	0.0073177489
4721.7204492185	0.0073737646
4723.6492565916	0.0073469337
4725.5780639646	0.0073599638
4727.5068713377	0.0073114960
4729.4356787107	0.0072081722
4731.3644860838	0.0073725944
4733.2932934568	0.0071780309
4735.2221008299	0.0071431706
4737.1509082029	0.0071659582
4739.0797155760	0.0071364930
4741.0085229490	0.0071935444
4742.9373303221	0.0070999293
4744.8661376951	0.0071347542
4746.7949450682	0.0070825368
4748.7237524412	0.0071172379
4750.6525598142	0.0070793023
4752.5813671873	0.0070051048
4754.5101745603	0.0070404373
4756.4389819334	0.0069779931
4758.3677893064	0.0069929967
4760.2965966795	0.0068969587
4762.2254040525	0.0068776836
4764.1542114256	0.0069060391
4766.0830187986	0.0068371650
4768.0118261717	0.0067789182
4769.9406335447	0.0068003591
4771.8694409178	0.0069231363
4773.7982482908	0.0068422258
4775.7270556639	0.0067591565
4777.6558630369	0.0068429001
4779.5846704099	0.0067853075
4781.5134777830	0.0067366697
4783.4422851560	0.0068056034
4785.3710925291	0.0066863936
4787.2998999021	0.0066594747
4789.2287072752	0.0066349548
4791.1575146482	0.0066185766
4793.0863220213	0.0067215199
4795.0151293943	0.0065410715
4796.9439367674	0.0065750387
4798.8727441404	0.0066111330
4800.8015515135	0.0065982286
4802.7303588865	0.0066273808
4804.6591662596	0.0064859940
4806.5879736326	0.0065456168
4808.5167810056	0.0064502237
4810.4455883787	0.0064923940
4812.3743957517	0.0064945035
4814.3032031248	0.0063688345
4816.2320104978	0.0064590694
4818.1608178709	0.0063147675
4820.0896252439	0.0063252132
4822.0184326170	0.0063755647
4823.9472399900	0.0063422071
4825.8760473631	0.0063294666
4827.8048547361	0.0062709562
4829.7336621092	0.0063100546
4831.6624694822	0.0062738629
4833.5912768553	0.0062506404
4835.5200842283	0.0062516211
4837.4488916013	0.0062597003
4839.3776989744	0.0061992686
4841.3065063474	0.0061316062
4843.2353137205	0.0061496431
4845.1641210935	0.0061508445
4847.0929284666	0.0061233072
4849.0217358396	0.0060802186
4850.9505432127	0.0061133523
4852.8793505857	0.0061121061
4854.8081579588	0.0060789380
4856.7369653318	0.0059970804
4858.6657727049	0.0059981588
4860.5945800779	0.0060210372
4862.5233874510	0.0059665996
4864.4521948240	0.0059806844
4866.3810021971	0.0059000198
4868.3098095701	0.0059264288
4870.2386169431	0.0059283404
4872.1674243162	0.0058893748
4874.0962316892	0.0059061805
4876.0250390623	0.0058199503
4877.9538464353	0.0058486522
4879.8826538084	0.0058476566
4881.8114611814	0.0058543747
4883.7402685545	0.0058965571
4885.6690759275	0.0058476594
4887.5978833006	0.0057651978
4889.5266906736	0.0057357550
4891.4554980467	0.0057622911
4893.3843054197	0.0057404521
4895.3131127928	0.0057658246
4897.2419201658	0.0057080444
4899.1707275388	0.0056344750
4901.0995349119	0.0056822640
4903.0283422849	0.0056700478
4904.9571496580	0.0055452869
4906.8859570310	0.0055617760
4908.8147644041	0.0056642271
4910.7435717771	0.0055414815
4912.6723791502	0.0055245915
4914.6011865232	0.0055949548
4916.5299938963	0.0055712210
4918.4588012693	0.0055193608
4920.3876086424	0.0054400498
4922.3164160154	0.0054779425
4924.2452233885	0.0054948805
4926.1740307615	0.0054202839
4928.1028381345	0.0053843097
4930.0316455076	0.0054374002
4931.9604528806	0.0054402519
4933.8892602537	0.0053660786
4935.8180676267	0.0053238031
4937.7468749998	0.0053401915
4939.6756823728	0.0053666229
4941.6044897459	0.0052992236
4943.5332971189	0.0052657174
4945.4621044920	0.0052685854
4947.3909118650	0.0052524428
4949.3197192381	0.0052216407
4951.2485266111	0.0052296519
4953.1773339842	0.0052238544
4955.1061413572	0.0052247150
4957.0349487302	0.0052870912
4958.9637561033	0.0051672971
4960.8925634763	0.0051542032
4962.8213708494	0.0052152309
4964.7501782224	0.0051397574
4966.6789855955	0.0051185279
4968.6077929685	0.0051111700
4970.5366003416	0.0051194704
4972.4654077146	0.0050392644
4974.3942150877	0.0050128628
4976.3230224607	0.0050616870
4978.2518298338	0.0050629247
4980.1806372068	0.0050511826
4982.1094445799	0.0050428798
4984.0382519529	0.0050393520
4985.9670593259	0.0049359621
4987.8958666990	0.0049649710
4989.8246740720	0.0049563898
4991.7534814451	0.0048792027
4993.6822888181	0.0049432334
4995.6110961912	0.0048753349
4997.5399035642	0.0048622680
4999.4687109373	0.0048950016
5001.3975183103	0.0048478078
5003.3263256834	0.0048783096
5005.2551330564	0.0048788944
5007.1839404295	0.0048366431
5009.1127478025	0.0047933748
5011.0415551756	0.0048109367
5012.9703625486	0.0048276400
5014.8991699217	0.0047207251
5016.8279772947	0.0047322484
5018.7567846677	0.0047617853
5020.6855920408	0.0046808012
5022.6143994138	0.0046948455
5024.5432067869	0.0046965010
5026.4720141599	0.0047071250
5028.4008215330	0.0046818694
5030.3296289060	0.0046357140
5032.2584362791	0.0045787245
5034.1872436521	0.0045180088
5036.1160510252	0.0046399431
5038.0448583982	0.0046079019
5039.9736657713	0.0045713112
5041.9024731443	0.0045610890
5043.8312805174	0.0044877110
5045.7600878904	0.0045783455
5047.6888952634	0.0045115845
5049.6177026365	0.0044867331
5051.5465100095	0.0045239637
5053.4753173826	0.0045000720
5055.4041247556	0.0045075514
5057.3329321287	0.0043973494
5059.2617395017	0.0043657143
5061.1905468748	0.0044177119
5063.1193542478	0.0044225096
5065.0481616209	0.0043768752
5066.9769689939	0.0043630935
5068.9057763670	0.0043741800
5070.8345837400	0.0043569356
5072.7633911131	0.0043242727
5074.6921984861	0.0043059830
5076.6210058591	0.0043489439
5078.5498132322	0.0043524546
5080.4786206052	0.0043296767
5082.4074279783	0.0042725704
5084.3362353513	0.0043243309
5086.2650427244	0.0043374337
5088.1938500974	0.0042339647
5090.1226574705	0.0042417729
5092.0514648435	0.0041393982
5093.9802722166	0.0041207108
5095.9090795896	0.0041931053
5097.8378869627	0.0042163786
5099.7666943357	0.0042352760
5101.6955017088	0.0041952077
5103.6243090818	0.0042228876
5105.5531164548	0.0041325218
5107.4819238279	0.0040894942
5109.4107312009	0.0041374569
5111.3395385740	0.0040503005
5113.2683459470	0.0040468257
5115.1971533201	0.0041132905
5117.1259606931	0.0041081589
5119.0547680662	0.0040185861
5120.9835754392	0.0040110508
5122.9123828123	0.0040743854
5124.8411901853	0.0040558726
5126.7699975584	0.0040439768
5128.6988049314	0.0039935866
5130.6276123045	0.0039132996
5132.5564196775	0.0039441311
5134.4852270506	0.0039696721
5136.4140344236	0.0038909689
5138.3428417966	0.0038721324
5140.2716491697	0.0038956064
5142.2004565427	0.0038663917
5144.1292639158	0.0039004162
5146.0580712888	0.0038863374
5147.9868786619	0.0038464274
5149.9156860349	0.0038771611
5151.8444934080	0.0037874030
5153.7733007810	0.0038087941
5155.7021081541	0.0038248943
5157.6309155271	0.0037439479
5159.5597229002	0.0038579695
5161.4885302732	0.0037940093
5163.4173376463	0.0036998270
5165.3461450193	0.0037200914
5167.2749523923	0.0037512439
5169.2037597654	0.0037897658
5171.1325671384	0.0036520949
5173.0613745115	0.0037232451
5174.9901818845	0.0037630489
5176.9189892576	0.0036821002
5178.8477966306	0.0037553073
5180.7766040037	0.0036858185
5182.7054113767	0.0037273702
5184.6342187498	0.0037584929
5186.5630261228	0.0035811705
5188.4918334959	0.0036195249
5190.4206408689	0.0036786790
5192.3494482420	0.0035805432
5194.2782556150	0.0035674931
5196.2070629880	0.0035370039
5198.1358703611	0.0035796138
5200.0646777341	0.0036041220
5201.9934851072	0.0034910073
5203.9222924802	0.0035491530
5205.8510998533	0.0035107292
5207.7799072263	0.0034286571
5209.7087145994	0.0034751953
5211.6375219724	0.0034951163
5213.5663293455	0.0035024364
5215.4951367185	0.0035063052
5217.4239440916	0.0035104305
5219.3527514646	0.0034345973
5221.2815588377	0.0034911959
5223.2103662107	0.0034549308
5225.1391735837	0.0033412676
5227.0679809568	0.0033757887
5228.9967883298	0.0034130700
5230.9255957029	0.0034715612
5232.8544030759	0.0033145633
5234.7832104490	0.0033381805
5236.7120178220	0.0034002899
5238.6408251951	0.0032952188
5240.5696325681	0.0033932091
5242.4984399412	0.0033801161
5244.4272473142	0.0033643455
5246.3560546873	0.0033275012
5248.2848620603	0.0032381737
5250.2136694334	0.0032719797
5252.1424768064	0.0033328182
5254.0712841795	0.0032486380
5256.0000915525	0.0032119683
5257.9288989255	0.0033326987
5259.8577062986	0.0032359236
5261.7865136716	0.0032355208
5263.7153210447	0.0032322574
5265.6441284177	0.0031884648
5267.5729357908	0.0032254308
5269.5017431638	0.0031339687
5271.4305505369	0.0032065702
5273.3593579099	0.0031970837
5275.2881652830	0.0031521232
5277.2169726560	0.0031942655
5279.1457800291	0.0031431774
5281.0745874021	0.0031372379
5283.0033947752	0.0031353864
5284.9322021482	0.0030917432
5286.8610095212	0.0030799417
5288.7898168943	0.0031220848
5290.7186242673	0.0030364534
5292.6474316404	0.0030531455
5294.5762390134	0.0031362870
5296.5050463865	0.0030305232
5298.4338537595	0.0030096921
5300.3626611326	0.0029904959
5302.2914685056	0.0029556858
5304.2202758787	0.0030464265
5306.1490832517	0.0030250661
5308.0778906248	0.0029746597
5310.0066979978	0.0030774022
5311.9355053709	0.0030020366
5313.8643127439	0.0029435260
5315.7931201169	0.0030105999
5317.7219274900	0.0030131717
5319.6507348630	0.0030098399
5321.5795422361	0.0029269136
5323.5083496091	0.0029906915
5325.4371569822	0.0029249205
5327.3659643552	0.0028524983
5329.2947717283	0.0029212104
5331.2235791013	0.0028778031
5333.1523864744	0.0029599317
5335.0811938474	0.0028802899
5337.0100012205	0.0028240653
5338.9388085935	0.0027822589
5340.8676159666	0.0028365450
5342.7964233396	0.0029516998
5344.7252307126	0.0026932862
5346.6540380857	0.0028073038
5348.5828454587	0.0029438031
5350.5116528318	0.0028213677
5352.4404602048	0.0028422768
5354.3692675779	0.0027776218
5356.2980749509	0.0027765092
5358.2268823240	0.0027911025
5360.1556896970	0.0027346285
5362.0844970701	0.0026706504
5364.0133044431	0.0026995521
5365.9421118162	0.0028060398
5367.8709191892	0.0027816468
5369.7997265623	0.0026996438
5371.7285339353	0.0027672355
5373.6573413083	0.0027887025
5375.5861486814	0.0026616524
5377.5149560544	0.0026498374
5379.4437634275	0.0026691591
5381.3725708005	0.0027223541
5383.3013781736	0.0026897965
5385.2301855466	0.0026079663
5387.1589929197	0.0026712371
5389.0878002927	0.0026608096
5391.0166076658	0.0026189834
5392.9454150388	0.0026020764
5394.8742224119	0.0025859950
5396.8030297849	0.0025709956
5398.7318371580	0.0026277942
5400.6606445310	0.0026489622
5402.5894519041	0.0025809058
5404.5182592771	0.0025881105
5406.4470666501	0.0025972580
5408.3758740232	0.0025656593
5410.3046813962	0.0024746018
5412.2334887693	0.0024381422
5414.1622961423	0.0023987764
5416.0911035154	0.0024554217
5418.0199108884	0.0025386834
5419.9487182615	0.0024714186
5421.8775256345	0.0025403081
5423.8063330076	0.0024931189
5425.7351403806	0.0024939184
5427.6639477537	0.0025322796
5429.5927551267	0.0023768167
5431.5215624998	0.0024594441
5433.4503698728	0.0024742349
5435.3791772458	0.0023618108
5437.3079846189	0.0024384302
5439.2367919919	0.0024577300
5441.1655993650	0.0023704674
5443.0944067380	0.0023616767
5445.0232141111	0.0023625693
5446.9520214841	0.0023552051
5448.8808288572	0.0024139551
5450.8096362302	0.0024510287
5452.7384436033	0.0024038015
5454.6672509763	0.0023401200
5456.5960583494	0.0023944350
5458.5248657224	0.0023882543
5460.4536730955	0.0023349328
5462.3824804685	0.0023373540
5464.3112878415	0.0023157373
5466.2400952146	0.0023463145
5468.1689025876	0.0022927842
5470.0977099607	0.0022709945
5472.0265173337	0.0023441685
5473.9553247068	0.0022758979
5475.8841320798	0.0021564125
5477.8129394529	0.0022012009
5479.7417468259	0.0022884021
5481.6705541990	0.0022218712
5483.5993615720	0.0022046813
5485.5281689451	0.0022125305
5487.4569763181	0.0021768608
5489.3857836912	0.0022299900
5491.3145910642	0.0022366764
5493.2433984372	0.0021645171
5495.1722058103	0.0021929778
5497.1010131833	0.0022321008
5499.0298205564	0.0022120124
5500.9586279294	0.0022586097
5502.8874353025	0.0022390240
5504.8162426755	0.0022011278
5506.7450500486	0.0022211764
5508.6738574216	0.0021407446
5510.6026647947	0.0020900019
5512.5314721677	0.0021863841
5514.4602795408	0.0021660144
5516.3890869138	0.0020928485
5518.3178942869	0.0021747337
5520.2467016599	0.0021599950
5522.1755090330	0.0021018377
5524.1043164060	0.0020389156
5526.0331237790	0.0020759827
5527.9619311521	0.0021642842
5529.8907385251	0.0020907647
5531.8195458982	0.0021604681
5533.7483532712	0.0021445914
5535.6771606443	0.0020447015
5537.6059680173	0.0020424356
5539.5347753904	0.0020766559
5541.4635827634	0.0021183649
5543.3923901365	0.0020498617
5545.3211975095	0.0020638914
5547.2500048826	0.0020194782
5549.1788122556	0.0020053561
5551.1076196287	0.0020372295
5553.0364270017	0.0020512538
5554.9652343747	0.0020545898
5556.8940417478	0.0019211080
5558.8228491208	0.0019973763
5560.7516564939	0.0020149909
5562.6804638669	0.0019723182
5564.6092712400	0.0020226247
5566.5380786130	0.0019723857
5568.4668859861	0.0019580349
5570.3956933591	0.0019191323
5572.3245007322	0.0019566044
5574.2533081052	0.0019893430
5576.1821154783	0.0019483658
5578.1109228513	0.0019437229
5580.0397302244	0.0019461694
5581.9685375974	0.0019106235
5583.8973449704	0.0018766623
5585.8261523435	0.0018804612
5587.7549597165	0.0018377786
5589.6837670896	0.0018636966
5591.6125744626	0.0018992780
5593.5413818357	0.0019480964
5595.4701892087	0.0019322871
5597.3989965818	0.0018802731
5599.3278039548	0.0019142153
5601.2566113279	0.0018571502
5603.1854187009	0.0018559524
5605.1142260740	0.0018125669
5607.0430334470	0.0018217592
5608.9718408201	0.0019304496
5610.9006481931	0.0018415842
5612.8294555661	0.0017791631
5614.7582629392	0.0018349292
5616.6870703122	0.0018341430
5618.6158776853	0.0017982430
5620.5446850583	0.0018245445
5622.4734924314	0.0017803147
5624.4022998044	0.0017917450
5626.3311071775	0.0018526756
5628.2599145505	0.0018049605
5630.1887219236	0.0018047004
5632.1175292966	0.0018050936
5634.0463366697	0.0018206856
5635.9751440427	0.0017682151
5637.9039514158	0.0017368752
5639.8327587888	0.0017375106
5641.7615661619	0.0016993678
5643.6903735349	0.0017539628
5645.6191809079	0.0017114627
5647.5479882810	0.0017037657
5649.4767956540	0.0017265973
5651.4056030271	0.0017157460
5653.3344104001	0.0017250192
5655.2632177732	0.0016879382
5657.1920251462	0.0017427790
5659.1208325193	0.0016897825
5661.0496398923	0.0016208502
5662.9784472654	0.0016798093
5664.9072546384	0.0016919797
5666.8360620115	0.0017348407
5668.7648693845	0.0016728169
5670.6936767576	0.0016364235
5672.6224841306	0.0017035459
5674.5512915036	0.0016387128
5676.4800988767	0.0016687703
5678.4089062497	0.0016798542
5680.3377136228	0.0015933150
5682.2665209958	0.0015897623
5684.1953283689	0.0016180493
5686.1241357419	0.0016888590
5688.0529431150	0.0016543993
5689.9817504880	0.0016621016
5691.9105578611	0.0016342363
5693.8393652341	0.0015884922
5695.7681726072	0.0016466886
5697.6969799802	0.0015222655
5699.6257873533	0.0015604843
5701.5545947263	0.0015665630
5703.4834020993	0.0015167492
5705.4122094724	0.0016226210
5707.3410168454	0.0015354692
5709.2698242185	0.0015335332
5711.1986315915	0.0015745342
5713.1274389646	0.0015800319
5715.0562463376	0.0015803846
5716.9850537107	0.0015310126
5718.9138610837	0.0015179808
5720.8426684568	0.0014668513
5722.7714758298	0.0014919182
5724.7002832029	0.0015243781
5726.6290905759	0.0015021180
5728.5578979490	0.0014993708
5730.4867053220	0.0015048607
5732.4155126950	0.0014509744
5734.3443200681	0.0014654079
5736.2731274411	0.0014899479
5738.2019348142	0.0014469840
5740.1307421872	0.0015088937
5742.0595495603	0.0014573049
5743.9883569333	0.0014418872
5745.9171643064	0.0014813626
5747.8459716794	0.0014631245
5749.7747790525	0.0014778889
5751.7035864255	0.0014373123
5753.6323937986	0.0014345825
5755.5612011716	0.0014052617
5757.4900085447	0.0014214814
5759.4188159177	0.0014377951
5761.3476232907	0.0014134804
5763.2764306638	0.0014019198
5765.2052380368	0.0013724617
5767.1340454099	0.0013984148
5769.0628527829	0.0014025338
5770.9916601560	0.0014071062
5772.9204675290	0.0013680859
5774.8492749021	0.0013680165
5776.7780822751	0.0013401015
5778.7068896482	0.0012916555
5780.6356970212	0.0013412255
5782.5645043943	0.0013762572
5784.4933117673	0.0013992271
5786.4221191404	0.0013187297
5788.3509265134	0.0013302071
5790.2797338865	0.0013284890
5792.2085412595	0.0012924850
5794.1373486325	0.0013179154
5796.0661560056	0.0012901884
5797.9949633786	0.0013719890
5799.9237707517	0.0013207025
5801.8525781247	0.0012240985
5803.7813854978	0.0012597125
5805.7101928708	0.0012682134
5807.6390002439	0.0012198174
5809.5678076169	0.0013003722
5811.4966149900	0.0013772533
5813.4254223630	0.0012850943
5815.3542297361	0.0013643627
5817.2830371091	0.0013010581
5819.2118444822	0.0012382291
5821.1406518552	0.0013062621
5823.0694592282	0.0012529962
5824.9982666013	0.0012746928
5826.9270739743	0.0012127599
5828.8558813474	0.0012128968
5830.7846887204	0.0012170339
5832.7134960935	0.0012016813
5834.6423034665	0.0012657281
5836.5711108396	0.0012070059
5838.4999182126	0.0012322547
5840.4287255857	0.0012818526
5842.3575329587	0.0012038152
5844.2863403318	0.0012039465
5846.2151477048	0.0011893791
5848.1439550779	0.0011451324
5850.0727624509	0.0012500000
5852.0015698239	0.0011514630
5853.9303771970	0.0011044634
5855.8591845700	0.0012161366
5857.7879919431	0.0011512290
5859.7167993161	0.0011800930
5861.6456066892	0.0011640721
5863.5744140622	0.0011851736
5865.5032214353	0.0011911012
5867.4320288083	0.0011856421
5869.3608361814	0.0012151188
5871.2896435544	0.0010947661
5873.2184509275	0.0010861134
5875.1472583005	0.0010877557
5877.0760656736	0.0011863314
5879.0048730466	0.0011997113
5880.9336804196	0.0011486443
5882.8624877927	0.0011440336
5884.7912951657	0.0010650204
5886.7201025388	0.0011282249
5888.6489099118	0.0010904812
5890.5777172849	0.0011050061
5892.5065246579	0.0010778031
5894.4353320310	0.0010969765
5896.3641394040	0.0011773002
5898.2929467771	0.0010862560
5900.2217541501	0.0011600386
5902.1505615232	0.0011289314
5904.0793688962	0.0011444030
5906.0081762693	0.0011323548
5907.9369836423	0.0010197349
5909.8657910154	0.0010529633
5911.7945983884	0.0010484555
5913.7234057614	0.0010522865
5915.6522131345	0.0009910208
5917.5810205075	0.0010111737
5919.5098278806	0.0010699331
5921.4386352536	0.0010923704
5923.3674426267	0.0010200460
5925.2962499997	0.0009708155
5927.2250573728	0.0010794052
5929.1538647458	0.0010209819
5931.0826721189	0.0009853162
5933.0114794919	0.0009941808
5934.9402868650	0.0010014905
5936.8690942380	0.0010364087
5938.7979016111	0.0010680864
5940.7267089841	0.0010212803
5942.6555163571	0.0009446290
5944.5843237302	0.0009818340
5946.5131311032	0.0009544838
5948.4419384763	0.0010272656
5950.3707458493	0.0009918617
5952.2995532224	0.0009318159
5954.2283605954	0.0009770782
5956.1571679685	0.0009240909
5958.0859753415	0.0010024550
5960.0147827146	0.0009857892
5961.9435900876	0.0009462457
5963.8723974607	0.0009653475
5965.8012048337	0.0009315858
5967.7300122068	0.0009084703
5969.6588195798	0.0009654694
5971.5876269528	0.0010622642
5973.5164343259	0.0009832792
5975.4452416989	0.0009070609
5977.3740490720	0.0008973496
5979.3028564450	0.0009447229
5981.2316638181	0.0009317957
5983.1604711911	0.0008975522
5985.0892785642	0.0009196922
5987.0180859372	0.0009170111
5988.9468933103	0.0009377120
5990.8757006833	0.0008718683
5992.8045080564	0.0009124349
5994.7333154294	0.0009113087
5996.6621228025	0.0008772677
5998.5909301755	0.0009776355
6000.5197375485	0.0009860520
