399.2631262207	0.0011142256
401.1919335938	0.0021536071
403.1207409668	0.0025802462
405.0495483398	0.0021316218
406.9783557129	0.0024863915
408.9071630859	0.0023064774
410.8359704590	0.0026039300
412.7647778320	0.0024329065
414.6935852051	0.0024654092
416.6223925781	0.0025318358
418.5511999512	0.0018803629
420.4800073242	0.0025344878
422.4088146973	0.0027773520
424.3376220703	0.0026752651
426.2664294434	0.0031804005
428.1952368164	0.0029388620
430.1240441895	0.0029533850
432.0528515625	0.0032607643
433.9816589355	0.0030162509
435.9104663086	0.0027460810
437.8392736816	0.0024039331
439.7680810547	0.0025127123
441.6968884277	0.0026134434
443.6256958008	0.0023311656
445.5545031738	0.0022697444
447.4833105469	0.0021787386
449.4121179199	0.0024485737
451.3409252930	0.0022526293
453.2697326660	0.0019530752
455.1985400391	0.0020591975
457.1273474121	0.0017583549
459.0561547852	0.0017079171
460.9849621582	0.0015407966
462.9137695313	0.0013951042
464.8425769043	0.0014189964
466.7713842773	0.0011371092
468.7001916504	0.0010908197
470.6289990234	0.0015322515
472.5578063965	0.0012817769
474.4866137695	0.0007017610
476.4154211426	0.0009849577
478.3442285156	0.0010055243
480.2730358887	0.0010427085
482.2018432617	0.0007969183
484.1306506348	0.0005205465
486.0594580078	0.0006991854
487.9882653809	0.0006527909
489.9170727539	0.0006645112
491.8458801270	0.0000729812
493.7746875000	0.0004009775
495.7034948730	0.0007556291
497.6323022461	0.0005514765
499.5611096191	0.0011896399
501.4899169922	0.0006926582
503.4187243652	0.0003849186
505.3475317383	0.0007857360
507.2763391113	0.0003984418
509.2051464844	0.0002408020
511.1339538574	0.0005456811
513.0627612305	0.0005209116
514.9915686035	0.0006469729
516.9203759766	0.0004615934
518.8491833496	0.0001120542
520.7779907227	0.0007863370
522.7067980957	0.0004436720
524.6356054688	0.0002757710
526.5644128418	0.0005551856
528.4932202148	0.0000573477
530.4220275879	0.0003941820
532.3508349609	0.0005335022
534.2796423340	0.0003795070
536.2084497070	0.0000005481
538.1372570801	0.0001957574
540.0660644531	0.0004117844
541.9948718262	-0.0001179295
543.9236791992	0.0005500638
545.8524865723	0.0003602380
547.7812939453	0.0001347088
549.7101013184	0.0006174176
551.6389086914	0.0003966035
553.5677160645	0.0003558523
555.4965234375	0.0002032802
557.4253308105	0.0006556594
559.3541381836	0.0007207194
561.2829455566	0.0002808867
563.2117529297	0.0004959087
565.1405603027	0.0005477248
567.0693676758	0.0004581205
568.9981750488	0.0001890252
570.9269824219	0.0002471589
572.8557897949	0.0003224264
574.7845971680	0.0004057953
576.7134045410	0.0005646816
578.6422119141	0.0003916193
580.5710192871	0.0007315819
582.4998266602	0.0006126607
584.4286340332	0.0003564733
586.3574414063	0.0006446290
588.2862487793	0.0002280677
590.2150561523	0.0000033843
592.1438635254	0.0002233429
594.0726708984	0.0002183480
596.0014782715	0.0003864488
597.9302856445	0.0002682633
599.8590930176	0.0000381282
601.7879003906	0.0002154798
603.7167077637	0.0004217979
605.6455151367	0.0004462766
607.5743225098	0.0000763276
609.5031298828	0.0000364587
611.4319372559	0.0000702586
613.3607446289	-0.0000633714
615.2895520020	0.0003077101
617.2183593750	0.0002570215
619.1471667480	0.0002289009
621.0759741211	0.0001558174
623.0047814941	-0.0001104128
624.9335888672	-0.0001932704
626.8623962402	0.0001451601
628.7912036133	0.0002427497
630.7200109863	0.0004921589
632.6488183594	0.0013848161
634.5776257324	0.0016223850
636.5064331055	0.0018896498
638.4352404785	0.0019139911
640.3640478516	0.0019476851
642.2928552246	0.0023758565
644.2216625977	0.0027152398
646.1504699707	0.0027708826
648.0792773438	0.0022708583
650.0080847168	0.0029448587
651.9368920898	0.0035479947
653.8656994629	0.0035392935
655.7945068359	0.0037980473
657.7233142090	0.0035740219
659.6521215820	0.0037101237
661.5809289551	0.0039527533
663.5097363281	0.0045199152
665.4385437012	0.0047165938
667.3673510742	0.0041710846
669.2961584473	0.0044941581
671.2249658203	0.0049940133
673.1537731934	0.0052230032
675.0825805664	0.0050692391
677.0113879395	0.0050121942
678.9401953125	0.0054799924
680.8690026855	0.0053346553
682.7978100586	0.0051211342
684.7266174316	0.0053049950
686.6554248047	0.0050986200
688.5842321777	0.0050424472
690.5130395508	0.0055227717
692.4418469238	0.0058970870
694.3706542969	0.0063372878
696.2994616699	0.0071932385
698.2282690430	0.0080975443
700.1570764160	0.0084577948
702.0858837891	0.0082784053
704.0146911621	0.0080180950
705.9434985352	0.0072559770
707.8723059082	0.0058857016
709.8011132813	0.0048559648
711.7299206543	0.0038764728
713.6587280273	0.0022309315
715.5875354004	0.0010478613
717.5163427734	0.0009581295
719.4451501465	0.0008494798
721.3739575195	0.0004676200
723.3027648926	0.0002394261
725.2315722656	0.0001053028
727.1603796387	0.0002029608
729.0891870117	0.0003110087
731.0179943848	0.0001825506
732.9468017578	0.0002665890
734.8756091309	0.0002572754
736.8044165039	-0.0000742429
738.7332238770	0.0001390830
740.6620312500	0.0002513767
742.5908386230	-0.0000991664
744.5196459961	0.0000697230
746.4484533691	0.0003443971
748.3772607422	0.0004300859
750.3060681152	0.0002557042
752.2348754883	0.0001221263
754.1636828613	0.0003154333
756.0924902344	0.0003706281
758.0212976074	0.0001966982
759.9501049805	0.0000687929
761.8789123535	0.0002562120
763.8077197266	0.0003681353
765.7365270996	0.0000505543
767.6653344727	0.0003120612
769.5941418457	0.0004954209
771.5229492188	0.0002881193
773.4517565918	0.0006561732
775.3805639648	0.0004925018
777.3093713379	0.0004361041
779.2381787109	0.0005482775
781.1669860840	0.0003802463
783.0957934570	0.0005008991
785.0246008301	0.0004708332
786.9534082031	0.0006266296
788.8822155762	0.0007186916
790.8110229492	0.0004339258
792.7398303223	0.0003951119
794.6686376953	0.0005300448
796.5974450684	0.0007990113
798.5262524414	0.0012905279
800.4550598145	0.0015030289
802.3838671875	0.0013077618
804.3126745605	0.0009931457
806.2414819336	0.0007575235
808.1702893066	0.0006712693
810.0990966797	0.0004158551
812.0279040527	0.0004817229
813.9567114258	0.0005182487
815.8855187988	0.0004119831
817.8143261719	0.0006321836
819.7431335449	0.0003610945
821.6719409180	0.0005263357
823.6007482910	0.0007954191
825.5295556641	0.0004838487
827.4583630371	0.0007942208
829.3871704102	0.0011224805
831.3159777832	0.0013526712
833.2447851563	0.0018124483
835.1735925293	0.0018578495
837.1023999023	0.0016087991
839.0312072754	0.0017355001
840.9600146484	0.0019029740
842.8888220215	0.0017231132
844.8176293945	0.0016438549
846.7464367676	0.0015084412
848.6752441406	0.0013158368
850.6040515137	0.0013849924
852.5328588867	0.0012311302
854.4616662598	0.0008985491
856.3904736328	0.0009033260
858.3192810059	0.0007427551
860.2480883789	0.0005802581
862.1768957520	0.0005391035
864.1057031250	0.0004611033
866.0345104980	0.0006956756
867.9633178711	0.0005593109
869.8921252441	0.0001807859
871.8209326172	0.0002445151
873.7497399902	0.0006190820
875.6785473633	0.0005725492
877.6073547363	0.0003224885
879.5361621094	0.0004450569
881.4649694824	0.0003550657
883.3937768555	0.0005273371
885.3225842285	0.0005510364
887.2513916016	0.0002441696
889.1801989746	0.0004110346
891.1090063477	0.0003618982
893.0378137207	0.0003183216
894.9666210938	0.0005099011
896.8954284668	0.0005922061
898.8242358398	0.0005767195
900.7530432129	0.0004713471
902.6818505859	0.0004432612
904.6106579590	0.0005159238
906.5394653320	0.0006026481
908.4682727051	0.0005691829
910.3970800781	0.0005119293
912.3258874512	0.0006639817
914.2546948242	0.0008261192
916.1835021973	0.0008932081
918.1123095703	0.0012151547
920.0411169434	0.0013432530
921.9699243164	0.0014594707
923.8987316895	0.0015530437
925.8275390625	0.0014698487
927.7563464355	0.0018804667
929.6851538086	0.0018727516
931.6139611816	0.0020577786
933.5427685547	0.0024092542
935.4715759277	0.0022077896
937.4003833008	0.0023726872
939.3291906738	0.0026640156
941.2579980469	0.0029836856
943.1868054199	0.0026724744
945.1156127930	0.0026624864
947.0444201660	0.0030540572
948.9732275391	0.0025629052
950.9020349121	0.0025969951
952.8308422852	0.0028040577
954.7596496582	0.0026226810
956.6884570313	0.0027106004
958.6172644043	0.0026909965
960.5460717773	0.0025482918
962.4748791504	0.0028099783
964.4036865234	0.0028099872
966.3324938965	0.0026756926
968.2613012695	0.0030951579
970.1901086426	0.0030600377
972.1189160156	0.0032325755
974.0477233887	0.0036600584
975.9765307617	0.0036663539
977.9053381348	0.0040365076
979.8341455078	0.0046126721
981.7629528809	0.0049400572
983.6917602539	0.0052931393
985.6205676270	0.0059587071
987.5493750000	0.0064896913
989.4781823730	0.0071378164
991.4069897461	0.0079106037
993.3357971191	0.0087456722
995.2646044922	0.0094626434
997.1934118652	0.0099597685
999.1222192383	0.0109826224
1001.0510266113	0.0118548246
1002.9798339844	0.0127983429
1004.9086413574	0.0136896558
1006.8374487305	0.0144225005
1008.7662561035	0.0153709948
1010.6950634766	0.0160599798
1012.6238708496	0.0171091370
1014.5526782227	0.0180118512
1016.4814855957	0.0189147927
1018.4102929688	0.0198400505
1020.3391003418	0.0205880627
1022.2679077148	0.0217401572
1024.1967150879	0.0224948153
1026.1255224609	0.0231610723
1028.0543298340	0.0238820501
1029.9831372070	0.0245722141
1031.9119445801	0.0252935104
1033.8407519531	0.0257225484
1035.7695593262	0.0263491832
1037.6983666992	0.0268417671
1039.6271740723	0.0266665705
1041.5559814453	0.0264485218
1043.4847888184	0.0264423899
1045.4135961914	0.0261392072
1047.3424035645	0.0256165713
1049.2712109375	0.0251651052
1051.2000183105	0.0249320492
1053.1288256836	0.0244037621
1055.0576330566	0.0236784201
1056.9864404297	0.0233999006
1058.9152478027	0.0230206475
1060.8440551758	0.0224767588
1062.7728625488	0.0217243508
1064.7016699219	0.0209909938
1066.6304772949	0.0202803873
1068.5592846680	0.0193213392
1070.4880920410	0.0184664242
1072.4168994141	0.0174794793
1074.3457067871	0.0165679716
1076.2745141602	0.0159083027
1078.2033215332	0.0152777955
1080.1321289062	0.0145425312
1082.0609362793	0.0139122475
1083.9897436523	0.0132105500
1085.9185510254	0.0124956872
1087.8473583984	0.0121037923
1089.7761657715	0.0114363413
1091.7049731445	0.0110671697
1093.6337805176	0.0107573867
1095.5625878906	0.0103192292
1097.4913952637	0.0100778062
1099.4202026367	0.0095843533
1101.3490100098	0.0094500566
1103.2778173828	0.0091673285
1105.2066247559	0.0090093706
1107.1354321289	0.0089651477
1109.0642395019	0.0084214322
1110.9930468750	0.0085365530
1112.9218542480	0.0085283555
1114.8506616211	0.0082425214
1116.7794689941	0.0083214790
1118.7082763672	0.0084032202
1120.6370837402	0.0086380113
1122.5658911133	0.0083707264
1124.4946984863	0.0082263025
1126.4235058594	0.0088467700
1128.3523132324	0.0090077929
1130.2811206055	0.0089092478
1132.2099279785	0.0092189349
1134.1387353516	0.0095031634
1136.0675427246	0.0097388737
1137.9963500977	0.0105383694
1139.9251574707	0.0112141883
1141.8539648437	0.0114310365
1143.7827722168	0.0124248564
1145.7115795898	0.0135334879
1147.6403869629	0.0140355630
1149.5691943359	0.0147713535
1151.4980017090	0.0156862773
1153.4268090820	0.0163171031
1155.3556164551	0.0171077326
1157.2844238281	0.0180685893
1159.2132312012	0.0185479037
1161.1420385742	0.0191031434
1163.0708459473	0.0199690834
1164.9996533203	0.0208194330
1166.9284606934	0.0215036031
1168.8572680664	0.0223203171
1170.7860754394	0.0233148057
1172.7148828125	0.0238882583
1174.6436901855	0.0246779993
1176.5724975586	0.0256807059
1178.5013049316	0.0268346332
1180.4301123047	0.0278273933
1182.3589196777	0.0287640691
1184.2877270508	0.0303225368
1186.2165344238	0.0314460173
1188.1453417969	0.0328439958
1190.0741491699	0.0345910005
1192.0029565430	0.0360826179
1193.9317639160	0.0378040448
1195.8605712891	0.0395250842
1197.7893786621	0.0414331183
1199.7181860351	0.0433126427
1201.6469934082	0.0449237376
1203.5758007812	0.0465215109
1205.5046081543	0.0484605543
1207.4334155273	0.0501793995
1209.3622229004	0.0517967269
1211.2910302734	0.0534880906
1213.2198376465	0.0549379289
1215.1486450195	0.0564667061
1217.0774523926	0.0575835109
1219.0062597656	0.0587298721
1220.9350671387	0.0595677048
1222.8638745117	0.0602205135
1224.7926818848	0.0608070605
1226.7214892578	0.0612414554
1228.6502966308	0.0618924946
1230.5791040039	0.0618871897
1232.5079113769	0.0621815398
1234.4367187500	0.0620015748
1236.3655261230	0.0618763231
1238.2943334961	0.0620578229
1240.2231408691	0.0615670308
1242.1519482422	0.0615937673
1244.0807556152	0.0610940494
1246.0095629883	0.0609942973
1247.9383703613	0.0605947524
1249.8671777344	0.0598804355
1251.7959851074	0.0597825944
1253.7247924805	0.0589014664
1255.6535998535	0.0582401529
1257.5824072266	0.0573245957
1259.5112145996	0.0566762686
1261.4400219726	0.0558736473
1263.3688293457	0.0548308343
1265.2976367187	0.0544032753
1267.2264440918	0.0535674132
1269.1552514648	0.0529504791
1271.0840588379	0.0519957915
1273.0128662109	0.0510972887
1274.9416735840	0.0503397435
1276.8704809570	0.0492619835
1278.7992883301	0.0483027995
1280.7280957031	0.0474646837
1282.6569030762	0.0465240031
1284.5857104492	0.0454101264
1286.5145178223	0.0448659733
1288.4433251953	0.0439863019
1290.3721325683	0.0432770476
1292.3009399414	0.0427143797
1294.2297473144	0.0423783585
1296.1585546875	0.0426515900
1298.0873620605	0.0422282666
1300.0161694336	0.0422280058
1301.9449768066	0.0423995554
1303.8737841797	0.0428404585
1305.8025915527	0.0434859842
1307.7313989258	0.0437195748
1309.6602062988	0.0445630401
1311.5890136719	0.0453595817
1313.5178210449	0.0460614003
1315.4466284180	0.0472267717
1317.3754357910	0.0483315736
1319.3042431640	0.0494488589
1321.2330505371	0.0513426475
1323.1618579101	0.0528273880
1325.0906652832	0.0541735440
1327.0194726562	0.0559435785
1328.9482800293	0.0572333336
1330.8770874023	0.0587653220
1332.8058947754	0.0600299612
1334.7347021484	0.0612141155
1336.6635095215	0.0619741343
1338.5923168945	0.0618775599
1340.5211242676	0.0626415908
1342.4499316406	0.0643640459
1344.3787390137	0.0649538860
1346.3075463867	0.0646801293
1348.2363537597	0.0648206770
1350.1651611328	0.0643748939
1352.0939685058	0.0643737167
1354.0227758789	0.0637950003
1355.9515832519	0.0629838109
1357.8803906250	0.0630410016
1359.8091979980	0.0620527603
1361.7380053711	0.0598341525
1363.6668127441	0.0588309392
1365.5956201172	0.0609259754
1367.5244274902	0.0598758198
1369.4532348633	0.0590132214
1371.3820422363	0.0600676164
1373.3108496094	0.0574535578
1375.2396569824	0.0577098504
1377.1684643555	0.0587650239
1379.0972717285	0.0586514734
1381.0260791015	0.0586768091
1382.9548864746	0.0582308248
1384.8836938476	0.0583238453
1386.8125012207	0.0563506857
1388.7413085937	0.0570884235
1390.6701159668	0.0606726781
1392.5989233398	0.0599254109
1394.5277307129	0.0570397973
1396.4565380859	0.0591028556
1398.3853454590	0.0591466278
1400.3141528320	0.0586414263
1402.2429602051	0.0625237450
1404.1717675781	0.0596797727
1406.1005749512	0.0599962734
1408.0293823242	0.0618660077
1409.9581896972	0.0600560904
1411.8869970703	0.0610413849
1413.8158044433	0.0590083785
1415.7446118164	0.0598759577
1417.6734191894	0.0550211370
1419.6022265625	0.0502071343
1421.5310339355	0.0558384955
1423.4598413086	0.0543919057
1425.3886486816	0.0525327362
1427.3174560547	0.0526300520
1429.2462634277	0.0494272560
1431.1750708008	0.0478681251
1433.1038781738	0.0482618511
1435.0326855469	0.0446641892
1436.9614929199	0.0389333330
1438.8903002929	0.0424738564
1440.8191076660	0.0431571603
1442.7479150390	0.0405361503
1444.6767224121	0.0417933241
1446.6055297851	0.0391019657
1448.5343371582	0.0395401791
1450.4631445312	0.0406468622
1452.3919519043	0.0414386094
1454.3207592773	0.0431693718
1456.2495666504	0.0372618139
1458.1783740234	0.0387564972
1460.1071813965	0.0493914559
1462.0359887695	0.0523503050
1463.9647961426	0.0527007207
1465.8936035156	0.0549674258
1467.8224108886	0.0616996475
1469.7512182617	0.0663567185
1471.6800256347	0.0613421574
1473.6088330078	0.0642284304
1475.5376403808	0.0720764175
1477.4664477539	0.0773468986
1479.3952551269	0.0837200284
1481.3240625000	0.0856988952
1483.2528698730	0.0907117575
1485.1816772461	0.0939712822
1487.1104846191	0.0933766216
1489.0392919922	0.0938283354
1490.9680993652	0.0951639265
1492.8969067383	0.1071158648
1494.8257141113	0.1060297191
1496.7545214843	0.0978138149
1498.6833288574	0.1085966974
1500.6121362304	0.1117103696
1502.5409436035	0.1180093437
1504.4697509765	0.1139178872
1506.3985583496	0.0889996588
1508.3273657226	0.1040544361
1510.2561730957	0.1186642870
1512.1849804687	0.1154591814
1514.1137878418	0.1235023141
1516.0425952148	0.1140167266
1517.9714025879	0.1182346046
1519.9002099609	0.1147493124
1521.8290173340	0.1026690304
1523.7578247070	0.1201782748
1525.6866320801	0.1187836900
1527.6154394531	0.1186219305
1529.5442468261	0.1280942559
1531.4730541992	0.1245183423
1533.4018615722	0.1163409948
1535.3306689453	0.1214376390
1537.2594763183	0.1282793581
1539.1882836914	0.0986863971
1541.1170910644	0.1016528010
1543.0458984375	0.1178370565
1544.9747058105	0.1141970158
1546.9035131836	0.1301554292
1548.8323205566	0.1234751642
1550.7611279297	0.1264824867
1552.6899353027	0.1258927584
1554.6187426758	0.1164330095
1556.5475500488	0.1232057437
1558.4763574218	0.0941618457
1560.4051647949	0.0986936837
1562.3339721679	0.1309798658
1564.2627795410	0.1254854798
1566.1915869140	0.1277296841
1568.1203942871	0.1273016483
1570.0492016601	0.1156180054
1571.9780090332	0.1289402992
1573.9068164062	0.1306141168
1575.8356237793	0.1078534275
1577.7644311523	0.1188364923
1579.6932385254	0.1317758709
1581.6220458984	0.1264519989
1583.5508532715	0.1296783239
1585.4796606445	0.1279244274
1587.4084680175	0.1285363734
1589.3372753906	0.1279258877
1591.2660827636	0.1277484000
1593.1948901367	0.1280805916
1595.1236975097	0.1266157031
1597.0525048828	0.1281915307
1598.9813122558	0.1273062378
1600.9101196289	0.1280395985
1602.8389270019	0.1261694133
1604.7677343750	0.1279314011
1606.6965417480	0.1266117096
1608.6253491211	0.1261303872
1610.5541564941	0.1262635887
1612.4829638672	0.1266813278
1614.4117712402	0.1283977926
1616.3405786132	0.1089389920
1618.2693859863	0.1158103347
1620.1981933593	0.1315660775
1622.1270007324	0.1195039153
1624.0558081054	0.1200846508
1625.9846154785	0.1242374405
1627.9134228515	0.1241133213
1629.8422302246	0.1233205646
1631.7710375976	0.1298550963
1633.6998449707	0.1221505180
1635.6286523437	0.1047884226
1637.5574597168	0.1180110127
1639.4862670898	0.1271871924
1641.4150744629	0.1250720173
1643.3438818359	0.1276866198
1645.2726892090	0.1175179631
1647.2014965820	0.1062645540
1649.1303039550	0.1260742992
1651.0591113281	0.1209726483
1652.9879187011	0.0851289928
1654.9167260742	0.1080759913
1656.8455334472	0.1304924190
1658.7743408203	0.1252607703
1660.7031481933	0.1286558807
1662.6319555664	0.1191770732
1664.5607629394	0.1240474731
1666.4895703125	0.1313447058
1668.4183776855	0.1182365194
1670.3471850586	0.1156806052
1672.2759924316	0.1275309324
1674.2047998047	0.1197193116
1676.1336071777	0.1156175584
1678.0624145507	0.1294619143
1679.9912219238	0.1255450845
1681.9200292968	0.1250201315
1683.8488366699	0.1059644967
1685.7776440429	0.1038662791
1687.7064514160	0.1349097490
1689.6352587890	0.1205026209
1691.5640661621	0.1291341782
1693.4928735351	0.1319077909
1695.4216809082	0.1020506769
1697.3504882812	0.1203320175
1699.2792956543	0.1098062471
1701.2081030273	0.1001664400
1703.1369104004	0.1283675581
1705.0657177734	0.1201644987
1706.9945251464	0.1201521903
1708.9233325195	0.1287930906
1710.8521398925	0.1242589951
1712.7809472656	0.1263025999
1714.7097546386	0.1191940606
1716.6385620117	0.1087024808
1718.5673693847	0.1072256640
1720.4961767578	0.1227291524
1722.4249841308	0.1263539493
1724.3537915039	0.1189365536
1726.2825988769	0.1269119531
1728.2114062500	0.1189066470
1730.1402136230	0.1198573336
1732.0690209961	0.1171684489
1733.9978283691	0.0945401788
1735.9266357421	0.1115638167
1737.8554431152	0.1213139743
1739.7842504882	0.1105573103
1741.7130578613	0.1183283702
1743.6418652343	0.1202977449
1745.5706726074	0.1203624234
1747.4994799804	0.1216184050
1749.4282873535	0.1177277863
1751.3570947265	0.1134086698
1753.2859020996	0.1227411926
1755.2147094726	0.1274583638
1757.1435168457	0.1186845005
1759.0723242187	0.1277931929
1761.0011315918	0.1219712421
1762.9299389648	0.1181674451
1764.8587463379	0.1315672994
1766.7875537109	0.1212778091
1768.7163610839	0.1218692213
1770.6451684570	0.1216284782
1772.5739758300	0.1115377247
1774.5027832031	0.1214650273
1776.4315905761	0.1270911396
1778.3603979492	0.1254196465
1780.2892053222	0.1242952198
1782.2180126953	0.1250783503
1784.1468200683	0.1250341535
1786.0756274414	0.1229846925
1788.0044348144	0.1280301213
1789.9332421875	0.1256436408
1791.8620495605	0.1160494983
1793.7908569336	0.1196491122
1795.7196643066	0.1265388727
1797.6484716796	0.1252488643
1799.5772790527	0.1237055808
1801.5060864257	0.1221689731
1803.4348937988	0.1250738651
1805.3637011718	0.1272158921
1807.2925085449	0.1258554459
1809.2213159179	0.1263029128
1811.1501232910	0.1237429678
1813.0789306640	0.1265871376
1815.0077380371	0.1270692945
1816.9365454101	0.1257911623
1818.8653527832	0.1265866756
1820.7941601562	0.1261403263
1822.7229675293	0.1277232617
1824.6517749023	0.1211154908
1826.5805822753	0.1243176237
1828.5093896484	0.1248434186
1830.4381970214	0.1186466366
1832.3670043945	0.1262978911
1834.2958117675	0.1258223355
1836.2246191406	0.1258663088
1838.1534265136	0.1254086494
1840.0822338867	0.1258983612
1842.0110412597	0.1260650158
1843.9398486328	0.1149473414
1845.8686560058	0.1205090731
1847.7974633789	0.1257325411
1849.7262707519	0.1235691682
1851.6550781250	0.1261505783
1853.5838854980	0.1242608428
1855.5126928710	0.1251401603
1857.4415002441	0.1246908605
1859.3703076171	0.1239877343
1861.2991149902	0.1243121773
1863.2279223632	0.1233446002
1865.1567297363	0.1242847890
1867.0855371093	0.1212025657
1869.0143444824	0.1172944158
1870.9431518554	0.1205641329
1872.8719592285	0.1242446899
1874.8007666015	0.1227141619
1876.7295739746	0.1231285706
1878.6583813476	0.1228734404
1880.5871887207	0.1222523153
1882.5159960937	0.1227970868
1884.4448034667	0.1213240847
1886.3736108398	0.1226183623
1888.3024182128	0.1203917265
1890.2312255859	0.1186798513
1892.1600329589	0.1220131144
1894.0888403320	0.1204990894
1896.0176477050	0.1200961322
1897.9464550781	0.1213381141
1899.8752624511	0.1205932498
1901.8040698242	0.1207813025
1903.7328771972	0.1201936081
1905.6616845703	0.1204439998
1907.5904919433	0.1197015941
1909.5192993164	0.1190278977
1911.4481066894	0.1195817888
1913.3769140625	0.1195311248
1915.3057214355	0.1203682870
1917.2345288085	0.1163368225
1919.1633361816	0.1161658466
1921.0921435546	0.1197524220
1923.0209509277	0.1167903394
1924.9497583007	0.1184031516
1926.8785656738	0.1194528788
1928.8073730468	0.1182177812
1930.7361804199	0.1190782040
1932.6649877929	0.1179910824
1934.5937951660	0.1189299822
1936.5226025390	0.1181415617
1938.4514099121	0.1184237823
1940.3802172851	0.1183671430
1942.3090246582	0.1155407727
1944.2378320312	0.1170680672
1946.1666394042	0.1179304719
1948.0954467773	0.1176630855
1950.0242541503	0.1179205924
1951.9530615234	0.1176608652
1953.8818688964	0.1175701469
1955.8106762695	0.1172711402
1957.7394836425	0.1176022887
1959.6682910156	0.1174431667
1961.5970983886	0.1173355579
1963.5259057617	0.1175448969
1965.4547131347	0.1168498844
1967.3835205078	0.1159844175
1969.3123278808	0.1166752130
1971.2411352539	0.1171085835
1973.1699426269	0.1167095304
1975.0987499999	0.1169637442
1977.0275573730	0.1164285690
1978.9563647460	0.1164616272
1980.8851721191	0.1163421571
1982.8139794921	0.1158664376
1984.7427868652	0.1160668433
1986.6715942382	0.1154360026
1988.6004016113	0.1155467778
1990.5292089843	0.1148484126
1992.4580163574	0.1136871651
1994.3868237304	0.1148545742
1996.3156311035	0.1151461154
1998.2444384765	0.1145659238
2000.1732458496	0.1146265715
2002.1020532226	0.1142751873
2004.0308605956	0.1142360568
2005.9596679687	0.1138891727
2007.8884753417	0.1133743599
2009.8172827148	0.1133556217
2011.7460900878	0.1130882502
2013.6748974609	0.1130888909
2015.6037048339	0.1123926044
2017.5325122070	0.1115792096
2019.4613195800	0.1120226085
2021.3901269531	0.1119878367
2023.3189343261	0.1115822494
2025.2477416992	0.1115631312
2027.1765490722	0.1112336963
2029.1053564453	0.1110746711
2031.0341638183	0.1109028757
2032.9629711914	0.1104667038
2034.8917785644	0.1105052084
2036.8205859374	0.1102474928
2038.7493933105	0.1099667996
2040.6782006835	0.1095706224
2042.6070080566	0.1091720834
2044.5358154296	0.1094114035
2046.4646228027	0.1089908779
2048.3934301757	0.1087460071
2050.3222375488	0.1086196452
2052.2510449218	0.1085490733
2054.1798522949	0.1084894240
2056.1086596679	0.1079491228
2058.0374670410	0.1079021990
2059.9662744140	0.1075484157
2061.8950817871	0.1074651480
2063.8238891601	0.1070622802
2065.7526965331	0.1065679640
2067.6815039062	0.1069013551
2069.6103112792	0.1066463292
2071.5391186523	0.1064655185
2073.4679260253	0.1061760485
2075.3967333984	0.1059034169
2077.3255407714	0.1057276353
2079.2543481445	0.1055930257
2081.1831555175	0.1055426151
2083.1119628906	0.1052770168
2085.0407702636	0.1052888185
2086.9695776367	0.1048581749
2088.8983850097	0.1045009643
2090.8271923828	0.1043244079
2092.7559997558	0.1042338461
2094.6848071288	0.1042132825
2096.6136145019	0.1039603055
2098.5424218749	0.1038274467
2100.4712292480	0.1035145968
2102.4000366210	0.1034783125
2104.3288439941	0.1032953337
2106.2576513671	0.1030909866
2108.1864587402	0.1029383987
2110.1152661132	0.1026725024
2112.0440734863	0.1026963443
2113.9728808593	0.1023149192
2115.9016882324	0.1021177769
2117.8304956054	0.1021864563
2119.7593029785	0.1020156518
2121.6881103515	0.1017836928
2123.6169177245	0.1016468704
2125.5457250976	0.1016058475
2127.4745324706	0.1014869362
2129.4033398437	0.1012145653
2131.3321472167	0.1010941118
2133.2609545898	0.1011267155
2135.1897619628	0.1008089110
2137.1185693359	0.1007370055
2139.0473767089	0.1005374491
2140.9761840820	0.1003359705
2142.9049914550	0.1003610790
2144.8337988281	0.1001663804
2146.7626062011	0.1001946181
2148.6914135742	0.1000485420
2150.6202209472	0.0999841765
2152.5490283203	0.0997199118
2154.4778356933	0.0994043499
2156.4066430663	0.0993384868
2158.3354504394	0.0992427915
2160.2642578124	0.0992201865
2162.1930651855	0.0989382863
2164.1218725585	0.0989247486
2166.0506799316	0.0988153517
2167.9794873046	0.0987516716
2169.9082946777	0.0986234397
2171.8371020507	0.0984051079
2173.7659094238	0.0984414816
2175.6947167968	0.0982357264
2177.6235241699	0.0982570648
2179.5523315429	0.0978966206
2181.4811389160	0.0977613330
2183.4099462890	0.0978556052
2185.3387536620	0.0976134762
2187.2675610351	0.0975655764
2189.1963684081	0.0974129736
2191.1251757812	0.0974259526
2193.0539831542	0.0972771198
2194.9827905273	0.0971775725
2196.9115979003	0.0969441757
2198.8404052734	0.0966948047
2200.7692126464	0.0966056734
2202.6980200195	0.0964655057
2204.6268273925	0.0966368616
2206.5556347656	0.0963990688
2208.4844421386	0.0962155685
2210.4132495117	0.0960491002
2212.3420568847	0.0959270298
2214.2708642577	0.0958549380
2216.1996716308	0.0956165940
2218.1284790038	0.0956504345
2220.0572863769	0.0955005586
2221.9860937499	0.0954778343
2223.9149011230	0.0953221917
2225.8437084960	0.0951030850
2227.7725158691	0.0949447155
2229.7013232421	0.0948389545
2231.6301306152	0.0946990997
2233.5589379882	0.0943703204
2235.4877453613	0.0943763182
2237.4165527343	0.0942565650
2239.3453601074	0.0941294283
2241.2741674804	0.0938024670
2243.2029748534	0.0938366354
2245.1317822265	0.0938328952
2247.0605895995	0.0933895633
2248.9893969726	0.0934429169
2250.9182043456	0.0931615084
2252.8470117187	0.0930749848
2254.7758190917	0.0929054543
2256.7046264648	0.0927546024
2258.6334338378	0.0927003920
2260.5622412109	0.0923921019
2262.4910485839	0.0924453512
2264.4198559570	0.0921786427
2266.3486633300	0.0921556354
2268.2774707031	0.0920261070
2270.2062780761	0.0918995589
2272.1350854491	0.0918723047
2274.0638928222	0.0917291045
2275.9927001952	0.0917636454
2277.9215075683	0.0913947225
2279.8503149413	0.0914769322
2281.7791223144	0.0913724303
2283.7079296874	0.0911669284
2285.6367370605	0.0910688192
2287.5655444335	0.0907914639
2289.4943518066	0.0906608254
2291.4231591796	0.0903223231
2293.3519665527	0.0903111324
2295.2807739257	0.0899287164
2297.2095812988	0.0896623731
2299.1383886718	0.0894661024
2301.0671960449	0.0889808536
2302.9960034179	0.0886924118
2304.9248107909	0.0880777389
2306.8536181640	0.0877199173
2308.7824255370	0.0870505497
2310.7112329101	0.0863156319
2312.6400402831	0.0856460333
2314.5688476562	0.0848130882
2316.4976550292	0.0839881152
2318.4264624023	0.0827748328
2320.3552697753	0.0819495320
2322.2840771484	0.0808716118
2324.2128845214	0.0797466114
2326.1416918945	0.0789912790
2328.0704992675	0.0781093165
2329.9993066406	0.0772810355
2331.9281140136	0.0765989572
2333.8569213866	0.0763159990
2335.7857287597	0.0759411827
2337.7145361327	0.0758674964
2339.6433435058	0.0757654607
2341.5721508788	0.0758930296
2343.5009582519	0.0771036744
2345.4297656249	0.0784296244
2347.3585729980	0.0814254582
2349.2873803710	0.0839408413
2351.2161877441	0.0814100429
2353.1449951171	0.0774060115
2355.0738024902	0.0748308897
2357.0026098632	0.0725316778
2358.9314172363	0.0711950958
2360.8602246093	0.0705781505
2362.7890319823	0.0703152716
2364.7178393554	0.0706180707
2366.6466467284	0.0715778023
2368.5754541015	0.0730160102
2370.5042614745	0.0743288025
2372.4330688476	0.0763269812
2374.3618762206	0.0784987733
2376.2906835937	0.0802802145
2378.2194909667	0.0820202082
2380.1482983398	0.0832554772
2382.0771057128	0.0841902196
2384.0059130859	0.0846837163
2385.9347204589	0.0848481655
2387.8635278320	0.0849557966
2389.7923352050	0.0848940462
2391.7211425780	0.0847883523
2393.6499499511	0.0847738683
2395.5787573241	0.0846713036
2397.5075646972	0.0843978673
2399.4363720702	0.0843398124
2401.3651794433	0.0842265487
2403.2939868163	0.0841517597
2405.2227941894	0.0840673298
2407.1516015624	0.0838523805
2409.0804089355	0.0837653130
2411.0092163085	0.0836092457
2412.9380236816	0.0835212469
2414.8668310546	0.0834109187
2416.7956384277	0.0833299458
2418.7244458007	0.0831579566
2420.6532531738	0.0829708353
2422.5820605468	0.0830011070
2424.5108679198	0.0829573795
2426.4396752929	0.0828777701
2428.3684826659	0.0825802982
2430.2972900390	0.0823799446
2432.2260974120	0.0823852718
2434.1549047851	0.0823387653
2436.0837121581	0.0822744593
2438.0125195312	0.0821447968
2439.9413269042	0.0820435509
2441.8701342773	0.0818786994
2443.7989416503	0.0818548054
2445.7277490234	0.0817750841
2447.6565563964	0.0815508366
2449.5853637695	0.0814521462
2451.5141711425	0.0813652575
2453.4429785155	0.0813487470
2455.3717858886	0.0811907500
2457.3005932616	0.0810710192
2459.2294006347	0.0810178593
2461.1582080077	0.0807961971
2463.0870153808	0.0807821229
2465.0158227538	0.0807552114
2466.9446301269	0.0805769712
2468.8734374999	0.0804948956
2470.8022448730	0.0803027824
2472.7310522460	0.0800709501
2474.6598596191	0.0800394937
2476.5886669921	0.0800412446
2478.5174743652	0.0799004659
2480.4462817382	0.0798104256
2482.3750891112	0.0797034055
2484.3038964843	0.0795455724
2486.2327038573	0.0796090364
2488.1615112304	0.0794274956
2490.0903186034	0.0791761875
2492.0191259765	0.0791924819
2493.9479333495	0.0790742189
2495.8767407226	0.0790116936
2497.8055480956	0.0788660347
2499.7343554687	0.0787408203
2501.6631628417	0.0786994100
2503.5919702148	0.0784825906
2505.5207775878	0.0784981698
2507.4495849609	0.0785230696
2509.3783923339	0.0782893598
2511.3071997069	0.0781283230
2513.2360070800	0.0780618712
2515.1648144530	0.0779276043
2517.0936218261	0.0778198987
2519.0224291991	0.0776633024
2520.9512365722	0.0775575936
2522.8800439452	0.0776081011
2524.8088513183	0.0774611384
2526.7376586913	0.0772289112
2528.6664660644	0.0771015733
2530.5952734374	0.0771943778
2532.5240808105	0.0772138089
2534.4528881835	0.0769428015
2536.3816955566	0.0767461360
2538.3105029296	0.0767017007
2540.2393103027	0.0766693652
2542.1681176757	0.0765435547
2544.0969250487	0.0764670074
2546.0257324218	0.0762838870
2547.9545397948	0.0762279481
2549.8833471679	0.0762522370
2551.8121545409	0.0760216713
2553.7409619140	0.0759429857
2555.6697692870	0.0758700818
2557.5985766601	0.0757670105
2559.5273840331	0.0756791383
2561.4561914062	0.0756102949
2563.3849987792	0.0754060149
2565.3138061523	0.0752368048
2567.2426135253	0.0752345547
2569.1714208984	0.0751103088
2571.1002282714	0.0751593858
2573.0290356444	0.0749001801
2574.9578430175	0.0748086572
2576.8866503905	0.0748278350
2578.8154577636	0.0744615644
2580.7442651366	0.0745389760
2582.6730725097	0.0743931085
2584.6018798827	0.0741991550
2586.5306872558	0.0742348433
2588.4594946288	0.0740490705
2590.3883020019	0.0739684552
2592.3171093749	0.0739533901
2594.2459167480	0.0738134012
2596.1747241210	0.0736845657
2598.1035314941	0.0736883804
2600.0323388671	0.0735143870
2601.9611462401	0.0734380335
2603.8899536132	0.0733383968
2605.8187609862	0.0731932819
2607.7475683593	0.0730973557
2609.6763757323	0.0728008002
2611.6051831054	0.0728165284
2613.5339904784	0.0728118420
2615.4627978515	0.0726880431
2617.3916052245	0.0725428760
2619.3204125976	0.0724158138
2621.2492199706	0.0724576563
2623.1780273437	0.0723119006
2625.1068347167	0.0721137151
2627.0356420898	0.0720745400
2628.9644494628	0.0721120685
2630.8932568358	0.0718725026
2632.8220642089	0.0717548579
2634.7508715819	0.0716493875
2636.6796789550	0.0714600682
2638.6084863280	0.0715380162
2640.5372937011	0.0713426694
2642.4661010741	0.0712300092
2644.3949084472	0.0711561367
2646.3237158202	0.0710732490
2648.2525231933	0.0710369498
2650.1813305663	0.0708390474
2652.1101379394	0.0707279146
2654.0389453124	0.0705731213
2655.9677526855	0.0706037581
2657.8965600585	0.0705560073
2659.8253674315	0.0703793764
2661.7541748046	0.0702865273
2663.6829821776	0.0701919794
2665.6117895507	0.0701365694
2667.5405969237	0.0700355768
2669.4694042968	0.0699718297
2671.3982116698	0.0697846115
2673.3270190429	0.0696925744
2675.2558264159	0.0696185082
2677.1846337890	0.0694686919
2679.1134411620	0.0694331005
2681.0422485351	0.0693422407
2682.9710559081	0.0692141950
2684.8998632812	0.0691723153
2686.8286706542	0.0691908300
2688.7574780273	0.0689310655
2690.6862854003	0.0688006654
2692.6150927733	0.0687087402
2694.5439001464	0.0684929192
2696.4727075194	0.0685601532
2698.4015148925	0.0684462711
2700.3303222655	0.0683268458
2702.2591296386	0.0682746172
2704.1879370116	0.0680649430
2706.1167443847	0.0679844320
2708.0455517577	0.0680248141
2709.9743591308	0.0679232329
2711.9031665038	0.0677181855
2713.8319738769	0.0675783083
2715.7607812499	0.0675627142
2717.6895886230	0.0674751252
2719.6183959960	0.0671448559
2721.5472033690	0.0671981126
2723.4760107421	0.0671225041
2725.4048181151	0.0668994337
2727.3336254882	0.0670602024
2729.2624328612	0.0668478385
2731.1912402343	0.0667378306
2733.1200476073	0.0666790083
2735.0488549804	0.0664534569
2736.9776623534	0.0664704889
2738.9064697265	0.0663440228
2740.8352770995	0.0661174953
2742.7640844726	0.0660924911
2744.6928918456	0.0661034882
2746.6216992187	0.0658729300
2748.5505065917	0.0657944530
2750.4793139647	0.0657954663
2752.4081213378	0.0656493381
2754.3369287108	0.0654688179
2756.2657360839	0.0653456300
2758.1945434569	0.0653830022
2760.1233508300	0.0652227551
2762.0521582030	0.0651112497
2763.9809655761	0.0649933964
2765.9097729491	0.0648183376
2767.8385803222	0.0648076460
2769.7673876952	0.0646649525
2771.6961950683	0.0645131543
2773.6250024413	0.0644463673
2775.5538098144	0.0644338727
2777.4826171874	0.0642651618
2779.4114245604	0.0641001686
2781.3402319335	0.0640768558
2783.2690393065	0.0638920218
2785.1978466796	0.0637533665
2787.1266540526	0.0636851341
2789.0554614257	0.0635541677
2790.9842687987	0.0634357929
2792.9130761718	0.0633022338
2794.8418835448	0.0631486773
2796.7706909179	0.0630248934
2798.6994982909	0.0629087463
2800.6283056640	0.0628764704
2802.5571130370	0.0627535433
2804.4859204101	0.0625657439
2806.4147277831	0.0624692366
2808.3435351562	0.0623371080
2810.2723425292	0.0623322949
2812.2011499022	0.0622010827
2814.1299572753	0.0620659329
2816.0587646483	0.0620242916
2817.9875720214	0.0618916266
2819.9163793944	0.0617877692
2821.8451867675	0.0616029836
2823.7739941405	0.0615469068
2825.7028015136	0.0612778664
2827.6316088866	0.0610701442
2829.5604162597	0.0611609742
2831.4892236327	0.0609423816
2833.4180310058	0.0607812218
2835.3468383788	0.0607107654
2837.2756457519	0.0605684929
2839.2044531249	0.0603526235
2841.1332604979	0.0601234362
2843.0620678710	0.0599902719
2844.9908752440	0.0598188601
2846.9196826171	0.0594944954
2848.8484899901	0.0590941533
2850.7772973632	0.0589341596
2852.7061047362	0.0588647351
2854.6349121093	0.0587937571
2856.5637194823	0.0587715246
2858.4925268554	0.0587132834
2860.4213342284	0.0585693531
2862.3501416015	0.0585609488
2864.2789489745	0.0585809164
2866.2077563476	0.0583806038
2868.1365637206	0.0582824759
2870.0653710936	0.0581101850
2871.9941784667	0.0580804721
2873.9229858397	0.0580872148
2875.8517932128	0.0578951612
2877.7806005858	0.0578937493
2879.7094079589	0.0577522740
2881.6382153319	0.0575552136
2883.5670227050	0.0574976429
2885.4958300780	0.0574955344
2887.4246374511	0.0573963299
2889.3534448241	0.0572554693
2891.2822521972	0.0571790114
2893.2110595702	0.0570278019
2895.1398669433	0.0568940192
2897.0686743163	0.0567512363
2898.9974816893	0.0566295162
2900.9262890624	0.0563958474
2902.8550964354	0.0562688187
2904.7839038085	0.0561384633
2906.7127111815	0.0559550188
2908.6415185546	0.0558358468
2910.5703259276	0.0554227121
2912.4991333007	0.0553362668
2914.4279406737	0.0552241765
2916.3567480468	0.0547969267
2918.2855554198	0.0545995608
2920.2143627929	0.0544546545
2922.1431701659	0.0543909483
2924.0719775390	0.0543967448
2926.0007849120	0.0543925688
2927.9295922851	0.0542024411
2929.8583996581	0.0541501194
2931.7872070311	0.0542951189
2933.7160144042	0.0542557985
2935.6448217772	0.0541449115
2937.5736291503	0.0540925413
2939.5024365233	0.0541035682
2941.4312438964	0.0541250668
2943.3600512694	0.0541636869
2945.2888586425	0.0539779216
2947.2176660155	0.0539667830
2949.1464733886	0.0539270788
2951.0752807616	0.0536619611
2953.0040881347	0.0536452606
2954.9328955077	0.0533715524
2956.8617028808	0.0532569699
2958.7905102538	0.0532525480
2960.7193176268	0.0529844090
2962.6481249999	0.0528301895
2964.5769323729	0.0527363792
2966.5057397460	0.0526486114
2968.4345471190	0.0526092350
2970.3633544921	0.0528245270
2972.2921618651	0.0528240502
2974.2209692382	0.0528188720
2976.1497766112	0.0529345274
2978.0785839843	0.0528071597
2980.0073913573	0.0528797805
2981.9361987304	0.0527988449
2983.8650061034	0.0526757129
2985.7938134765	0.0527382120
2987.7226208495	0.0526168123
2989.6514282225	0.0525215790
2991.5802355956	0.0525348634
2993.5090429686	0.0524461418
2995.4378503417	0.0523038954
2997.3666577147	0.0523043759
2999.2954650878	0.0523017570
3001.2242724608	0.0520941541
3003.1530798339	0.0519273654
3005.0818872069	0.0519795530
3007.0106945800	0.0518265180
3008.9395019530	0.0516894832
3010.8683093261	0.0516638197
3012.7971166991	0.0514453761
3014.7259240722	0.0513585806
3016.6547314452	0.0512859821
3018.5835388182	0.0512208641
3020.5123461913	0.0511327051
3022.4411535643	0.0510207340
3024.3699609374	0.0508723892
3026.2987683104	0.0507410318
3028.2275756835	0.0508160554
3030.1563830565	0.0505929403
3032.0851904296	0.0503844582
3034.0139978026	0.0502992198
3035.9428051757	0.0501971170
3037.8716125487	0.0502561070
3039.8004199218	0.0501086637
3041.7292272948	0.0498998463
3043.6580346679	0.0498284027
3045.5868420409	0.0497607961
3047.5156494139	0.0495943874
3049.4444567870	0.0494942106
3051.3732641600	0.0494686812
3053.3020715331	0.0493765622
3055.2308789061	0.0492224023
3057.1596862792	0.0491742119
3059.0884936522	0.0492043793
3061.0173010253	0.0489836670
3062.9461083983	0.0489147827
3064.8749157714	0.0488480404
3066.8037231444	0.0486710221
3068.7325305175	0.0486761779
3070.6613378905	0.0485483855
3072.5901452636	0.0484178588
3074.5189526366	0.0483532771
3076.4477600097	0.0482137799
3078.3765673827	0.0480558239
3080.3053747557	0.0480309427
3082.2341821288	0.0479156449
3084.1629895018	0.0478074215
3086.0917968749	0.0478584543
3088.0206042479	0.0477013141
3089.9494116210	0.0476422682
3091.8782189940	0.0477013551
3093.8070263671	0.0475305691
3095.7358337401	0.0471998677
3097.6646411132	0.0471588746
3099.5934484862	0.0471554250
3101.5222558593	0.0469192639
3103.4510632323	0.0468918569
3105.3798706054	0.0468659103
3107.3086779784	0.0467657670
3109.2374853514	0.0465308018
3111.1662927245	0.0464624986
3113.0951000975	0.0464450978
3115.0239074706	0.0462239534
3116.9527148436	0.0461693555
3118.8815222167	0.0459624007
3120.8103295897	0.0458721071
3122.7391369628	0.0457956940
3124.6679443358	0.0457545072
3126.5967517089	0.0457127690
3128.5255590819	0.0454061627
3130.4543664550	0.0453915633
3132.3831738280	0.0452187136
3134.3119812011	0.0451249368
3136.2407885741	0.0451231971
3138.1695959471	0.0449383073
3140.0984033202	0.0449372604
3142.0272106932	0.0447580069
3143.9560180663	0.0446726382
3145.8848254393	0.0445500650
3147.8136328124	0.0443632007
3149.7424401854	0.0443186834
3151.6712475585	0.0440921709
3153.6000549315	0.0440537035
3155.5288623046	0.0439891741
3157.4576696776	0.0437308475
3159.3864770507	0.0435803607
3161.3152844237	0.0434776619
3163.2440917968	0.0435131900
3165.1728991698	0.0433243588
3167.1017065428	0.0431142971
3169.0305139159	0.0431795716
3170.9593212889	0.0429732949
3172.8881286620	0.0428717807
3174.8169360350	0.0427882075
3176.7457434081	0.0425495207
3178.6745507811	0.0425477177
3180.6033581542	0.0424540043
3182.5321655272	0.0423351303
3184.4609729003	0.0422080196
3186.3897802733	0.0421457589
3188.3185876464	0.0421181396
3190.2473950194	0.0419291109
3192.1762023925	0.0418131053
3194.1050097655	0.0417156816
3196.0338171386	0.0416072831
3197.9626245116	0.0414967611
3199.8914318846	0.0414766595
3201.8202392577	0.0413958542
3203.7490466307	0.0413105525
3205.6778540038	0.0412330553
3207.6066613768	0.0410298482
3209.5354687499	0.0409757346
3211.4642761229	0.0408401489
3213.3930834960	0.0407649651
3215.3218908690	0.0407504439
3217.2506982421	0.0406539887
3219.1795056151	0.0405848697
3221.1083129882	0.0405113101
3223.0371203612	0.0404833481
3224.9659277343	0.0403654501
3226.8947351073	0.0403327569
3228.8235424803	0.0401426367
3230.7523498534	0.0400273427
3232.6811572264	0.0400981866
3234.6099645995	0.0399084426
3236.5387719725	0.0399311110
3238.4675793456	0.0399070792
3240.3963867186	0.0396995395
3242.3251940917	0.0396720693
3244.2540014647	0.0395727158
3246.1828088378	0.0395118967
3248.1116162108	0.0396498665
3250.0404235839	0.0395603627
3251.9692309569	0.0394377895
3253.8980383300	0.0394098237
3255.8268457030	0.0393195897
3257.7556530760	0.0393924117
3259.6844604491	0.0391513519
3261.6132678221	0.0391155854
3263.5420751952	0.0392081589
3265.4708825682	0.0389509536
3267.3996899413	0.0390580967
3269.3284973143	0.0389951058
3271.2573046874	0.0388819277
3273.1861120604	0.0388861746
3275.1149194335	0.0388653725
3277.0437268065	0.0388951451
3278.9725341796	0.0387034640
3280.9013415526	0.0386558212
3282.8301489257	0.0386790633
3284.7589562987	0.0386413150
3286.6877636717	0.0384621918
3288.6165710448	0.0383769870
3290.5453784178	0.0384014249
3292.4741857909	0.0383321345
3294.4029931639	0.0383631811
3296.3318005370	0.0382781588
3298.2606079100	0.0382414013
3300.1894152831	0.0381789133
3302.1182226561	0.0381392017
3304.0470300292	0.0381248221
3305.9758374022	0.0380199179
3307.9046447753	0.0379786305
3309.8334521483	0.0378552824
3311.7622595214	0.0378313586
3313.6910668944	0.0377472416
3315.6198742675	0.0376623236
3317.5486816405	0.0376366824
3319.4774890135	0.0376176611
3321.4062963866	0.0376744568
3323.3351037596	0.0375319347
3325.2639111327	0.0374244526
3327.1927185057	0.0374220945
3329.1215258788	0.0373509601
3331.0503332518	0.0372215696
3332.9791406249	0.0372003056
3334.9079479979	0.0372016579
3336.8367553710	0.0371418521
3338.7655627440	0.0370390788
3340.6943701171	0.0368660539
3342.6231774901	0.0368750580
3344.5519848632	0.0368160382
3346.4807922362	0.0367969647
3348.4095996092	0.0367633626
3350.3384069823	0.0365431681
3352.2672143553	0.0365904048
3354.1960217284	0.0365662724
3356.1248291014	0.0364166126
3358.0536364745	0.0364516824
3359.9824438475	0.0364044309
3361.9112512206	0.0363003500
3363.8400585936	0.0362245888
3365.7688659667	0.0360551327
3367.6976733397	0.0360094905
3369.6264807128	0.0359877981
3371.5552880858	0.0359451994
3373.4840954589	0.0359077677
3375.4129028319	0.0358044058
3377.3417102049	0.0358233973
3379.2705175780	0.0356106721
3381.1993249510	0.0355511867
3383.1281323241	0.0355859324
3385.0569396971	0.0353466459
3386.9857470702	0.0353962854
3388.9145544432	0.0353656188
3390.8433618163	0.0352202430
3392.7721691893	0.0351816192
3394.7009765624	0.0351459160
3396.6297839354	0.0350307971
3398.5585913085	0.0349318907
3400.4873986815	0.0349473357
3402.4162060546	0.0348650068
3404.3450134276	0.0347419903
3406.2738208006	0.0346820131
3408.2026281737	0.0347482935
3410.1314355467	0.0345815942
3412.0602429198	0.0345662534
3413.9890502928	0.0345828235
3415.9178576659	0.0343865454
3417.8466650389	0.0344715454
3419.7754724120	0.0342386365
3421.7042797850	0.0340833887
3423.6330871581	0.0341253951
3425.5618945311	0.0341162309
3427.4907019042	0.0340490490
3429.4195092772	0.0339127183
3431.3483166503	0.0339130498
3433.2771240233	0.0337440223
3435.2059313963	0.0337819308
3437.1347387694	0.0336303674
3439.0635461424	0.0336294584
3440.9923535155	0.0336463153
3442.9211608885	0.0333231874
3444.8499682616	0.0334717259
3446.7787756346	0.0331721120
3448.7075830077	0.0330941565
3450.6363903807	0.0334040932
3452.5651977538	0.0333022028
3454.4940051268	0.0332752094
3456.4228124999	0.0332081392
3458.3516198729	0.0331851020
3460.2804272460	0.0330751203
3462.2092346190	0.0329824574
3464.1380419921	0.0329844616
3466.0668493651	0.0329294764
3467.9956567381	0.0328354277
3469.9244641112	0.0328478962
3471.8532714842	0.0328635983
3473.7820788573	0.0327196494
3475.7108862303	0.0326428078
3477.6396936034	0.0326241590
3479.5685009764	0.0326934680
3481.4973083495	0.0324690565
3483.4261157225	0.0324678048
3485.3549230956	0.0326267481
3487.2837304686	0.0324452110
3489.2125378417	0.0324246213
3491.1413452147	0.0324673913
3493.0701525878	0.0325980708
3494.9989599608	0.0323795415
3496.9277673338	0.0322391838
3498.8565747069	0.0323672518
3500.7853820799	0.0322984383
3502.7141894530	0.0319638476
3504.6429968260	0.0318517312
3506.5718041991	0.0324361697
3508.5006115721	0.0321493521
3510.4294189452	0.0320067629
3512.3582263182	0.0323267654
3514.2870336913	0.0321029723
3516.2158410643	0.0321981981
3518.1446484374	0.0320639424
3520.0734558104	0.0321035348
3522.0022631835	0.0319300853
3523.9310705565	0.0315154493
3525.8598779295	0.0316978991
3527.7886853026	0.0316544101
3529.7174926756	0.0316670910
3531.6463000487	0.0319629014
3533.5751074217	0.0320895538
3535.5039147948	0.0318539590
3537.4327221678	0.0317454971
3539.3615295409	0.0319290385
3541.2903369139	0.0319310576
3543.2191442870	0.0317758918
3545.1479516600	0.0312765837
3547.0767590331	0.0309048481
3549.0055664061	0.0315635800
3550.9343737792	0.0317809992
3552.8631811522	0.0312912017
3554.7919885252	0.0317238495
3556.7207958983	0.0318363495
3558.6496032713	0.0316110179
3560.5784106444	0.0314116515
3562.5072180174	0.0313738994
3564.4360253905	0.0315350741
3566.3648327635	0.0298957303
3568.2936401366	0.0293024182
3570.2224475096	0.0310813375
3572.1512548827	0.0317511410
3574.0800622557	0.0314798430
3576.0088696288	0.0314557403
3577.9376770018	0.0313421264
3579.8664843749	0.0313501209
3581.7952917479	0.0313451327
3583.7240991210	0.0313991271
3585.6529064940	0.0309344716
3587.5817138670	0.0290458035
3589.5105212401	0.0295856260
3591.4393286131	0.0314747021
3593.3681359862	0.0308559760
3595.2969433592	0.0305580869
3597.2257507323	0.0309262574
3599.1545581053	0.0310571846
3601.0833654784	0.0309660099
3603.0121728514	0.0310774278
3604.9409802245	0.0314302072
3606.8697875975	0.0306604691
3608.7985949706	0.0292521492
3610.7274023436	0.0297033563
3612.6562097167	0.0302183628
3614.5850170897	0.0295855217
3616.5138244627	0.0311749782
3618.4426318358	0.0293633081
3620.3714392088	0.0285062660
3622.3002465819	0.0312207006
3624.2290539549	0.0305969566
3626.1578613280	0.0316598937
3628.0866687010	0.0278668776
3630.0154760741	0.0258881859
3631.9442834471	0.0309096090
3633.8730908202	0.0303069726
3635.8018981932	0.0306730047
3637.7307055663	0.0312045533
3639.6595129393	0.0308167487
3641.5883203124	0.0310562663
3643.5171276854	0.0306777041
3645.4459350584	0.0310501046
3647.3747424315	0.0284959972
3649.3035498045	0.0266385302
3651.2323571776	0.0270035435
3653.1611645506	0.0306456462
3655.0899719237	0.0303621627
3657.0187792967	0.0278552603
3658.9475866698	0.0311199985
3660.8763940428	0.0305564068
3662.8052014159	0.0307866223
3664.7340087889	0.0307802595
3666.6628161620	0.0303966701
3668.5916235350	0.0298404973
3670.5204309081	0.0255204774
3672.4492382811	0.0293922573
3674.3780456541	0.0284397677
3676.3068530272	0.0245569535
3678.2356604002	0.0292616412
3680.1644677733	0.0298472792
3682.0932751463	0.0297655463
3684.0220825194	0.0304112285
3685.9508898924	0.0300721489
3687.8796972655	0.0276743118
3689.8085046385	0.0258728452
3691.7373120116	0.0287874416
3693.6661193846	0.0293676667
3695.5949267577	0.0298349764
3697.5237341307	0.0298591107
3699.4525415038	0.0295463838
3701.3813488768	0.0289740898
3703.3101562499	0.0281529874
3705.2389636229	0.0302243121
3707.1677709959	0.0290179700
3709.0965783690	0.0287134908
3711.0253857420	0.0273147002
3712.9541931151	0.0257530399
3714.8830004881	0.0292551573
3716.8118078612	0.0289486367
3718.7406152342	0.0291535500
3720.6694226073	0.0286436640
3722.5982299803	0.0278840922
3724.5270373534	0.0287422948
3726.4558447264	0.0270013511
3728.3846520995	0.0286746398
3730.3134594725	0.0284103379
3732.2422668456	0.0266227983
3734.1710742186	0.0261297636
3736.0998815916	0.0252154637
3738.0286889647	0.0262348726
3739.9574963377	0.0278708450
3741.8863037108	0.0289921016
3743.8151110838	0.0236244835
3745.7439184569	0.0226320028
3747.6727258299	0.0277131684
3749.6015332030	0.0245978888
3751.5303405760	0.0230632834
3753.4591479491	0.0255875811
3755.3879553221	0.0272681881
3757.3167626952	0.0280998982
3759.2455700682	0.0264069363
3761.1743774413	0.0271914434
3763.1031848143	0.0284212939
3765.0319921873	0.0268585980
3766.9607995604	0.0273181200
3768.8896069334	0.0270685516
3770.8184143065	0.0261056460
3772.7472216795	0.0277985334
3774.6760290526	0.0277650524
3776.6048364256	0.0277463794
3778.5336437987	0.0271133557
3780.4624511717	0.0263085179
3782.3912585448	0.0276589692
3784.3200659178	0.0271488223
3786.2488732909	0.0270934962
3788.1776806639	0.0273568053
3790.1064880370	0.0273035206
3792.0352954100	0.0271982774
3793.9641027830	0.0274143778
3795.8929101561	0.0262555182
3797.8217175291	0.0259862877
3799.7505249022	0.0269348137
3801.6793322752	0.0224273931
3803.6081396483	0.0253518410
3805.5369470213	0.0271029603
3807.4657543944	0.0232246723
3809.3945617674	0.0268642083
3811.3233691405	0.0263653398
3813.2521765135	0.0271492526
3815.1809838866	0.0249827206
3817.1097912596	0.0226004422
3819.0385986327	0.0270290188
3820.9674060057	0.0230183192
3822.8962133787	0.0239803754
3824.8250207518	0.0269041397
3826.7538281248	0.0248975195
3828.6826354979	0.0262692589
3830.6114428709	0.0254826657
3832.5402502440	0.0248364508
3834.4690576170	0.0252055284
3836.3978649901	0.0242327340
3838.3266723631	0.0223316960
3840.2554797362	0.0237636045
3842.1842871092	0.0252771154
3844.1130944823	0.0243238918
3846.0419018553	0.0257810578
3847.9707092284	0.0255553648
3849.8995166014	0.0255221818
3851.8283239745	0.0234450456
3853.7571313475	0.0187884811
3855.6859387205	0.0212612711
3857.6147460936	0.0256657600
3859.5435534666	0.0249975622
3861.4723608397	0.0246758386
3863.4011682127	0.0243767928
3865.3299755858	0.0229624137
3867.2587829588	0.0249337777
3869.1875903319	0.0232373811
3871.1163977049	0.0220029876
3873.0452050780	0.0250604879
3874.9740124510	0.0234551877
3876.9028198241	0.0248010010
3878.8316271971	0.0252046362
3880.7604345702	0.0224673934
3882.6892419432	0.0249263123
3884.6180493162	0.0236070119
3886.5468566893	0.0220619850
3888.4756640623	0.0248892792
3890.4044714354	0.0237524807
3892.3332788084	0.0226929374
3894.2620861815	0.0242928471
3896.1908935545	0.0245176293
3898.1197009276	0.0237461999
3900.0485083006	0.0227474030
3901.9773156737	0.0225116238
3903.9061230467	0.0222757757
3905.8349304198	0.0226569772
3907.7637377928	0.0242255516
3909.6925451659	0.0241183359
3911.6213525389	0.0240159594
3913.5501599119	0.0242410526
3915.4789672850	0.0235737581
3917.4077746580	0.0230655633
3919.3365820311	0.0230328795
3921.2653894041	0.0237037633
3923.1941967772	0.0235718116
3925.1230041502	0.0231599286
3927.0518115233	0.0234476458
3928.9806188963	0.0235903971
3930.9094262694	0.0230999589
3932.8382336424	0.0227347128
3934.7670410155	0.0234017484
3936.6958483885	0.0234462060
3938.6246557616	0.0233049858
3940.5534631346	0.0233764667
3942.4822705076	0.0227893218
3944.4110778807	0.0228740796
3946.3398852537	0.0231182501
3948.2686926268	0.0226810910
3950.1974999998	0.0226861909
3952.1263073729	0.0229735151
3954.0551147459	0.0229482614
3955.9839221190	0.0229753703
3957.9127294920	0.0229030848
3959.8415368651	0.0227554850
3961.7703442381	0.0226092115
3963.6991516112	0.0225974377
3965.6279589842	0.0227201041
3967.5567663573	0.0226130299
3969.4855737303	0.0225870349
3971.4143811034	0.0225570537
3973.3431884764	0.0225030240
3975.2719958494	0.0223921947
3977.2008032225	0.0223581605
3979.1296105955	0.0223814733
3981.0584179686	0.0222107098
3982.9872253416	0.0222505312
3984.9160327147	0.0222382881
3986.8448400877	0.0222644880
3988.7736474608	0.0222292710
3990.7024548338	0.0220572837
3992.6312622069	0.0221003890
3994.5600695799	0.0220178664
3996.4888769530	0.0219159871
3998.4176843260	0.0218868218
4000.3464916991	0.0218948685
4002.2752990721	0.0218775645
4004.2041064451	0.0217581950
4006.1329138182	0.0216486380
4008.0617211912	0.0216387361
4009.9905285643	0.0216603912
4011.9193359373	0.0216733329
4013.8481433104	0.0216035284
4015.7769506834	0.0214188118
4017.7057580565	0.0214764886
4019.6345654295	0.0214329027
4021.5633728026	0.0213168804
4023.4921801756	0.0212967098
4025.4209875487	0.0211806595
4027.3497949217	0.0212043487
4029.2786022948	0.0212081224
4031.2074096678	0.0211704597
4033.1362170408	0.0210977457
4035.0650244139	0.0210990310
4036.9938317869	0.0210743658
4038.9226391600	0.0209826119
4040.8514465330	0.0209943689
4042.7802539061	0.0209160261
4044.7090612791	0.0208977275
4046.6378686522	0.0208315849
4048.5666760252	0.0207596309
4050.4954833983	0.0207392573
4052.4242907713	0.0206844397
4054.3530981444	0.0206828602
4056.2819055174	0.0206645839
4058.2107128905	0.0206057914
4060.1395202635	0.0205485225
4062.0683276365	0.0205183700
4063.9971350096	0.0203686133
4065.9259423826	0.0204099994
4067.8547497557	0.0203828122
4069.7835571287	0.0201890580
4071.7123645018	0.0202721041
4073.6411718748	0.0202552043
4075.5699792479	0.0202228557
4077.4987866209	0.0201337934
4079.4275939940	0.0200225357
4081.3564013670	0.0200780071
4083.2852087401	0.0200438090
4085.2140161131	0.0199883319
4087.1428234862	0.0199589245
4089.0716308592	0.0199253894
4091.0004382323	0.0198838450
4092.9292456053	0.0198261477
4094.8580529783	0.0196884759
4096.7868603514	0.0196581595
4098.7156677244	0.0197211206
4100.6444750975	0.0196915530
4102.5732824705	0.0196413621
4104.5020898436	0.0195649602
4106.4308972166	0.0194595102
4108.3597045897	0.0193767939
4110.2885119627	0.0194760952
4112.2173193358	0.0194530934
4114.1461267088	0.0193407144
4116.0749340819	0.0193510763
4118.0037414549	0.0192359723
4119.9325488280	0.0192160923
4121.8613562010	0.0192646999
4123.7901635740	0.0191464368
4125.7189709471	0.0190869644
4127.6477783201	0.0190870911
4129.5765856932	0.0190012883
4131.5053930662	0.0189992841
4133.4342004393	0.0188596435
4135.3630078123	0.0188297778
4137.2918151854	0.0188874695
4139.2206225584	0.0186881684
4141.1494299315	0.0188039169
4143.0782373045	0.0187591352
4145.0070446776	0.0186494626
4146.9358520506	0.0186593160
4148.8646594237	0.0185422227
4150.7934667967	0.0186296273
4152.7222741697	0.0185273830
4154.6510815428	0.0184603333
4156.5798889158	0.0184165575
4158.5086962889	0.0183720775
4160.4375036619	0.0183282774
4162.3663110350	0.0182459615
4164.2951184080	0.0183364432
4166.2239257811	0.0182085969
4168.1527331541	0.0181823336
4170.0815405272	0.0181891527
4172.0103479002	0.0181327127
4173.9391552733	0.0180382449
4175.8679626463	0.0179872699
4177.7967700194	0.0180790108
4179.7255773924	0.0179422311
4181.6543847654	0.0179168619
4183.5831921385	0.0179485772
4185.5119995115	0.0179093741
4187.4408068846	0.0177308172
4189.3696142576	0.0177569091
4191.2984216307	0.0178849287
4193.2272290037	0.0177123472
4195.1560363768	0.0177018382
4197.0848437498	0.0175223853
4199.0136511229	0.0175337251
4200.9424584959	0.0176021755
4202.8712658690	0.0174126625
4204.8000732420	0.0174669996
4206.7288806151	0.0174235478
4208.6576879881	0.0173577629
4210.5864953611	0.0173741169
4212.5153027342	0.0173422806
4214.4441101072	0.0172142200
4216.3729174803	0.0171549246
4218.3017248533	0.0171585865
4220.2305322264	0.0171421524
4222.1593395994	0.0170930997
4224.0881469725	0.0170331895
4226.0169543455	0.0171037577
4227.9457617186	0.0170178041
4229.8745690916	0.0169410892
4231.8033764647	0.0168639496
4233.7321838377	0.0168910790
4235.6609912108	0.0169308949
4237.5897985838	0.0168137513
4239.5186059569	0.0167689994
4241.4474133299	0.0166423619
4243.3762207029	0.0167067368
4245.3050280760	0.0166696757
4247.2338354490	0.0166397430
4249.1626428221	0.0166081451
4251.0914501951	0.0165118575
4253.0202575682	0.0165743195
4254.9490649412	0.0164030530
4256.8778723143	0.0164636336
4258.8066796873	0.0164252892
4260.7354870604	0.0163595900
4262.6642944334	0.0163721181
4264.5931018065	0.0162264053
4266.5219091795	0.0162904765
4268.4507165526	0.0161759108
4270.3795239256	0.0161458962
4272.3083312986	0.0161320865
4274.2371386717	0.0160829090
4276.1659460447	0.0160894934
4278.0947534178	0.0160640590
4280.0235607908	0.0160528179
4281.9523681639	0.0159575157
4283.8811755369	0.0159555376
4285.8099829100	0.0157916173
4287.7387902830	0.0157906096
4289.6675976561	0.0158349834
4291.5964050291	0.0157463215
4293.5252124022	0.0157551467
4295.4540197752	0.0157416053
4297.3828271483	0.0157075301
4299.3116345213	0.0155977225
4301.2404418943	0.0157115906
4303.1692492674	0.0156343430
4305.0980566404	0.0155912861
4307.0268640135	0.0156298950
4308.9556713865	0.0154391723
4310.8844787596	0.0154375453
4312.8132861326	0.0153359529
4314.7420935057	0.0153771918
4316.6709008787	0.0154001890
4318.5997082518	0.0153577216
4320.5285156248	0.0153763201
4322.4573229979	0.0152868666
4324.3861303709	0.0152723603
4326.3149377440	0.0151925124
4328.2437451170	0.0151580162
4330.1725524900	0.0151031492
4332.1013598631	0.0151506783
4334.0301672361	0.0151216025
4335.9589746092	0.0150069566
4337.8877819822	0.0149899591
4339.8165893553	0.0149344448
4341.7453967283	0.0149611179
4343.6742041014	0.0148935234
4345.6030114744	0.0148675144
4347.5318188475	0.0147173554
4349.4606262205	0.0147365099
4351.3894335936	0.0148359593
4353.3182409666	0.0146509092
4355.2470483397	0.0146536082
4357.1758557127	0.0146104936
4359.1046630858	0.0145993903
4361.0334704588	0.0145128565
4362.9622778318	0.0144784171
4364.8910852049	0.0145045714
4366.8198925779	0.0144320130
4368.7486999510	0.0144745465
4370.6775073240	0.0143351704
4372.6063146971	0.0143795982
4374.5351220701	0.0144078135
4376.4639294432	0.0142954607
4378.3927368162	0.0142664853
4380.3215441893	0.0142065510
4382.2503515623	0.0141861681
4384.1791589354	0.0141175129
4386.1079663084	0.0141639151
4388.0367736815	0.0141277518
4389.9655810545	0.0140856020
4391.8943884275	0.0140537750
4393.8231958006	0.0139693934
4395.7520031736	0.0140187722
4397.6808105467	0.0139871743
4399.6096179197	0.0139094181
4401.5384252928	0.0138532268
4403.4672326658	0.0138536040
4405.3960400389	0.0138187474
4407.3248474119	0.0138013707
4409.2536547850	0.0137677900
4411.1824621580	0.0137530565
4413.1112695311	0.0137751512
4415.0400769041	0.0136570726
4416.9688842772	0.0136086978
4418.8976916502	0.0135837626
4420.8264990232	0.0136791477
4422.7553063963	0.0136117274
4424.6841137693	0.0134834424
4426.6129211424	0.0135823674
4428.5417285154	0.0134631731
4430.4705358885	0.0134145766
4432.3993432615	0.0134418402
4434.3281506346	0.0133883599
4436.2569580076	0.0132665196
4438.1857653807	0.0132301021
4440.1145727537	0.0133146439
4442.0433801268	0.0132253207
4443.9721874998	0.0132151134
4445.9009948729	0.0132001638
4447.8298022459	0.0131016150
4449.7586096189	0.0130391000
4451.6874169920	0.0130506810
4453.6162243650	0.0130795604
4455.5450317381	0.0130537879
4457.4738391111	0.0130547434
4459.4026464842	0.0129916845
4461.3314538572	0.0129975546
4463.2602612303	0.0129616763
4465.1890686033	0.0128720868
4467.1178759764	0.0128786340
4469.0466833494	0.0127837136
4470.9754907225	0.0127193462
4472.9042980955	0.0128192157
4474.8331054686	0.0127764717
4476.7619128416	0.0126165133
4478.6907202147	0.0126285525
4480.6195275877	0.0126576442
4482.5483349607	0.0126746809
4484.4771423338	0.0125815216
4486.4059497068	0.0125158094
4488.3347570799	0.0125620682
4490.2635644529	0.0124762021
4492.1923718260	0.0125574162
4494.1211791990	0.0125222029
4496.0499865721	0.0124246757
4497.9787939451	0.0124477101
4499.9076013182	0.0122836605
4501.8364086912	0.0123238396
4503.7652160643	0.0123028960
4505.6940234373	0.0121334363
4507.6228308104	0.0122550372
4509.5516381834	0.0122640040
4511.4804455564	0.0120961200
4513.4092529295	0.0120782731
4515.3380603025	0.0121046398
4517.2668676756	0.0120811462
4519.1956750486	0.0120316818
4521.1244824217	0.0119865090
4523.0532897947	0.0119425468
4524.9820971678	0.0119159725
4526.9109045408	0.0119633777
4528.8397119139	0.0119232964
4530.7685192869	0.0118923783
4532.6973266600	0.0118595604
4534.6261340330	0.0117670298
4536.5549414061	0.0118221045
4538.4837487791	0.0117368773
4540.4125561521	0.0116773825
4542.3413635252	0.0117610954
4544.2701708982	0.0116431825
4546.1989782713	0.0116015887
4548.1277856443	0.0116457222
4550.0565930174	0.0116326250
4551.9854003904	0.0116298450
4553.9142077635	0.0115696145
4555.8430151365	0.0114662014
4557.7718225096	0.0113674738
4559.7006298826	0.0114154890
4561.6294372557	0.0114587108
4563.5582446287	0.0113750137
4565.4870520018	0.0113749914
4567.4158593748	0.0113448696
4569.3446667478	0.0112898052
4571.2734741209	0.0113020577
4573.2022814939	0.0113394549
4575.1310888670	0.0112464521
4577.0598962400	0.0111163352
4578.9887036131	0.0112290829
4580.9175109861	0.0111505864
4582.8463183592	0.0111055709
4584.7751257322	0.0111902822
4586.7039331053	0.0110288719
4588.6327404783	0.0110961245
4590.5615478514	0.0111191748
4592.4903552244	0.0109959748
4594.4191625975	0.0109911682
4596.3479699705	0.0109510263
4598.2767773435	0.0109290788
4600.2055847166	0.0109144952
4602.1343920896	0.0109265018
4604.0631994627	0.0108235246
4605.9920068357	0.0107885227
4607.9208142088	0.0107892919
4609.8496215818	0.0106653208
4611.7784289549	0.0106881354
4613.7072363279	0.0106796669
4615.6360437010	0.0106681455
4617.5648510740	0.0106861629
4619.4936584471	0.0106144818
4621.4224658201	0.0106181270
4623.3512731932	0.0106318155
4625.2800805662	0.0105244191
4627.2088879393	0.0104824286
4629.1376953123	0.0105345240
4631.0665026853	0.0104449503
4632.9953100584	0.0103726089
4634.9241174314	0.0103947297
4636.8529248045	0.0103916377
4638.7817321775	0.0103981812
4640.7105395506	0.0103359604
4642.6393469236	0.0102612656
4644.5681542967	0.0102987736
4646.4969616697	0.0103495251
4648.4257690428	0.0103024486
4650.3545764158	0.0101804491
4652.2833837889	0.0102149285
4654.2121911619	0.0102344137
4656.1409985350	0.0100527313
4658.0698059080	0.0100931134
4659.9986132810	0.0101009645
4661.9274206541	0.0100881131
4663.8562280271	0.0101535618
4665.7850354002	0.0099963658
4667.7138427732	0.0100420415
4669.6426501463	0.0100425743
4671.5714575193	0.0099795666
4673.5002648924	0.0099925110
4675.4290722654	0.0098718619
4677.3578796385	0.0098690204
4679.2866870115	0.0098759197
4681.2154943846	0.0099065490
4683.1443017576	0.0098912865
4685.0731091307	0.0098233186
4687.0019165037	0.0097441506
4688.9307238767	0.0097510703
4690.8595312498	0.0097717959
4692.7883386228	0.0096611511
4694.7171459959	0.0097313160
4696.6459533689	0.0096255681
4698.5747607420	0.0095440615
4700.5035681150	0.0096136183
4702.4323754881	0.0095975585
4704.3611828611	0.0096160928
4706.2899902342	0.0095413327
4708.2187976072	0.0095886672
4710.1476049803	0.0095373038
4712.0764123533	0.0094255432
4714.0052197264	0.0094671594
4715.9340270994	0.0095379697
4717.8628344724	0.0094881803
4719.7916418455	0.0093586212
4721.7204492185	0.0093863104
4723.6492565916	0.0093398858
4725.5780639646	0.0092988964
4727.5068713377	0.0092346445
4729.4356787107	0.0092880428
4731.3644860838	0.0092995837
4733.2932934568	0.0091731623
4735.2221008299	0.0092375819
4737.1509082029	0.0091762505
4739.0797155760	0.0092221685
4741.0085229490	0.0092014670
4742.9373303221	0.0091442848
4744.8661376951	0.0091477614
4746.7949450682	0.0090746218
4748.7237524412	0.0091267014
4750.6525598142	0.0089908373
4752.5813671873	0.0090390518
4754.5101745603	0.0090864077
4756.4389819334	0.0089851608
4758.3677893064	0.0089839781
4760.2965966795	0.0088623073
4762.2254040525	0.0088446336
4764.1542114256	0.0088893743
4766.0830187986	0.0089375339
4768.0118261717	0.0088910740
4769.9406335447	0.0088170199
4771.8694409178	0.0088034933
4773.7982482908	0.0087918891
4775.7270556639	0.0087526925
4777.6558630369	0.0087207854
4779.5846704099	0.0087013785
4781.5134777830	0.0085785454
4783.4422851560	0.0087004136
4785.3710925291	0.0087496005
4787.2998999021	0.0086465804
4789.2287072752	0.0086430833
4791.1575146482	0.0085664857
4793.0863220213	0.0085335840
4795.0151293943	0.0085546095
4796.9439367674	0.0085797487
4798.8727441404	0.0084731821
4800.8015515135	0.0085029257
4802.7303588865	0.0084919501
4804.6591662596	0.0083916131
4806.5879736326	0.0084514841
4808.5167810056	0.0084121805
4810.4455883787	0.0084500741
4812.3743957517	0.0083938716
4814.3032031248	0.0083210291
4816.2320104978	0.0083185118
4818.1608178709	0.0082826270
4820.0896252439	0.0082633961
4822.0184326170	0.0082556885
4823.9472399900	0.0083019119
4825.8760473631	0.0081881359
4827.8048547361	0.0081520900
4829.7336621092	0.0081114378
4831.6624694822	0.0081105996
4833.5912768553	0.0081292018
4835.5200842283	0.0080294618
4837.4488916013	0.0080934316
4839.3776989744	0.0080814864
4841.3065063474	0.0080612721
4843.2353137205	0.0080441767
4845.1641210935	0.0080428896
4847.0929284666	0.0080234557
4849.0217358396	0.0079932259
4850.9505432127	0.0079709403
4852.8793505857	0.0078914640
4854.8081579588	0.0079254936
4856.7369653318	0.0078406744
4858.6657727049	0.0078723449
4860.5945800779	0.0078227445
4862.5233874510	0.0077341981
4864.4521948240	0.0078123235
4866.3810021971	0.0077676023
4868.3098095701	0.0078028049
4870.2386169431	0.0077120755
4872.1674243162	0.0077151731
4874.0962316892	0.0077050813
4876.0250390623	0.0076819486
4877.9538464353	0.0077606468
4879.8826538084	0.0076461667
4881.8114611814	0.0076577198
4883.7402685545	0.0076809032
4885.6690759275	0.0076611983
4887.5978833006	0.0075653633
4889.5266906736	0.0076081641
4891.4554980467	0.0075920895
4893.3843054197	0.0074270861
4895.3131127928	0.0075595924
4897.2419201658	0.0075440034
4899.1707275388	0.0075086979
4901.0995349119	0.0075137336
4903.0283422849	0.0074882596
4904.9571496580	0.0074676415
4906.8859570310	0.0074494737
4908.8147644041	0.0074342024
4910.7435717771	0.0073261680
4912.6723791502	0.0073762164
4914.6011865232	0.0073283440
4916.5299938963	0.0073132929
4918.4588012693	0.0072674230
4920.3876086424	0.0072502829
4922.3164160154	0.0073495721
4924.2452233885	0.0071986150
4926.1740307615	0.0071852007
4928.1028381345	0.0071869832
4930.0316455076	0.0072007249
4931.9604528806	0.0071540568
4933.8892602537	0.0070881546
4935.8180676267	0.0071599707
4937.7468749998	0.0070863105
4939.6756823728	0.0071072159
4941.6044897459	0.0070816930
4943.5332971189	0.0070392946
4945.4621044920	0.0070096944
4947.3909118650	0.0069741067
4949.3197192381	0.0070165293
4951.2485266111	0.0069835996
4953.1773339842	0.0069543645
4955.1061413572	0.0069514019
4957.0349487302	0.0069587613
4958.9637561033	0.0068370444
4960.8925634763	0.0068533965
4962.8213708494	0.0069158860
4964.7501782224	0.0068535428
4966.6789855955	0.0068489145
4968.6077929685	0.0068117040
4970.5366003416	0.0068244031
4972.4654077146	0.0067659924
4974.3942150877	0.0067942021
4976.3230224607	0.0067814132
4978.2518298338	0.0067516444
4980.1806372068	0.0068240450
4982.1094445799	0.0066981595
4984.0382519529	0.0066904034
4985.9670593259	0.0066777091
4987.8958666990	0.0066788439
4989.8246740720	0.0066780159
4991.7534814451	0.0065908330
4993.6822888181	0.0066058384
4995.6110961912	0.0065209721
4997.5399035642	0.0065847347
4999.4687109373	0.0066280393
5001.3975183103	0.0065458217
5003.3263256834	0.0065564942
5005.2551330564	0.0064735580
5007.1839404295	0.0064803641
5009.1127478025	0.0065341899
5011.0415551756	0.0064533213
5012.9703625486	0.0063971393
5014.8991699217	0.0063976813
5016.8279772947	0.0064111208
5018.7567846677	0.0064114006
5020.6855920408	0.0063539743
5022.6143994138	0.0063154316
5024.5432067869	0.0063420581
5026.4720141599	0.0063536558
5028.4008215330	0.0063351286
5030.3296289060	0.0063434718
5032.2584362791	0.0062923077
5034.1872436521	0.0062339371
5036.1160510252	0.0062919948
5038.0448583982	0.0062451549
5039.9736657713	0.0062138448
5041.9024731443	0.0062154070
5043.8312805174	0.0061608646
5045.7600878904	0.0062030628
5047.6888952634	0.0061457409
5049.6177026365	0.0061480533
5051.5465100095	0.0061762165
5053.4753173826	0.0060708551
5055.4041247556	0.0061227977
5057.3329321287	0.0061879531
5059.2617395017	0.0061376914
5061.1905468748	0.0060722297
5063.1193542478	0.0060526971
5065.0481616209	0.0060260184
5066.9769689939	0.0059524039
5068.9057763670	0.0059918417
5070.8345837400	0.0059831785
5072.7633911131	0.0059227571
5074.6921984861	0.0060030674
5076.6210058591	0.0059549031
5078.5498132322	0.0058721732
5080.4786206052	0.0058959047
5082.4074279783	0.0058538527
5084.3362353513	0.0058960281
5086.2650427244	0.0059214854
5088.1938500974	0.0058106398
5090.1226574705	0.0057475585
5092.0514648435	0.0057566734
5093.9802722166	0.0057613081
5095.9090795896	0.0057793865
5097.8378869627	0.0057775439
5099.7666943357	0.0057665296
5101.6955017088	0.0057849372
5103.6243090818	0.0057146279
5105.5531164548	0.0056923423
5107.4819238279	0.0056151040
5109.4107312009	0.0055987658
5111.3395385740	0.0057257535
5113.2683459470	0.0056390511
5115.1971533201	0.0056338320
5117.1259606931	0.0056068460
5119.0547680662	0.0055286773
5120.9835754392	0.0055500250
5122.9123828123	0.0055693733
5124.8411901853	0.0056007570
5126.7699975584	0.0054911897
5128.6988049314	0.0055221012
5130.6276123045	0.0055154283
5132.5564196775	0.0054327291
5134.4852270506	0.0054536019
5136.4140344236	0.0054197637
5138.3428417966	0.0054977564
5140.2716491697	0.0054798829
5142.2004565427	0.0053922576
5144.1292639158	0.0053983429
5146.0580712888	0.0054122750
5147.9868786619	0.0053442428
5149.9156860349	0.0053393887
5151.8444934080	0.0054101311
5153.7733007810	0.0053306744
5155.7021081541	0.0053670807
5157.6309155271	0.0053502498
5159.5597229002	0.0052428464
5161.4885302732	0.0052335379
5163.4173376463	0.0052411351
5165.3461450193	0.0053014606
5167.2749523923	0.0052767685
5169.2037597654	0.0052121370
5171.1325671384	0.0052039325
5173.0613745115	0.0052384613
5174.9901818845	0.0051957276
5176.9189892576	0.0051697511
5178.8477966306	0.0051985933
5180.7766040037	0.0051477873
5182.7054113767	0.0051547298
5184.6342187498	0.0051694755
5186.5630261228	0.0051103821
5188.4918334959	0.0050696637
5190.4206408689	0.0051193759
5192.3494482420	0.0050992528
5194.2782556150	0.0051005189
5196.2070629880	0.0050734119
5198.1358703611	0.0049722288
5200.0646777341	0.0050196806
5201.9934851072	0.0050306618
5203.9222924802	0.0051066354
5205.8510998533	0.0049570566
5207.7799072263	0.0048376331
5209.7087145994	0.0050382391
5211.6375219724	0.0049458975
5213.5663293455	0.0049542664
5215.4951367185	0.0049637137
5217.4239440916	0.0048643481
5219.3527514646	0.0049153427
5221.2815588377	0.0049014874
5223.2103662107	0.0049244096
5225.1391735837	0.0048159249
5227.0679809568	0.0047446731
5228.9967883298	0.0048560454
5230.9255957029	0.0048524821
5232.8544030759	0.0047823372
5234.7832104490	0.0047435225
5236.7120178220	0.0047911601
5238.6408251951	0.0048279380
5240.5696325681	0.0047932765
5242.4984399412	0.0047463090
5244.4272473142	0.0046828128
5246.3560546873	0.0046729669
5248.2848620603	0.0046113748
5250.2136694334	0.0046028732
5252.1424768064	0.0047050463
5254.0712841795	0.0046395389
5256.0000915525	0.0046381014
5257.9288989255	0.0046458635
5259.8577062986	0.0046940632
5261.7865136716	0.0047364747
5263.7153210447	0.0044796057
5265.6441284177	0.0045346795
5267.5729357908	0.0046687052
5269.5017431638	0.0045891851
5271.4305505369	0.0045781406
5273.3593579099	0.0045612296
5275.2881652830	0.0045948150
5277.2169726560	0.0045976099
5279.1457800291	0.0045808544
5281.0745874021	0.0045007085
5283.0033947752	0.0044843629
5284.9322021482	0.0044716485
5286.8610095212	0.0044888807
5288.7898168943	0.0045219129
5290.7186242673	0.0043925298
5292.6474316404	0.0044688256
5294.5762390134	0.0044493536
5296.5050463865	0.0044320961
5298.4338537595	0.0044894661
5300.3626611326	0.0043853954
5302.2914685056	0.0043767611
5304.2202758787	0.0044025509
5306.1490832517	0.0044119786
5308.0778906248	0.0042756111
5310.0066979978	0.0043509346
5311.9355053709	0.0044357385
5313.8643127439	0.0043285685
5315.7931201169	0.0043958332
5317.7219274900	0.0043659899
5319.6507348630	0.0043267407
5321.5795422361	0.0043212585
5323.5083496091	0.0043324539
5325.4371569822	0.0042730737
5327.3659643552	0.0041966671
5329.2947717283	0.0042137802
5331.2235791013	0.0042581339
5333.1523864744	0.0042768670
5335.0811938474	0.0042051561
5337.0100012205	0.0042311456
5338.9388085935	0.0040991772
5340.8676159666	0.0041892370
5342.7964233396	0.0042691175
5344.7252307126	0.0040186588
5346.6540380857	0.0040949518
5348.5828454587	0.0041272826
5350.5116528318	0.0041246479
5352.4404602048	0.0040757027
5354.3692675779	0.0040383991
5356.2980749509	0.0040933779
5358.2268823240	0.0040781610
5360.1556896970	0.0041186381
5362.0844970701	0.0040296908
5364.0133044431	0.0040615425
5365.9421118162	0.0040463842
5367.8709191892	0.0040031201
5369.7997265623	0.0040186248
5371.7285339353	0.0039962693
5373.6573413083	0.0040767109
5375.5861486814	0.0039655110
5377.5149560544	0.0038601723
5379.4437634275	0.0039199176
5381.3725708005	0.0040246975
5383.3013781736	0.0039642281
5385.2301855466	0.0039351946
5387.1589929197	0.0039601508
5389.0878002927	0.0038501155
5391.0166076658	0.0038716812
5392.9454150388	0.0038234708
5394.8742224119	0.0038259383
5396.8030297849	0.0038473799
5398.7318371580	0.0038879388
5400.6606445310	0.0039094184
5402.5894519041	0.0038347226
5404.5182592771	0.0038609109
5406.4470666501	0.0037650908
5408.3758740232	0.0037851350
5410.3046813962	0.0037676301
5412.2334887693	0.0036892099
5414.1622961423	0.0036457120
5416.0911035154	0.0036724817
5418.0199108884	0.0037925253
5419.9487182615	0.0037158383
5421.8775256345	0.0038063258
5423.8063330076	0.0037388701
5425.7351403806	0.0036843466
5427.6639477537	0.0037268780
5429.5927551267	0.0036040810
5431.5215624998	0.0037251995
5433.4503698728	0.0036479023
5435.3791772458	0.0035729939
5437.3079846189	0.0036310148
5439.2367919919	0.0035865935
5441.1655993650	0.0035444228
5443.0944067380	0.0035594394
5445.0232141111	0.0035844245
5446.9520214841	0.0035027722
5448.8808288572	0.0036069546
5450.8096362302	0.0035606464
5452.7384436033	0.0035587577
5454.6672509763	0.0036778669
5456.5960583494	0.0035603307
5458.5248657224	0.0035798773
5460.4536730955	0.0035428070
5462.3824804685	0.0035560015
5464.3112878415	0.0035577915
5466.2400952146	0.0034914897
5468.1689025876	0.0035310434
5470.0977099607	0.0034310203
5472.0265173337	0.0035183746
5473.9553247068	0.0035125224
5475.8841320798	0.0033679120
5477.8129394529	0.0035457746
5479.7417468259	0.0035157050
5481.6705541990	0.0033643022
5483.5993615720	0.0034314818
5485.5281689451	0.0034065717
5487.4569763181	0.0033461102
5489.3857836912	0.0033546309
5491.3145910642	0.0033891858
5493.2433984372	0.0033738362
5495.1722058103	0.0033365104
5497.1010131833	0.0033814819
5499.0298205564	0.0033685910
5500.9586279294	0.0033612710
5502.8874353025	0.0033696466
5504.8162426755	0.0033285881
5506.7450500486	0.0033129079
5508.6738574216	0.0033217210
5510.6026647947	0.0033229468
5512.5314721677	0.0032651694
5514.4602795408	0.0032496289
5516.3890869138	0.0032703271
5518.3178942869	0.0033017970
5520.2467016599	0.0033091884
5522.1755090330	0.0032701236
5524.1043164060	0.0032541109
5526.0331237790	0.0032196632
5527.9619311521	0.0032658014
5529.8907385251	0.0032818611
5531.8195458982	0.0031969030
5533.7483532712	0.0032146540
5535.6771606443	0.0032644002
5537.6059680173	0.0031978274
5539.5347753904	0.0031741755
5541.4635827634	0.0031759986
5543.3923901365	0.0030825280
5545.3211975095	0.0031775984
5547.2500048826	0.0032082095
5549.1788122556	0.0030486840
5551.1076196287	0.0030937516
5553.0364270017	0.0031544745
5554.9652343747	0.0031184715
5556.8940417478	0.0031448188
5558.8228491208	0.0031583221
5560.7516564939	0.0030875597
5562.6804638669	0.0031063338
5564.6092712400	0.0031137366
5566.5380786130	0.0030778046
5568.4668859861	0.0031017093
5570.3956933591	0.0029975879
5572.3245007322	0.0030397822
5574.2533081052	0.0031239372
5576.1821154783	0.0030261627
5578.1109228513	0.0030640592
5580.0397302244	0.0030401682
5581.9685375974	0.0029647648
5583.8973449704	0.0030061230
5585.8261523435	0.0030050464
5587.7549597165	0.0030529168
5589.6837670896	0.0030237145
5591.6125744626	0.0029068207
5593.5413818357	0.0029534015
5595.4701892087	0.0029301420
5597.3989965818	0.0028975888
5599.3278039548	0.0029532216
5601.2566113279	0.0029368103
5603.1854187009	0.0029921595
5605.1142260740	0.0029488553
5607.0430334470	0.0028805428
5608.9718408201	0.0029142457
5610.9006481931	0.0028612483
5612.8294555661	0.0028846359
5614.7582629392	0.0028872106
5616.6870703122	0.0028409651
5618.6158776853	0.0028474363
5620.5446850583	0.0028291345
5622.4734924314	0.0028546627
5624.4022998044	0.0028383452
5626.3311071775	0.0028528413
5628.2599145505	0.0028791148
5630.1887219236	0.0028011773
5632.1175292966	0.0028177407
5634.0463366697	0.0028381690
5635.9751440427	0.0028260108
5637.9039514158	0.0028041787
5639.8327587888	0.0027853246
5641.7615661619	0.0028126151
5643.6903735349	0.0027495222
5645.6191809079	0.0027784840
5647.5479882810	0.0027551572
5649.4767956540	0.0026888631
5651.4056030271	0.0027424190
5653.3344104001	0.0026962701
5655.2632177732	0.0027670101
5657.1920251462	0.0027421860
5659.1208325193	0.0026729035
5661.0496398923	0.0027395068
5662.9784472654	0.0026237527
5664.9072546384	0.0026433989
5666.8360620115	0.0027155732
5668.7648693845	0.0026316256
5670.6936767576	0.0026129300
5672.6224841306	0.0026662061
5674.5512915036	0.0026661784
5676.4800988767	0.0025872178
5678.4089062497	0.0025713821
5680.3377136228	0.0025872462
5682.2665209958	0.0026087775
5684.1953283689	0.0025993199
5686.1241357419	0.0025786846
5688.0529431150	0.0026258563
5689.9817504880	0.0026093097
5691.9105578611	0.0025111774
5693.8393652341	0.0025424026
5695.7681726072	0.0026106227
5697.6969799802	0.0025297655
5699.6257873533	0.0025069616
5701.5545947263	0.0025134152
5703.4834020993	0.0025605978
5705.4122094724	0.0025847605
5707.3410168454	0.0025000011
5709.2698242185	0.0025661453
5711.1986315915	0.0025499805
5713.1274389646	0.0024426640
5715.0562463376	0.0024985783
5716.9850537107	0.0025338789
5718.9138610837	0.0024801809
5720.8426684568	0.0025173444
5722.7714758298	0.0025173582
5724.7002832029	0.0024591703
5726.6290905759	0.0025252283
5728.5578979490	0.0024373604
5730.4867053220	0.0023876596
5732.4155126950	0.0024209218
5734.3443200681	0.0023370730
5736.2731274411	0.0023856496
5738.2019348142	0.0023946697
5740.1307421872	0.0023807271
5742.0595495603	0.0023732143
5743.9883569333	0.0022899581
5745.9171643064	0.0022986592
5747.8459716794	0.0023588212
5749.7747790525	0.0023758425
5751.7035864255	0.0023216829
5753.6323937986	0.0023192002
5755.5612011716	0.0023890068
5757.4900085447	0.0023654278
5759.4188159177	0.0022685663
5761.3476232907	0.0022649895
5763.2764306638	0.0023191553
5765.2052380368	0.0023404504
5767.1340454099	0.0023027363
5769.0628527829	0.0022665462
5770.9916601560	0.0022979495
5772.9204675290	0.0022229047
5774.8492749021	0.0022453722
5776.7780822751	0.0024032458
5778.7068896482	0.0023064832
5780.6356970212	0.0022066853
5782.5645043943	0.0022598789
5784.4933117673	0.0021924255
5786.4221191404	0.0022083367
5788.3509265134	0.0022974494
5790.2797338865	0.0022204905
5792.2085412595	0.0021940521
5794.1373486325	0.0021789409
5796.0661560056	0.0022087516
5797.9949633786	0.0022162381
5799.9237707517	0.0021505207
5801.8525781247	0.0022355805
5803.7813854978	0.0021981234
5805.7101928708	0.0021780359
5807.6390002439	0.0022029362
5809.5678076169	0.0021325964
5811.4966149900	0.0021692468
5813.4254223630	0.0021826345
5815.3542297361	0.0021623955
5817.2830371091	0.0021258770
5819.2118444822	0.0021030167
5821.1406518552	0.0021424294
5823.0694592282	0.0021794599
5824.9982666013	0.0021164119
5826.9270739743	0.0020992761
5828.8558813474	0.0021032928
5830.7846887204	0.0020249016
5832.7134960935	0.0021305964
5834.6423034665	0.0021151756
5836.5711108396	0.0020478114
5838.4999182126	0.0020477828
5840.4287255857	0.0019731126
5842.3575329587	0.0020291796
5844.2863403318	0.0020309663
5846.2151477048	0.0020719143
5848.1439550779	0.0020972094
5850.0727624509	0.0020417592
5852.0015698239	0.0020310804
5853.9303771970	0.0020414488
5855.8591845700	0.0020966253
5857.7879919431	0.0020043454
5859.7167993161	0.0019477420
5861.6456066892	0.0019793168
5863.5744140622	0.0019617514
5865.5032214353	0.0019709319
5867.4320288083	0.0020140992
5869.3608361814	0.0019842843
5871.2896435544	0.0019096553
5873.2184509275	0.0019353242
5875.1472583005	0.0019264652
5877.0760656736	0.0019680029
5879.0048730466	0.0019902138
5880.9336804196	0.0019228938
5882.8624877927	0.0019208333
5884.7912951657	0.0019128138
5886.7201025388	0.0018989544
5888.6489099118	0.0019043946
5890.5777172849	0.0019379543
5892.5065246579	0.0018779925
5894.4353320310	0.0018243159
5896.3641394040	0.0018627276
5898.2929467771	0.0018867069
5900.2217541501	0.0018462969
5902.1505615232	0.0018339196
5904.0793688962	0.0019287397
5906.0081762693	0.0018451372
5907.9369836423	0.0018177809
5909.8657910154	0.0019392772
5911.7945983884	0.0019240878
5913.7234057614	0.0018381281
5915.6522131345	0.0018348908
5917.5810205075	0.0018898080
5919.5098278806	0.0018024950
5921.4386352536	0.0018259103
5923.3674426267	0.0018286813
5925.2962499997	0.0017756529
5927.2250573728	0.0018740853
5929.1538647458	0.0018097439
5931.0826721189	0.0017621645
5933.0114794919	0.0017990621
5934.9402868650	0.0017558930
5936.8690942380	0.0017337343
5938.7979016111	0.0017922497
5940.7267089841	0.0017812632
5942.6555163571	0.0017882691
5944.5843237302	0.0018234202
5946.5131311032	0.0016809988
5948.4419384763	0.0017261873
5950.3707458493	0.0017455106
5952.2995532224	0.0016807718
5954.2283605954	0.0017710181
5956.1571679685	0.0017091284
5958.0859753415	0.0017466089
5960.0147827146	0.0017900560
5961.9435900876	0.0016823909
5963.8723974607	0.0017060017
5965.8012048337	0.0017181344
5967.7300122068	0.0017255850
5969.6588195798	0.0017950068
5971.5876269528	0.0017385631
5973.5164343259	0.0016772202
5975.4452416989	0.0016971891
5977.3740490720	0.0016637151
5979.3028564450	0.0016798022
5981.2316638181	0.0016754812
5983.1604711911	0.0016672548
5985.0892785642	0.0016899211
5987.0180859372	0.0016190386
5988.9468933103	0.0016557082
5990.8757006833	0.0016824754
5992.8045080564	0.0016411778
5994.7333154294	0.0016832864
5996.6621228025	0.0016360998
5998.5909301755	0.0016038634
6000.5197375485	0.0016327661
