399.2631262207	0.0014138287
401.1919335938	0.0017275482
403.1207409668	0.0017779199
405.0495483398	0.0016479762
406.9783557129	0.0015343274
408.9071630859	0.0016303817
410.8359704590	0.0023029973
412.7647778320	0.0019913553
414.6935852051	0.0022036787
416.6223925781	0.0023965272
418.5511999512	0.0017969542
420.4800073242	0.0022564433
422.4088146973	0.0026573753
424.3376220703	0.0026737056
426.2664294434	0.0022026910
428.1952368164	0.0022317669
430.1240441895	0.0023713002
432.0528515625	0.0020571912
433.9816589355	0.0024456254
435.9104663086	0.0022999318
437.8392736816	0.0024383753
439.7680810547	0.0023270103
441.6968884277	0.0020418598
443.6256958008	0.0024428894
445.5545031738	0.0021832623
447.4833105469	0.0019893786
449.4121179199	0.0017821230
451.3409252930	0.0015826731
453.2697326660	0.0012905905
455.1985400391	0.0013438044
457.1273474121	0.0015444795
459.0561547852	0.0014628002
460.9849621582	0.0016736905
462.9137695313	0.0007778069
464.8425769043	0.0005662109
466.7713842773	0.0009356283
468.7001916504	0.0006264271
470.6289990234	0.0012158379
472.5578063965	0.0014231864
474.4866137695	0.0009489119
476.4154211426	0.0005700745
478.3442285156	0.0006125165
480.2730358887	0.0009501704
482.2018432617	0.0008265891
484.1306506348	0.0001639797
486.0594580078	0.0000958721
487.9882653809	0.0006588515
489.9170727539	0.0000376753
491.8458801270	0.0001215728
493.7746875000	0.0007125638
495.7034948730	0.0000282328
497.6323022461	0.0003746481
499.5611096191	0.0009612901
501.4899169922	0.0004426901
503.4187243652	0.0005441974
505.3475317383	0.0008106853
507.2763391113	0.0000998421
509.2051464844	0.0002112775
511.1339538574	0.0006660921
513.0627612305	0.0002425118
514.9915686035	0.0003930518
516.9203759766	0.0004128321
518.8491833496	0.0005023753
520.7779907227	0.0005544990
522.7067980957	0.0001892196
524.6356054688	0.0007815199
526.5644128418	0.0005102750
528.4932202148	0.0002347769
530.4220275879	0.0005549584
532.3508349609	-0.0001184638
534.2796423340	0.0001292911
536.2084497070	0.0003803918
538.1372570801	0.0000193824
540.0660644531	0.0002128050
541.9948718262	0.0003737683
543.9236791992	0.0005138377
545.8524865723	0.0001952458
547.7812939453	0.0000924292
549.7101013184	0.0004432865
551.6389086914	0.0002150553
553.5677160645	0.0000467175
555.4965234375	0.0003826781
557.4253308105	0.0004915029
559.3541381836	0.0002257587
561.2829455566	0.0003944749
563.2117529297	0.0003914520
565.1405603027	0.0002750324
567.0693676758	0.0005413590
568.9981750488	-0.0000301521
570.9269824219	-0.0001494751
572.8557897949	0.0002735514
574.7845971680	0.0002299220
576.7134045410	0.0005002277
578.6422119141	0.0003102773
580.5710192871	0.0001741025
582.4998266602	0.0003010761
584.4286340332	0.0001276756
586.3574414063	0.0002034066
588.2862487793	-0.0000891044
590.2150561523	0.0002353725
592.1438635254	0.0005064951
594.0726708984	0.0001288677
596.0014782715	0.0004919934
597.9302856445	0.0002961686
599.8590930176	0.0000659917
601.7879003906	0.0003528900
603.7167077637	0.0001657546
605.6455151367	0.0000355785
607.5743225098	-0.0000336835
609.5031298828	0.0000570729
611.4319372559	0.0003425005
613.3607446289	0.0001819154
615.2895520020	0.0000118394
617.2183593750	0.0002660230
619.1471667480	0.0000787030
621.0759741211	-0.0000007617
623.0047814941	0.0003279875
624.9335888672	0.0001101614
626.8623962402	-0.0000522205
628.7912036133	0.0000116330
630.7200109863	0.0001685312
632.6488183594	0.0009198276
634.5776257324	0.0013914800
636.5064331055	0.0014284740
638.4352404785	0.0018830657
640.3640478516	0.0018815759
642.2928552246	0.0018870666
644.2216625977	0.0024467541
646.1504699707	0.0024541216
648.0792773438	0.0025353457
650.0080847168	0.0028856373
651.9368920898	0.0031288106
653.8656994629	0.0032682032
655.7945068359	0.0031579318
657.7233142090	0.0033380112
659.6521215820	0.0033874777
661.5809289551	0.0034123559
663.5097363281	0.0038271460
665.4385437012	0.0036072866
667.3673510742	0.0035250217
669.2961584473	0.0041282419
671.2249658203	0.0042402716
673.1537731934	0.0042913435
675.0825805664	0.0044580502
677.0113879395	0.0044024186
678.9401953125	0.0045728693
680.8690026855	0.0047897436
682.7978100586	0.0047032814
684.7266174316	0.0045990590
686.6554248047	0.0047227019
688.5842321777	0.0046336828
690.5130395508	0.0047927257
692.4418469238	0.0051829256
694.3706542969	0.0054019163
696.2994616699	0.0062499437
698.2282690430	0.0069686607
700.1570764160	0.0070338026
702.0858837891	0.0070198216
704.0146911621	0.0067740930
705.9434985352	0.0059135817
707.8723059082	0.0052024447
709.8011132813	0.0044032433
711.7299206543	0.0027045240
713.6587280273	0.0018163398
715.5875354004	0.0009741944
717.5163427734	0.0003418133
719.4451501465	0.0006233108
721.3739575195	0.0003761378
723.3027648926	0.0003490208
725.2315722656	-0.0001237289
727.1603796387	0.0000079729
729.0891870117	0.0004854451
731.0179943848	-0.0000200336
732.9468017578	0.0002578829
734.8756091309	0.0002169849
736.8044165039	0.0002301398
738.7332238770	0.0002711076
740.6620312500	-0.0000112776
742.5908386230	0.0000107038
744.5196459961	-0.0001951653
746.4484533691	0.0001070406
748.3772607422	0.0000678662
750.3060681152	0.0002117951
752.2348754883	0.0006002298
754.1636828613	0.0003685882
756.0924902344	0.0005242507
758.0212976074	0.0003075415
759.9501049805	0.0001002919
761.8789123535	0.0001725224
763.8077197266	-0.0000065404
765.7365270996	0.0003625994
767.6653344727	0.0005923628
769.5941418457	0.0002596401
771.5229492188	0.0004406357
773.4517565918	0.0002405861
775.3805639648	0.0001067081
777.3093713379	0.0006345286
779.2381787109	0.0004010911
781.1669860840	0.0004597716
783.0957934570	0.0004929602
785.0246008301	0.0004109437
786.9534082031	0.0008634527
788.8822155762	0.0007520809
790.8110229492	0.0005465025
792.7398303223	0.0002795757
794.6686376953	0.0003311766
796.5974450684	0.0007271554
798.5262524414	0.0007728164
800.4550598145	0.0009502942
802.3838671875	0.0011421891
804.3126745605	0.0008988743
806.2414819336	0.0006191475
808.1702893066	0.0006830097
810.0990966797	0.0006409959
812.0279040527	0.0005331680
813.9567114258	0.0002163853
815.8855187988	0.0004323387
817.8143261719	0.0006897463
819.7431335449	0.0002683052
821.6719409180	0.0004690093
823.6007482910	0.0003021667
825.5295556641	0.0004137217
827.4583630371	0.0007057479
829.3871704102	0.0005464619
831.3159777832	0.0010605110
833.2447851563	0.0011186544
835.1735925293	0.0014750401
837.1023999023	0.0018369921
839.0312072754	0.0015987677
840.9600146484	0.0017256630
842.8888220215	0.0014870348
844.8176293945	0.0012983218
846.7464367676	0.0014598679
848.6752441406	0.0013758099
850.6040515137	0.0010384670
852.5328588867	0.0008535339
854.4616662598	0.0007668005
856.3904736328	0.0008616978
858.3192810059	0.0009715831
860.2480883789	0.0007101608
862.1768957520	0.0005686754
864.1057031250	0.0004878610
866.0345104980	0.0006599544
867.9633178711	0.0006968397
869.8921252441	0.0004572699
871.8209326172	0.0003830748
873.7497399902	0.0003618086
875.6785473633	0.0006310738
877.6073547363	0.0005833026
879.5361621094	0.0003322331
881.4649694824	0.0003853871
883.3937768555	0.0004176026
885.3225842285	0.0003605332
887.2513916016	0.0005552706
889.1801989746	0.0005307746
891.1090063477	0.0002386740
893.0378137207	0.0006460429
894.9666210938	0.0006587380
896.8954284668	0.0003052946
898.8242358398	0.0003698586
900.7530432129	0.0004259110
902.6818505859	0.0006498354
904.6106579590	0.0005086274
906.5394653320	0.0005256550
908.4682727051	0.0005863058
910.3970800781	0.0003870028
912.3258874512	0.0008900106
914.2546948242	0.0008912770
916.1835021973	0.0007682360
918.1123095703	0.0012538054
920.0411169434	0.0012478286
921.9699243164	0.0012869810
923.8987316895	0.0013683266
925.8275390625	0.0015828676
927.7563464355	0.0017877473
929.6851538086	0.0015770288
931.6139611816	0.0018366749
933.5427685547	0.0019525089
935.4715759277	0.0020363419
937.4003833008	0.0020836270
939.3291906738	0.0020641112
941.2579980469	0.0026780560
943.1868054199	0.0025858190
945.1156127930	0.0023332112
947.0444201660	0.0024970025
948.9732275391	0.0023670257
950.9020349121	0.0022200614
952.8308422852	0.0023238871
954.7596496582	0.0026057609
956.6884570313	0.0023315651
958.6172644043	0.0022537992
960.5460717773	0.0023514624
962.4748791504	0.0022053423
964.4036865234	0.0024610818
966.3324938965	0.0023975694
968.2613012695	0.0023784232
970.1901086426	0.0027122155
972.1189160156	0.0027404220
974.0477233887	0.0026201275
975.9765307617	0.0028808247
977.9053381348	0.0035141059
979.8341455078	0.0038128449
981.7629528809	0.0039356854
983.6917602539	0.0043445425
985.6205676270	0.0051223040
987.5493750000	0.0058072545
989.4781823730	0.0062218262
991.4069897461	0.0067789564
993.3357971191	0.0072152116
995.2646044922	0.0079765934
997.1934118652	0.0090137199
999.1222192383	0.0095720831
1001.0510266113	0.0100849587
1002.9798339844	0.0106254816
1004.9086413574	0.0114507619
1006.8374487305	0.0123499325
1008.7662561035	0.0129302582
1010.6950634766	0.0139056137
1012.6238708496	0.0146046598
1014.5526782227	0.0151907261
1016.4814855957	0.0161433555
1018.4102929688	0.0168252774
1020.3391003418	0.0177177005
1022.2679077148	0.0185510106
1024.1967150879	0.0191804767
1026.1255224609	0.0198538639
1028.0543298340	0.0204997472
1029.9831372070	0.0211807173
1031.9119445801	0.0215848237
1033.8407519531	0.0218639933
1035.7695593262	0.0221813619
1037.6983666992	0.0225731768
1039.6271740723	0.0226832349
1041.5559814453	0.0224998966
1043.4847888184	0.0222790241
1045.4135961914	0.0219771229
1047.3424035645	0.0218039788
1049.2712109375	0.0215434395
1051.2000183105	0.0211533904
1053.1288256836	0.0206416361
1055.0576330566	0.0202641040
1056.9864404297	0.0197949056
1058.9152478027	0.0192115754
1060.8440551758	0.0188756790
1062.7728625488	0.0181305707
1064.7016699219	0.0175586473
1066.6304772949	0.0170412995
1068.5592846680	0.0161646977
1070.4880920410	0.0155974347
1072.4168994141	0.0148345800
1074.3457067871	0.0139640626
1076.2745141602	0.0134110618
1078.2033215332	0.0128492806
1080.1321289062	0.0122308526
1082.0609362793	0.0116877742
1083.9897436523	0.0111889783
1085.9185510254	0.0106263068
1087.8473583984	0.0100072464
1089.7761657715	0.0096846689
1091.7049731445	0.0093857292
1093.6337805176	0.0089128111
1095.5625878906	0.0086375289
1097.4913952637	0.0082246447
1099.4202026367	0.0079439720
1101.3490100098	0.0078570032
1103.2778173828	0.0077708680
1105.2066247559	0.0075356541
1107.1354321289	0.0071735438
1109.0642395019	0.0072220294
1110.9930468750	0.0071024117
1112.9218542480	0.0070049330
1114.8506616211	0.0069961618
1116.7794689941	0.0070572617
1118.7082763672	0.0072602285
1120.6370837402	0.0069069741
1122.5658911133	0.0068351626
1124.4946984863	0.0070823086
1126.4235058594	0.0072535407
1128.3523132324	0.0075762589
1130.2811206055	0.0077504199
1132.2099279785	0.0079232547
1134.1387353516	0.0081872512
1136.0675427246	0.0083704554
1137.9963500977	0.0088308118
1139.9251574707	0.0096288044
1141.8539648437	0.0100177024
1143.7827722168	0.0104620596
1145.7115795898	0.0112889428
1147.6403869629	0.0118527645
1149.5691943359	0.0122718159
1151.4980017090	0.0130334757
1153.4268090820	0.0137936808
1155.3556164551	0.0141734239
1157.2844238281	0.0149601176
1159.2132312012	0.0157291815
1161.1420385742	0.0161856525
1163.0708459473	0.0167324729
1164.9996533203	0.0173369460
1166.9284606934	0.0181630738
1168.8572680664	0.0187271647
1170.7860754394	0.0192961991
1172.7148828125	0.0201235041
1174.6436901855	0.0209898874
1176.5724975586	0.0216270424
1178.5013049316	0.0223083906
1180.4301123047	0.0232649352
1182.3589196777	0.0240573958
1184.2877270508	0.0253205635
1186.2165344238	0.0263991132
1188.1453417969	0.0274493583
1190.0741491699	0.0289942063
1192.0029565430	0.0300123580
1193.9317639160	0.0314403251
1195.8605712891	0.0331682190
1197.7893786621	0.0344621949
1199.7181860351	0.0359166749
1201.6469934082	0.0375584066
1203.5758007812	0.0392812937
1205.5046081543	0.0406424850
1207.4334155273	0.0419640318
1209.3622229004	0.0435824841
1211.2910302734	0.0446818694
1213.2198376465	0.0458861217
1215.1486450195	0.0470395759
1217.0774523926	0.0477000251
1219.0062597656	0.0489240438
1220.9350671387	0.0497924685
1222.8638745117	0.0502230190
1224.7926818848	0.0507241040
1226.7214892578	0.0510007739
1228.6502966308	0.0512833484
1230.5791040039	0.0513484329
1232.5079113769	0.0515670329
1234.4367187500	0.0516052768
1236.3655261230	0.0514943227
1238.2943334961	0.0515602678
1240.2231408691	0.0514974482
1242.1519482422	0.0514336266
1244.0807556152	0.0512125641
1246.0095629883	0.0508034751
1247.9383703613	0.0504483581
1249.8671777344	0.0502484478
1251.7959851074	0.0495777577
1253.7247924805	0.0491828658
1255.6535998535	0.0487478562
1257.5824072266	0.0478227288
1259.5112145996	0.0472394750
1261.4400219726	0.0462621450
1263.3688293457	0.0459666289
1265.2976367187	0.0454815552
1267.2264440918	0.0444944724
1269.1552514648	0.0441935994
1271.0840588379	0.0434895530
1273.0128662109	0.0429229103
1274.9416735840	0.0420928225
1276.8704809570	0.0411571600
1278.7992883301	0.0403829738
1280.7280957031	0.0394250862
1282.6569030762	0.0387238972
1284.5857104492	0.0380059816
1286.5145178223	0.0373603329
1288.4433251953	0.0368163995
1290.3721325683	0.0364582054
1292.3009399414	0.0359568968
1294.2297473144	0.0356855355
1296.1585546875	0.0353557467
1298.0873620605	0.0351758935
1300.0161694336	0.0354548842
1301.9449768066	0.0355465859
1303.8737841797	0.0361479074
1305.8025915527	0.0362283140
1307.7313989258	0.0366215333
1309.6602062988	0.0374798998
1311.5890136719	0.0378303304
1313.5178210449	0.0387300998
1315.4466284180	0.0395791121
1317.3754357910	0.0405544713
1319.3042431640	0.0416898206
1321.2330505371	0.0429613218
1323.1618579101	0.0442525037
1325.0906652832	0.0455030054
1327.0194726562	0.0467673168
1328.9482800293	0.0478939787
1330.8770874023	0.0491369031
1332.8058947754	0.0500584953
1334.7347021484	0.0512594767
1336.6635095215	0.0517950468
1338.5923168945	0.0516110808
1340.5211242676	0.0523888916
1342.4499316406	0.0539396927
1344.3787390137	0.0545132942
1346.3075463867	0.0540644452
1348.2363537597	0.0539687388
1350.1651611328	0.0537168384
1352.0939685058	0.0538033880
1354.0227758789	0.0530919135
1355.9515832519	0.0525427796
1357.8803906250	0.0526333526
1359.8091979980	0.0514196642
1361.7380053711	0.0498037189
1363.6668127441	0.0490941331
1365.5956201172	0.0506095663
1367.5244274902	0.0499941744
1369.4532348633	0.0495272353
1371.3820422363	0.0501613952
1373.3108496094	0.0478823259
1375.2396569824	0.0482727215
1377.1684643555	0.0490029752
1379.0972717285	0.0488357507
1381.0260791015	0.0488909371
1382.9548864746	0.0486031473
1384.8836938476	0.0487464853
1386.8125012207	0.0469179302
1388.7413085937	0.0478165522
1390.6701159668	0.0507905856
1392.5989233398	0.0497496277
1394.5277307129	0.0475575253
1396.4565380859	0.0493088290
1398.3853454590	0.0492815748
1400.3141528320	0.0490510203
1402.2429602051	0.0521780923
1404.1717675781	0.0496949106
1406.1005749512	0.0499731824
1408.0293823242	0.0515305772
1409.9581896972	0.0498617440
1411.8869970703	0.0505687669
1413.8158044433	0.0491073988
1415.7446118164	0.0497372746
1417.6734191894	0.0456959419
1419.6022265625	0.0421454459
1421.5310339355	0.0466651395
1423.4598413086	0.0452047512
1425.3886486816	0.0438081399
1427.3174560547	0.0438512936
1429.2462634277	0.0412036441
1431.1750708008	0.0399388745
1433.1038781738	0.0400657021
1435.0326855469	0.0369709805
1436.9614929199	0.0324063711
1438.8903002929	0.0354258120
1440.8191076660	0.0359415188
1442.7479150390	0.0338700302
1444.6767224121	0.0348792151
1446.6055297851	0.0326367393
1448.5343371582	0.0330223516
1450.4631445312	0.0340662859
1452.3919519043	0.0347349495
1454.3207592773	0.0357361659
1456.2495666504	0.0312914252
1458.1783740234	0.0330170691
1460.1071813965	0.0412019528
1462.0359887695	0.0434682965
1463.9647961426	0.0439104512
1465.8936035156	0.0459868014
1467.8224108886	0.0516026989
1469.7512182617	0.0549516007
1471.6800256347	0.0511038601
1473.6088330078	0.0539028943
1475.5376403808	0.0600240678
1477.4664477539	0.0643595532
1479.3952551269	0.0696469098
1481.3240625000	0.0711643547
1483.2528698730	0.0751120374
1485.1816772461	0.0774849281
1487.1104846191	0.0771895498
1489.0392919922	0.0777116567
1490.9680993652	0.0788486451
1492.8969067383	0.0884250253
1494.8257141113	0.0870901495
1496.7545214843	0.0809039474
1498.6833288574	0.0896409228
1500.6121362304	0.0920329913
1502.5409436035	0.0973539501
1504.4697509765	0.0930258855
1506.3985583496	0.0738600940
1508.3273657226	0.0867383480
1510.2561730957	0.0972053707
1512.1849804687	0.0951669961
1514.1137878418	0.1012607813
1516.0425952148	0.0935321897
1517.9714025879	0.0974288583
1519.9002099609	0.0937007815
1521.8290173340	0.0850357562
1523.7578247070	0.0990690440
1525.6866320801	0.0972253308
1527.6154394531	0.0977646559
1529.5442468261	0.1049051136
1531.4730541992	0.1017708033
1533.4018615722	0.0955169722
1535.3306689453	0.0998037159
1537.2594763183	0.1043476164
1539.1882836914	0.0809815899
1541.1170910644	0.0846010149
1543.0458984375	0.0967408270
1544.9747058105	0.0939385444
1546.9035131836	0.1062846333
1548.8323205566	0.1007907689
1550.7611279297	0.1037019789
1552.6899353027	0.1025781184
1554.6187426758	0.0957642794
1556.5475500488	0.1006107852
1558.4763574218	0.0773627087
1560.4051647949	0.0824138224
1562.3339721679	0.1070795506
1564.2627795410	0.1023967862
1566.1915869140	0.1047008410
1568.1203942871	0.1037056595
1570.0492016601	0.0946932882
1571.9780090332	0.1054357588
1573.9068164062	0.1060615852
1575.8356237793	0.0886599272
1577.7644311523	0.0977122262
1579.6932385254	0.1073675454
1581.6220458984	0.1033303216
1583.5508532715	0.1056277752
1585.4796606445	0.1041934565
1587.4084680175	0.1048699170
1589.3372753906	0.1041285917
1591.2660827636	0.1040169895
1593.1948901367	0.1044164598
1595.1236975097	0.1032121330
1597.0525048828	0.1043393761
1598.9813122558	0.1038407832
1600.9101196289	0.1041955948
1602.8389270019	0.1028340831
1604.7677343750	0.1042305082
1606.6965417480	0.1027518809
1608.6253491211	0.1027175635
1610.5541564941	0.1027349830
1612.4829638672	0.1029949039
1614.4117712402	0.1038427949
1616.3405786132	0.0888967440
1618.2693859863	0.0952451974
1620.1981933593	0.1064673960
1622.1270007324	0.0970253497
1624.0558081054	0.0979875177
1625.9846154785	0.1009230688
1627.9134228515	0.1008314490
1629.8422302246	0.1002010703
1631.7710375976	0.1054625213
1633.6998449707	0.0989160687
1635.6286523437	0.0856095254
1637.5574597168	0.0964295864
1639.4862670898	0.1033154279
1641.4150744629	0.1015727147
1643.3438818359	0.1031307951
1645.2726892090	0.0948676318
1647.2014965820	0.0868750066
1649.1303039550	0.1028418243
1651.0591113281	0.0973536819
1652.9879187011	0.0700688437
1654.9167260742	0.0892380029
1656.8455334472	0.1052781418
1658.7743408203	0.1015974730
1660.7031481933	0.1041875929
1662.6319555664	0.0965681002
1664.5607629394	0.1011580005
1666.4895703125	0.1060400158
1668.4183776855	0.0959536433
1670.3471850586	0.0943436027
1672.2759924316	0.1031064093
1674.2047998047	0.0969452932
1676.1336071777	0.0943191051
1678.0624145507	0.1048070490
1679.9912219238	0.1014217511
1681.9200292968	0.1011383161
1683.8488366699	0.0857398510
1685.7776440429	0.0855566487
1687.7064514160	0.1091610342
1689.6352587890	0.0971240625
1691.5640661621	0.1053815633
1693.4928735351	0.1058394760
1695.4216809082	0.0831478313
1697.3504882812	0.0979927108
1699.2792956543	0.0884713233
1701.2081030273	0.0826125890
1703.1369104004	0.1039197147
1705.0657177734	0.0968703181
1706.9945251464	0.0976592675
1708.9233325195	0.1038419306
1710.8521398925	0.1004846096
1712.7809472656	0.1018787473
1714.7097546386	0.0960532576
1716.6385620117	0.0879270956
1718.5673693847	0.0873205662
1720.4961767578	0.0996961594
1722.4249841308	0.1016006917
1724.3537915039	0.0961591825
1726.2825988769	0.1023060381
1728.2114062500	0.0957969874
1730.1402136230	0.0970856696
1732.0690209961	0.0939977393
1733.9978283691	0.0768914521
1735.9266357421	0.0910506696
1737.8554431152	0.0977484435
1739.7842504882	0.0896883905
1741.7130578613	0.0958509520
1743.6418652343	0.0971005559
1745.5706726074	0.0971557945
1747.4994799804	0.0980120152
1749.4282873535	0.0948722810
1751.3570947265	0.0914826542
1753.2859020996	0.0993170813
1755.2147094726	0.1026670784
1757.1435168457	0.0958301127
1759.0723242187	0.1028801948
1761.0011315918	0.0980067253
1762.9299389648	0.0959596932
1764.8587463379	0.1058709174
1766.7875537109	0.0976165235
1768.7163610839	0.0984934121
1770.6451684570	0.0977718309
1772.5739758300	0.0901861861
1774.5027832031	0.0980921835
1776.4315905761	0.1023068279
1778.3603979492	0.1008874252
1780.2892053222	0.1002098918
1782.2180126953	0.1007730216
1784.1468200683	0.1003231257
1786.0756274414	0.0989887416
1788.0044348144	0.1028123647
1789.9332421875	0.1006814465
1791.8620495605	0.0934767872
1793.7908569336	0.0966334343
1795.7196643066	0.1018469632
1797.6484716796	0.1006361470
1799.5772790527	0.0995434076
1801.5060864257	0.0982391983
1803.4348937988	0.1004766673
1805.3637011718	0.1022113860
1807.2925085449	0.1013256460
1809.2213159179	0.1015248001
1811.1501232910	0.0994383767
1813.0789306640	0.1016968116
1815.0077380371	0.1017662510
1816.9365454101	0.1009555608
1818.8653527832	0.1016343161
1820.7941601562	0.1012228876
1822.7229675293	0.1023586839
1824.6517749023	0.0971888080
1826.5805822753	0.0998585671
1828.5093896484	0.0999839529
1830.4381970214	0.0953830034
1832.3670043945	0.1013827026
1834.2958117675	0.1008416414
1836.2246191406	0.1009621248
1838.1534265136	0.1004015952
1840.0822338867	0.1010121703
1842.0110412597	0.1009656414
1843.9398486328	0.0922409520
1845.8686560058	0.0969018191
1847.7974633789	0.1006989628
1849.7262707519	0.0991570503
1851.6550781250	0.1012680903
1853.5838854980	0.0996576697
1855.5126928710	0.1004384980
1857.4415002441	0.0998631194
1859.3703076171	0.0992099792
1861.2991149902	0.0995819420
1863.2279223632	0.0987845808
1865.1567297363	0.0995401889
1867.0855371093	0.0970812440
1869.0143444824	0.0939503461
1870.9431518554	0.0966577530
1872.8719592285	0.0993354470
1874.8007666015	0.0979271084
1876.7295739746	0.0983019471
1878.6583813476	0.0980047360
1880.5871887207	0.0976633132
1882.5159960937	0.0980426148
1884.4448034667	0.0968100578
1886.3736108398	0.0979421735
1888.3024182128	0.0960612521
1890.2312255859	0.0946815759
1892.1600329589	0.0972305983
1894.0888403320	0.0962170511
1896.0176477050	0.0959042907
1897.9464550781	0.0966694504
1899.8752624511	0.0962688774
1901.8040698242	0.0961617008
1903.7328771972	0.0957309753
1905.6616845703	0.0961405933
1907.5904919433	0.0952616706
1909.5192993164	0.0947741419
1911.4481066894	0.0951747820
1913.3769140625	0.0950760096
1915.3057214355	0.0956358835
1917.2345288085	0.0924165100
1919.1633361816	0.0927071050
1921.0921435546	0.0953376591
1923.0209509277	0.0929063559
1924.9497583007	0.0944272950
1926.8785656738	0.0948266387
1928.8073730468	0.0939489007
1930.7361804199	0.0949151665
1932.6649877929	0.0938521326
1934.5937951660	0.0944168419
1936.5226025390	0.0936213583
1938.4514099121	0.0940993950
1940.3802172851	0.0940073431
1942.3090246582	0.0916814804
1944.2378320312	0.0930577219
1946.1666394042	0.0934738964
1948.0954467773	0.0934282392
1950.0242541503	0.0936459303
1951.9530615234	0.0934105963
1953.8818688964	0.0935346559
1955.8106762695	0.0928741843
1957.7394836425	0.0931218565
1959.6682910156	0.0931648090
1961.5970983886	0.0928171873
1963.5259057617	0.0930049568
1965.4547131347	0.0926141292
1967.3835205078	0.0918096602
1969.3123278808	0.0923869759
1971.2411352539	0.0927761868
1973.1699426269	0.0922972485
1975.0987499999	0.0925295427
1977.0275573730	0.0920898914
1978.9563647460	0.0921710879
1980.8851721191	0.0919991583
1982.8139794921	0.0915809423
1984.7427868652	0.0919258147
1986.6715942382	0.0912458897
1988.6004016113	0.0912137777
1990.5292089843	0.0906991512
1992.4580163574	0.0899063498
1994.3868237304	0.0906417817
1996.3156311035	0.0907565802
1998.2444384765	0.0905360579
2000.1732458496	0.0903305337
2002.1020532226	0.0900554508
2004.0308605956	0.0900784507
2005.9596679687	0.0898113996
2007.8884753417	0.0895998329
2009.8172827148	0.0893324316
2011.7460900878	0.0890721977
2013.6748974609	0.0891277343
2015.6037048339	0.0885078311
2017.5325122070	0.0879843310
2019.4613195800	0.0882938430
2021.3901269531	0.0882176161
2023.3189343261	0.0879044831
2025.2477416992	0.0877011046
2027.1765490722	0.0874332935
2029.1053564453	0.0873004049
2031.0341638183	0.0872196108
2032.9629711914	0.0870529264
2034.8917785644	0.0867015123
2036.8205859374	0.0864589810
2038.7493933105	0.0864196420
2040.6782006835	0.0860363394
2042.6070080566	0.0858240128
2044.5358154296	0.0858539492
2046.4646228027	0.0856461450
2048.3934301757	0.0855469257
2050.3222375488	0.0852720141
2052.2510449218	0.0852035731
2054.1798522949	0.0849388391
2056.1086596679	0.0844903290
2058.0374670410	0.0845499784
2059.9662744140	0.0842597783
2061.8950817871	0.0841915309
2063.8238891601	0.0837843865
2065.7526965331	0.0833607316
2067.6815039062	0.0836654752
2069.6103112792	0.0834092274
2071.5391186523	0.0832240731
2073.4679260253	0.0830546319
2075.3967333984	0.0828740150
2077.3255407714	0.0827773884
2079.2543481445	0.0824971795
2081.1831555175	0.0823708326
2083.1119628906	0.0822910368
2085.0407702636	0.0822203308
2086.9695776367	0.0818683952
2088.8983850097	0.0816646144
2090.8271923828	0.0815041661
2092.7559997558	0.0814412013
2094.6848071288	0.0814204291
2096.6136145019	0.0811166838
2098.5424218749	0.0810237676
2100.4712292480	0.0807325691
2102.4000366210	0.0807103962
2104.3288439941	0.0806573331
2106.2576513671	0.0802719742
2108.1864587402	0.0802524984
2110.1152661132	0.0801580995
2112.0440734863	0.0799995512
2113.9728808593	0.0797919035
2115.9016882324	0.0796599165
2117.8304956054	0.0794866979
2119.7593029785	0.0792699307
2121.6881103515	0.0793093964
2123.6169177245	0.0791679621
2125.5457250976	0.0791022331
2127.4745324706	0.0791213810
2129.4033398437	0.0788133517
2131.3321472167	0.0786886066
2133.2609545898	0.0787159353
2135.1897619628	0.0784665495
2137.1185693359	0.0782763809
2139.0473767089	0.0782082602
2140.9761840820	0.0781189352
2142.9049914550	0.0780065656
2144.8337988281	0.0779229403
2146.7626062011	0.0777510181
2148.6914135742	0.0775913969
2150.6202209472	0.0775606483
2152.5490283203	0.0773745924
2154.4778356933	0.0774225146
2156.4066430663	0.0773622245
2158.3354504394	0.0771177113
2160.2642578124	0.0770524368
2162.1930651855	0.0769231617
2164.1218725585	0.0768457353
2166.0506799316	0.0766719580
2167.9794873046	0.0766440034
2169.9082946777	0.0765055567
2171.8371020507	0.0762853399
2173.7659094238	0.0762436688
2175.6947167968	0.0762146115
2177.6235241699	0.0761728361
2179.5523315429	0.0759552717
2181.4811389160	0.0761451125
2183.4099462890	0.0760255083
2185.3387536620	0.0756665617
2187.2675610351	0.0757091641
2189.1963684081	0.0755563080
2191.1251757812	0.0753990933
2193.0539831542	0.0753284097
2194.9827905273	0.0754129142
2196.9115979003	0.0752438083
2198.8404052734	0.0750657022
2200.7692126464	0.0750164241
2202.6980200195	0.0748067796
2204.6268273925	0.0746599883
2206.5556347656	0.0745886862
2208.4844421386	0.0746273771
2210.4132495117	0.0743130445
2212.3420568847	0.0743203163
2214.2708642577	0.0742687434
2216.1996716308	0.0739261955
2218.1284790038	0.0741085410
2220.0572863769	0.0740047097
2221.9860937499	0.0737456158
2223.9149011230	0.0736456960
2225.8437084960	0.0736464560
2227.7725158691	0.0734030902
2229.7013232421	0.0732634589
2231.6301306152	0.0733640194
2233.5589379882	0.0730977356
2235.4877453613	0.0729364157
2237.4165527343	0.0728388280
2239.3453601074	0.0728431866
2241.2741674804	0.0726813078
2243.2029748534	0.0724846423
2245.1317822265	0.0723434463
2247.0605895995	0.0722438991
2248.9893969726	0.0723241419
2250.9182043456	0.0719919354
2252.8470117187	0.0718447194
2254.7758190917	0.0716821998
2256.7046264648	0.0715476871
2258.6334338378	0.0715698153
2260.5622412109	0.0714371279
2262.4910485839	0.0713743344
2264.4198559570	0.0711262375
2266.3486633300	0.0711485520
2268.2774707031	0.0711277649
2270.2062780761	0.0709701329
2272.1350854491	0.0708532184
2274.0638928222	0.0706786737
2275.9927001952	0.0705506727
2277.9215075683	0.0705722123
2279.8503149413	0.0706510395
2281.7791223144	0.0702994764
2283.7079296874	0.0703110993
2285.6367370605	0.0702193081
2287.5655444335	0.0699493736
2289.4943518066	0.0699307024
2291.4231591796	0.0696922839
2293.3519665527	0.0696219578
2295.2807739257	0.0692887977
2297.2095812988	0.0690583959
2299.1383886718	0.0689404756
2301.0671960449	0.0686022118
2302.9960034179	0.0683025420
2304.9248107909	0.0679765344
2306.8536181640	0.0676428080
2308.7824255370	0.0672880113
2310.7112329101	0.0669644028
2312.6400402831	0.0661544055
2314.5688476562	0.0656487793
2316.4976550292	0.0651251078
2318.4264624023	0.0642570257
2320.3552697753	0.0637537241
2322.2840771484	0.0628138036
2324.2128845214	0.0621240586
2326.1416918945	0.0616197586
2328.0704992675	0.0610292554
2329.9993066406	0.0605025291
2331.9281140136	0.0599582866
2333.8569213866	0.0598188415
2335.7857287597	0.0595720336
2337.7145361327	0.0595680401
2339.6433435058	0.0596301034
2341.5721508788	0.0598716363
2343.5009582519	0.0605165660
2345.4297656249	0.0612392426
2347.3585729980	0.0632666796
2349.2873803710	0.0647074878
2351.2161877441	0.0629568025
2353.1449951171	0.0603573248
2355.0738024902	0.0586779304
2357.0026098632	0.0572690330
2358.9314172363	0.0562827215
2360.8602246093	0.0556645021
2362.7890319823	0.0555121154
2364.7178393554	0.0557517931
2366.6466467284	0.0562857762
2368.5754541015	0.0572818629
2370.5042614745	0.0582536981
2372.4330688476	0.0595576987
2374.3618762206	0.0609294549
2376.2906835937	0.0620738268
2378.2194909667	0.0632261038
2380.1482983398	0.0640366524
2382.0771057128	0.0645193160
2384.0059130859	0.0648273677
2385.9347204589	0.0650791526
2387.8635278320	0.0650502294
2389.7923352050	0.0649638921
2391.7211425780	0.0648223981
2393.6499499511	0.0647816509
2395.5787573241	0.0647981167
2397.5075646972	0.0644958764
2399.4363720702	0.0645682141
2401.3651794433	0.0644824281
2403.2939868163	0.0642824918
2405.2227941894	0.0643073320
2407.1516015624	0.0641716123
2409.0804089355	0.0640853643
2411.0092163085	0.0639026836
2412.9380236816	0.0637952611
2414.8668310546	0.0636828020
2416.7956384277	0.0636429340
2418.7244458007	0.0635692552
2420.6532531738	0.0633968115
2422.5820605468	0.0634133220
2424.5108679198	0.0633365661
2426.4396752929	0.0632269457
2428.3684826659	0.0630101115
2430.2972900390	0.0629884303
2432.2260974120	0.0630024523
2434.1549047851	0.0627415180
2436.0837121581	0.0627008751
2438.0125195312	0.0626595095
2439.9413269042	0.0625071526
2441.8701342773	0.0624273941
2443.7989416503	0.0623639375
2445.7277490234	0.0623014346
2447.6565563964	0.0622427985
2449.5853637695	0.0620351806
2451.5141711425	0.0618636161
2453.4429785155	0.0619134195
2455.3717858886	0.0619025826
2457.3005932616	0.0617576316
2459.2294006347	0.0615796000
2461.1582080077	0.0615079626
2463.0870153808	0.0614431910
2465.0158227538	0.0613318756
2466.9446301269	0.0612535626
2468.8734374999	0.0611742735
2470.8022448730	0.0610368997
2472.7310522460	0.0610527024
2474.6598596191	0.0610254779
2476.5886669921	0.0607365891
2478.5174743652	0.0607121065
2480.4462817382	0.0606049225
2482.3750891112	0.0604958236
2484.3038964843	0.0604587197
2486.2327038573	0.0603068285
2488.1615112304	0.0603817739
2490.0903186034	0.0602132976
2492.0191259765	0.0601345673
2493.9479333495	0.0601039752
2495.8767407226	0.0599254742
2497.8055480956	0.0598806962
2499.7343554687	0.0596849769
2501.6631628417	0.0596153103
2503.5919702148	0.0595780239
2505.5207775878	0.0594904497
2507.4495849609	0.0594333261
2509.3783923339	0.0594009981
2511.3071997069	0.0592545345
2513.2360070800	0.0590575561
2515.1648144530	0.0591327399
2517.0936218261	0.0590308309
2519.0224291991	0.0589138716
2520.9512365722	0.0589036979
2522.8800439452	0.0587492511
2524.8088513183	0.0586724021
2526.7376586913	0.0585921258
2528.6664660644	0.0584226325
2530.5952734374	0.0584265366
2532.5240808105	0.0584036410
2534.4528881835	0.0581109002
2536.3816955566	0.0580606535
2538.3105029296	0.0580976531
2540.2393103027	0.0579637513
2542.1681176757	0.0578314625
2544.0969250487	0.0577471703
2546.0257324218	0.0576741882
2547.9545397948	0.0575077236
2549.8833471679	0.0575209707
2551.8121545409	0.0575293824
2553.7409619140	0.0574058220
2555.6697692870	0.0572830886
2557.5985766601	0.0571613424
2559.5273840331	0.0571484640
2561.4561914062	0.0571426675
2563.3849987792	0.0569782294
2565.3138061523	0.0567660704
2567.2426135253	0.0567348674
2569.1714208984	0.0566187277
2571.1002282714	0.0565641895
2573.0290356444	0.0565511212
2574.9578430175	0.0564191118
2576.8866503905	0.0563439429
2578.8154577636	0.0562309325
2580.7442651366	0.0562478527
2582.6730725097	0.0560790449
2584.6018798827	0.0559502430
2586.5306872558	0.0559453070
2588.4594946288	0.0557603687
2590.3883020019	0.0557335354
2592.3171093749	0.0556531586
2594.2459167480	0.0555644929
2596.1747241210	0.0554336570
2598.1035314941	0.0553303510
2600.0323388671	0.0552953556
2601.9611462401	0.0552216321
2603.8899536132	0.0552345850
2605.8187609862	0.0551439896
2607.7475683593	0.0550298318
2609.6763757323	0.0548328385
2611.6051831054	0.0548071899
2613.5339904784	0.0547923222
2615.4627978515	0.0546731874
2617.3916052245	0.0547091477
2619.3204125976	0.0544432700
2621.2492199706	0.0542770252
2623.1780273437	0.0542935804
2625.1068347167	0.0541617051
2627.0356420898	0.0540730506
2628.9644494628	0.0540693477
2630.8932568358	0.0540711991
2632.8220642089	0.0539853051
2634.7508715819	0.0539673045
2636.6796789550	0.0538598299
2638.6084863280	0.0536798202
2640.5372937011	0.0535760745
2642.4661010741	0.0534782000
2644.3949084472	0.0534784980
2646.3237158202	0.0534384251
2648.2525231933	0.0532847643
2650.1813305663	0.0532237068
2652.1101379394	0.0531887598
2654.0389453124	0.0530501790
2655.9677526855	0.0529969111
2657.8965600585	0.0528747588
2659.8253674315	0.0526971593
2661.7541748046	0.0526808873
2663.6829821776	0.0526299551
2665.6117895507	0.0525201708
2667.5405969237	0.0524631031
2669.4694042968	0.0524755381
2671.3982116698	0.0523748994
2673.3270190429	0.0522412956
2675.2558264159	0.0521814898
2677.1846337890	0.0520797633
2679.1134411620	0.0519746467
2681.0422485351	0.0518764779
2682.9710559081	0.0518117212
2684.8998632812	0.0516190082
2686.8286706542	0.0515160561
2688.7574780273	0.0516285039
2690.6862854003	0.0514955595
2692.6150927733	0.0513615571
2694.5439001464	0.0514077283
2696.4727075194	0.0512876585
2698.4015148925	0.0511271060
2700.3303222655	0.0510594845
2702.2591296386	0.0510232411
2704.1879370116	0.0509534031
2706.1167443847	0.0508629307
2708.0455517577	0.0508576073
2709.9743591308	0.0506998636
2711.9031665038	0.0505518131
2713.8319738769	0.0505101047
2715.7607812499	0.0503911152
2717.6895886230	0.0503746122
2719.6183959960	0.0502558053
2721.5472033690	0.0501318984
2723.4760107421	0.0501442626
2725.4048181151	0.0500980020
2727.3336254882	0.0498926565
2729.2624328612	0.0497428626
2731.1912402343	0.0497655571
2733.1200476073	0.0495749265
2735.0488549804	0.0495164841
2736.9776623534	0.0495107472
2738.9064697265	0.0494244322
2740.8352770995	0.0493810922
2742.7640844726	0.0491520278
2744.6928918456	0.0491702221
2746.6216992187	0.0491640605
2748.5505065917	0.0490025058
2750.4793139647	0.0488988161
2752.4081213378	0.0487808287
2754.3369287108	0.0487815626
2756.2657360839	0.0487409756
2758.1945434569	0.0487107337
2760.1233508300	0.0485510081
2762.0521582030	0.0483784527
2763.9809655761	0.0483474806
2765.9097729491	0.0482233651
2767.8385803222	0.0481158122
2769.7673876952	0.0479724444
2771.6961950683	0.0478394367
2773.6250024413	0.0478421450
2775.5538098144	0.0478298478
2777.4826171874	0.0477553681
2779.4114245604	0.0477017239
2781.3402319335	0.0475902259
2783.2690393065	0.0474139489
2785.1978466796	0.0472870283
2787.1266540526	0.0472523570
2789.0554614257	0.0471797287
2790.9842687987	0.0470213145
2792.9130761718	0.0469264425
2794.8418835448	0.0468778536
2796.7706909179	0.0469357707
2798.6994982909	0.0468106493
2800.6283056640	0.0465916097
2802.5571130370	0.0465322435
2804.4859204101	0.0464309603
2806.4147277831	0.0463928767
2808.3435351562	0.0462908633
2810.2723425292	0.0462570712
2812.2011499022	0.0460723341
2814.1299572753	0.0458631441
2816.0587646483	0.0459868759
2817.9875720214	0.0458303504
2819.9163793944	0.0456612706
2821.8451867675	0.0456443131
2823.7739941405	0.0455358475
2825.7028015136	0.0453912392
2827.6316088866	0.0454041325
2829.5604162597	0.0453899652
2831.4892236327	0.0451589599
2833.4180310058	0.0451107770
2835.3468383788	0.0449470356
2837.2756457519	0.0447847173
2839.2044531249	0.0446824878
2841.1332604979	0.0445931740
2843.0620678710	0.0445129462
2844.9908752440	0.0441385508
2846.9196826171	0.0439110845
2848.8484899901	0.0436122231
2850.7772973632	0.0434413478
2852.7061047362	0.0435171202
2854.6349121093	0.0434833393
2856.5637194823	0.0435033888
2858.4925268554	0.0433048233
2860.4213342284	0.0432552844
2862.3501416015	0.0432585925
2864.2789489745	0.0431111120
2866.2077563476	0.0431874171
2868.1365637206	0.0431248918
2870.0653710936	0.0429228991
2871.9941784667	0.0428894758
2873.9229858397	0.0428259894
2875.8517932128	0.0426597185
2877.7806005858	0.0427225754
2879.7094079589	0.0426609293
2881.6382153319	0.0424655229
2883.5670227050	0.0425783768
2885.4958300780	0.0424754545
2887.4246374511	0.0423474759
2889.3534448241	0.0423674583
2891.2822521972	0.0421383008
2893.2110595702	0.0420215577
2895.1398669433	0.0419591218
2897.0686743163	0.0418461636
2898.9974816893	0.0417329036
2900.9262890624	0.0415335223
2902.8550964354	0.0415061638
2904.7839038085	0.0413501523
2906.7127111815	0.0411781967
2908.6415185546	0.0411249399
2910.5703259276	0.0408411473
2912.4991333007	0.0406171978
2914.4279406737	0.0403326601
2916.3567480468	0.0401701368
2918.2855554198	0.0401707664
2920.2143627929	0.0400370508
2922.1431701659	0.0400134735
2924.0719775390	0.0399110653
2926.0007849120	0.0398744866
2927.9295922851	0.0399026684
2929.8583996581	0.0397966281
2931.7872070311	0.0397702232
2933.7160144042	0.0398467109
2935.6448217772	0.0398297794
2937.5736291503	0.0397634730
2939.5024365233	0.0398249552
2941.4312438964	0.0396720618
2943.3600512694	0.0396661907
2945.2888586425	0.0397583134
2947.2176660155	0.0395571142
2949.1464733886	0.0395680517
2951.0752807616	0.0395105556
2953.0040881347	0.0393323228
2954.9328955077	0.0392007232
2956.8617028808	0.0390945077
2958.7905102538	0.0390611142
2960.7193176268	0.0388496742
2962.6481249999	0.0387910753
2964.5769323729	0.0388728455
2966.5057397460	0.0387141481
2968.4345471190	0.0386113413
2970.3633544921	0.0386794880
2972.2921618651	0.0387064293
2974.2209692382	0.0387519822
2976.1497766112	0.0387461707
2978.0785839843	0.0387464464
2980.0073913573	0.0387578532
2981.9361987304	0.0385949090
2983.8650061034	0.0386197567
2985.7938134765	0.0386173241
2987.7226208495	0.0384679958
2989.6514282225	0.0385185927
2991.5802355956	0.0384436622
2993.5090429686	0.0383588187
2995.4378503417	0.0383641608
2997.3666577147	0.0382041633
2999.2954650878	0.0381251127
3001.2242724608	0.0381313413
3003.1530798339	0.0380025730
3005.0818872069	0.0379464105
3007.0106945800	0.0379605740
3008.9395019530	0.0378109775
3010.8683093261	0.0376671255
3012.7971166991	0.0375946686
3014.7259240722	0.0374484845
3016.6547314452	0.0374077260
3018.5835388182	0.0374366939
3020.5123461913	0.0372766033
3022.4411535643	0.0372122750
3024.3699609374	0.0371756926
3026.2987683104	0.0369950458
3028.2275756835	0.0369532928
3030.1563830565	0.0368661769
3032.0851904296	0.0367469415
3034.0139978026	0.0367246866
3035.9428051757	0.0366844125
3037.8716125487	0.0365940221
3039.8004199218	0.0364793763
3041.7292272948	0.0364130773
3043.6580346679	0.0362737551
3045.5868420409	0.0362404287
3047.5156494139	0.0362278596
3049.4444567870	0.0360022485
3051.3732641600	0.0359021276
3053.3020715331	0.0359002575
3055.2308789061	0.0358968452
3057.1596862792	0.0358485505
3059.0884936522	0.0356441438
3061.0173010253	0.0355048962
3062.9461083983	0.0355121829
3064.8749157714	0.0355167165
3066.8037231444	0.0353895910
3068.7325305175	0.0353100300
3070.6613378905	0.0352900140
3072.5901452636	0.0351418033
3074.5189526366	0.0351680592
3076.4477600097	0.0351522267
3078.3765673827	0.0349353738
3080.3053747557	0.0349064283
3082.2341821288	0.0348606855
3084.1629895018	0.0347397551
3086.0917968749	0.0346403830
3088.0206042479	0.0345472842
3089.9494116210	0.0345117785
3091.8782189940	0.0345050916
3093.8070263671	0.0344619937
3095.7358337401	0.0343596786
3097.6646411132	0.0342773646
3099.5934484862	0.0342074484
3101.5222558593	0.0341591239
3103.4510632323	0.0339032374
3105.3798706054	0.0338234343
3107.3086779784	0.0339205712
3109.2374853514	0.0336611047
3111.1662927245	0.0336677358
3113.0951000975	0.0336353183
3115.0239074706	0.0334565341
3116.9527148436	0.0334516838
3118.8815222167	0.0332904533
3120.8103295897	0.0332128182
3122.7391369628	0.0330722257
3124.6679443358	0.0329816155
3126.5967517089	0.0329608470
3128.5255590819	0.0329061821
3130.4543664550	0.0328201391
3132.3831738280	0.0326180905
3134.3119812011	0.0326871201
3136.2407885741	0.0325988084
3138.1695959471	0.0324323513
3140.0984033202	0.0324400403
3142.0272106932	0.0322588421
3143.9560180663	0.0321684740
3145.8848254393	0.0320593379
3147.8136328124	0.0319266170
3149.7424401854	0.0319311246
3151.6712475585	0.0318038240
3153.6000549315	0.0316529572
3155.5288623046	0.0315578654
3157.4576696776	0.0315220207
3159.3864770507	0.0315197259
3161.3152844237	0.0313860700
3163.2440917968	0.0313316658
3165.1728991698	0.0311716683
3167.1017065428	0.0310456734
3169.0305139159	0.0311265476
3170.9593212889	0.0308744237
3172.8881286620	0.0307985395
3174.8169360350	0.0308846775
3176.7457434081	0.0307156220
3178.6745507811	0.0305190682
3180.6033581542	0.0304483641
3182.5321655272	0.0304799229
3184.4609729003	0.0302802026
3186.3897802733	0.0302832313
3188.3185876464	0.0302598830
3190.2473950194	0.0300840400
3192.1762023925	0.0301129632
3194.1050097655	0.0299338214
3196.0338171386	0.0298570730
3197.9626245116	0.0298280027
3199.8914318846	0.0297182985
3201.8202392577	0.0297111981
3203.7490466307	0.0296444613
3205.6778540038	0.0294884630
3207.6066613768	0.0293939896
3209.5354687499	0.0293725915
3211.4642761229	0.0292801429
3213.3930834960	0.0292596519
3215.3218908690	0.0291958842
3217.2506982421	0.0291527174
3219.1795056151	0.0290486440
3221.1083129882	0.0289621316
3223.0371203612	0.0289389268
3224.9659277343	0.0288104210
3226.8947351073	0.0288804434
3228.8235424803	0.0287921652
3230.7523498534	0.0286697447
3232.6811572264	0.0286133289
3234.6099645995	0.0287047625
3236.5387719725	0.0287394524
3238.4675793456	0.0284253936
3240.3963867186	0.0284647886
3242.3251940917	0.0283933803
3244.2540014647	0.0283090044
3246.1828088378	0.0282905735
3248.1116162108	0.0282625034
3250.0404235839	0.0283634178
3251.9692309569	0.0281278715
3253.8980383300	0.0280885678
3255.8268457030	0.0280404799
3257.7556530760	0.0279922970
3259.6844604491	0.0280261822
3261.6132678221	0.0279536117
3263.5420751952	0.0279404223
3265.4708825682	0.0278676730
3267.3996899413	0.0279464722
3269.3284973143	0.0278010629
3271.2573046874	0.0276933536
3273.1861120604	0.0277593248
3275.1149194335	0.0277058668
3277.0437268065	0.0276138261
3278.9725341796	0.0275531597
3280.9013415526	0.0276077427
3282.8301489257	0.0274823494
3284.7589562987	0.0275654010
3286.6877636717	0.0275177993
3288.6165710448	0.0273066312
3290.5453784178	0.0273508355
3292.4741857909	0.0272966102
3294.4029931639	0.0272969957
3296.3318005370	0.0272315964
3298.2606079100	0.0272728000
3300.1894152831	0.0272527412
3302.1182226561	0.0270486735
3304.0470300292	0.0270311553
3305.9758374022	0.0270358846
3307.9046447753	0.0269695092
3309.8334521483	0.0269058105
3311.7622595214	0.0269266199
3313.6910668944	0.0268478394
3315.6198742675	0.0268506911
3317.5486816405	0.0267997608
3319.4774890135	0.0267411023
3321.4062963866	0.0268562064
3323.3351037596	0.0266831070
3325.2639111327	0.0265645906
3327.1927185057	0.0266004484
3329.1215258788	0.0265886374
3331.0503332518	0.0264988113
3332.9791406249	0.0264308415
3334.9079479979	0.0264662076
3336.8367553710	0.0264264625
3338.7655627440	0.0263954215
3340.6943701171	0.0262345374
3342.6231774901	0.0261375364
3344.5519848632	0.0262095891
3346.4807922362	0.0260924399
3348.4095996092	0.0260076262
3350.3384069823	0.0260184780
3352.2672143553	0.0258735511
3354.1960217284	0.0258844495
3356.1248291014	0.0259307958
3358.0536364745	0.0258283447
3359.9824438475	0.0257766452
3361.9112512206	0.0256474018
3363.8400585936	0.0256734639
3365.7688659667	0.0255832188
3367.6976733397	0.0255104676
3369.6264807128	0.0256227851
3371.5552880858	0.0254622642
3373.4840954589	0.0254661441
3375.4129028319	0.0254795700
3377.3417102049	0.0253675096
3379.2705175780	0.0252714679
3381.1993249510	0.0252297036
3383.1281323241	0.0252305809
3385.0569396971	0.0251347385
3386.9857470702	0.0250664949
3388.9145544432	0.0250169039
3390.8433618163	0.0250029080
3392.7721691893	0.0247682966
3394.7009765624	0.0248068459
3396.6297839354	0.0248586722
3398.5585913085	0.0246249884
3400.4873986815	0.0246708505
3402.4162060546	0.0245612115
3404.3450134276	0.0246011298
3406.2738208006	0.0245866459
3408.2026281737	0.0244641677
3410.1314355467	0.0244315472
3412.0602429198	0.0243477225
3413.9890502928	0.0244205613
3415.9178576659	0.0242744517
3417.8466650389	0.0242546294
3419.7754724120	0.0241234154
3421.7042797850	0.0239748079
3423.6330871581	0.0240919702
3425.5618945311	0.0240543373
3427.4907019042	0.0240189452
3429.4195092772	0.0239623450
3431.3483166503	0.0239907317
3433.2771240233	0.0238692351
3435.2059313963	0.0237611011
3437.1347387694	0.0237037949
3439.0635461424	0.0237144008
3440.9923535155	0.0236372743
3442.9211608885	0.0233873688
3444.8499682616	0.0235115532
3446.7787756346	0.0232442245
3448.7075830077	0.0233109780
3450.6363903807	0.0236541685
3452.5651977538	0.0234185550
3454.4940051268	0.0234428979
3456.4228124999	0.0233506132
3458.3516198729	0.0232654884
3460.2804272460	0.0231976919
3462.2092346190	0.0231273118
3464.1380419921	0.0232126974
3466.0668493651	0.0230883434
3467.9956567381	0.0231523272
3469.9244641112	0.0231418870
3471.8532714842	0.0230401829
3473.7820788573	0.0231062844
3475.7108862303	0.0230146684
3477.6396936034	0.0229804143
3479.5685009764	0.0229485035
3481.4973083495	0.0226772316
3483.4261157225	0.0227340199
3485.3549230956	0.0228840299
3487.2837304686	0.0226935856
3489.2125378417	0.0227339603
3491.1413452147	0.0228595287
3493.0701525878	0.0227507725
3494.9989599608	0.0226756427
3496.9277673338	0.0227285586
3498.8565747069	0.0227344334
3500.7853820799	0.0227119736
3502.7141894530	0.0224254541
3504.6429968260	0.0223674979
3506.5718041991	0.0227685273
3508.5006115721	0.0225155316
3510.4294189452	0.0224027522
3512.3582263182	0.0225390531
3514.2870336913	0.0224495418
3516.2158410643	0.0225866083
3518.1446484374	0.0224709474
3520.0734558104	0.0224621594
3522.0022631835	0.0223547462
3523.9310705565	0.0220889077
3525.8598779295	0.0221946873
3527.7886853026	0.0222655758
3529.7174926756	0.0222429708
3531.6463000487	0.0223449245
3533.5751074217	0.0224926136
3535.5039147948	0.0222567096
3537.4327221678	0.0221792627
3539.3615295409	0.0223993771
3541.2903369139	0.0223194100
3543.2191442870	0.0222431011
3545.1479516600	0.0219078083
3547.0767590331	0.0216209255
3549.0055664061	0.0221106336
3550.9343737792	0.0221666377
3552.8631811522	0.0218608268
3554.7919885252	0.0221385695
3556.7207958983	0.0221378971
3558.6496032713	0.0221262798
3560.5784106444	0.0220309719
3562.5072180174	0.0219093896
3564.4360253905	0.0219718367
3566.3648327635	0.0209326595
3568.2936401366	0.0205820408
3570.2224475096	0.0217240825
3572.1512548827	0.0220807903
3574.0800622557	0.0218303669
3576.0088696288	0.0219241977
3577.9376770018	0.0219359845
3579.8664843749	0.0218927935
3581.7952917479	0.0218771063
3583.7240991210	0.0218434967
3585.6529064940	0.0214415826
3587.5817138670	0.0202834494
3589.5105212401	0.0206966568
3591.4393286131	0.0219297186
3593.3681359862	0.0214973390
3595.2969433592	0.0211374667
3597.2257507323	0.0214707255
3599.1545581053	0.0216515921
3601.0833654784	0.0214229859
3603.0121728514	0.0215045065
3604.9409802245	0.0218479149
3606.8697875975	0.0212863646
3608.7985949706	0.0203162469
3610.7274023436	0.0208352264
3612.6562097167	0.0210761894
3614.5850170897	0.0205912776
3616.5138244627	0.0217656232
3618.4426318358	0.0203988589
3620.3714392088	0.0200006440
3622.3002465819	0.0217389129
3624.2290539549	0.0212750230
3626.1578613280	0.0220548026
3628.0866687010	0.0193183683
3630.0154760741	0.0182494950
3631.9442834471	0.0214965977
3633.8730908202	0.0209755003
3635.8018981932	0.0213806797
3637.7307055663	0.0216078348
3639.6595129393	0.0214313827
3641.5883203124	0.0215979107
3643.5171276854	0.0212077294
3645.4459350584	0.0214364901
3647.3747424315	0.0197805539
3649.3035498045	0.0184398275
3651.2323571776	0.0187947154
3653.1611645506	0.0213145390
3655.0899719237	0.0209473316
3657.0187792967	0.0194758512
3658.9475866698	0.0215043686
3660.8763940428	0.0210591927
3662.8052014159	0.0213558041
3664.7340087889	0.0212335475
3666.6628161620	0.0210927706
3668.5916235350	0.0205879565
3670.5204309081	0.0178067796
3672.4492382811	0.0203941911
3674.3780456541	0.0195934251
3676.3068530272	0.0172864087
3678.2356604002	0.0202712733
3680.1644677733	0.0206059031
3682.0932751463	0.0206540041
3684.0220825194	0.0209943671
3685.9508898924	0.0208109654
3687.8796972655	0.0191906355
3689.8085046385	0.0179976821
3691.7373120116	0.0199080557
3693.6661193846	0.0202848911
3695.5949267577	0.0205005575
3697.5237341307	0.0204932839
3699.4525415038	0.0204443373
3701.3813488768	0.0200585164
3703.3101562499	0.0195500087
3705.2389636229	0.0208622366
3707.1677709959	0.0200159159
3709.0965783690	0.0197195280
3711.0253857420	0.0188012347
3712.9541931151	0.0181000922
3714.8830004881	0.0202167369
3716.8118078612	0.0199004002
3718.7406152342	0.0201036837
3720.6694226073	0.0195704810
3722.5982299803	0.0191744119
3724.5270373534	0.0197087303
3726.4558447264	0.0186091512
3728.3846520995	0.0198022034
3730.3134594725	0.0195043907
3732.2422668456	0.0183950122
3734.1710742186	0.0179709718
3736.0998815916	0.0173609033
3738.0286889647	0.0181478225
3739.9574963377	0.0191940702
3741.8863037108	0.0198864285
3743.8151110838	0.0162930116
3745.7439184569	0.0157214068
3747.6727258299	0.0190518722
3749.6015332030	0.0169295184
3751.5303405760	0.0160005279
3753.4591479491	0.0177157260
3755.3879553221	0.0187390484
3757.3167626952	0.0191883892
3759.2455700682	0.0181880258
3761.1743774413	0.0187315941
3763.1031848143	0.0194189511
3765.0319921873	0.0184759721
3766.9607995604	0.0187828038
3768.8896069334	0.0184866693
3770.8184143065	0.0178746637
3772.7472216795	0.0190174077
3774.6760290526	0.0190242268
3776.6048364256	0.0189819243
3778.5336437987	0.0185463801
3780.4624511717	0.0180948395
3782.3912585448	0.0189462509
3784.3200659178	0.0185375102
3786.2488732909	0.0184844434
3788.1776806639	0.0187356994
3790.1064880370	0.0186082665
3792.0352954100	0.0185328666
3793.9641027830	0.0188336130
3795.8929101561	0.0179778542
3797.8217175291	0.0178219657
3799.7505249022	0.0183697920
3801.6793322752	0.0155043136
3803.6081396483	0.0174962096
3805.5369470213	0.0183152612
3807.4657543944	0.0159390159
3809.3945617674	0.0184390061
3811.3233691405	0.0180067457
3813.2521765135	0.0184172019
3815.1809838866	0.0169191193
3817.1097912596	0.0155778620
3819.0385986327	0.0184079427
3820.9674060057	0.0157511607
3822.8962133787	0.0164517686
3824.8250207518	0.0182720199
3826.7538281248	0.0170359686
3828.6826354979	0.0179624297
3830.6114428709	0.0173034500
3832.5402502440	0.0169139765
3834.4690576170	0.0173276961
3836.3978649901	0.0164663568
3838.3266723631	0.0152003001
3840.2554797362	0.0163817033
3842.1842871092	0.0171687976
3844.1130944823	0.0164767914
3846.0419018553	0.0174621232
3847.9707092284	0.0172754377
3849.8995166014	0.0173243247
3851.8283239745	0.0158816986
3853.7571313475	0.0129037322
3855.6859387205	0.0146462116
3857.6147460936	0.0173597187
3859.5435534666	0.0168765262
3861.4723608397	0.0167867709
3863.4011682127	0.0166078992
3865.3299755858	0.0156720001
3867.2587829588	0.0169607885
3869.1875903319	0.0158275422
3871.1163977049	0.0150015755
3873.0452050780	0.0169510655
3874.9740124510	0.0159379262
3876.9028198241	0.0168529674
3878.8316271971	0.0169525407
3880.7604345702	0.0152520873
3882.6892419432	0.0169449002
3884.6180493162	0.0159242190
3886.5468566893	0.0150114745
3888.4756640623	0.0168198124
3890.4044714354	0.0160662904
3892.3332788084	0.0155737568
3894.2620861815	0.0165342316
3896.1908935545	0.0165859200
3898.1197009276	0.0160781518
3900.0485083006	0.0153431986
3901.9773156737	0.0152293649
3903.9061230467	0.0152172297
3905.8349304198	0.0153506249
3907.7637377928	0.0162994396
3909.6925451659	0.0162882730
3911.6213525389	0.0162036121
3913.5501599119	0.0164095350
3915.4789672850	0.0159274265
3917.4077746580	0.0155978017
3919.3365820311	0.0155409649
3921.2653894041	0.0158684924
3923.1941967772	0.0158636011
3925.1230041502	0.0156591404
3927.0518115233	0.0157954991
3928.9806188963	0.0158831812
3930.9094262694	0.0156335514
3932.8382336424	0.0151987094
3934.7670410155	0.0156439990
3936.6958483885	0.0158332046
3938.6246557616	0.0156588349
3940.5534631346	0.0157116912
3942.4822705076	0.0152202956
3944.4110778807	0.0153402574
3946.3398852537	0.0155887175
3948.2686926268	0.0153505690
3950.1974999998	0.0153819919
3952.1263073729	0.0154056754
3954.0551147459	0.0154465586
3955.9839221190	0.0153377876
3957.9127294920	0.0153251532
3959.8415368651	0.0154168885
3961.7703442381	0.0151968785
3963.6991516112	0.0152057167
3965.6279589842	0.0152902808
3967.5567663573	0.0151892211
3969.4855737303	0.0151269846
3971.4143811034	0.0150879603
3973.3431884764	0.0150989853
3975.2719958494	0.0149914324
3977.2008032225	0.0149704581
3979.1296105955	0.0150191635
3981.0584179686	0.0148121798
3982.9872253416	0.0148154087
3984.9160327147	0.0149736544
3986.8448400877	0.0149221327
3988.7736474608	0.0148035120
3990.7024548338	0.0147112925
3992.6312622069	0.0147363078
3994.5600695799	0.0146997916
3996.4888769530	0.0146839721
3998.4176843260	0.0147197060
4000.3464916991	0.0145853562
4002.2752990721	0.0146030877
4004.2041064451	0.0146424640
4006.1329138182	0.0145667270
4008.0617211912	0.0144972987
4009.9905285643	0.0144057069
4011.9193359373	0.0144223794
4013.8481433104	0.0143670253
4015.7769506834	0.0143893193
4017.7057580565	0.0144205783
4019.6345654295	0.0142865209
4021.5633728026	0.0142559949
4023.4921801756	0.0142153259
4025.4209875487	0.0141823012
4027.3497949217	0.0141385645
4029.2786022948	0.0141359847
4031.2074096678	0.0141136851
4033.1362170408	0.0140497927
4035.0650244139	0.0140951807
4036.9938317869	0.0139909294
4038.9226391600	0.0138818678
4040.8514465330	0.0139067769
4042.7802539061	0.0139781367
4044.7090612791	0.0139243063
4046.6378686522	0.0138338087
4048.5666760252	0.0138521967
4050.4954833983	0.0137929693
4052.4242907713	0.0137031069
4054.3530981444	0.0136521365
4056.2819055174	0.0137773734
4058.2107128905	0.0136566181
4060.1395202635	0.0134612629
4062.0683276365	0.0135198338
4063.9971350096	0.0134613421
4065.9259423826	0.0135202780
4067.8547497557	0.0134595083
4069.7835571287	0.0133756464
4071.7123645018	0.0133983484
4073.6411718748	0.0133736040
4075.5699792479	0.0133866919
4077.4987866209	0.0133234374
4079.4275939940	0.0133682061
4081.3564013670	0.0132972430
4083.2852087401	0.0132178720
4085.2140161131	0.0132230949
4087.1428234862	0.0132374140
4089.0716308592	0.0132202739
4091.0004382323	0.0130674187
4092.9292456053	0.0131050404
4094.8580529783	0.0130435806
4096.7868603514	0.0130001511
4098.7156677244	0.0130518135
4100.6444750975	0.0129667791
4102.5732824705	0.0128969410
4104.5020898436	0.0128277875
4106.4308972166	0.0128611596
4108.3597045897	0.0128699671
4110.2885119627	0.0128301606
4112.2173193358	0.0127612818
4114.1461267088	0.0127497222
4116.0749340819	0.0127260322
4118.0037414549	0.0126823867
4119.9325488280	0.0127313994
4121.8613562010	0.0126045737
4123.7901635740	0.0125854425
4125.7189709471	0.0126369558
4127.6477783201	0.0125566227
4129.5765856932	0.0125307040
4131.5053930662	0.0125188548
4133.4342004393	0.0124444272
4135.3630078123	0.0123945409
4137.2918151854	0.0123942830
4139.2206225584	0.0123584196
4141.1494299315	0.0123999007
4143.0782373045	0.0123194475
4145.0070446776	0.0122589618
4146.9358520506	0.0122835943
4148.8646594237	0.0122004896
4150.7934667967	0.0121804075
4152.7222741697	0.0121837230
4154.6510815428	0.0121962884
4156.5798889158	0.0120812897
4158.5086962889	0.0120381285
4160.4375036619	0.0120481607
4162.3663110350	0.0120152188
4164.2951184080	0.0119958241
4166.2239257811	0.0118900891
4168.1527331541	0.0119395740
4170.0815405272	0.0119191650
4172.0103479002	0.0119043346
4173.9391552733	0.0118688084
4175.8679626463	0.0118330810
4177.7967700194	0.0118668675
4179.7255773924	0.0117205987
4181.6543847654	0.0118002761
4183.5831921385	0.0117313033
4185.5119995115	0.0115429908
4187.4408068846	0.0116268676
4189.3696142576	0.0115949865
4191.2984216307	0.0115808547
4193.2272290037	0.0116783697
4195.1560363768	0.0115693584
4197.0848437498	0.0114414189
4199.0136511229	0.0115511864
4200.9424584959	0.0114256814
4202.8712658690	0.0113478526
4204.8000732420	0.0114619583
4206.7288806151	0.0113673229
4208.6576879881	0.0113131143
4210.5864953611	0.0113125723
4212.5153027342	0.0113081243
4214.4441101072	0.0112758428
4216.3729174803	0.0112563856
4218.3017248533	0.0111716921
4220.2305322264	0.0111433603
4222.1593395994	0.0111748865
4224.0881469725	0.0111031998
4226.0169543455	0.0110965725
4227.9457617186	0.0110399490
4229.8745690916	0.0111178961
4231.8033764647	0.0111086629
4233.7321838377	0.0109631196
4235.6609912108	0.0109663839
4237.5897985838	0.0109416265
4239.5186059569	0.0108831599
4241.4474133299	0.0107792504
4243.3762207029	0.0108026685
4245.3050280760	0.0107876491
4247.2338354490	0.0107541196
4249.1626428221	0.0107924398
4251.0914501951	0.0107775778
4253.0202575682	0.0107239066
4254.9490649412	0.0106747402
4256.8778723143	0.0107588246
4258.8066796873	0.0106797749
4260.7354870604	0.0105764279
4262.6642944334	0.0105050150
4264.5931018065	0.0105112251
4266.5219091795	0.0105676772
4268.4507165526	0.0105124488
4270.3795239256	0.0105507858
4272.3083312986	0.0105012115
4274.2371386717	0.0105170440
4276.1659460447	0.0104060955
4278.0947534178	0.0104104690
4280.0235607908	0.0104794092
4281.9523681639	0.0103045516
4283.8811755369	0.0103946477
4285.8099829100	0.0102810748
4287.7387902830	0.0102511048
4289.6675976561	0.0102721872
4291.5964050291	0.0101263914
4293.5252124022	0.0101937568
4295.4540197752	0.0101479450
4297.3828271483	0.0101464354
4299.3116345213	0.0101485495
4301.2404418943	0.0101093836
4303.1692492674	0.0100768153
4305.0980566404	0.0100678476
4307.0268640135	0.0099607315
4308.9556713865	0.0099411812
4310.8844787596	0.0100639090
4312.8132861326	0.0099189486
4314.7420935057	0.0099172890
4316.6709008787	0.0098382123
4318.5997082518	0.0098480806
4320.5285156248	0.0099150222
4322.4573229979	0.0097891092
4324.3861303709	0.0098597370
4326.3149377440	0.0097395265
4328.2437451170	0.0097113121
4330.1725524900	0.0096605867
4332.1013598631	0.0096308785
4334.0301672361	0.0097528286
4335.9589746092	0.0096238432
4337.8877819822	0.0096221473
4339.8165893553	0.0095977234
4341.7453967283	0.0096067591
4343.6742041014	0.0096293651
4345.6030114744	0.0094955545
4347.5318188475	0.0095103160
4349.4606262205	0.0095797349
4351.3894335936	0.0094516929
4353.3182409666	0.0093182083
4355.2470483397	0.0094254334
4357.1758557127	0.0094265183
4359.1046630858	0.0093593523
4361.0334704588	0.0093282703
4362.9622778318	0.0092873387
4364.8910852049	0.0092479177
4366.8198925779	0.0092316661
4368.7486999510	0.0092777032
4370.6775073240	0.0091891028
4372.6063146971	0.0091395918
4374.5351220701	0.0091168415
4376.4639294432	0.0091406135
4378.3927368162	0.0091431979
4380.3215441893	0.0090832710
4382.2503515623	0.0090933898
4384.1791589354	0.0089825261
4386.1079663084	0.0089975363
4388.0367736815	0.0089951744
4389.9655810545	0.0089272596
4391.8943884275	0.0089503499
4393.8231958006	0.0089182938
4395.7520031736	0.0088999001
4397.6808105467	0.0088844877
4399.6096179197	0.0088935662
4401.5384252928	0.0088219587
4403.4672326658	0.0087985918
4405.3960400389	0.0087544378
4407.3248474119	0.0087501276
4409.2536547850	0.0088528134
4411.1824621580	0.0087776091
4413.1112695311	0.0088174623
4415.0400769041	0.0087443255
4416.9688842772	0.0086827911
4418.8976916502	0.0087534189
4420.8264990232	0.0085722227
4422.7553063963	0.0085582398
4424.6841137693	0.0085826311
4426.6129211424	0.0085441712
4428.5417285154	0.0085789422
4430.4705358885	0.0085213892
4432.3993432615	0.0084911510
4434.3281506346	0.0084815733
4436.2569580076	0.0084678950
4438.1857653807	0.0084157325
4440.1145727537	0.0084360531
4442.0433801268	0.0085217617
4443.9721874998	0.0084118340
4445.9009948729	0.0082890717
4447.8298022459	0.0083013382
4449.7586096189	0.0083336607
4451.6874169920	0.0083245933
4453.6162243650	0.0083033154
4455.5450317381	0.0082798582
4457.4738391111	0.0082176477
4459.4026464842	0.0081848931
4461.3314538572	0.0081404904
4463.2602612303	0.0081319958
4465.1890686033	0.0081572048
4467.1178759764	0.0080681220
4469.0466833494	0.0079932790
4470.9754907225	0.0080166981
4472.9042980955	0.0080720130
4474.8331054686	0.0080439430
4476.7619128416	0.0080252513
4478.6907202147	0.0080140159
4480.6195275877	0.0079214247
4482.5483349607	0.0079436526
4484.4771423338	0.0079200109
4486.4059497068	0.0079001952
4488.3347570799	0.0079229567
4490.2635644529	0.0078170756
4492.1923718260	0.0078249713
4494.1211791990	0.0078246156
4496.0499865721	0.0077706361
4497.9787939451	0.0077940286
4499.9076013182	0.0077549424
4501.8364086912	0.0076885018
4503.7652160643	0.0076789474
4505.6940234373	0.0077213910
4507.6228308104	0.0077313902
4509.5516381834	0.0076550869
4511.4804455564	0.0076111946
4513.4092529295	0.0076112654
4515.3380603025	0.0075723361
4517.2668676756	0.0076111103
4519.1956750486	0.0076060584
4521.1244824217	0.0075094514
4523.0532897947	0.0075353566
4524.9820971678	0.0075206296
4526.9109045408	0.0074708243
4528.8397119139	0.0074865804
4530.7685192869	0.0074223233
4532.6973266600	0.0073505519
4534.6261340330	0.0073917448
4536.5549414061	0.0074051186
4538.4837487791	0.0073607331
4540.4125561521	0.0073335906
4542.3413635252	0.0072664237
4544.2701708982	0.0072766943
4546.1989782713	0.0073349485
4548.1277856443	0.0072610704
4550.0565930174	0.0071766749
4551.9854003904	0.0072417269
4553.9142077635	0.0072584022
4555.8430151365	0.0071840915
4557.7718225096	0.0072395257
4559.7006298826	0.0072387131
4561.6294372557	0.0071905348
4563.5582446287	0.0071444572
4565.4870520018	0.0070501883
4567.4158593748	0.0070332778
4569.3446667478	0.0070459042
4571.2734741209	0.0071074367
4573.2022814939	0.0070413579
4575.1310888670	0.0069620153
4577.0598962400	0.0070354529
4578.9887036131	0.0069499426
4580.9175109861	0.0068923836
4582.8463183592	0.0069306418
4584.7751257322	0.0068759546
4586.7039331053	0.0068889568
4588.6327404783	0.0068615344
4590.5615478514	0.0067719752
4592.4903552244	0.0068086479
4594.4191625975	0.0068100626
4596.3479699705	0.0067896424
4598.2767773435	0.0067710886
4600.2055847166	0.0067834789
4602.1343920896	0.0068310164
4604.0631994627	0.0067080995
4605.9920068357	0.0066872356
4607.9208142088	0.0067027342
4609.8496215818	0.0066618267
4611.7784289549	0.0067180023
4613.7072363279	0.0066412203
4615.6360437010	0.0065959673
4617.5648510740	0.0066243056
4619.4936584471	0.0065803016
4621.4224658201	0.0065646069
4623.3512731932	0.0065830620
4625.2800805662	0.0065496322
4627.2088879393	0.0065136617
4629.1376953123	0.0065224376
4631.0665026853	0.0065008057
4632.9953100584	0.0065017901
4634.9241174314	0.0064488328
4636.8529248045	0.0064617428
4638.7817321775	0.0064710015
4640.7105395506	0.0063336934
4642.6393469236	0.0063849916
4644.5681542967	0.0064191944
4646.4969616697	0.0063062953
4648.4257690428	0.0063074604
4650.3545764158	0.0063105579
4652.2833837889	0.0062468890
4654.2121911619	0.0062879324
4656.1409985350	0.0063060885
4658.0698059080	0.0062344871
4659.9986132810	0.0062693357
4661.9274206541	0.0062477859
4663.8562280271	0.0062101018
4665.7850354002	0.0062532844
4667.7138427732	0.0061996188
4669.6426501463	0.0061324998
4671.5714575193	0.0061714891
4673.5002648924	0.0061765723
4675.4290722654	0.0060718386
4677.3578796385	0.0060134074
4679.2866870115	0.0060500307
4681.2154943846	0.0060813902
4683.1443017576	0.0060199909
4685.0731091307	0.0060067615
4687.0019165037	0.0059756730
4688.9307238767	0.0059365723
4690.8595312498	0.0059654983
4692.7883386228	0.0058845691
4694.7171459959	0.0059974324
4696.6459533689	0.0059970096
4698.5747607420	0.0058269510
4700.5035681150	0.0059176348
4702.4323754881	0.0058708563
4704.3611828611	0.0058305208
4706.2899902342	0.0058724247
4708.2187976072	0.0058446322
4710.1476049803	0.0058346842
4712.0764123533	0.0057725995
4714.0052197264	0.0057987166
4715.9340270994	0.0058037927
4717.8628344724	0.0056749368
4719.7916418455	0.0056536235
4721.7204492185	0.0057269633
4723.6492565916	0.0056842226
4725.5780639646	0.0056160530
4727.5068713377	0.0056136870
4729.4356787107	0.0056487899
4731.3644860838	0.0056313081
4733.2932934568	0.0055830181
4735.2221008299	0.0056372308
4737.1509082029	0.0056356424
4739.0797155760	0.0055923313
4741.0085229490	0.0055365274
4742.9373303221	0.0055158399
4744.8661376951	0.0055357618
4746.7949450682	0.0055214227
4748.7237524412	0.0055391253
4750.6525598142	0.0055016475
4752.5813671873	0.0055060256
4754.5101745603	0.0054450817
4756.4389819334	0.0054204362
4758.3677893064	0.0055006309
4760.2965966795	0.0054239086
4762.2254040525	0.0054099276
4764.1542114256	0.0053969929
4766.0830187986	0.0053753573
4768.0118261717	0.0053414917
4769.9406335447	0.0052857911
4771.8694409178	0.0053602085
4773.7982482908	0.0053344429
4775.7270556639	0.0052603018
4777.6558630369	0.0052765058
4779.5846704099	0.0053198561
4781.5134777830	0.0052821683
4783.4422851560	0.0052737584
4785.3710925291	0.0053157969
4787.2998999021	0.0052349470
4789.2287072752	0.0051997975
4791.1575146482	0.0051436480
4793.0863220213	0.0051189642
4795.0151293943	0.0051735612
4796.9439367674	0.0051193377
4798.8727441404	0.0051253960
4800.8015515135	0.0050690798
4802.7303588865	0.0050300006
4804.6591662596	0.0051303306
4806.5879736326	0.0050712246
4808.5167810056	0.0051152399
4810.4455883787	0.0051006931
4812.3743957517	0.0049822438
4814.3032031248	0.0050756731
4816.2320104978	0.0049824808
4818.1608178709	0.0049800342
4820.0896252439	0.0049921898
4822.0184326170	0.0049155345
4823.9472399900	0.0050824713
4825.8760473631	0.0049761822
4827.8048547361	0.0048756381
4829.7336621092	0.0049314350
4831.6624694822	0.0048905723
4833.5912768553	0.0048493808
4835.5200842283	0.0047917310
4837.4488916013	0.0048421845
4839.3776989744	0.0048077628
4841.3065063474	0.0047682808
4843.2353137205	0.0047629410
4845.1641210935	0.0048092483
4847.0929284666	0.0048341262
4849.0217358396	0.0046968563
4850.9505432127	0.0047620535
4852.8793505857	0.0047243610
4854.8081579588	0.0046856869
4856.7369653318	0.0048101675
4858.6657727049	0.0046731681
4860.5945800779	0.0046000192
4862.5233874510	0.0046697306
4864.4521948240	0.0046729222
4866.3810021971	0.0046638348
4868.3098095701	0.0046409983
4870.2386169431	0.0046195621
4872.1674243162	0.0045862473
4874.0962316892	0.0045892149
4876.0250390623	0.0046643810
4877.9538464353	0.0046382472
4879.8826538084	0.0045606019
4881.8114611814	0.0045491774
4883.7402685545	0.0045498633
4885.6690759275	0.0045724814
4887.5978833006	0.0045564659
4889.5266906736	0.0045664199
4891.4554980467	0.0044758059
4893.3843054197	0.0043923715
4895.3131127928	0.0044366233
4897.2419201658	0.0043509323
4899.1707275388	0.0044110361
4901.0995349119	0.0044882465
4903.0283422849	0.0044247056
4904.9571496580	0.0044120159
4906.8859570310	0.0043997723
4908.8147644041	0.0044152830
4910.7435717771	0.0044193417
4912.6723791502	0.0044113975
4914.6011865232	0.0043163812
4916.5299938963	0.0042966469
4918.4588012693	0.0043086559
4920.3876086424	0.0042423503
4922.3164160154	0.0042683948
4924.2452233885	0.0042500710
4926.1740307615	0.0042619281
4928.1028381345	0.0042623053
4930.0316455076	0.0042419978
4931.9604528806	0.0041895909
4933.8892602537	0.0041495943
4935.8180676267	0.0042604031
4937.7468749998	0.0042695217
4939.6756823728	0.0042403592
4941.6044897459	0.0041714124
4943.5332971189	0.0041889888
4945.4621044920	0.0041977288
4947.3909118650	0.0040868330
4949.3197192381	0.0041681901
4951.2485266111	0.0041106204
4953.1773339842	0.0040967558
4955.1061413572	0.0041852631
4957.0349487302	0.0040709805
4958.9637561033	0.0040659970
4960.8925634763	0.0041322419
4962.8213708494	0.0041251415
4964.7501782224	0.0040592994
4966.6789855955	0.0040576169
4968.6077929685	0.0040725144
4970.5366003416	0.0040092198
4972.4654077146	0.0039709862
4974.3942150877	0.0039588213
4976.3230224607	0.0039856881
4978.2518298338	0.0039730035
4980.1806372068	0.0039725304
4982.1094445799	0.0039818715
4984.0382519529	0.0039822431
4985.9670593259	0.0039613652
4987.8958666990	0.0038848780
4989.8246740720	0.0039092186
4991.7534814451	0.0039125634
4993.6822888181	0.0038652131
4995.6110961912	0.0038185208
4997.5399035642	0.0038632345
4999.4687109373	0.0039074738
5001.3975183103	0.0038034972
5003.3263256834	0.0038565304
5005.2551330564	0.0038389615
5007.1839404295	0.0037987055
5009.1127478025	0.0038643540
5011.0415551756	0.0037681358
5012.9703625486	0.0038030883
5014.8991699217	0.0038172095
5016.8279772947	0.0037276922
5018.7567846677	0.0037442204
5020.6855920408	0.0037108627
5022.6143994138	0.0036822674
5024.5432067869	0.0037212172
5026.4720141599	0.0037309926
5028.4008215330	0.0036836951
5030.3296289060	0.0037043598
5032.2584362791	0.0036928041
5034.1872436521	0.0036509675
5036.1160510252	0.0037012114
5038.0448583982	0.0036305604
5039.9736657713	0.0035378351
5041.9024731443	0.0036088417
5043.8312805174	0.0036874120
5045.7600878904	0.0036088484
5047.6888952634	0.0035620383
5049.6177026365	0.0036400133
5051.5465100095	0.0036085746
5053.4753173826	0.0035739536
5055.4041247556	0.0035835849
5057.3329321287	0.0035397364
5059.2617395017	0.0035019361
5061.1905468748	0.0034816782
5063.1193542478	0.0034957868
5065.0481616209	0.0035251996
5066.9769689939	0.0035309040
5068.9057763670	0.0034915782
5070.8345837400	0.0034819578
5072.7633911131	0.0034821802
5074.6921984861	0.0034078900
5076.6210058591	0.0034077279
5078.5498132322	0.0033796243
5080.4786206052	0.0033611814
5082.4074279783	0.0034676590
5084.3362353513	0.0033869045
5086.2650427244	0.0033751845
5088.1938500974	0.0034013945
5090.1226574705	0.0033041909
5092.0514648435	0.0034078364
5093.9802722166	0.0033671535
5095.9090795896	0.0033254770
5097.8378869627	0.0033610230
5099.7666943357	0.0032584998
5101.6955017088	0.0033337332
5103.6243090818	0.0033773156
5105.5531164548	0.0033023839
5107.4819238279	0.0032756377
5109.4107312009	0.0033107586
5111.3395385740	0.0032248469
5113.2683459470	0.0031960048
5115.1971533201	0.0033282267
5117.1259606931	0.0032740640
5119.0547680662	0.0032826941
5120.9835754392	0.0032090514
5122.9123828123	0.0031889663
5124.8411901853	0.0032574001
5126.7699975584	0.0031374863
5128.6988049314	0.0032207861
5130.6276123045	0.0031732721
5132.5564196775	0.0031152463
5134.4852270506	0.0032110587
5136.4140344236	0.0031189586
5138.3428417966	0.0030964394
5140.2716491697	0.0031547393
5142.2004565427	0.0031226194
5144.1292639158	0.0030713170
5146.0580712888	0.0031352369
5147.9868786619	0.0031566119
5149.9156860349	0.0031249463
5151.8444934080	0.0030813317
5153.7733007810	0.0030715340
5155.7021081541	0.0030919630
5157.6309155271	0.0029772818
5159.5597229002	0.0029849000
5161.4885302732	0.0030593267
5163.4173376463	0.0030142465
5165.3461450193	0.0029098885
5167.2749523923	0.0029681954
5169.2037597654	0.0030304133
5171.1325671384	0.0029555899
5173.0613745115	0.0029855804
5174.9901818845	0.0028786873
5176.9189892576	0.0029557724
5178.8477966306	0.0030620347
5180.7766040037	0.0029205056
5182.7054113767	0.0029306654
5184.6342187498	0.0028960805
5186.5630261228	0.0028994873
5188.4918334959	0.0028971042
5190.4206408689	0.0029042647
5192.3494482420	0.0029652528
5194.2782556150	0.0028957266
5196.2070629880	0.0028714682
5198.1358703611	0.0028850655
5200.0646777341	0.0028930905
5201.9934851072	0.0028638276
5203.9222924802	0.0028339918
5205.8510998533	0.0027777655
5207.7799072263	0.0027130533
5209.7087145994	0.0027318622
5211.6375219724	0.0027922536
5213.5663293455	0.0028271908
5215.4951367185	0.0027688104
5217.4239440916	0.0027160691
5219.3527514646	0.0027232133
5221.2815588377	0.0027898578
5223.2103662107	0.0027779101
5225.1391735837	0.0027532731
5227.0679809568	0.0027214210
5228.9967883298	0.0027255942
5230.9255957029	0.0028214324
5232.8544030759	0.0027108700
5234.7832104490	0.0027030527
5236.7120178220	0.0027202237
5238.6408251951	0.0026788835
5240.5696325681	0.0027235087
5242.4984399412	0.0026465910
5244.4272473142	0.0026877946
5246.3560546873	0.0027165185
5248.2848620603	0.0025952668
5250.2136694334	0.0025769260
5252.1424768064	0.0026721726
5254.0712841795	0.0025813901
5256.0000915525	0.0025548958
5257.9288989255	0.0026770378
5259.8577062986	0.0026188930
5261.7865136716	0.0026740311
5263.7153210447	0.0025564334
5265.6441284177	0.0024628495
5267.5729357908	0.0025866465
5269.5017431638	0.0025682952
5271.4305505369	0.0025737793
5273.3593579099	0.0025110450
5275.2881652830	0.0025103865
5277.2169726560	0.0025170285
5279.1457800291	0.0025879657
5281.0745874021	0.0026233795
5283.0033947752	0.0024857176
5284.9322021482	0.0024984698
5286.8610095212	0.0024836888
5288.7898168943	0.0025126447
5290.7186242673	0.0024849609
5292.6474316404	0.0024586138
5294.5762390134	0.0025309853
5296.5050463865	0.0024923373
5298.4338537595	0.0024760421
5300.3626611326	0.0024734230
5302.2914685056	0.0025236490
5304.2202758787	0.0024724640
5306.1490832517	0.0024399552
5308.0778906248	0.0024856173
5310.0066979978	0.0024201307
5311.9355053709	0.0024128540
5313.8643127439	0.0024362081
5315.7931201169	0.0024224697
5317.7219274900	0.0023552896
5319.6507348630	0.0023704572
5321.5795422361	0.0023981030
5323.5083496091	0.0023829830
5325.4371569822	0.0024055438
5327.3659643552	0.0023833702
5329.2947717283	0.0023964550
5331.2235791013	0.0023492351
5333.1523864744	0.0023222261
5335.0811938474	0.0024143336
5337.0100012205	0.0023883893
5338.9388085935	0.0022781813
5340.8676159666	0.0022918673
5342.7964233396	0.0023219138
5344.7252307126	0.0023049819
5346.6540380857	0.0022872905
5348.5828454587	0.0022655539
5350.5116528318	0.0022870069
5352.4404602048	0.0022251140
5354.3692675779	0.0022166572
5356.2980749509	0.0022322913
5358.2268823240	0.0023037312
5360.1556896970	0.0023645300
5362.0844970701	0.0022016210
5364.0133044431	0.0022992410
5365.9421118162	0.0022831562
5367.8709191892	0.0021678256
5369.7997265623	0.0022878181
5371.7285339353	0.0022058198
5373.6573413083	0.0022175545
5375.5861486814	0.0021908155
5377.5149560544	0.0021065329
5379.4437634275	0.0022232868
5381.3725708005	0.0021912204
5383.3013781736	0.0021259042
5385.2301855466	0.0021992354
5387.1589929197	0.0022072997
5389.0878002927	0.0021536821
5391.0166076658	0.0021936076
5392.9454150388	0.0021358652
5394.8742224119	0.0020310567
5396.8030297849	0.0020960327
5398.7318371580	0.0021143109
5400.6606445310	0.0020992528
5402.5894519041	0.0021171786
5404.5182592771	0.0020322921
5406.4470666501	0.0020475145
5408.3758740232	0.0021153819
5410.3046813962	0.0020621265
5412.2334887693	0.0020777588
5414.1622961423	0.0019891772
5416.0911035154	0.0019817203
5418.0199108884	0.0020979713
5419.9487182615	0.0020519383
5421.8775256345	0.0021113600
5423.8063330076	0.0020752200
5425.7351403806	0.0019879269
5427.6639477537	0.0019674958
5429.5927551267	0.0018867778
5431.5215624998	0.0019513061
5433.4503698728	0.0020440109
5435.3791772458	0.0020272094
5437.3079846189	0.0019649877
5439.2367919919	0.0019960692
5441.1655993650	0.0019518705
5443.0944067380	0.0019050227
5445.0232141111	0.0019907332
5446.9520214841	0.0019848857
5448.8808288572	0.0019794505
5450.8096362302	0.0019283540
5452.7384436033	0.0019605686
5454.6672509763	0.0019545383
5456.5960583494	0.0019019274
5458.5248657224	0.0020269579
5460.4536730955	0.0019226000
5462.3824804685	0.0018762505
5464.3112878415	0.0019274686
5466.2400952146	0.0018549669
5468.1689025876	0.0019414779
5470.0977099607	0.0019259461
5472.0265173337	0.0019114714
5473.9553247068	0.0019340501
5475.8841320798	0.0018040427
5477.8129394529	0.0018659293
5479.7417468259	0.0019171882
5481.6705541990	0.0018712441
5483.5993615720	0.0018944627
5485.5281689451	0.0018154343
5487.4569763181	0.0018178173
5489.3857836912	0.0018514167
5491.3145910642	0.0018403424
5493.2433984372	0.0018137728
5495.1722058103	0.0017463642
5497.1010131833	0.0018386873
5499.0298205564	0.0018776779
5500.9586279294	0.0018282167
5502.8874353025	0.0017932456
5504.8162426755	0.0017677725
5506.7450500486	0.0017889894
5508.6738574216	0.0017468288
5510.6026647947	0.0017864731
5512.5314721677	0.0018137252
5514.4602795408	0.0017407556
5516.3890869138	0.0017447926
5518.3178942869	0.0017580808
5520.2467016599	0.0017318267
5522.1755090330	0.0017232161
5524.1043164060	0.0016894268
5526.0331237790	0.0017265382
5527.9619311521	0.0018070152
5529.8907385251	0.0017245424
5531.8195458982	0.0017657029
5533.7483532712	0.0017729187
5535.6771606443	0.0016673685
5537.6059680173	0.0017151062
5539.5347753904	0.0016807183
5541.4635827634	0.0016671931
5543.3923901365	0.0016163324
5545.3211975095	0.0016215057
5547.2500048826	0.0016957476
5549.1788122556	0.0016302450
5551.1076196287	0.0016772258
5553.0364270017	0.0017325676
5554.9652343747	0.0017421586
5556.8940417478	0.0016601906
5558.8228491208	0.0016258358
5560.7516564939	0.0016489411
5562.6804638669	0.0016143855
5564.6092712400	0.0016861414
5566.5380786130	0.0016530082
5568.4668859861	0.0016658676
5570.3956933591	0.0016346532
5572.3245007322	0.0015664367
5574.2533081052	0.0016091609
5576.1821154783	0.0015525625
5578.1109228513	0.0016583089
5580.0397302244	0.0016841242
5581.9685375974	0.0015637043
5583.8973449704	0.0015545714
5585.8261523435	0.0015763820
5587.7549597165	0.0015927588
5589.6837670896	0.0015640275
5591.6125744626	0.0015926462
5593.5413818357	0.0015608805
5595.4701892087	0.0015316722
5597.3989965818	0.0015681568
5599.3278039548	0.0015467758
5601.2566113279	0.0015395102
5603.1854187009	0.0015698744
5605.1142260740	0.0015763000
5607.0430334470	0.0015280489
5608.9718408201	0.0015767021
5610.9006481931	0.0015378075
5612.8294555661	0.0014519740
5614.7582629392	0.0015085289
5616.6870703122	0.0014508581
5618.6158776853	0.0014334922
5620.5446850583	0.0015061270
5622.4734924314	0.0014645795
5624.4022998044	0.0014364901
5626.3311071775	0.0015095379
5628.2599145505	0.0015040468
5630.1887219236	0.0014393039
5632.1175292966	0.0014582133
5634.0463366697	0.0014775081
5635.9751440427	0.0014801961
5637.9039514158	0.0014856898
5639.8327587888	0.0014876098
5641.7615661619	0.0014179561
5643.6903735349	0.0014043708
5645.6191809079	0.0014381919
5647.5479882810	0.0014421486
5649.4767956540	0.0014996656
5651.4056030271	0.0013915788
5653.3344104001	0.0013893780
5655.2632177732	0.0014609480
5657.1920251462	0.0013573113
5659.1208325193	0.0013892725
5661.0496398923	0.0014282437
5662.9784472654	0.0014268521
5664.9072546384	0.0013991650
5666.8360620115	0.0014149889
5668.7648693845	0.0014606486
5670.6936767576	0.0013797148
5672.6224841306	0.0013993060
5674.5512915036	0.0014183382
5676.4800988767	0.0013754432
5678.4089062497	0.0013329627
5680.3377136228	0.0012697900
5682.2665209958	0.0013118224
5684.1953283689	0.0013936715
5686.1241357419	0.0014167936
5688.0529431150	0.0013683448
5689.9817504880	0.0012918587
5691.9105578611	0.0013176664
5693.8393652341	0.0013639898
5695.7681726072	0.0012921137
5697.6969799802	0.0013206704
5699.6257873533	0.0013505244
5701.5545947263	0.0013032369
5703.4834020993	0.0013281498
5705.4122094724	0.0012980590
5707.3410168454	0.0013303780
5709.2698242185	0.0013173958
5711.1986315915	0.0012797667
5713.1274389646	0.0012956293
5715.0562463376	0.0012314150
5716.9850537107	0.0012657158
5718.9138610837	0.0012454046
5720.8426684568	0.0012198817
5722.7714758298	0.0012820743
5724.7002832029	0.0012785792
5726.6290905759	0.0012620229
5728.5578979490	0.0012340477
5730.4867053220	0.0012452824
5732.4155126950	0.0012942478
5734.3443200681	0.0012679789
5736.2731274411	0.0011779461
5738.2019348142	0.0012103627
5740.1307421872	0.0012341033
5742.0595495603	0.0012087795
5743.9883569333	0.0011984494
5745.9171643064	0.0011751021
5747.8459716794	0.0012606521
5749.7747790525	0.0012225551
5751.7035864255	0.0011470786
5753.6323937986	0.0011302994
5755.5612011716	0.0011611573
5757.4900085447	0.0012475443
5759.4188159177	0.0012198131
5761.3476232907	0.0012136714
5763.2764306638	0.0011694815
5765.2052380368	0.0011918372
5767.1340454099	0.0011821742
5769.0628527829	0.0011365110
5770.9916601560	0.0011570528
5772.9204675290	0.0010993490
5774.8492749021	0.0011871315
5776.7780822751	0.0011685044
5778.7068896482	0.0011586864
5780.6356970212	0.0011954876
5782.5645043943	0.0011745672
5784.4933117673	0.0012590778
5786.4221191404	0.0011474519
5788.3509265134	0.0010834943
5790.2797338865	0.0010923282
5792.2085412595	0.0011090904
5794.1373486325	0.0011523067
5796.0661560056	0.0011378191
5797.9949633786	0.0011180427
5799.9237707517	0.0010645019
5801.8525781247	0.0011145601
5803.7813854978	0.0010523398
5805.7101928708	0.0010814434
5807.6390002439	0.0011240974
5809.5678076169	0.0010614271
5811.4966149900	0.0011969642
5813.4254223630	0.0011319134
5815.3542297361	0.0010442062
5817.2830371091	0.0010770916
5819.2118444822	0.0010714806
5821.1406518552	0.0010946232
5823.0694592282	0.0011196501
5824.9982666013	0.0010856541
5826.9270739743	0.0010344094
5828.8558813474	0.0010925130
5830.7846887204	0.0010688314
5832.7134960935	0.0011062298
5834.6423034665	0.0010917576
5836.5711108396	0.0010413707
5838.4999182126	0.0010983713
5840.4287255857	0.0010157200
5842.3575329587	0.0010409134
5844.2863403318	0.0010299928
5846.2151477048	0.0010137585
5848.1439550779	0.0010201824
5850.0727624509	0.0010086349
5852.0015698239	0.0010803181
5853.9303771970	0.0009417265
5855.8591845700	0.0009756897
5857.7879919431	0.0010875653
5859.7167993161	0.0010437646
5861.6456066892	0.0010281643
5863.5744140622	0.0009221769
5865.5032214353	0.0009024298
5867.4320288083	0.0009406530
5869.3608361814	0.0009797391
5871.2896435544	0.0010043853
5873.2184509275	0.0009747623
5875.1472583005	0.0009550163
5877.0760656736	0.0009522674
5879.0048730466	0.0009525957
5880.9336804196	0.0009057547
5882.8624877927	0.0009554201
5884.7912951657	0.0009909368
5886.7201025388	0.0009801394
5888.6489099118	0.0010315112
5890.5777172849	0.0009556648
5892.5065246579	0.0009189022
5894.4353320310	0.0009859826
5896.3641394040	0.0009059923
5898.2929467771	0.0008628025
5900.2217541501	0.0009430217
5902.1505615232	0.0009255602
5904.0793688962	0.0008992899
5906.0081762693	0.0009279380
5907.9369836423	0.0009606447
5909.8657910154	0.0009533335
5911.7945983884	0.0009100224
5913.7234057614	0.0009319596
5915.6522131345	0.0008935246
5917.5810205075	0.0008460465
5919.5098278806	0.0009017075
5921.4386352536	0.0009495972
5923.3674426267	0.0009315551
5925.2962499997	0.0008953073
5927.2250573728	0.0008975868
5929.1538647458	0.0008746859
5931.0826721189	0.0009285408
5933.0114794919	0.0009402279
5934.9402868650	0.0008424527
5936.8690942380	0.0008931402
5938.7979016111	0.0009027153
5940.7267089841	0.0008630491
5942.6555163571	0.0009092565
5944.5843237302	0.0008933389
5946.5131311032	0.0008638526
5948.4419384763	0.0008600041
5950.3707458493	0.0008463864
5952.2995532224	0.0008602749
5954.2283605954	0.0008495140
5956.1571679685	0.0007846280
5958.0859753415	0.0007887753
5960.0147827146	0.0008321945
5961.9435900876	0.0008633683
5963.8723974607	0.0008617794
5965.8012048337	0.0008234779
5967.7300122068	0.0008751425
5969.6588195798	0.0008423055
5971.5876269528	0.0007924306
5973.5164343259	0.0008826870
5975.4452416989	0.0008979092
5977.3740490720	0.0008948713
5979.3028564450	0.0008490167
5981.2316638181	0.0008058496
5983.1604711911	0.0008054579
5985.0892785642	0.0007864468
5987.0180859372	0.0008754615
5988.9468933103	0.0008141417
5990.8757006833	0.0007243141
5992.8045080564	0.0007839407
5994.7333154294	0.0007906761
5996.6621228025	0.0008679559
5998.5909301755	0.0008209663
6000.5197375485	0.0007271509
