399.2631262207	0.0000487115
401.1919335938	0.0011141866
403.1207409668	0.0010178930
405.0495483398	0.0004273707
406.9783557129	0.0006978415
408.9071630859	0.0007743358
410.8359704590	0.0012333920
412.7647778320	0.0008925126
414.6935852051	0.0013719634
416.6223925781	0.0013752514
418.5511999512	0.0007209731
420.4800073242	0.0010917694
422.4088146973	0.0009761115
424.3376220703	0.0008666447
426.2664294434	0.0009117632
428.1952368164	0.0011356167
430.1240441895	0.0008698131
432.0528515625	0.0007696278
433.9816589355	0.0012532095
435.9104663086	0.0008445394
437.8392736816	0.0007426383
439.7680810547	0.0010025264
441.6968884277	0.0009545461
443.6256958008	0.0010114198
445.5545031738	0.0010663178
447.4833105469	0.0010308072
449.4121179199	0.0009023065
451.3409252930	0.0006095247
453.2697326660	0.0006843496
455.1985400391	0.0009884333
457.1273474121	0.0008262602
459.0561547852	0.0009464226
460.9849621582	0.0011136710
462.9137695313	0.0007180840
464.8425769043	0.0003437297
466.7713842773	0.0003934156
468.7001916504	0.0005815233
470.6289990234	0.0006232937
472.5578063965	0.0004581151
474.4866137695	0.0001268513
476.4154211426	0.0001893595
478.3442285156	0.0003640736
480.2730358887	0.0006964570
482.2018432617	0.0007155018
484.1306506348	0.0002146606
486.0594580078	0.0003712738
487.9882653809	0.0004968173
489.9170727539	0.0004367797
491.8458801270	0.0003997287
493.7746875000	0.0004156121
495.7034948730	0.0003211849
497.6323022461	0.0001283595
499.5611096191	0.0003088720
501.4899169922	0.0002416053
503.4187243652	0.0003842891
505.3475317383	0.0002060034
507.2763391113	0.0002223709
509.2051464844	0.0004977471
511.1339538574	-0.0001121850
513.0627612305	-0.0002139579
514.9915686035	-0.0001570316
516.9203759766	0.0004594911
518.8491833496	0.0007734814
520.7779907227	0.0001367500
522.7067980957	0.0002099744
524.6356054688	0.0001168503
526.5644128418	-0.0000653930
528.4932202148	0.0001322489
530.4220275879	0.0000913448
532.3508349609	-0.0000277185
534.2796423340	0.0003318230
536.2084497070	0.0003074970
538.1372570801	0.0000927519
540.0660644531	0.0004283756
541.9948718262	0.0003064273
543.9236791992	0.0003172625
545.8524865723	0.0000360816
547.7812939453	-0.0000106296
549.7101013184	0.0002036406
551.6389086914	-0.0000598739
553.5677160645	0.0003769035
555.4965234375	0.0004578115
557.4253308105	0.0002720554
559.3541381836	0.0001335708
561.2829455566	0.0002847060
563.2117529297	0.0005202137
565.1405603027	-0.0000188691
567.0693676758	-0.0000902631
568.9981750488	0.0000544146
570.9269824219	0.0001834338
572.8557897949	0.0001036047
574.7845971680	0.0001185017
576.7134045410	0.0004178515
578.6422119141	0.0003087996
580.5710192871	0.0002690732
582.4998266602	0.0000483349
584.4286340332	0.0002967309
586.3574414063	0.0004080724
588.2862487793	0.0001654242
590.2150561523	0.0002630873
592.1438635254	0.0001098622
594.0726708984	-0.0000162613
596.0014782715	-0.0001722522
597.9302856445	-0.0000345239
599.8590930176	-0.0001020863
601.7879003906	0.0000080912
603.7167077637	0.0003474464
605.6455151367	-0.0002579165
607.5743225098	-0.0001925640
609.5031298828	0.0002069381
611.4319372559	0.0001188132
613.3607446289	0.0000979143
615.2895520020	0.0002140539
617.2183593750	0.0005567002
619.1471667480	0.0003333817
621.0759741211	0.0000389607
623.0047814941	0.0001002065
624.9335888672	0.0001742090
626.8623962402	0.0001223638
628.7912036133	-0.0001805691
630.7200109863	0.0003513972
632.6488183594	0.0007816533
634.5776257324	0.0004662999
636.5064331055	0.0006950396
638.4352404785	0.0009480536
640.3640478516	0.0009525848
642.2928552246	0.0012230695
644.2216625977	0.0010790146
646.1504699707	0.0012214726
648.0792773438	0.0015509569
650.0080847168	0.0013858844
651.9368920898	0.0017858024
653.8656994629	0.0017674421
655.7945068359	0.0014840307
657.7233142090	0.0015791156
659.6521215820	0.0014574371
661.5809289551	0.0017148140
663.5097363281	0.0021264721
665.4385437012	0.0020374786
667.3673510742	0.0016621408
669.2961584473	0.0021630574
671.2249658203	0.0023248843
673.1537731934	0.0021087306
675.0825805664	0.0026166602
677.0113879395	0.0025190180
678.9401953125	0.0027917325
680.8690026855	0.0025267024
682.7978100586	0.0022578437
684.7266174316	0.0028705313
686.6554248047	0.0022978424
688.5842321777	0.0023647784
690.5130395508	0.0025611385
692.4418469238	0.0025019923
694.3706542969	0.0030056434
696.2994616699	0.0030804910
698.2282690430	0.0034576505
700.1570764160	0.0037431715
702.0858837891	0.0038070974
704.0146911621	0.0034740409
705.9434985352	0.0029133575
707.8723059082	0.0025937348
709.8011132813	0.0020736298
711.7299206543	0.0015923684
713.6587280273	0.0008249936
715.5875354004	0.0005544860
717.5163427734	0.0006094922
719.4451501465	0.0002796331
721.3739575195	0.0003941105
723.3027648926	0.0004154525
725.2315722656	0.0001036943
727.1603796387	-0.0000452377
729.0891870117	-0.0001021271
731.0179943848	0.0001072442
732.9468017578	0.0002816052
734.8756091309	-0.0001006269
736.8044165039	-0.0000635561
738.7332238770	0.0002151753
740.6620312500	0.0000734392
742.5908386230	0.0001242158
744.5196459961	-0.0000447843
746.4484533691	0.0001036163
748.3772607422	0.0003877094
750.3060681152	0.0001297919
752.2348754883	0.0004004309
754.1636828613	0.0003953624
756.0924902344	0.0001355800
758.0212976074	0.0002494604
759.9501049805	0.0000408317
761.8789123535	0.0000422278
763.8077197266	0.0001456070
765.7365270996	0.0002118184
767.6653344727	0.0003213355
769.5941418457	0.0001184426
771.5229492188	0.0000484726
773.4517565918	0.0000730704
775.3805639648	0.0001774753
777.3093713379	0.0002876009
779.2381787109	0.0003882118
781.1669860840	0.0003671681
783.0957934570	0.0001553069
785.0246008301	0.0005448820
786.9534082031	0.0005981453
788.8822155762	0.0000152709
790.8110229492	-0.0000035429
792.7398303223	0.0004351859
794.6686376953	0.0006113327
796.5974450684	0.0003683120
798.5262524414	0.0005008730
800.4550598145	0.0003778480
802.3838671875	0.0003515163
804.3126745605	0.0006203259
806.2414819336	0.0003251976
808.1702893066	0.0004422654
810.0990966797	0.0001503229
812.0279040527	0.0001113999
813.9567114258	0.0006169951
815.8855187988	0.0003197448
817.8143261719	0.0003055033
819.7431335449	0.0003619831
821.6719409180	0.0005287251
823.6007482910	0.0005291624
825.5295556641	0.0003532411
827.4583630371	0.0006337416
829.3871704102	0.0006316645
831.3159777832	0.0006229000
833.2447851563	0.0006708014
835.1735925293	0.0010416284
837.1023999023	0.0010992419
839.0312072754	0.0006956281
840.9600146484	0.0007680913
842.8888220215	0.0007064156
844.8176293945	0.0007709390
846.7464367676	0.0009385476
848.6752441406	0.0008588509
850.6040515137	0.0005577364
852.5328588867	0.0005098134
854.4616662598	0.0007363031
856.3904736328	0.0004908911
858.3192810059	0.0003799390
860.2480883789	0.0003566482
862.1768957520	0.0004244429
864.1057031250	0.0004098048
866.0345104980	0.0001986810
867.9633178711	0.0003255311
869.8921252441	0.0002384517
871.8209326172	0.0002815459
873.7497399902	0.0003766185
875.6785473633	0.0002498887
877.6073547363	0.0005669701
879.5361621094	0.0006047123
881.4649694824	0.0001116579
883.3937768555	0.0003296849
885.3225842285	0.0007000784
887.2513916016	0.0005471921
889.1801989746	0.0004443043
891.1090063477	0.0003859780
893.0378137207	0.0005462546
894.9666210938	0.0004337050
896.8954284668	0.0002015886
898.8242358398	0.0004844239
900.7530432129	0.0004071626
902.6818505859	0.0004122711
904.6106579590	0.0006632531
906.5394653320	0.0004309703
908.4682727051	0.0003312043
910.3970800781	0.0004782482
912.3258874512	0.0005487087
914.2546948242	0.0004018309
916.1835021973	0.0005005950
918.1123095703	0.0009351438
920.0411169434	0.0009587075
921.9699243164	0.0008738914
923.8987316895	0.0007614108
925.8275390625	0.0007318545
927.7563464355	0.0009902099
929.6851538086	0.0011762346
931.6139611816	0.0013140180
933.5427685547	0.0012607011
935.4715759277	0.0012945066
937.4003833008	0.0014466729
939.3291906738	0.0012424530
941.2579980469	0.0011513387
943.1868054199	0.0013544624
945.1156127930	0.0013670290
947.0444201660	0.0013842554
948.9732275391	0.0014618447
950.9020349121	0.0013191378
952.8308422852	0.0013226256
954.7596496582	0.0013154302
956.6884570313	0.0013176857
958.6172644043	0.0015120608
960.5460717773	0.0013064481
962.4748791504	0.0011762960
964.4036865234	0.0013421044
966.3324938965	0.0012109994
968.2613012695	0.0012533788
970.1901086426	0.0016861039
972.1189160156	0.0017085335
974.0477233887	0.0015345846
975.9765307617	0.0017805181
977.9053381348	0.0019701160
979.8341455078	0.0021792985
981.7629528809	0.0023383149
983.6917602539	0.0023742840
985.6205676270	0.0028101625
987.5493750000	0.0030929688
989.4781823730	0.0032960603
991.4069897461	0.0038762225
993.3357971191	0.0041622957
995.2646044922	0.0041942890
997.1934118652	0.0045077396
999.1222192383	0.0049548298
1001.0510266113	0.0054170401
1002.9798339844	0.0057273088
1004.9086413574	0.0059865182
1006.8374487305	0.0064400220
1008.7662561035	0.0069030980
1010.6950634766	0.0073284125
1012.6238708496	0.0076151113
1014.5526782227	0.0081765261
1016.4814855957	0.0085688569
1018.4102929688	0.0086295577
1020.3391003418	0.0091813840
1022.2679077148	0.0094854366
1024.1967150879	0.0098713767
1026.1255224609	0.0103379888
1028.0543298340	0.0106516313
1029.9831372070	0.0111848069
1031.9119445801	0.0111268908
1033.8407519531	0.0112617314
1035.7695593262	0.0117150852
1037.6983666992	0.0119013768
1039.6271740723	0.0118436590
1041.5559814453	0.0116463527
1043.4847888184	0.0118600167
1045.4135961914	0.0117350006
1047.3424035645	0.0112401303
1049.2712109375	0.0110464413
1051.2000183105	0.0112093277
1053.1288256836	0.0111260088
1055.0576330566	0.0104860310
1056.9864404297	0.0102225430
1058.9152478027	0.0101701096
1060.8440551758	0.0099236360
1062.7728625488	0.0096992878
1064.7016699219	0.0094886422
1066.6304772949	0.0092282007
1068.5592846680	0.0088571850
1070.4880920410	0.0081681758
1072.4168994141	0.0076332930
1074.3457067871	0.0075349752
1076.2745141602	0.0069822832
1078.2033215332	0.0068219546
1080.1321289062	0.0069396282
1082.0609362793	0.0063461410
1083.9897436523	0.0060900231
1085.9185510254	0.0057557104
1087.8473583984	0.0054200143
1089.7761657715	0.0055075139
1091.7049731445	0.0051186197
1093.6337805176	0.0048384517
1095.5625878906	0.0047608260
1097.4913952637	0.0044841329
1099.4202026367	0.0044689095
1101.3490100098	0.0044212881
1103.2778173828	0.0041318992
1105.2066247559	0.0040384959
1107.1354321289	0.0041884868
1109.0642395019	0.0041057440
1110.9930468750	0.0039066086
1112.9218542480	0.0039354437
1114.8506616211	0.0038799518
1116.7794689941	0.0039921231
1118.7082763672	0.0040259482
1120.6370837402	0.0038565262
1122.5658911133	0.0040203016
1124.4946984863	0.0039818366
1126.4235058594	0.0041095847
1128.3523132324	0.0042385496
1130.2811206055	0.0040190015
1132.2099279785	0.0042060055
1134.1387353516	0.0043557789
1136.0675427246	0.0045598368
1137.9963500977	0.0048404825
1139.9251574707	0.0050768163
1141.8539648437	0.0054113101
1143.7827722168	0.0057160780
1145.7115795898	0.0061708437
1147.6403869629	0.0063919304
1149.5691943359	0.0067712162
1151.4980017090	0.0071563711
1153.4268090820	0.0073406650
1155.3556164551	0.0078679156
1157.2844238281	0.0081785545
1159.2132312012	0.0084061362
1161.1420385742	0.0086269146
1163.0708459473	0.0088323057
1164.9996533203	0.0092362687
1166.9284606934	0.0097258352
1168.8572680664	0.0101794545
1170.7860754394	0.0103175854
1172.7148828125	0.0106552411
1174.6436901855	0.0111061614
1176.5724975586	0.0114851398
1178.5013049316	0.0118702734
1180.4301123047	0.0122751994
1182.3589196777	0.0129831741
1184.2877270508	0.0134578440
1186.2165344238	0.0141392369
1188.1453417969	0.0147984410
1190.0741491699	0.0152198272
1192.0029565430	0.0161884986
1193.9317639160	0.0167324506
1195.8605712891	0.0173587631
1197.7893786621	0.0183328930
1199.7181860351	0.0189960934
1201.6469934082	0.0200428460
1203.5758007812	0.0209192559
1205.5046081543	0.0213957038
1207.4334155273	0.0221543983
1209.3622229004	0.0230826139
1211.2910302734	0.0236628577
1213.2198376465	0.0242373422
1215.1486450195	0.0248722639
1217.0774523926	0.0252407938
1219.0062597656	0.0258502029
1220.9350671387	0.0262946654
1222.8638745117	0.0265484005
1224.7926818848	0.0267482586
1226.7214892578	0.0268793814
1228.6502966308	0.0270289518
1230.5791040039	0.0270083733
1232.5079113769	0.0272869300
1234.4367187500	0.0273829065
1236.3655261230	0.0274434127
1238.2943334961	0.0273277611
1240.2231408691	0.0269949734
1242.1519482422	0.0272822287
1244.0807556152	0.0270604603
1246.0095629883	0.0267856903
1247.9383703613	0.0267810784
1249.8671777344	0.0264018402
1251.7959851074	0.0263309181
1253.7247924805	0.0261108391
1255.6535998535	0.0257669147
1257.5824072266	0.0255080536
1259.5112145996	0.0249267183
1261.4400219726	0.0245985314
1263.3688293457	0.0243906379
1265.2976367187	0.0239291135
1267.2264440918	0.0236526243
1269.1552514648	0.0234126039
1271.0840588379	0.0232360214
1273.0128662109	0.0228158552
1274.9416735840	0.0221692137
1276.8704809570	0.0219140239
1278.7992883301	0.0213818848
1280.7280957031	0.0208825152
1282.6569030762	0.0206563696
1284.5857104492	0.0202726796
1286.5145178223	0.0198467784
1288.4433251953	0.0194651447
1290.3721325683	0.0193578023
1292.3009399414	0.0193453990
1294.2297473144	0.0192745775
1296.1585546875	0.0188489147
1298.0873620605	0.0187083595
1300.0161694336	0.0188604705
1301.9449768066	0.0189149603
1303.8737841797	0.0193529874
1305.8025915527	0.0194909256
1307.7313989258	0.0195494555
1309.6602062988	0.0197993629
1311.5890136719	0.0202898383
1313.5178210449	0.0207068734
1315.4466284180	0.0210990496
1317.3754357910	0.0217875019
1319.3042431640	0.0220012013
1321.2330505371	0.0228514709
1323.1618579101	0.0237221960
1325.0906652832	0.0240720473
1327.0194726562	0.0248184465
1328.9482800293	0.0252976418
1330.8770874023	0.0259366259
1332.8058947754	0.0267779604
1334.7347021484	0.0273043253
1336.6635095215	0.0274823345
1338.5923168945	0.0276675113
1340.5211242676	0.0279683806
1342.4499316406	0.0284378212
1344.3787390137	0.0288011339
1346.3075463867	0.0287730396
1348.2363537597	0.0288903378
1350.1651611328	0.0287226904
1352.0939685058	0.0284858868
1354.0227758789	0.0282883570
1355.9515832519	0.0280197915
1357.8803906250	0.0277818702
1359.8091979980	0.0274454989
1361.7380053711	0.0265514851
1363.6668127441	0.0261470936
1365.5956201172	0.0270138755
1367.5244274902	0.0263787266
1369.4532348633	0.0264391452
1371.3820422363	0.0268263910
1373.3108496094	0.0254388489
1375.2396569824	0.0257016681
1377.1684643555	0.0260397233
1379.0972717285	0.0260342788
1381.0260791015	0.0260724016
1382.9548864746	0.0260353200
1384.8836938476	0.0260914937
1386.8125012207	0.0250935517
1388.7413085937	0.0255287327
1390.6701159668	0.0270141326
1392.5989233398	0.0266081989
1394.5277307129	0.0254162773
1396.4565380859	0.0263626352
1398.3853454590	0.0262615196
1400.3141528320	0.0261582322
1402.2429602051	0.0278869383
1404.1717675781	0.0264635757
1406.1005749512	0.0265557859
1408.0293823242	0.0273891203
1409.9581896972	0.0269009527
1411.8869970703	0.0271182209
1413.8158044433	0.0260800403
1415.7446118164	0.0265241303
1417.6734191894	0.0243450738
1419.6022265625	0.0225878097
1421.5310339355	0.0248245671
1423.4598413086	0.0241641030
1425.3886486816	0.0236242041
1427.3174560547	0.0234979391
1429.2462634277	0.0220587999
1431.1750708008	0.0215310398
1433.1038781738	0.0218091607
1435.0326855469	0.0200680997
1436.9614929199	0.0177349243
1438.8903002929	0.0191326067
1440.8191076660	0.0191240609
1442.7479150390	0.0181882586
1444.6767224121	0.0186435599
1446.6055297851	0.0176463351
1448.5343371582	0.0180447027
1450.4631445312	0.0184520055
1452.3919519043	0.0186153352
1454.3207592773	0.0192260668
1456.2495666504	0.0170720089
1458.1783740234	0.0179223120
1460.1071813965	0.0223218072
1462.0359887695	0.0234415978
1463.9647961426	0.0235853344
1465.8936035156	0.0247015879
1467.8224108886	0.0275738910
1469.7512182617	0.0292678475
1471.6800256347	0.0272316933
1473.6088330078	0.0288894027
1475.5376403808	0.0320707858
1477.4664477539	0.0342414975
1479.3952551269	0.0371564105
1481.3240625000	0.0379397497
1483.2528698730	0.0398574136
1485.1816772461	0.0412542298
1487.1104846191	0.0412015840
1489.0392919922	0.0413309708
1490.9680993652	0.0420390107
1492.8969067383	0.0468279533
1494.8257141113	0.0461309664
1496.7545214843	0.0432874747
1498.6833288574	0.0476254225
1500.6121362304	0.0487569459
1502.5409436035	0.0514608473
1504.4697509765	0.0493475422
1506.3985583496	0.0395475626
1508.3273657226	0.0459289923
1510.2561730957	0.0515673980
1512.1849804687	0.0505008548
1514.1137878418	0.0536129102
1516.0425952148	0.0498258770
1517.9714025879	0.0514939688
1519.9002099609	0.0496417247
1521.8290173340	0.0451889522
1523.7578247070	0.0523295328
1525.6866320801	0.0516352169
1527.6154394531	0.0517297350
1529.5442468261	0.0552996919
1531.4730541992	0.0538007766
1533.4018615722	0.0507103130
1535.3306689453	0.0527049452
1537.2594763183	0.0548013598
1539.1882836914	0.0431322269
1541.1170910644	0.0449701995
1543.0458984375	0.0510742366
1544.9747058105	0.0497289896
1546.9035131836	0.0561155006
1548.8323205566	0.0532384291
1550.7611279297	0.0546146557
1552.6899353027	0.0541658364
1554.6187426758	0.0506951734
1556.5475500488	0.0533935949
1558.4763574218	0.0415631980
1560.4051647949	0.0439488515
1562.3339721679	0.0566677786
1564.2627795410	0.0542817228
1566.1915869140	0.0554763973
1568.1203942871	0.0548150130
1570.0492016601	0.0502323955
1571.9780090332	0.0558164120
1573.9068164062	0.0559246093
1575.8356237793	0.0473210998
1577.7644311523	0.0518656075
1579.6932385254	0.0563378409
1581.6220458984	0.0545659214
1583.5508532715	0.0560240597
1585.4796606445	0.0550658181
1587.4084680175	0.0553807765
1589.3372753906	0.0551162809
1591.2660827636	0.0548604876
1593.1948901367	0.0551753640
1595.1236975097	0.0547429025
1597.0525048828	0.0550840721
1598.9813122558	0.0548040792
1600.9101196289	0.0551376790
1602.8389270019	0.0544860289
1604.7677343750	0.0551165044
1606.6965417480	0.0543530136
1608.6253491211	0.0543559417
1610.5541564941	0.0542742759
1612.4829638672	0.0545545220
1614.4117712402	0.0550886914
1616.3405786132	0.0473563969
1618.2693859863	0.0506147705
1620.1981933593	0.0562938005
1622.1270007324	0.0513844155
1624.0558081054	0.0519647747
1625.9846154785	0.0535156876
1627.9134228515	0.0534214824
1629.8422302246	0.0531313010
1631.7710375976	0.0558197908
1633.6998449707	0.0524374768
1635.6286523437	0.0457568206
1637.5574597168	0.0513417162
1639.4862670898	0.0546017662
1641.4150744629	0.0536982454
1643.3438818359	0.0547704622
1645.2726892090	0.0505841374
1647.2014965820	0.0465603806
1649.1303039550	0.0545344651
1651.0591113281	0.0515493378
1652.9879187011	0.0377714708
1654.9167260742	0.0475078858
1656.8455334472	0.0557016209
1658.7743408203	0.0537605882
1660.7031481933	0.0551894158
1662.6319555664	0.0514243692
1664.5607629394	0.0535614863
1666.4895703125	0.0561926290
1668.4183776855	0.0509541556
1670.3471850586	0.0501280501
1672.2759924316	0.0548739657
1674.2047998047	0.0515553504
1676.1336071777	0.0501221940
1678.0624145507	0.0556003526
1679.9912219238	0.0538615473
1681.9200292968	0.0534688011
1683.8488366699	0.0457134284
1685.7776440429	0.0457574464
1687.7064514160	0.0576127768
1689.6352587890	0.0516205430
1691.5640661621	0.0558651686
1693.4928735351	0.0559879951
1695.4216809082	0.0444777980
1697.3504882812	0.0520990975
1699.2792956543	0.0472737998
1701.2081030273	0.0442903414
1703.1369104004	0.0550485030
1705.0657177734	0.0514219105
1706.9945251464	0.0519855171
1708.9233325195	0.0550284982
1710.8521398925	0.0533067584
1712.7809472656	0.0541430414
1714.7097546386	0.0511001088
1716.6385620117	0.0470214412
1718.5673693847	0.0466599464
1720.4961767578	0.0528749302
1722.4249841308	0.0539414771
1724.3537915039	0.0512329340
1726.2825988769	0.0543345474
1728.2114062500	0.0509706549
1730.1402136230	0.0515844598
1732.0690209961	0.0499959812
1733.9978283691	0.0412898771
1735.9266357421	0.0484486260
1737.8554431152	0.0519016981
1739.7842504882	0.0478859544
1741.7130578613	0.0509674586
1743.6418652343	0.0514606051
1745.5706726074	0.0514934324
1747.4994799804	0.0520836376
1749.4282873535	0.0506022274
1751.3570947265	0.0488022119
1753.2859020996	0.0527070910
1755.2147094726	0.0545191169
1757.1435168457	0.0510177985
1759.0723242187	0.0546646863
1761.0011315918	0.0520623624
1762.9299389648	0.0509044975
1764.8587463379	0.0561650731
1766.7875537109	0.0518285707
1768.7163610839	0.0523701459
1770.6451684570	0.0520798787
1772.5739758300	0.0481825583
1774.5027832031	0.0523137525
1776.4315905761	0.0542495400
1778.3603979492	0.0536365658
1780.2892053222	0.0532694831
1782.2180126953	0.0534670688
1784.1468200683	0.0534922779
1786.0756274414	0.0527599081
1788.0044348144	0.0545888543
1789.9332421875	0.0535763428
1791.8620495605	0.0499316975
1793.7908569336	0.0513727702
1795.7196643066	0.0541375838
1797.6484716796	0.0536057577
1799.5772790527	0.0528920963
1801.5060864257	0.0523484387
1803.4348937988	0.0535195097
1805.3637011718	0.0543432459
1807.2925085449	0.0537978560
1809.2213159179	0.0538802892
1811.1501232910	0.0529467538
1813.0789306640	0.0540583581
1815.0077380371	0.0542205833
1816.9365454101	0.0538346022
1818.8653527832	0.0540139899
1820.7941601562	0.0538901091
1822.7229675293	0.0543574840
1824.6517749023	0.0517423674
1826.5805822753	0.0532951765
1828.5093896484	0.0531716645
1830.4381970214	0.0509486571
1832.3670043945	0.0540521666
1834.2958117675	0.0535806194
1836.2246191406	0.0537958145
1838.1534265136	0.0534765758
1840.0822338867	0.0536678806
1842.0110412597	0.0536799580
1843.9398486328	0.0494069643
1845.8686560058	0.0517913662
1847.7974633789	0.0535021946
1849.7262707519	0.0527083129
1851.6550781250	0.0538102351
1853.5838854980	0.0530711561
1855.5126928710	0.0533569306
1857.4415002441	0.0529501513
1859.3703076171	0.0528248996
1861.2991149902	0.0530113801
1863.2279223632	0.0526274033
1865.1567297363	0.0530358627
1867.0855371093	0.0516889244
1869.0143444824	0.0502461493
1870.9431518554	0.0516590513
1872.8719592285	0.0527968556
1874.8007666015	0.0520262681
1876.7295739746	0.0522978827
1878.6583813476	0.0521977320
1880.5871887207	0.0519948006
1882.5159960937	0.0521120504
1884.4448034667	0.0515668467
1886.3736108398	0.0521519780
1888.3024182128	0.0511832722
1890.2312255859	0.0505702272
1892.1600329589	0.0517587289
1894.0888403320	0.0511991903
1896.0176477050	0.0510734841
1897.9464550781	0.0513652936
1899.8752624511	0.0512059033
1901.8040698242	0.0513112098
1903.7328771972	0.0510734431
1905.6616845703	0.0512456298
1907.5904919433	0.0508957207
1909.5192993164	0.0505240001
1911.4481066894	0.0507140569
1913.3769140625	0.0508389920
1915.3057214355	0.0509965196
1917.2345288085	0.0494370386
1919.1633361816	0.0494901314
1921.0921435546	0.0506701954
1923.0209509277	0.0497066975
1924.9497583007	0.0502143167
1926.8785656738	0.0504653901
1928.8073730468	0.0502071828
1930.7361804199	0.0504004657
1932.6649877929	0.0500909239
1934.5937951660	0.0504330061
1936.5226025390	0.0499910973
1938.4514099121	0.0502164774
1940.3802172851	0.0500303507
1942.3090246582	0.0489567146
1944.2378320312	0.0496404991
1946.1666394042	0.0498882085
1948.0954467773	0.0497803912
1950.0242541503	0.0499624535
1951.9530615234	0.0498202071
1953.8818688964	0.0496882200
1955.8106762695	0.0496165529
1957.7394836425	0.0496125668
1959.6682910156	0.0495233871
1961.5970983886	0.0495595075
1963.5259057617	0.0495821983
1965.4547131347	0.0493143834
1967.3835205078	0.0490107909
1969.3123278808	0.0493644923
1971.2411352539	0.0494093075
1973.1699426269	0.0491183475
1975.0987499999	0.0493391976
1977.0275573730	0.0491756611
1978.9563647460	0.0490831733
1980.8851721191	0.0489880070
1982.8139794921	0.0489904583
1984.7427868652	0.0490986072
1986.6715942382	0.0486558452
1988.6004016113	0.0486961380
1990.5292089843	0.0484947786
1992.4580163574	0.0480855107
1994.3868237304	0.0484624468
1996.3156311035	0.0484882295
1998.2444384765	0.0483385921
2000.1732458496	0.0482711047
2002.1020532226	0.0480732918
2004.0308605956	0.0480347723
2005.9596679687	0.0478861779
2007.8884753417	0.0479552522
2009.8172827148	0.0478374436
2011.7460900878	0.0475277007
2013.6748974609	0.0475734100
2015.6037048339	0.0472486354
2017.5325122070	0.0470294915
2019.4613195800	0.0469980240
2021.3901269531	0.0468053780
2023.3189343261	0.0468934327
2025.2477416992	0.0469046235
2027.1765490722	0.0467518754
2029.1053564453	0.0466085151
2031.0341638183	0.0463970900
2032.9629711914	0.0463497490
2034.8917785644	0.0463868231
2036.8205859374	0.0461530946
2038.7493933105	0.0460055396
2040.6782006835	0.0457978472
2042.6070080566	0.0457247794
2044.5358154296	0.0459228940
2046.4646228027	0.0457219072
2048.3934301757	0.0456238315
2050.3222375488	0.0454967991
2052.2510449218	0.0454015881
2054.1798522949	0.0452327989
2056.1086596679	0.0450481363
2058.0374670410	0.0451595187
2059.9662744140	0.0448432378
2061.8950817871	0.0449528620
2063.8238891601	0.0447765216
2065.7526965331	0.0443351232
2067.6815039062	0.0446204990
2069.6103112792	0.0445522629
2071.5391186523	0.0444037318
2073.4679260253	0.0443236679
2075.3967333984	0.0443814211
2077.3255407714	0.0442011021
2079.2543481445	0.0439424366
2081.1831555175	0.0440671854
2083.1119628906	0.0438990369
2085.0407702636	0.0438395813
2086.9695776367	0.0437154546
2088.8983850097	0.0436544158
2090.8271923828	0.0436365232
2092.7559997558	0.0434238575
2094.6848071288	0.0434121788
2096.6136145019	0.0432948694
2098.5424218749	0.0432287157
2100.4712292480	0.0431866050
2102.4000366210	0.0431056097
2104.3288439941	0.0430545583
2106.2576513671	0.0430037379
2108.1864587402	0.0428599641
2110.1152661132	0.0427155197
2112.0440734863	0.0427378789
2113.9728808593	0.0425571054
2115.9016882324	0.0424533859
2117.8304956054	0.0424174517
2119.7593029785	0.0423583016
2121.6881103515	0.0423382744
2123.6169177245	0.0422387645
2125.5457250976	0.0422652289
2127.4745324706	0.0421513543
2129.4033398437	0.0420368835
2131.3321472167	0.0420107096
2133.2609545898	0.0419477299
2135.1897619628	0.0419908762
2137.1185693359	0.0419132486
2139.0473767089	0.0418752581
2140.9761840820	0.0418293476
2142.9049914550	0.0416332148
2144.8337988281	0.0415913090
2146.7626062011	0.0415053070
2148.6914135742	0.0414305851
2150.6202209472	0.0414240770
2152.5490283203	0.0413409583
2154.4778356933	0.0413250476
2156.4066430663	0.0412685610
2158.3354504394	0.0413123816
2160.2642578124	0.0412274450
2162.1930651855	0.0410599932
2164.1218725585	0.0410821997
2166.0506799316	0.0409736373
2167.9794873046	0.0409308374
2169.9082946777	0.0408458486
2171.8371020507	0.0407867059
2173.7659094238	0.0407680869
2175.6947167968	0.0407622829
2177.6235241699	0.0407663956
2179.5523315429	0.0405176356
2181.4811389160	0.0406364650
2183.4099462890	0.0406715199
2185.3387536620	0.0404543877
2187.2675610351	0.0405036062
2189.1963684081	0.0404212847
2191.1251757812	0.0402755216
2193.0539831542	0.0401798561
2194.9827905273	0.0401900709
2196.9115979003	0.0401580632
2198.8404052734	0.0400840789
2200.7692126464	0.0400343314
2202.6980200195	0.0399501175
2204.6268273925	0.0399475880
2206.5556347656	0.0399084352
2208.4844421386	0.0398970693
2210.4132495117	0.0397980548
2212.3420568847	0.0396271795
2214.2708642577	0.0395628884
2216.1996716308	0.0396087468
2218.1284790038	0.0395952575
2220.0572863769	0.0394571871
2221.9860937499	0.0394618064
2223.9149011230	0.0394607410
2225.8437084960	0.0394011363
2227.7725158691	0.0393094160
2229.7013232421	0.0391696058
2231.6301306152	0.0392270908
2233.5589379882	0.0392524488
2235.4877453613	0.0390094966
2237.4165527343	0.0389835536
2239.3453601074	0.0389517099
2241.2741674804	0.0387880355
2243.2029748534	0.0388699248
2245.1317822265	0.0386868045
2247.0605895995	0.0385456309
2248.9893969726	0.0384934433
2250.9182043456	0.0383945704
2252.8470117187	0.0384700447
2254.7758190917	0.0383231714
2256.7046264648	0.0382803082
2258.6334338378	0.0382522196
2260.5622412109	0.0382342488
2262.4910485839	0.0381989852
2264.4198559570	0.0380552784
2266.3486633300	0.0380836725
2268.2774707031	0.0380125269
2270.2062780761	0.0379391089
2272.1350854491	0.0378280431
2274.0638928222	0.0378795192
2275.9927001952	0.0378760211
2277.9215075683	0.0377392583
2279.8503149413	0.0377746075
2281.7791223144	0.0375943631
2283.7079296874	0.0375541486
2285.6367370605	0.0375709161
2287.5655444335	0.0374637991
2289.4943518066	0.0373563543
2291.4231591796	0.0372372866
2293.3519665527	0.0372140631
2295.2807739257	0.0370916054
2297.2095812988	0.0369462855
2299.1383886718	0.0368962660
2301.0671960449	0.0367865115
2302.9960034179	0.0365655161
2304.9248107909	0.0365007594
2306.8536181640	0.0362439081
2308.7824255370	0.0358886644
2310.7112329101	0.0356958546
2312.6400402831	0.0354238525
2314.5688476562	0.0352397338
2316.4976550292	0.0348617807
2318.4264624023	0.0345602855
2320.3552697753	0.0341468789
2322.2840771484	0.0336880982
2324.2128845214	0.0335626639
2326.1416918945	0.0331549793
2328.0704992675	0.0327712372
2329.9993066406	0.0324462801
2331.9281140136	0.0323046893
2333.8569213866	0.0322342291
2335.7857287597	0.0321234167
2337.7145361327	0.0322326869
2339.6433435058	0.0320867896
2341.5721508788	0.0321738869
2343.5009582519	0.0325884745
2345.4297656249	0.0330530778
2347.3585729980	0.0340008922
2349.2873803710	0.0347683430
2351.2161877441	0.0339917578
2353.1449951171	0.0325112864
2355.0738024902	0.0315909609
2357.0026098632	0.0308805238
2358.9314172363	0.0304930657
2360.8602246093	0.0301256180
2362.7890319823	0.0299311094
2364.7178393554	0.0301630013
2366.6466467284	0.0304501168
2368.5754541015	0.0309598595
2370.5042614745	0.0314603448
2372.4330688476	0.0320598558
2374.3618762206	0.0326827802
2376.2906835937	0.0333073661
2378.2194909667	0.0339547768
2380.1482983398	0.0344199166
2382.0771057128	0.0347079262
2384.0059130859	0.0346770212
2385.9347204589	0.0347999930
2387.8635278320	0.0348763466
2389.7923352050	0.0347698256
2391.7211425780	0.0348086283
2393.6499499511	0.0347843133
2395.5787573241	0.0347552299
2397.5075646972	0.0346084386
2399.4363720702	0.0345191248
2401.3651794433	0.0345339999
2403.2939868163	0.0344330221
2405.2227941894	0.0344603918
2407.1516015624	0.0343864225
2409.0804089355	0.0342401862
2411.0092163085	0.0343559571
2412.9380236816	0.0343353115
2414.8668310546	0.0342404954
2416.7956384277	0.0342142284
2418.7244458007	0.0340719819
2420.6532531738	0.0340198912
2422.5820605468	0.0339704156
2424.5108679198	0.0338643938
2426.4396752929	0.0338381715
2428.3684826659	0.0339185148
2430.2972900390	0.0338270441
2432.2260974120	0.0337102301
2434.1549047851	0.0338367224
2436.0837121581	0.0337469392
2438.0125195312	0.0336518958
2439.9413269042	0.0336159393
2441.8701342773	0.0334811024
2443.7989416503	0.0334140137
2445.7277490234	0.0334326103
2447.6565563964	0.0334493369
2449.5853637695	0.0332818031
2451.5141711425	0.0331967287
2453.4429785155	0.0331738517
2455.3717858886	0.0331599265
2457.3005932616	0.0331774205
2459.2294006347	0.0331828073
2461.1582080077	0.0330957994
2463.0870153808	0.0329337791
2465.0158227538	0.0329240113
2466.9446301269	0.0328733772
2468.8734374999	0.0329613611
2470.8022448730	0.0329090916
2472.7310522460	0.0327600017
2474.6598596191	0.0327862501
2476.5886669921	0.0326907672
2478.5174743652	0.0326740667
2480.4462817382	0.0325503498
2482.3750891112	0.0325029120
2484.3038964843	0.0324843451
2486.2327038573	0.0324904695
2488.1615112304	0.0325426906
2490.0903186034	0.0323573872
2492.0191259765	0.0323288217
2493.9479333495	0.0322375819
2495.8767407226	0.0321311653
2497.8055480956	0.0320993736
2499.7343554687	0.0321361870
2501.6631628417	0.0320785418
2503.5919702148	0.0319662094
2505.5207775878	0.0320759043
2507.4495849609	0.0319210887
2509.3783923339	0.0319544934
2511.3071997069	0.0319701135
2513.2360070800	0.0318197608
2515.1648144530	0.0318371132
2517.0936218261	0.0317672864
2519.0224291991	0.0318438262
2520.9512365722	0.0316989981
2522.8800439452	0.0315379351
2524.8088513183	0.0316666923
2526.7376586913	0.0316218957
2528.6664660644	0.0313656591
2530.5952734374	0.0314072743
2532.5240808105	0.0315341726
2534.4528881835	0.0313237309
2536.3816955566	0.0313790254
2538.3105029296	0.0313490853
2540.2393103027	0.0311747137
2542.1681176757	0.0311953127
2544.0969250487	0.0310997814
2546.0257324218	0.0309587810
2547.9545397948	0.0309565105
2549.8833471679	0.0310599394
2551.8121545409	0.0309861749
2553.7409619140	0.0309016500
2555.6697692870	0.0308332313
2557.5985766601	0.0308767520
2559.5273840331	0.0308696665
2561.4561914062	0.0307015479
2563.3849987792	0.0307262056
2565.3138061523	0.0307165179
2567.2426135253	0.0307140127
2569.1714208984	0.0305212978
2571.1002282714	0.0304701440
2573.0290356444	0.0304650851
2574.9578430175	0.0302479677
2576.8866503905	0.0304329544
2578.8154577636	0.0304453298
2580.7442651366	0.0303474665
2582.6730725097	0.0302333571
2584.6018798827	0.0300988108
2586.5306872558	0.0301886741
2588.4594946288	0.0301247500
2590.3883020019	0.0300927367
2592.3171093749	0.0299962219
2594.2459167480	0.0298851095
2596.1747241210	0.0298724230
2598.1035314941	0.0298919380
2600.0323388671	0.0298919901
2601.9611462401	0.0298291333
2603.8899536132	0.0297824554
2605.8187609862	0.0295841638
2607.7475683593	0.0295537449
2609.6763757323	0.0296089686
2611.6051831054	0.0295896418
2613.5339904784	0.0295051523
2615.4627978515	0.0294065177
2617.3916052245	0.0295006745
2619.3204125976	0.0294142962
2621.2492199706	0.0294408351
2623.1780273437	0.0294255428
2625.1068347167	0.0291922651
2627.0356420898	0.0292702112
2628.9644494628	0.0292159710
2630.8932568358	0.0291436166
2632.8220642089	0.0291606188
2634.7508715819	0.0290084388
2636.6796789550	0.0290035494
2638.6084863280	0.0289979242
2640.5372937011	0.0289614387
2642.4661010741	0.0289172009
2644.3949084472	0.0288210362
2646.3237158202	0.0288159847
2648.2525231933	0.0287743825
2650.1813305663	0.0287368931
2652.1101379394	0.0286554582
2654.0389453124	0.0285624973
2655.9677526855	0.0285544042
2657.8965600585	0.0284811743
2659.8253674315	0.0284606330
2661.7541748046	0.0284824036
2663.6829821776	0.0284632370
2665.6117895507	0.0283970106
2667.5405969237	0.0282944683
2669.4694042968	0.0283096693
2671.3982116698	0.0282924101
2673.3270190429	0.0281527899
2675.2558264159	0.0281627364
2677.1846337890	0.0280601196
2679.1134411620	0.0279200785
2681.0422485351	0.0280858465
2682.9710559081	0.0279317573
2684.8998632812	0.0278571844
2686.8286706542	0.0280110948
2688.7574780273	0.0278206952
2690.6862854003	0.0278108232
2692.6150927733	0.0278043766
2694.5439001464	0.0276918672
2696.4727075194	0.0276124720
2698.4015148925	0.0276521891
2700.3303222655	0.0276582949
2702.2591296386	0.0273783281
2704.1879370116	0.0274824034
2706.1167443847	0.0274426602
2708.0455517577	0.0273167118
2709.9743591308	0.0275005382
2711.9031665038	0.0273318589
2713.8319738769	0.0272558257
2715.7607812499	0.0271759741
2717.6895886230	0.0270745605
2719.6183959960	0.0271961018
2721.5472033690	0.0270247012
2723.4760107421	0.0269487370
2725.4048181151	0.0270573422
2727.3336254882	0.0268749185
2729.2624328612	0.0267948471
2731.1912402343	0.0268780440
2733.1200476073	0.0267961156
2735.0488549804	0.0267673414
2736.9776623534	0.0268141143
2738.9064697265	0.0267817006
2740.8352770995	0.0267118905
2742.7640844726	0.0267041810
2744.6928918456	0.0266168341
2746.6216992187	0.0265464671
2748.5505065917	0.0266046394
2750.4793139647	0.0264829844
2752.4081213378	0.0264227744
2754.3369287108	0.0263340771
2756.2657360839	0.0262828842
2758.1945434569	0.0264525004
2760.1233508300	0.0263021365
2762.0521582030	0.0261508636
2763.9809655761	0.0261780247
2765.9097729491	0.0260844883
2767.8385803222	0.0260560848
2769.7673876952	0.0260500778
2771.6961950683	0.0259127207
2773.6250024413	0.0258987993
2775.5538098144	0.0259544812
2777.4826171874	0.0258638188
2779.4114245604	0.0258303136
2781.3402319335	0.0257521421
2783.2690393065	0.0256472416
2785.1978466796	0.0256190486
2787.1266540526	0.0255816355
2789.0554614257	0.0255230330
2790.9842687987	0.0254567154
2792.9130761718	0.0254698321
2794.8418835448	0.0255007185
2796.7706909179	0.0254611149
2798.6994982909	0.0252845567
2800.6283056640	0.0252404828
2802.5571130370	0.0252322201
2804.4859204101	0.0251047835
2806.4147277831	0.0251543615
2808.3435351562	0.0251127668
2810.2723425292	0.0249500554
2812.2011499022	0.0249174908
2814.1299572753	0.0248863064
2816.0587646483	0.0247567445
2817.9875720214	0.0248001199
2819.9163793944	0.0247588642
2821.8451867675	0.0245667603
2823.7739941405	0.0246583056
2825.7028015136	0.0245800391
2827.6316088866	0.0244762301
2829.5604162597	0.0244358741
2831.4892236327	0.0243277326
2833.4180310058	0.0243807733
2835.3468383788	0.0243132357
2837.2756457519	0.0242493469
2839.2044531249	0.0243272241
2841.1332604979	0.0242932849
2843.0620678710	0.0240330510
2844.9908752440	0.0239814259
2846.9196826171	0.0238734148
2848.8484899901	0.0235743225
2850.7772973632	0.0236129351
2852.7061047362	0.0235491917
2854.6349121093	0.0235248879
2856.5637194823	0.0235427674
2858.4925268554	0.0235180184
2860.4213342284	0.0235328749
2862.3501416015	0.0234051459
2864.2789489745	0.0234220214
2866.2077563476	0.0233415980
2868.1365637206	0.0232888740
2870.0653710936	0.0232873037
2871.9941784667	0.0232516583
2873.9229858397	0.0232471135
2875.8517932128	0.0230719931
2877.7806005858	0.0230192915
2879.7094079589	0.0230560638
2881.6382153319	0.0230844282
2883.5670227050	0.0230246764
2885.4958300780	0.0229892489
2887.4246374511	0.0229522120
2889.3534448241	0.0228409283
2891.2822521972	0.0229198076
2893.2110595702	0.0228737649
2895.1398669433	0.0227679163
2897.0686743163	0.0226609055
2898.9974816893	0.0225317664
2900.9262890624	0.0225435831
2902.8550964354	0.0225387178
2904.7839038085	0.0224710330
2906.7127111815	0.0223405249
2908.6415185546	0.0223401152
2910.5703259276	0.0222695712
2912.4991333007	0.0219952576
2914.4279406737	0.0218891762
2916.3567480468	0.0218376014
2918.2855554198	0.0217712913
2920.2143627929	0.0218412448
2922.1431701659	0.0218186677
2924.0719775390	0.0217148811
2926.0007849120	0.0217269138
2927.9295922851	0.0217113812
2929.8583996581	0.0215913802
2931.7872070311	0.0215080865
2933.7160144042	0.0216788240
2935.6448217772	0.0216938760
2937.5736291503	0.0215632040
2939.5024365233	0.0217350498
2941.4312438964	0.0216749720
2943.3600512694	0.0215464644
2945.2888586425	0.0216206107
2947.2176660155	0.0215404108
2949.1464733886	0.0214478299
2951.0752807616	0.0213667266
2953.0040881347	0.0213300735
2954.9328955077	0.0213673413
2956.8617028808	0.0212661475
2958.7905102538	0.0212147981
2960.7193176268	0.0212177709
2962.6481249999	0.0210611522
2964.5769323729	0.0210542865
2966.5057397460	0.0210647322
2968.4345471190	0.0210740604
2970.3633544921	0.0211018883
2972.2921618651	0.0209806804
2974.2209692382	0.0210753605
2976.1497766112	0.0210036263
2978.0785839843	0.0209002774
2980.0073913573	0.0210415684
2981.9361987304	0.0210846215
2983.8650061034	0.0210368969
2985.7938134765	0.0208955817
2987.7226208495	0.0210241377
2989.6514282225	0.0210111588
2991.5802355956	0.0208410956
2993.5090429686	0.0209124424
2995.4378503417	0.0208856817
2997.3666577147	0.0208900608
2999.2954650878	0.0208308604
3001.2242724608	0.0207366757
3003.1530798339	0.0206305422
3005.0818872069	0.0205665939
3007.0106945800	0.0206199251
3008.9395019530	0.0205753483
3010.8683093261	0.0205295868
3012.7971166991	0.0204459392
3014.7259240722	0.0203939788
3016.6547314452	0.0203468986
3018.5835388182	0.0203051940
3020.5123461913	0.0202225670
3022.4411535643	0.0202718824
3024.3699609374	0.0204194821
3026.2987683104	0.0201671459
3028.2275756835	0.0200628564
3030.1563830565	0.0200371221
3032.0851904296	0.0199271739
3034.0139978026	0.0199816693
3035.9428051757	0.0199400112
3037.8716125487	0.0199721642
3039.8004199218	0.0198614039
3041.7292272948	0.0197960921
3043.6580346679	0.0198745430
3045.5868420409	0.0197761580
3047.5156494139	0.0197154433
3049.4444567870	0.0195136890
3051.3732641600	0.0195276551
3053.3020715331	0.0197179019
3055.2308789061	0.0195562411
3057.1596862792	0.0194891579
3059.0884936522	0.0194988009
3061.0173010253	0.0193978138
3062.9461083983	0.0193420965
3064.8749157714	0.0193323102
3066.8037231444	0.0192775428
3068.7325305175	0.0192060061
3070.6613378905	0.0192579292
3072.5901452636	0.0191932209
3074.5189526366	0.0191511884
3076.4477600097	0.0192081816
3078.3765673827	0.0190472640
3080.3053747557	0.0189743750
3082.2341821288	0.0190600380
3084.1629895018	0.0190474316
3086.0917968749	0.0190203115
3088.0206042479	0.0190091543
3089.9494116210	0.0188754536
3091.8782189940	0.0188047122
3093.8070263671	0.0187867302
3095.7358337401	0.0186949875
3097.6646411132	0.0187573098
3099.5934484862	0.0186826438
3101.5222558593	0.0185348988
3103.4510632323	0.0185186602
3105.3798706054	0.0184629578
3107.3086779784	0.0184103735
3109.2374853514	0.0183744412
3111.1662927245	0.0183936432
3113.0951000975	0.0182275791
3115.0239074706	0.0182285942
3116.9527148436	0.0183701403
3118.8815222167	0.0182095990
3120.8103295897	0.0181189366
3122.7391369628	0.0180233195
3124.6679443358	0.0180415176
3126.5967517089	0.0180837549
3128.5255590819	0.0180032253
3130.4543664550	0.0179011934
3132.3831738280	0.0177739952
3134.3119812011	0.0179045275
3136.2407885741	0.0178301930
3138.1695959471	0.0176878907
3140.0984033202	0.0176732577
3142.0272106932	0.0175836943
3143.9560180663	0.0176517982
3145.8848254393	0.0175397769
3147.8136328124	0.0174866952
3149.7424401854	0.0174958892
3151.6712475585	0.0173845980
3153.6000549315	0.0174328517
3155.5288623046	0.0173274726
3157.4576696776	0.0172680132
3159.3864770507	0.0172151383
3161.3152844237	0.0170857813
3163.2440917968	0.0171204600
3165.1728991698	0.0169711951
3167.1017065428	0.0169626512
3169.0305139159	0.0170055106
3170.9593212889	0.0168372244
3172.8881286620	0.0168937128
3174.8169360350	0.0168458428
3176.7457434081	0.0167288370
3178.6745507811	0.0167438388
3180.6033581542	0.0167007577
3182.5321655272	0.0166848451
3184.4609729003	0.0166695379
3186.3897802733	0.0166037679
3188.3185876464	0.0164797381
3190.2473950194	0.0163961239
3192.1762023925	0.0163664930
3194.1050097655	0.0163908564
3196.0338171386	0.0163225904
3197.9626245116	0.0163026694
3199.8914318846	0.0163729526
3201.8202392577	0.0162197165
3203.7490466307	0.0162447747
3205.6778540038	0.0161707010
3207.6066613768	0.0160917230
3209.5354687499	0.0161763113
3211.4642761229	0.0159285814
3213.3930834960	0.0159656387
3215.3218908690	0.0160530843
3217.2506982421	0.0159392916
3219.1795056151	0.0159376264
3221.1083129882	0.0158832446
3223.0371203612	0.0158379246
3224.9659277343	0.0157835744
3226.8947351073	0.0157994963
3228.8235424803	0.0158044323
3230.7523498534	0.0157804787
3232.6811572264	0.0157152899
3234.6099645995	0.0156974867
3236.5387719725	0.0157749560
3238.4675793456	0.0156653076
3240.3963867186	0.0155529957
3242.3251940917	0.0155427754
3244.2540014647	0.0154983439
3246.1828088378	0.0154469926
3248.1116162108	0.0155294687
3250.0404235839	0.0155473594
3251.9692309569	0.0154996794
3253.8980383300	0.0154404119
3255.8268457030	0.0153525490
3257.7556530760	0.0154244155
3259.6844604491	0.0153231900
3261.6132678221	0.0153193986
3263.5420751952	0.0153505579
3265.4708825682	0.0152646564
3267.3996899413	0.0153570976
3269.3284973143	0.0153054539
3271.2573046874	0.0152449496
3273.1861120604	0.0151640996
3275.1149194335	0.0151614379
3277.0437268065	0.0151284207
3278.9725341796	0.0150897503
3280.9013415526	0.0152288470
3282.8301489257	0.0150950551
3284.7589562987	0.0150593389
3286.6877636717	0.0150659382
3288.6165710448	0.0150801465
3290.5453784178	0.0151487440
3292.4741857909	0.0149989482
3294.4029931639	0.0149185080
3296.3318005370	0.0148543231
3298.2606079100	0.0148950517
3300.1894152831	0.0149301235
3302.1182226561	0.0148670431
3304.0470300292	0.0148799634
3305.9758374022	0.0149129601
3307.9046447753	0.0148748476
3309.8334521483	0.0147927161
3311.7622595214	0.0148331020
3313.6910668944	0.0147750415
3315.6198742675	0.0146820052
3317.5486816405	0.0147161540
3319.4774890135	0.0147240078
3321.4062963866	0.0146277323
3323.3351037596	0.0146673992
3325.2639111327	0.0147277620
3327.1927185057	0.0145685449
3329.1215258788	0.0146052949
3331.0503332518	0.0145604387
3332.9791406249	0.0145516377
3334.9079479979	0.0147157460
3336.8367553710	0.0146041289
3338.7655627440	0.0145321134
3340.6943701171	0.0145174470
3342.6231774901	0.0144883385
3344.5519848632	0.0144202178
3346.4807922362	0.0143516492
3348.4095996092	0.0142872799
3350.3384069823	0.0142165106
3352.2672143553	0.0142575018
3354.1960217284	0.0142070744
3356.1248291014	0.0141862016
3358.0536364745	0.0141386278
3359.9824438475	0.0141583681
3361.9112512206	0.0141982287
3363.8400585936	0.0140335467
3365.7688659667	0.0140535990
3367.6976733397	0.0140350116
3369.6264807128	0.0139603512
3371.5552880858	0.0140341520
3373.4840954589	0.0139716323
3375.4129028319	0.0139062367
3377.3417102049	0.0139482506
3379.2705175780	0.0138928574
3381.1993249510	0.0138264224
3383.1281323241	0.0138928844
3385.0569396971	0.0138559369
3386.9857470702	0.0137376683
3388.9145544432	0.0137643386
3390.8433618163	0.0137527222
3392.7721691893	0.0136632016
3394.7009765624	0.0136702815
3396.6297839354	0.0136024207
3398.5585913085	0.0135145988
3400.4873986815	0.0135792354
3402.4162060546	0.0135416612
3404.3450134276	0.0134640578
3406.2738208006	0.0135308262
3408.2026281737	0.0135226101
3410.1314355467	0.0134750372
3412.0602429198	0.0135869794
3413.9890502928	0.0134778377
3415.9178576659	0.0132984202
3417.8466650389	0.0133666554
3419.7754724120	0.0133136734
3421.7042797850	0.0132795358
3423.6330871581	0.0131951729
3425.5618945311	0.0131841032
3427.4907019042	0.0132822338
3429.4195092772	0.0131644960
3431.3483166503	0.0132057425
3433.2771240233	0.0131653622
3435.2059313963	0.0130395163
3437.1347387694	0.0130177718
3439.0635461424	0.0130489357
3440.9923535155	0.0130805485
3442.9211608885	0.0129019450
3444.8499682616	0.0129165454
3446.7787756346	0.0128602907
3448.7075830077	0.0127905477
3450.6363903807	0.0129366284
3452.5651977538	0.0129009746
3454.4940051268	0.0128666647
3456.4228124999	0.0127946278
3458.3516198729	0.0128498245
3460.2804272460	0.0128703536
3462.2092346190	0.0126908496
3464.1380419921	0.0126830209
3466.0668493651	0.0126634017
3467.9956567381	0.0126576945
3469.9244641112	0.0126840230
3471.8532714842	0.0127255898
3473.7820788573	0.0127035296
3475.7108862303	0.0125800222
3477.6396936034	0.0126719289
3479.5685009764	0.0126612270
3481.4973083495	0.0124723865
3483.4261157225	0.0125255045
3485.3549230956	0.0125962738
3487.2837304686	0.0124703068
3489.2125378417	0.0124207335
3491.1413452147	0.0125357322
3493.0701525878	0.0125434212
3494.9989599608	0.0125068622
3496.9277673338	0.0126353893
3498.8565747069	0.0125764851
3500.7853820799	0.0124648558
3502.7141894530	0.0124655031
3504.6429968260	0.0123591134
3506.5718041991	0.0125297755
3508.5006115721	0.0125627676
3510.4294189452	0.0123438723
3512.3582263182	0.0123840608
3514.2870336913	0.0124130212
3516.2158410643	0.0124744866
3518.1446484374	0.0124439457
3520.0734558104	0.0124004912
3522.0022631835	0.0122646196
3523.9310705565	0.0120553523
3525.8598779295	0.0122509617
3527.7886853026	0.0122947060
3529.7174926756	0.0123027079
3531.6463000487	0.0123495851
3533.5751074217	0.0123297404
3535.5039147948	0.0123893358
3537.4327221678	0.0121898297
3539.3615295409	0.0122266989
3541.2903369139	0.0122901611
3543.2191442870	0.0121698994
3545.1479516600	0.0119971205
3547.0767590331	0.0118678808
3549.0055664061	0.0122765750
3550.9343737792	0.0122871436
3552.8631811522	0.0120496061
3554.7919885252	0.0122009814
3556.7207958983	0.0122134266
3558.6496032713	0.0121922456
3560.5784106444	0.0120585505
3562.5072180174	0.0120684337
3564.4360253905	0.0120852850
3566.3648327635	0.0115120728
3568.2936401366	0.0113110840
3570.2224475096	0.0119492672
3572.1512548827	0.0122080138
3574.0800622557	0.0120983012
3576.0088696288	0.0121711846
3577.9376770018	0.0120503157
3579.8664843749	0.0120680332
3581.7952917479	0.0120290555
3583.7240991210	0.0120059028
3585.6529064940	0.0119208042
3587.5817138670	0.0112856356
3589.5105212401	0.0114916433
3591.4393286131	0.0120649822
3593.3681359862	0.0118496772
3595.2969433592	0.0116069429
3597.2257507323	0.0117968917
3599.1545581053	0.0119496733
3601.0833654784	0.0117843021
3603.0121728514	0.0119390646
3604.9409802245	0.0120823123
3606.8697875975	0.0117867049
3608.7985949706	0.0112686781
3610.7274023436	0.0114856306
3612.6562097167	0.0116836894
3614.5850170897	0.0113822501
3616.5138244627	0.0119915660
3618.4426318358	0.0113455709
3620.3714392088	0.0111166425
3622.3002465819	0.0119806770
3624.2290539549	0.0117555195
3626.1578613280	0.0121309469
3628.0866687010	0.0106815156
3630.0154760741	0.0101734120
3631.9442834471	0.0119223204
3633.8730908202	0.0115850531
3635.8018981932	0.0117496122
3637.7307055663	0.0119965784
3639.6595129393	0.0118352352
3641.5883203124	0.0119322650
3643.5171276854	0.0117821731
3645.4459350584	0.0117748883
3647.3747424315	0.0109010097
3649.3035498045	0.0102617042
3651.2323571776	0.0105227772
3653.1611645506	0.0117233377
3655.0899719237	0.0114505123
3657.0187792967	0.0107468711
3658.9475866698	0.0118371658
3660.8763940428	0.0116440021
3662.8052014159	0.0117931608
3664.7340087889	0.0117255356
3666.6628161620	0.0116468295
3668.5916235350	0.0113764638
3670.5204309081	0.0098726992
3672.4492382811	0.0112438779
3674.3780456541	0.0107631534
3676.3068530272	0.0095735146
3678.2356604002	0.0112654194
3680.1644677733	0.0113249980
3682.0932751463	0.0113892686
3684.0220825194	0.0116321938
3685.9508898924	0.0115218414
3687.8796972655	0.0105825439
3689.8085046385	0.0100093400
3691.7373120116	0.0111256707
3693.6661193846	0.0111124972
3695.5949267577	0.0113643669
3697.5237341307	0.0114059374
3699.4525415038	0.0113111325
3701.3813488768	0.0111203492
3703.3101562499	0.0107171498
3705.2389636229	0.0115538985
3707.1677709959	0.0110615212
3709.0965783690	0.0108810319
3711.0253857420	0.0103766629
3712.9541931151	0.0099289706
3714.8830004881	0.0112077445
3716.8118078612	0.0109595805
3718.7406152342	0.0110802054
3720.6694226073	0.0109344441
3722.5982299803	0.0107626431
3724.5270373534	0.0109182689
3726.4558447264	0.0102585647
3728.3846520995	0.0110566290
3730.3134594725	0.0107869785
3732.2422668456	0.0101877991
3734.1710742186	0.0101191476
3736.0998815916	0.0096839890
3738.0286889647	0.0099546351
3739.9574963377	0.0105300769
3741.8863037108	0.0110011213
3743.8151110838	0.0090714060
3745.7439184569	0.0087834112
3747.6727258299	0.0105743315
3749.6015332030	0.0094366930
3751.5303405760	0.0089981668
3753.4591479491	0.0098751783
3755.3879553221	0.0104022007
3757.3167626952	0.0106479209
3759.2455700682	0.0101833008
3761.1743774413	0.0104470234
3763.1031848143	0.0107034007
3765.0319921873	0.0103312209
3766.9607995604	0.0104273595
3768.8896069334	0.0101550743
3770.8184143065	0.0098898690
3772.7472216795	0.0104387728
3774.6760290526	0.0105531123
3776.6048364256	0.0105979852
3778.5336437987	0.0102490075
3780.4624511717	0.0100459745
3782.3912585448	0.0105203670
3784.3200659178	0.0102497172
3786.2488732909	0.0102398414
3788.1776806639	0.0103685148
3790.1064880370	0.0103351884
3792.0352954100	0.0103246421
3793.9641027830	0.0103694191
3795.8929101561	0.0098917102
3797.8217175291	0.0098318970
3799.7505249022	0.0101213362
3801.6793322752	0.0085592512
3803.6081396483	0.0096380413
3805.5369470213	0.0101935212
3807.4657543944	0.0088170385
3809.3945617674	0.0100927670
3811.3233691405	0.0099802148
3813.2521765135	0.0102920011
3815.1809838866	0.0094417138
3817.1097912596	0.0086396867
3819.0385986327	0.0102814278
3820.9674060057	0.0088320635
3822.8962133787	0.0091384370
3824.8250207518	0.0101285595
3826.7538281248	0.0093890913
3828.6826354979	0.0098674502
3830.6114428709	0.0096414909
3832.5402502440	0.0095289201
3834.4690576170	0.0096171387
3836.3978649901	0.0091625992
3838.3266723631	0.0085022375
3840.2554797362	0.0090727760
3842.1842871092	0.0095812734
3844.1130944823	0.0092121391
3846.0419018553	0.0097369673
3847.9707092284	0.0096197780
3849.8995166014	0.0096199391
3851.8283239745	0.0088691199
3853.7571313475	0.0072849519
3855.6859387205	0.0082239937
3857.6147460936	0.0096381493
3859.5435534666	0.0094005037
3861.4723608397	0.0094133820
3863.4011682127	0.0092693577
3865.3299755858	0.0087183099
3867.2587829588	0.0094671175
3869.1875903319	0.0088673569
3871.1163977049	0.0084238909
3873.0452050780	0.0094885230
3874.9740124510	0.0088810734
3876.9028198241	0.0092899986
3878.8316271971	0.0094788782
3880.7604345702	0.0085976385
3882.6892419432	0.0092869904
3884.6180493162	0.0088744489
3886.5468566893	0.0084186327
3888.4756640623	0.0093772057
3890.4044714354	0.0089774597
3892.3332788084	0.0085135605
3894.2620861815	0.0091712764
3896.1908935545	0.0091738896
3898.1197009276	0.0089261150
3900.0485083006	0.0085765645
3901.9773156737	0.0083898529
3903.9061230467	0.0084927827
3905.8349304198	0.0085039567
3907.7637377928	0.0090546105
3909.6925451659	0.0090487879
3911.6213525389	0.0089648301
3913.5501599119	0.0091070496
3915.4789672850	0.0088184206
3917.4077746580	0.0087181814
3919.3365820311	0.0086785518
3921.2653894041	0.0089264382
3923.1941967772	0.0088214763
3925.1230041502	0.0086624874
3927.0518115233	0.0088238828
3928.9806188963	0.0087974202
3930.9094262694	0.0087738708
3932.8382336424	0.0085632969
3934.7670410155	0.0087136887
3936.6958483885	0.0087616723
3938.6246557616	0.0086635277
3940.5534631346	0.0086974911
3942.4822705076	0.0084366053
3944.4110778807	0.0085738152
3946.3398852537	0.0087026143
3948.2686926268	0.0085380208
3950.1974999998	0.0085685952
3952.1263073729	0.0086525511
3954.0551147459	0.0086284019
3955.9839221190	0.0084983744
3957.9127294920	0.0084839072
3959.8415368651	0.0086029675
3961.7703442381	0.0085111596
3963.6991516112	0.0084101669
3965.6279589842	0.0085110068
3967.5567663573	0.0084237158
3969.4855737303	0.0083572883
3971.4143811034	0.0083693452
3973.3431884764	0.0083131110
3975.2719958494	0.0082558813
3977.2008032225	0.0082998388
3979.1296105955	0.0083836950
3981.0584179686	0.0082837883
3982.9872253416	0.0083130598
3984.9160327147	0.0082294075
3986.8448400877	0.0081807245
3988.7736474608	0.0082537755
3990.7024548338	0.0081448779
3992.6312622069	0.0082010450
3994.5600695799	0.0081623066
3996.4888769530	0.0081365975
3998.4176843260	0.0081544574
4000.3464916991	0.0081360862
4002.2752990721	0.0081400033
4004.2041064451	0.0080574658
4006.1329138182	0.0081219915
4008.0617211912	0.0081029087
4009.9905285643	0.0080626030
4011.9193359373	0.0079667214
4013.8481433104	0.0079090223
4015.7769506834	0.0080098473
4017.7057580565	0.0079089403
4019.6345654295	0.0079391766
4021.5633728026	0.0079940073
4023.4921801756	0.0079473779
4025.4209875487	0.0079640821
4027.3497949217	0.0079024248
4029.2786022948	0.0078995200
4031.2074096678	0.0079124104
4033.1362170408	0.0078440141
4035.0650244139	0.0077583529
4036.9938317869	0.0077604465
4038.9226391600	0.0077819000
4040.8514465330	0.0077366615
4042.7802539061	0.0078042503
4044.7090612791	0.0077785412
4046.6378686522	0.0077237636
4048.5666760252	0.0078027500
4050.4954833983	0.0076954844
4052.4242907713	0.0076329065
4054.3530981444	0.0076309107
4056.2819055174	0.0076499544
4058.2107128905	0.0076610418
4060.1395202635	0.0075208559
4062.0683276365	0.0075955568
4063.9971350096	0.0075265691
4065.9259423826	0.0074640159
4067.8547497557	0.0075700185
4069.7835571287	0.0074982783
4071.7123645018	0.0075304192
4073.6411718748	0.0074461936
4075.5699792479	0.0074376967
4077.4987866209	0.0074878344
4079.4275939940	0.0074419314
4081.3564013670	0.0074689370
4083.2852087401	0.0074422434
4085.2140161131	0.0074620782
4087.1428234862	0.0072885957
4089.0716308592	0.0072481316
4091.0004382323	0.0073348996
4092.9292456053	0.0072628469
4094.8580529783	0.0072658556
4096.7868603514	0.0072363382
4098.7156677244	0.0073144361
4100.6444750975	0.0072905682
4102.5732824705	0.0072456049
4104.5020898436	0.0072885891
4106.4308972166	0.0071896240
4108.3597045897	0.0071726479
4110.2885119627	0.0071973335
4112.2173193358	0.0071431813
4114.1461267088	0.0070555005
4116.0749340819	0.0070667611
4118.0037414549	0.0070116217
4119.9325488280	0.0070464751
4121.8613562010	0.0071500838
4123.7901635740	0.0070264935
4125.7189709471	0.0070532155
4127.6477783201	0.0069827293
4129.5765856932	0.0069481004
4131.5053930662	0.0069896532
4133.4342004393	0.0068256315
4135.3630078123	0.0069594886
4137.2918151854	0.0069322796
4139.2206225584	0.0068148351
4141.1494299315	0.0069745271
4143.0782373045	0.0068669477
4145.0070446776	0.0068283011
4146.9358520506	0.0068713063
4148.8646594237	0.0067357607
4150.7934667967	0.0067729251
4152.7222741697	0.0068465066
4154.6510815428	0.0067729712
4156.5798889158	0.0067325672
4158.5086962889	0.0067842454
4160.4375036619	0.0067062746
4162.3663110350	0.0066255555
4164.2951184080	0.0067401519
4166.2239257811	0.0067044357
4168.1527331541	0.0065982789
4170.0815405272	0.0066267550
4172.0103479002	0.0066460660
4173.9391552733	0.0066104848
4175.8679626463	0.0065461276
4177.7967700194	0.0065647159
4179.7255773924	0.0065866578
4181.6543847654	0.0065497546
4183.5831921385	0.0065697171
4185.5119995115	0.0065953648
4187.4408068846	0.0065485118
4189.3696142576	0.0064919759
4191.2984216307	0.0064609507
4193.2272290037	0.0064754267
4195.1560363768	0.0065250797
4197.0848437498	0.0064759753
4199.0136511229	0.0064036623
4200.9424584959	0.0063644238
4202.8712658690	0.0063352538
4204.8000732420	0.0063540461
4206.7288806151	0.0063306750
4208.6576879881	0.0063199895
4210.5864953611	0.0063172830
4212.5153027342	0.0062857238
4214.4441101072	0.0062645008
4216.3729174803	0.0061619966
4218.3017248533	0.0061384412
4220.2305322264	0.0062205209
4222.1593395994	0.0061684372
4224.0881469725	0.0061492948
4226.0169543455	0.0061960225
4227.9457617186	0.0061591663
4229.8745690916	0.0061826594
4231.8033764647	0.0062255301
4233.7321838377	0.0061324616
4235.6609912108	0.0060413964
4237.5897985838	0.0061258785
4239.5186059569	0.0061811246
4241.4474133299	0.0061314027
4243.3762207029	0.0061176568
4245.3050280760	0.0060722027
4247.2338354490	0.0059655076
4249.1626428221	0.0059264107
4251.0914501951	0.0060277730
4253.0202575682	0.0060077459
4254.9490649412	0.0059706867
4256.8778723143	0.0059172497
4258.8066796873	0.0058530373
4260.7354870604	0.0060120132
4262.6642944334	0.0059124469
4264.5931018065	0.0059157494
4266.5219091795	0.0060056709
4268.4507165526	0.0057924064
4270.3795239256	0.0058180224
4272.3083312986	0.0058495263
4274.2371386717	0.0058138799
4276.1659460447	0.0057780789
4278.0947534178	0.0057493662
4280.0235607908	0.0057921461
4281.9523681639	0.0058077634
4283.8811755369	0.0057886438
4285.8099829100	0.0056858314
4287.7387902830	0.0057399385
4289.6675976561	0.0057316092
4291.5964050291	0.0057280879
4293.5252124022	0.0058070677
4295.4540197752	0.0057793716
4297.3828271483	0.0057614278
4299.3116345213	0.0056619579
4301.2404418943	0.0056851320
4303.1692492674	0.0056882207
4305.0980566404	0.0056710234
4307.0268640135	0.0056731231
4308.9556713865	0.0055603888
4310.8844787596	0.0055330684
4312.8132861326	0.0055132024
4314.7420935057	0.0055182506
4316.6709008787	0.0055095535
4318.5997082518	0.0055286428
4320.5285156248	0.0055363914
4322.4573229979	0.0055525401
4324.3861303709	0.0055243704
4326.3149377440	0.0054190233
4328.2437451170	0.0054631671
4330.1725524900	0.0054246378
4332.1013598631	0.0053914459
4334.0301672361	0.0053759003
4335.9589746092	0.0054034055
4337.8877819822	0.0054158140
4339.8165893553	0.0053932476
4341.7453967283	0.0053967545
4343.6742041014	0.0052586216
4345.6030114744	0.0053843893
4347.5318188475	0.0053380844
4349.4606262205	0.0052579734
4351.3894335936	0.0053529055
4353.3182409666	0.0052235061
4355.2470483397	0.0052920170
4357.1758557127	0.0052660350
4359.1046630858	0.0053155180
4361.0334704588	0.0053567169
4362.9622778318	0.0052007432
4364.8910852049	0.0052086050
4366.8198925779	0.0051517119
4368.7486999510	0.0051846579
4370.6775073240	0.0051977783
4372.6063146971	0.0051363194
4374.5351220701	0.0051058242
4376.4639294432	0.0051452299
4378.3927368162	0.0051343041
4380.3215441893	0.0050589340
4382.2503515623	0.0051125791
4384.1791589354	0.0050325142
4386.1079663084	0.0051118918
4388.0367736815	0.0051439144
4389.9655810545	0.0049899206
4391.8943884275	0.0050140554
4393.8231958006	0.0050180978
4395.7520031736	0.0050618788
4397.6808105467	0.0050263917
4399.6096179197	0.0049706502
4401.5384252928	0.0049793338
4403.4672326658	0.0050046132
4405.3960400389	0.0049978504
4407.3248474119	0.0048754788
4409.2536547850	0.0049077440
4411.1824621580	0.0048898505
4413.1112695311	0.0048340848
4415.0400769041	0.0048863040
4416.9688842772	0.0048372620
4418.8976916502	0.0047911382
4420.8264990232	0.0047722775
4422.7553063963	0.0048233294
4424.6841137693	0.0048863846
4426.6129211424	0.0048692236
4428.5417285154	0.0048342887
4430.4705358885	0.0047373902
4432.3993432615	0.0047841435
4434.3281506346	0.0048264228
4436.2569580076	0.0047157854
4438.1857653807	0.0047558579
4440.1145727537	0.0047548153
4442.0433801268	0.0047456995
4443.9721874998	0.0047243130
4445.9009948729	0.0046199318
4447.8298022459	0.0046841707
4449.7586096189	0.0046806652
4451.6874169920	0.0046610879
4453.6162243650	0.0046390258
4455.5450317381	0.0045809913
4457.4738391111	0.0045961230
4459.4026464842	0.0045509390
4461.3314538572	0.0046028327
4463.2602612303	0.0045681656
4465.1890686033	0.0044659777
4467.1178759764	0.0045468467
4469.0466833494	0.0045843571
4470.9754907225	0.0045642229
4472.9042980955	0.0045965854
4474.8331054686	0.0045744209
4476.7619128416	0.0045030327
4478.6907202147	0.0045302482
4480.6195275877	0.0045119952
4482.5483349607	0.0045181406
4484.4771423338	0.0045316592
4486.4059497068	0.0044262698
4488.3347570799	0.0044277664
4490.2635644529	0.0043950584
4492.1923718260	0.0043674973
4494.1211791990	0.0044184225
4496.0499865721	0.0043945452
4497.9787939451	0.0044046924
4499.9076013182	0.0044124434
4501.8364086912	0.0043800101
4503.7652160643	0.0043761553
4505.6940234373	0.0043293620
4507.6228308104	0.0042722560
4509.5516381834	0.0043185363
4511.4804455564	0.0043185912
4513.4092529295	0.0042727273
4515.3380603025	0.0042480575
4517.2668676756	0.0042404369
4519.1956750486	0.0042630052
4521.1244824217	0.0042258129
4523.0532897947	0.0043357257
4524.9820971678	0.0043428419
4526.9109045408	0.0041758558
4528.8397119139	0.0042600920
4530.7685192869	0.0042010089
4532.6973266600	0.0041140225
4534.6261340330	0.0041895388
4536.5549414061	0.0041199625
4538.4837487791	0.0041325111
4540.4125561521	0.0041017109
4542.3413635252	0.0040804390
4544.2701708982	0.0041475305
4546.1989782713	0.0041061817
4548.1277856443	0.0041381419
4550.0565930174	0.0040691262
4551.9854003904	0.0040177847
4553.9142077635	0.0040660822
4555.8430151365	0.0040481528
4557.7718225096	0.0040595895
4559.7006298826	0.0040122122
4561.6294372557	0.0040183002
4563.5582446287	0.0039896043
4565.4870520018	0.0039975215
4567.4158593748	0.0040330160
4569.3446667478	0.0039592404
4571.2734741209	0.0040055057
4573.2022814939	0.0039784419
4575.1310888670	0.0039222366
4577.0598962400	0.0039509889
4578.9887036131	0.0040077358
4580.9175109861	0.0039325887
4582.8463183592	0.0038613966
4584.7751257322	0.0039209891
4586.7039331053	0.0038579444
4588.6327404783	0.0039505223
4590.5615478514	0.0038850356
4592.4903552244	0.0038426002
4594.4191625975	0.0039772978
4596.3479699705	0.0038682728
4598.2767773435	0.0038999580
4600.2055847166	0.0038124614
4602.1343920896	0.0037741112
4604.0631994627	0.0038226282
4605.9920068357	0.0037806481
4607.9208142088	0.0038723275
4609.8496215818	0.0037528586
4611.7784289549	0.0037231850
4613.7072363279	0.0037733056
4615.6360437010	0.0037155845
4617.5648510740	0.0037079945
4619.4936584471	0.0037157121
4621.4224658201	0.0037657851
4623.3512731932	0.0037714150
4625.2800805662	0.0037061393
4627.2088879393	0.0035991492
4629.1376953123	0.0036605103
4631.0665026853	0.0037231250
4632.9953100584	0.0036660659
4634.9241174314	0.0036574895
4636.8529248045	0.0036670417
4638.7817321775	0.0036747814
4640.7105395506	0.0036432156
4642.6393469236	0.0036643334
4644.5681542967	0.0036358293
4646.4969616697	0.0036302658
4648.4257690428	0.0036017059
4650.3545764158	0.0035225404
4652.2833837889	0.0035923324
4654.2121911619	0.0035766177
4656.1409985350	0.0035433953
4658.0698059080	0.0035329694
4659.9986132810	0.0035256157
4661.9274206541	0.0035497635
4663.8562280271	0.0035246722
4665.7850354002	0.0034652380
4667.7138427732	0.0034230012
4669.6426501463	0.0034439426
4671.5714575193	0.0034359163
4673.5002648924	0.0035214000
4675.4290722654	0.0035011386
4677.3578796385	0.0034472463
4679.2866870115	0.0034437149
4681.2154943846	0.0033085081
4683.1443017576	0.0034676192
4685.0731091307	0.0034378995
4687.0019165037	0.0032253568
4688.9307238767	0.0033806106
4690.8595312498	0.0033760285
4692.7883386228	0.0033327583
4694.7171459959	0.0034047854
4696.6459533689	0.0033568598
4698.5747607420	0.0033235648
4700.5035681150	0.0033460690
4702.4323754881	0.0033634733
4704.3611828611	0.0033514178
4706.2899902342	0.0033181326
4708.2187976072	0.0032209789
4710.1476049803	0.0032166741
4712.0764123533	0.0033086911
4714.0052197264	0.0032581142
4715.9340270994	0.0032330235
4717.8628344724	0.0032926183
4719.7916418455	0.0033106753
4721.7204492185	0.0032381879
4723.6492565916	0.0031596483
4725.5780639646	0.0032396007
4727.5068713377	0.0032770673
4729.4356787107	0.0032505996
4731.3644860838	0.0032175090
4733.2932934568	0.0031889169
4735.2221008299	0.0032182955
4737.1509082029	0.0031542117
4739.0797155760	0.0031664160
4741.0085229490	0.0032287356
4742.9373303221	0.0031499662
4744.8661376951	0.0030869162
4746.7949450682	0.0031747809
4748.7237524412	0.0032035408
4750.6525598142	0.0030971046
4752.5813671873	0.0031323254
4754.5101745603	0.0030984585
4756.4389819334	0.0030882349
4758.3677893064	0.0031531150
4760.2965966795	0.0030743643
4762.2254040525	0.0030883159
4764.1542114256	0.0030616052
4766.0830187986	0.0030497732
4768.0118261717	0.0030674578
4769.9406335447	0.0030210076
4771.8694409178	0.0030539068
4773.7982482908	0.0030138704
4775.7270556639	0.0029756748
4777.6558630369	0.0030100318
4779.5846704099	0.0029874211
4781.5134777830	0.0029408229
4783.4422851560	0.0029575108
4785.3710925291	0.0029582574
4787.2998999021	0.0029680277
4789.2287072752	0.0029769391
4791.1575146482	0.0029581555
4793.0863220213	0.0030279753
4795.0151293943	0.0029339958
4796.9439367674	0.0028883945
4798.8727441404	0.0030159485
4800.8015515135	0.0029155281
4802.7303588865	0.0028355408
4804.6591662596	0.0028819835
4806.5879736326	0.0029079374
4808.5167810056	0.0029022587
4810.4455883787	0.0028194496
4812.3743957517	0.0028756405
4814.3032031248	0.0029242511
4816.2320104978	0.0028318339
4818.1608178709	0.0028830033
4820.0896252439	0.0028674090
4822.0184326170	0.0028391611
4823.9472399900	0.0028488445
4825.8760473631	0.0027858354
4827.8048547361	0.0028189558
4829.7336621092	0.0027346904
4831.6624694822	0.0028269412
4833.5912768553	0.0028920388
4835.5200842283	0.0026755864
4837.4488916013	0.0027186661
4839.3776989744	0.0027686087
4841.3065063474	0.0027597416
4843.2353137205	0.0027290280
4845.1641210935	0.0027260282
4847.0929284666	0.0027703953
4849.0217358396	0.0026902140
4850.9505432127	0.0026642079
4852.8793505857	0.0026900177
4854.8081579588	0.0027655375
4856.7369653318	0.0026861907
4858.6657727049	0.0026442460
4860.5945800779	0.0027008741
4862.5233874510	0.0026055810
4864.4521948240	0.0026283979
4866.3810021971	0.0026769857
4868.3098095701	0.0027322900
4870.2386169431	0.0026556719
4872.1674243162	0.0025437826
4874.0962316892	0.0026484851
4876.0250390623	0.0026388862
4877.9538464353	0.0026109489
4879.8826538084	0.0026198197
4881.8114611814	0.0025942801
4883.7402685545	0.0026334622
4885.6690759275	0.0026394124
4887.5978833006	0.0025770918
4889.5266906736	0.0025294903
4891.4554980467	0.0025527191
4893.3843054197	0.0026141861
4895.3131127928	0.0025329986
4897.2419201658	0.0024756878
4899.1707275388	0.0025643238
4901.0995349119	0.0024776985
4903.0283422849	0.0024638623
4904.9571496580	0.0025421260
4906.8859570310	0.0025115127
4908.8147644041	0.0025112727
4910.7435717771	0.0024685028
4912.6723791502	0.0024609214
4914.6011865232	0.0024616045
4916.5299938963	0.0024638134
4918.4588012693	0.0024506936
4920.3876086424	0.0024565209
4922.3164160154	0.0024918541
4924.2452233885	0.0024025661
4926.1740307615	0.0024025606
4928.1028381345	0.0024493474
4930.0316455076	0.0024525202
4931.9604528806	0.0024123983
4933.8892602537	0.0023281290
4935.8180676267	0.0023887823
4937.7468749998	0.0024626660
4939.6756823728	0.0023913570
4941.6044897459	0.0023185280
4943.5332971189	0.0023327193
4945.4621044920	0.0023694313
4947.3909118650	0.0023589581
4949.3197192381	0.0022851336
4951.2485266111	0.0023166593
4953.1773339842	0.0023534247
4955.1061413572	0.0023173604
4957.0349487302	0.0023139254
4958.9637561033	0.0023116521
4960.8925634763	0.0023543565
4962.8213708494	0.0023033032
4964.7501782224	0.0022914174
4966.6789855955	0.0022990813
4968.6077929685	0.0022969986
4970.5366003416	0.0023493846
4972.4654077146	0.0023047198
4974.3942150877	0.0023314254
4976.3230224607	0.0022815228
4978.2518298338	0.0022642440
4980.1806372068	0.0022575934
4982.1094445799	0.0022448052
4984.0382519529	0.0023015519
4985.9670593259	0.0021568243
4987.8958666990	0.0021325548
4989.8246740720	0.0021088980
4991.7534814451	0.0021976158
4993.6822888181	0.0023302783
4995.6110961912	0.0022038547
4997.5399035642	0.0022419891
4999.4687109373	0.0022827317
5001.3975183103	0.0022367013
5003.3263256834	0.0021716205
5005.2551330564	0.0022034666
5007.1839404295	0.0022114252
5009.1127478025	0.0021558546
5011.0415551756	0.0021833838
5012.9703625486	0.0021124410
5014.8991699217	0.0021638200
5016.8279772947	0.0021585329
5018.7567846677	0.0021272800
5020.6855920408	0.0021639462
5022.6143994138	0.0020974572
5024.5432067869	0.0020678979
5026.4720141599	0.0020734186
5028.4008215330	0.0021483339
5030.3296289060	0.0021018665
5032.2584362791	0.0020803614
5034.1872436521	0.0020757329
5036.1160510252	0.0020245025
5038.0448583982	0.0021124473
5039.9736657713	0.0021144934
5041.9024731443	0.0021048500
5043.8312805174	0.0020873439
5045.7600878904	0.0020310362
5047.6888952634	0.0020055252
5049.6177026365	0.0020235407
5051.5465100095	0.0020040229
5053.4753173826	0.0020482545
5055.4041247556	0.0021439507
5057.3329321287	0.0019933903
5059.2617395017	0.0019890210
5061.1905468748	0.0020280029
5063.1193542478	0.0019647975
5065.0481616209	0.0019928045
5066.9769689939	0.0019531958
5068.9057763670	0.0019407314
5070.8345837400	0.0019381135
5072.7633911131	0.0020055706
5074.6921984861	0.0020077811
5076.6210058591	0.0019576391
5078.5498132322	0.0019865325
5080.4786206052	0.0019452753
5082.4074279783	0.0019638615
5084.3362353513	0.0019090441
5086.2650427244	0.0018819189
5088.1938500974	0.0020013931
5090.1226574705	0.0019475305
5092.0514648435	0.0018887755
5093.9802722166	0.0019788602
5095.9090795896	0.0019443603
5097.8378869627	0.0018704482
5099.7666943357	0.0018736605
5101.6955017088	0.0018830784
5103.6243090818	0.0019426999
5105.5531164548	0.0018941890
5107.4819238279	0.0018708113
5109.4107312009	0.0019017656
5111.3395385740	0.0018552567
5113.2683459470	0.0018428809
5115.1971533201	0.0018168560
5117.1259606931	0.0018595553
5119.0547680662	0.0018597890
5120.9835754392	0.0017902669
5122.9123828123	0.0017851007
5124.8411901853	0.0018399350
5126.7699975584	0.0018469454
5128.6988049314	0.0017883580
5130.6276123045	0.0018395740
5132.5564196775	0.0017936828
5134.4852270506	0.0017969648
5136.4140344236	0.0018444302
5138.3428417966	0.0017648581
5140.2716491697	0.0017703162
5142.2004565427	0.0017489786
5144.1292639158	0.0017300325
5146.0580712888	0.0016903765
5147.9868786619	0.0017772199
5149.9156860349	0.0018370382
5151.8444934080	0.0016934923
5153.7733007810	0.0017111697
5155.7021081541	0.0017351211
5157.6309155271	0.0017978161
5159.5597229002	0.0017509696
5161.4885302732	0.0017183516
5163.4173376463	0.0018882173
5165.3461450193	0.0017531358
5167.2749523923	0.0016411589
5169.2037597654	0.0016735378
5171.1325671384	0.0017056409
5173.0613745115	0.0017399159
5174.9901818845	0.0016795958
5176.9189892576	0.0017054722
5178.8477966306	0.0016933505
5180.7766040037	0.0017108445
5182.7054113767	0.0017076350
5184.6342187498	0.0016209171
5186.5630261228	0.0016583051
5188.4918334959	0.0016807052
5190.4206408689	0.0016780451
5192.3494482420	0.0016541290
5194.2782556150	0.0016877453
5196.2070629880	0.0017196580
5198.1358703611	0.0016211618
5200.0646777341	0.0016314698
5201.9934851072	0.0016723049
5203.9222924802	0.0016105941
5205.8510998533	0.0015855397
5207.7799072263	0.0016310582
5209.7087145994	0.0016159058
5211.6375219724	0.0015917673
5213.5663293455	0.0016143308
5215.4951367185	0.0015595579
5217.4239440916	0.0015859763
5219.3527514646	0.0016683927
5221.2815588377	0.0016789802
5223.2103662107	0.0016463827
5225.1391735837	0.0015486875
5227.0679809568	0.0015566946
5228.9967883298	0.0015873527
5230.9255957029	0.0016016647
5232.8544030759	0.0016689263
5234.7832104490	0.0016160145
5236.7120178220	0.0016132779
5238.6408251951	0.0016123857
5240.5696325681	0.0015022489
5242.4984399412	0.0014789102
5244.4272473142	0.0014970421
5246.3560546873	0.0015517888
5248.2848620603	0.0015157484
5250.2136694334	0.0014625170
5252.1424768064	0.0015335620
5254.0712841795	0.0015099482
5256.0000915525	0.0014779638
5257.9288989255	0.0014907727
5259.8577062986	0.0014948107
5261.7865136716	0.0015005455
5263.7153210447	0.0014872039
5265.6441284177	0.0014602253
5267.5729357908	0.0014995751
5269.5017431638	0.0015570307
5271.4305505369	0.0014735190
5273.3593579099	0.0014608155
5275.2881652830	0.0014977497
5277.2169726560	0.0015367621
5279.1457800291	0.0014704976
5281.0745874021	0.0013922290
5283.0033947752	0.0015491830
5284.9322021482	0.0014480723
5286.8610095212	0.0014208946
5288.7898168943	0.0015191427
5290.7186242673	0.0014436095
5292.6474316404	0.0014555722
5294.5762390134	0.0013941753
5296.5050463865	0.0015318809
5298.4338537595	0.0015629545
5300.3626611326	0.0014147148
5302.2914685056	0.0014408042
5304.2202758787	0.0014117283
5306.1490832517	0.0014209143
5308.0778906248	0.0013855916
5310.0066979978	0.0014088312
5311.9355053709	0.0013926490
5313.8643127439	0.0013752049
5315.7931201169	0.0014120378
5317.7219274900	0.0013439334
5319.6507348630	0.0014665818
5321.5795422361	0.0014495188
5323.5083496091	0.0013024812
5325.4371569822	0.0013480147
5327.3659643552	0.0014508127
5329.2947717283	0.0014158997
5331.2235791013	0.0013905435
5333.1523864744	0.0014171235
5335.0811938474	0.0012715533
5337.0100012205	0.0013501107
5338.9388085935	0.0013540345
5340.8676159666	0.0012532271
5342.7964233396	0.0013670910
5344.7252307126	0.0013231426
5346.6540380857	0.0012959624
5348.5828454587	0.0013461157
5350.5116528318	0.0013379448
5352.4404602048	0.0012929747
5354.3692675779	0.0013266518
5356.2980749509	0.0012904864
5358.2268823240	0.0012746820
5360.1556896970	0.0013571961
5362.0844970701	0.0012606336
5364.0133044431	0.0013473523
5365.9421118162	0.0013643976
5367.8709191892	0.0012652737
5369.7997265623	0.0012929916
5371.7285339353	0.0012760550
5373.6573413083	0.0013167821
5375.5861486814	0.0012482731
5377.5149560544	0.0012400419
5379.4437634275	0.0012594203
5381.3725708005	0.0012363021
5383.3013781736	0.0012691083
5385.2301855466	0.0012046355
5387.1589929197	0.0012247516
5389.0878002927	0.0013074428
5391.0166076658	0.0013248592
5392.9454150388	0.0012559036
5394.8742224119	0.0011845431
5396.8030297849	0.0011544751
5398.7318371580	0.0011924061
5400.6606445310	0.0012446131
5402.5894519041	0.0012065694
5404.5182592771	0.0012143789
5406.4470666501	0.0012265125
5408.3758740232	0.0012113079
5410.3046813962	0.0011586614
5412.2334887693	0.0011719696
5414.1622961423	0.0011871090
5416.0911035154	0.0011672464
5418.0199108884	0.0012125766
5419.9487182615	0.0011643260
5421.8775256345	0.0011742599
5423.8063330076	0.0011852774
5425.7351403806	0.0011755073
5427.6639477537	0.0011087966
5429.5927551267	0.0010287403
5431.5215624998	0.0011415083
5433.4503698728	0.0011559856
5435.3791772458	0.0011710819
5437.3079846189	0.0011798118
5439.2367919919	0.0011449147
5441.1655993650	0.0011346048
5443.0944067380	0.0011347926
5445.0232141111	0.0011953837
5446.9520214841	0.0011579837
5448.8808288572	0.0011946110
5450.8096362302	0.0011606787
5452.7384436033	0.0011374408
5454.6672509763	0.0011683591
5456.5960583494	0.0010623956
5458.5248657224	0.0011736914
5460.4536730955	0.0011687843
5462.3824804685	0.0010913694
5464.3112878415	0.0011749190
5466.2400952146	0.0011060224
5468.1689025876	0.0010764231
5470.0977099607	0.0010820555
5472.0265173337	0.0010525174
5473.9553247068	0.0011382138
5475.8841320798	0.0011862549
5477.8129394529	0.0011114257
5479.7417468259	0.0010955345
5481.6705541990	0.0010799791
5483.5993615720	0.0010611198
5485.5281689451	0.0010826609
5487.4569763181	0.0010602234
5489.3857836912	0.0011555853
5491.3145910642	0.0011848449
5493.2433984372	0.0010737753
5495.1722058103	0.0010615073
5497.1010131833	0.0010549112
5499.0298205564	0.0010619526
5500.9586279294	0.0010815125
5502.8874353025	0.0010633718
5504.8162426755	0.0010669937
5506.7450500486	0.0010373408
5508.6738574216	0.0010088941
5510.6026647947	0.0010818304
5512.5314721677	0.0010878737
5514.4602795408	0.0010443474
5516.3890869138	0.0010780671
5518.3178942869	0.0010044896
5520.2467016599	0.0010095250
5522.1755090330	0.0010885869
5524.1043164060	0.0009914879
5526.0331237790	0.0010279638
5527.9619311521	0.0010851410
5529.8907385251	0.0010278379
5531.8195458982	0.0010359673
5533.7483532712	0.0009621660
5535.6771606443	0.0009953994
5537.6059680173	0.0010435095
5539.5347753904	0.0009342329
5541.4635827634	0.0009878569
5543.3923901365	0.0010049082
5545.3211975095	0.0010004903
5547.2500048826	0.0010322465
5549.1788122556	0.0009629608
5551.1076196287	0.0010237857
5553.0364270017	0.0009664688
5554.9652343747	0.0009184803
5556.8940417478	0.0010707264
5558.8228491208	0.0009995518
5560.7516564939	0.0009150132
5562.6804638669	0.0009653473
5564.6092712400	0.0010148021
5566.5380786130	0.0010047983
5568.4668859861	0.0008921859
5570.3956933591	0.0009011541
5572.3245007322	0.0009666902
5574.2533081052	0.0009669216
5576.1821154783	0.0009504331
5578.1109228513	0.0008965493
5580.0397302244	0.0008977182
5581.9685375974	0.0009090619
5583.8973449704	0.0009136422
5585.8261523435	0.0009770219
5587.7549597165	0.0009514121
5589.6837670896	0.0009462493
5591.6125744626	0.0010025760
5593.5413818357	0.0009087300
5595.4701892087	0.0008562657
5597.3989965818	0.0008995302
5599.3278039548	0.0009372794
5601.2566113279	0.0009072779
5603.1854187009	0.0008274323
5605.1142260740	0.0009141346
5607.0430334470	0.0009230702
5608.9718408201	0.0008866059
5610.9006481931	0.0009142832
5612.8294555661	0.0008750684
5614.7582629392	0.0009520460
5616.6870703122	0.0009410401
5618.6158776853	0.0008882986
5620.5446850583	0.0008490656
5622.4734924314	0.0007487555
5624.4022998044	0.0008153139
5626.3311071775	0.0008692442
5628.2599145505	0.0008936323
5630.1887219236	0.0008767550
5632.1175292966	0.0008308043
5634.0463366697	0.0008177286
5635.9751440427	0.0008110934
5637.9039514158	0.0009224801
5639.8327587888	0.0008870038
5641.7615661619	0.0008369564
5643.6903735349	0.0008923155
5645.6191809079	0.0008615799
5647.5479882810	0.0008618245
5649.4767956540	0.0008292171
5651.4056030271	0.0008048475
5653.3344104001	0.0007957349
5655.2632177732	0.0008294128
5657.1920251462	0.0008808259
5659.1208325193	0.0007917522
5661.0496398923	0.0007794403
5662.9784472654	0.0008062493
5664.9072546384	0.0008279698
5666.8360620115	0.0008794753
5668.7648693845	0.0008268064
5670.6936767576	0.0008093169
5672.6224841306	0.0007967283
5674.5512915036	0.0008113303
5676.4800988767	0.0008433562
5678.4089062497	0.0007558074
5680.3377136228	0.0007833415
5682.2665209958	0.0008075387
5684.1953283689	0.0007512875
5686.1241357419	0.0008027776
5688.0529431150	0.0008494825
5689.9817504880	0.0008120348
5691.9105578611	0.0007738592
5693.8393652341	0.0008175644
5695.7681726072	0.0007684594
5697.6969799802	0.0007667028
5699.6257873533	0.0008224292
5701.5545947263	0.0007614371
5703.4834020993	0.0007973350
5705.4122094724	0.0007717249
5707.3410168454	0.0007659324
5709.2698242185	0.0007794769
5711.1986315915	0.0007455721
5713.1274389646	0.0008117136
5715.0562463376	0.0007887258
5716.9850537107	0.0007781340
5718.9138610837	0.0007551346
5720.8426684568	0.0007374461
5722.7714758298	0.0007482446
5724.7002832029	0.0007665049
5726.6290905759	0.0007792906
5728.5578979490	0.0007003336
5730.4867053220	0.0007604517
5732.4155126950	0.0007176695
5734.3443200681	0.0006768179
5736.2731274411	0.0007560248
5738.2019348142	0.0007339685
5740.1307421872	0.0007620248
5742.0595495603	0.0007168845
5743.9883569333	0.0007045005
5745.9171643064	0.0007380051
5747.8459716794	0.0007272051
5749.7747790525	0.0007026033
5751.7035864255	0.0007002798
5753.6323937986	0.0007356649
5755.5612011716	0.0007098087
5757.4900085447	0.0007481782
5759.4188159177	0.0007431878
5761.3476232907	0.0007350172
5763.2764306638	0.0006807838
5765.2052380368	0.0006350933
5767.1340454099	0.0007257412
5769.0628527829	0.0007090812
5770.9916601560	0.0007645072
5772.9204675290	0.0007671791
5774.8492749021	0.0006873035
5776.7780822751	0.0006482566
5778.7068896482	0.0006342862
5780.6356970212	0.0007182385
5782.5645043943	0.0006454366
5784.4933117673	0.0005869218
5786.4221191404	0.0006402418
5788.3509265134	0.0006542971
5790.2797338865	0.0006398425
5792.2085412595	0.0006343027
5794.1373486325	0.0006910738
5796.0661560056	0.0006889531
5797.9949633786	0.0006788156
5799.9237707517	0.0006987040
5801.8525781247	0.0007014769
5803.7813854978	0.0007177065
5805.7101928708	0.0007233648
5807.6390002439	0.0006629218
5809.5678076169	0.0006530788
5811.4966149900	0.0006739488
5813.4254223630	0.0006045473
5815.3542297361	0.0006395425
5817.2830371091	0.0006608943
5819.2118444822	0.0006626047
5821.1406518552	0.0006901819
5823.0694592282	0.0005827300
5824.9982666013	0.0006100803
5826.9270739743	0.0006569449
5828.8558813474	0.0006017436
5830.7846887204	0.0006509409
5832.7134960935	0.0006287901
5834.6423034665	0.0006108112
5836.5711108396	0.0006653091
5838.4999182126	0.0006510748
5840.4287255857	0.0006286830
5842.3575329587	0.0005971479
5844.2863403318	0.0006607625
5846.2151477048	0.0006348414
5848.1439550779	0.0005392029
5850.0727624509	0.0006497913
5852.0015698239	0.0006320705
5853.9303771970	0.0005774831
5855.8591845700	0.0005780661
5857.7879919431	0.0005583178
5859.7167993161	0.0006303678
5861.6456066892	0.0006051860
5863.5744140622	0.0005515894
5865.5032214353	0.0005672850
5867.4320288083	0.0005898220
5869.3608361814	0.0005623974
5871.2896435544	0.0005745363
5873.2184509275	0.0005563780
5875.1472583005	0.0005259658
5877.0760656736	0.0006218466
5879.0048730466	0.0005819621
5880.9336804196	0.0005729908
5882.8624877927	0.0005893322
5884.7912951657	0.0005622809
5886.7201025388	0.0005545499
5888.6489099118	0.0005111313
5890.5777172849	0.0005759213
5892.5065246579	0.0005655516
5894.4353320310	0.0005494065
5896.3641394040	0.0005740620
5898.2929467771	0.0005804886
5900.2217541501	0.0005247531
5902.1505615232	0.0004805674
5904.0793688962	0.0005710375
5906.0081762693	0.0005771612
5907.9369836423	0.0006158883
5909.8657910154	0.0005486903
5911.7945983884	0.0005110611
5913.7234057614	0.0005527873
5915.6522131345	0.0005212072
5917.5810205075	0.0005977334
5919.5098278806	0.0005114515
5921.4386352536	0.0005069560
5923.3674426267	0.0005634307
5925.2962499997	0.0005108578
5927.2250573728	0.0005134950
5929.1538647458	0.0005399017
5931.0826721189	0.0005591249
5933.0114794919	0.0004610532
5934.9402868650	0.0005014277
5936.8690942380	0.0005150910
5938.7979016111	0.0004902906
5940.7267089841	0.0005431606
5942.6555163571	0.0005649327
5944.5843237302	0.0006230726
5946.5131311032	0.0005272925
5948.4419384763	0.0004978464
5950.3707458493	0.0005226302
5952.2995532224	0.0005354203
5954.2283605954	0.0004977905
5956.1571679685	0.0004168552
5958.0859753415	0.0005107081
5960.0147827146	0.0004732423
5961.9435900876	0.0004508742
5963.8723974607	0.0004716294
5965.8012048337	0.0004341557
5967.7300122068	0.0004655028
5969.6588195798	0.0004474423
5971.5876269528	0.0004416086
5973.5164343259	0.0004345787
5975.4452416989	0.0004831984
5977.3740490720	0.0005393811
5979.3028564450	0.0004811028
5981.2316638181	0.0004842642
5983.1604711911	0.0005744027
5985.0892785642	0.0005186790
5987.0180859372	0.0004712854
5988.9468933103	0.0005453139
5990.8757006833	0.0004952530
5992.8045080564	0.0004878130
5994.7333154294	0.0005031941
5996.6621228025	0.0005275477
5998.5909301755	0.0005510589
6000.5197375485	0.0004547271
