399.2631262207	0.0017296989
401.1919335938	0.0028478268
403.1207409668	0.0022807596
405.0495483398	0.0021535172
406.9783557129	0.0024194084
408.9071630859	0.0026830230
410.8359704590	0.0025344752
412.7647778320	0.0027146039
414.6935852051	0.0029523834
416.6223925781	0.0024941070
418.5511999512	0.0028949806
420.4800073242	0.0027278517
422.4088146973	0.0033489917
424.3376220703	0.0034053114
426.2664294434	0.0029782131
428.1952368164	0.0034251534
430.1240441895	0.0029601394
432.0528515625	0.0032652817
433.9816589355	0.0032856902
435.9104663086	0.0033866756
437.8392736816	0.0031357184
439.7680810547	0.0030926573
441.6968884277	0.0036038482
443.6256958008	0.0027432786
445.5545031738	0.0029676799
447.4833105469	0.0027542152
449.4121179199	0.0025951553
451.3409252930	0.0024361857
453.2697326660	0.0018652549
455.1985400391	0.0025188036
457.1273474121	0.0020741676
459.0561547852	0.0020742069
460.9849621582	0.0020969524
462.9137695313	0.0018758111
464.8425769043	0.0022927604
466.7713842773	0.0017820208
468.7001916504	0.0012415738
470.6289990234	0.0009871938
472.5578063965	0.0013460144
474.4866137695	0.0014842364
476.4154211426	0.0012185781
478.3442285156	0.0012314206
480.2730358887	0.0010121731
482.2018432617	0.0009430513
484.1306506348	0.0010559675
486.0594580078	0.0008614115
487.9882653809	0.0001038968
489.9170727539	0.0002283973
491.8458801270	0.0005944896
493.7746875000	0.0005108553
495.7034948730	0.0008648540
497.6323022461	0.0007286188
499.5611096191	0.0008082411
501.4899169922	0.0007855934
503.4187243652	0.0005404106
505.3475317383	0.0005482877
507.2763391113	0.0003081893
509.2051464844	0.0007467588
511.1339538574	0.0007476304
513.0627612305	0.0004816688
514.9915686035	0.0006881565
516.9203759766	0.0001934113
518.8491833496	0.0000320485
520.7779907227	0.0003917478
522.7067980957	0.0004424661
524.6356054688	0.0005573703
526.5644128418	0.0006383735
528.4932202148	0.0006560617
530.4220275879	0.0005678261
532.3508349609	0.0001743710
534.2796423340	-0.0000147170
536.2084497070	0.0003018086
538.1372570801	0.0005964652
540.0660644531	0.0005602217
541.9948718262	0.0007434412
543.9236791992	0.0008189812
545.8524865723	0.0005499736
547.7812939453	0.0005685686
549.7101013184	0.0004822240
551.6389086914	0.0002703262
553.5677160645	0.0004541758
555.4965234375	0.0006898427
557.4253308105	0.0004107399
559.3541381836	0.0003429821
561.2829455566	0.0005754136
563.2117529297	0.0004874379
565.1405603027	0.0006396611
567.0693676758	0.0006510242
568.9981750488	0.0005097124
570.9269824219	0.0004796587
572.8557897949	0.0004221615
574.7845971680	0.0002277934
576.7134045410	0.0001927520
578.6422119141	0.0006192514
580.5710192871	0.0004938357
582.4998266602	0.0004044395
584.4286340332	0.0003399617
586.3574414063	0.0003728558
588.2862487793	0.0003840535
590.2150561523	0.0002934662
592.1438635254	0.0009351476
594.0726708984	0.0002729411
596.0014782715	-0.0000303508
597.9302856445	0.0003945730
599.8590930176	0.0000813963
601.7879003906	0.0004128896
603.7167077637	0.0003498116
605.6455151367	0.0004834215
607.5743225098	0.0004935747
609.5031298828	0.0007098907
611.4319372559	0.0007253793
613.3607446289	0.0000736810
615.2895520020	0.0003538702
617.2183593750	0.0002741847
619.1471667480	0.0001472987
621.0759741211	-0.0000814384
623.0047814941	-0.0000507543
624.9335888672	0.0003554585
626.8623962402	0.0002555802
628.7912036133	-0.0000129027
630.7200109863	0.0007980115
632.6488183594	0.0017230846
634.5776257324	0.0017456589
636.5064331055	0.0025049527
638.4352404785	0.0025742282
640.3640478516	0.0024526943
642.2928552246	0.0029076552
644.2216625977	0.0029548521
646.1504699707	0.0034878151
648.0792773438	0.0037581131
650.0080847168	0.0036630845
651.9368920898	0.0040132371
653.8656994629	0.0040947925
655.7945068359	0.0040738522
657.7233142090	0.0043367734
659.6521215820	0.0044629369
661.5809289551	0.0047029881
663.5097363281	0.0051729372
665.4385437012	0.0052699381
667.3673510742	0.0047862702
669.2961584473	0.0051552765
671.2249658203	0.0059349821
673.1537731934	0.0058786329
675.0825805664	0.0062118517
677.0113879395	0.0063002435
678.9401953125	0.0062732105
680.8690026855	0.0064385934
682.7978100586	0.0063882242
684.7266174316	0.0065046242
686.6554248047	0.0062835272
688.5842321777	0.0064537711
690.5130395508	0.0070246099
692.4418469238	0.0075583914
694.3706542969	0.0076002837
696.2994616699	0.0082725901
698.2282690430	0.0096229073
700.1570764160	0.0097835734
702.0858837891	0.0101515325
704.0146911621	0.0099254176
705.9434985352	0.0086186146
707.8723059082	0.0071726758
709.8011132813	0.0057297312
711.7299206543	0.0043238355
713.6587280273	0.0024533235
715.5875354004	0.0013684074
717.5163427734	0.0007441223
719.4451501465	0.0005697901
721.3739575195	0.0005946591
723.3027648926	0.0002467626
725.2315722656	0.0002404499
727.1603796387	0.0001724310
729.0891870117	0.0003135342
731.0179943848	0.0003416422
732.9468017578	0.0003733942
734.8756091309	0.0001368479
736.8044165039	-0.0001378717
738.7332238770	0.0003127924
740.6620312500	0.0002879912
742.5908386230	0.0001249001
744.5196459961	0.0001703531
746.4484533691	0.0003834239
748.3772607422	0.0003960014
750.3060681152	0.0002117181
752.2348754883	0.0003076456
754.1636828613	0.0003653086
756.0924902344	0.0006199329
758.0212976074	0.0004388570
759.9501049805	0.0002728622
761.8789123535	0.0004315469
763.8077197266	0.0003849090
765.7365270996	0.0005308077
767.6653344727	0.0005914519
769.5941418457	0.0005643626
771.5229492188	0.0007811573
773.4517565918	0.0006524480
775.3805639648	0.0003104129
777.3093713379	0.0006211866
779.2381787109	0.0007697043
781.1669860840	0.0006688776
783.0957934570	0.0005960003
785.0246008301	0.0005903227
786.9534082031	0.0007577150
788.8822155762	0.0006700407
790.8110229492	0.0006406055
792.7398303223	0.0005755490
794.6686376953	0.0007006227
796.5974450684	0.0007860993
798.5262524414	0.0012353894
800.4550598145	0.0015380149
802.3838671875	0.0010412593
804.3126745605	0.0012378623
806.2414819336	0.0009618595
808.1702893066	0.0005955588
810.0990966797	0.0008142051
812.0279040527	0.0005649876
813.9567114258	0.0004934337
815.8855187988	0.0006089860
817.8143261719	0.0006058532
819.7431335449	0.0005119144
821.6719409180	0.0003891201
823.6007482910	0.0005279021
825.5295556641	0.0009912028
827.4583630371	0.0010420730
829.3871704102	0.0012634243
831.3159777832	0.0015678356
833.2447851563	0.0018036687
835.1735925293	0.0024157825
837.1023999023	0.0020769530
839.0312072754	0.0020926958
840.9600146484	0.0022620526
842.8888220215	0.0018489301
844.8176293945	0.0019046146
846.7464367676	0.0016962362
848.6752441406	0.0016786619
850.6040515137	0.0016522242
852.5328588867	0.0014679231
854.4616662598	0.0014205583
856.3904736328	0.0011764193
858.3192810059	0.0010105089
860.2480883789	0.0008509911
862.1768957520	0.0007979493
864.1057031250	0.0008448187
866.0345104980	0.0007112100
867.9633178711	0.0005380449
869.8921252441	0.0006542488
871.8209326172	0.0007676219
873.7497399902	0.0007403962
875.6785473633	0.0004730087
877.6073547363	0.0004660108
879.5361621094	0.0006379401
881.4649694824	0.0004116846
883.3937768555	0.0005415910
885.3225842285	0.0004833236
887.2513916016	0.0004905001
889.1801989746	0.0005044385
891.1090063477	0.0004131524
893.0378137207	0.0006471694
894.9666210938	0.0004635279
896.8954284668	0.0004587740
898.8242358398	0.0003918708
900.7530432129	0.0004033375
902.6818505859	0.0005687501
904.6106579590	0.0006440345
906.5394653320	0.0009326619
908.4682727051	0.0008934891
910.3970800781	0.0008199739
912.3258874512	0.0010388348
914.2546948242	0.0014782320
916.1835021973	0.0012743336
918.1123095703	0.0012049868
920.0411169434	0.0015765729
921.9699243164	0.0016609924
923.8987316895	0.0020652972
925.8275390625	0.0020503313
927.7563464355	0.0021632314
929.6851538086	0.0023198016
931.6139611816	0.0022703109
933.5427685547	0.0025123069
935.4715759277	0.0026672943
937.4003833008	0.0030536612
939.3291906738	0.0031420290
941.2579980469	0.0033607809
943.1868054199	0.0034225229
945.1156127930	0.0032314835
947.0444201660	0.0035204198
948.9732275391	0.0033356436
950.9020349121	0.0034282068
952.8308422852	0.0035613151
954.7596496582	0.0031114588
956.6884570313	0.0033329604
958.6172644043	0.0032988023
960.5460717773	0.0028964845
962.4748791504	0.0031947193
964.4036865234	0.0031712437
966.3324938965	0.0030785156
968.2613012695	0.0033493009
970.1901086426	0.0034938906
972.1189160156	0.0037455587
974.0477233887	0.0039852047
975.9765307617	0.0044302093
977.9053381348	0.0048853625
979.8341455078	0.0051573641
981.7629528809	0.0056631723
983.6917602539	0.0063225012
985.6205676270	0.0069272071
987.5493750000	0.0075719841
989.4781823730	0.0082786977
991.4069897461	0.0092566144
993.3357971191	0.0105033480
995.2646044922	0.0113342907
997.1934118652	0.0121847875
999.1222192383	0.0129854949
1001.0510266113	0.0140888132
1002.9798339844	0.0153375026
1004.9086413574	0.0161121227
1006.8374487305	0.0174058750
1008.7662561035	0.0182427056
1010.6950634766	0.0192719884
1012.6238708496	0.0204119645
1014.5526782227	0.0212016329
1016.4814855957	0.0227086209
1018.4102929688	0.0237681717
1020.3391003418	0.0247827880
1022.2679077148	0.0256452821
1024.1967150879	0.0266947616
1026.1255224609	0.0276243743
1028.0543298340	0.0282076970
1029.9831372070	0.0295042396
1031.9119445801	0.0300239865
1033.8407519531	0.0306189470
1035.7695593262	0.0312906690
1037.6983666992	0.0314409174
1039.6271740723	0.0316961482
1041.5559814453	0.0316135958
1043.4847888184	0.0313633606
1045.4135961914	0.0309537351
1047.3424035645	0.0305378661
1049.2712109375	0.0300506316
1051.2000183105	0.0295435358
1053.1288256836	0.0288126487
1055.0576330566	0.0284746662
1056.9864404297	0.0280706882
1058.9152478027	0.0271527562
1060.8440551758	0.0264793336
1062.7728625488	0.0253084488
1064.7016699219	0.0245822798
1066.6304772949	0.0238290988
1068.5592846680	0.0229401663
1070.4880920410	0.0221012570
1072.4168994141	0.0207113437
1074.3457067871	0.0199895762
1076.2745141602	0.0190445781
1078.2033215332	0.0180750974
1080.1321289062	0.0174273029
1082.0609362793	0.0166389272
1083.9897436523	0.0158587117
1085.9185510254	0.0150258774
1087.8473583984	0.0143857822
1089.7761657715	0.0137089286
1091.7049731445	0.0130801061
1093.6337805176	0.0122973323
1095.5625878906	0.0120181097
1097.4913952637	0.0118458811
1099.4202026367	0.0112589058
1101.3490100098	0.0109942304
1103.2778173828	0.0107146446
1105.2066247559	0.0105643068
1107.1354321289	0.0103448778
1109.0642395019	0.0101409853
1110.9930468750	0.0102133695
1112.9218542480	0.0100308992
1114.8506616211	0.0096870083
1116.7794689941	0.0099477842
1118.7082763672	0.0100950021
1120.6370837402	0.0099435598
1122.5658911133	0.0102203228
1124.4946984863	0.0100939907
1126.4235058594	0.0103669632
1128.3523132324	0.0107233236
1130.2811206055	0.0106332377
1132.2099279785	0.0109903719
1134.1387353516	0.0113396756
1136.0675427246	0.0118257497
1137.9963500977	0.0124993436
1139.9251574707	0.0131170917
1141.8539648437	0.0139446352
1143.7827722168	0.0151356310
1145.7115795898	0.0157614928
1147.6403869629	0.0167083312
1149.5691943359	0.0179637708
1151.4980017090	0.0184610244
1153.4268090820	0.0196695141
1155.3556164551	0.0205784515
1157.2844238281	0.0212178640
1159.2132312012	0.0220694728
1161.1420385742	0.0227652676
1163.0708459473	0.0237085968
1164.9996533203	0.0243279804
1166.9284606934	0.0252905861
1168.8572680664	0.0263887588
1170.7860754394	0.0273758769
1172.7148828125	0.0283284411
1174.6436901855	0.0293485988
1176.5724975586	0.0305255726
1178.5013049316	0.0315688848
1180.4301123047	0.0327427909
1182.3589196777	0.0340716168
1184.2877270508	0.0356206149
1186.2165344238	0.0372109190
1188.1453417969	0.0392048061
1190.0741491699	0.0408052169
1192.0029565430	0.0425501950
1193.9317639160	0.0447856151
1195.8605712891	0.0466191806
1197.7893786621	0.0489666238
1199.7181860351	0.0509372950
1201.6469934082	0.0530503727
1203.5758007812	0.0553084612
1205.5046081543	0.0573425591
1207.4334155273	0.0596608147
1209.3622229004	0.0614701360
1211.2910302734	0.0633568391
1213.2198376465	0.0651559830
1215.1486450195	0.0668165460
1217.0774523926	0.0682629719
1219.0062597656	0.0695017949
1220.9350671387	0.0705092847
1222.8638745117	0.0713617131
1224.7926818848	0.0718934983
1226.7214892578	0.0722024441
1228.6502966308	0.0731931478
1230.5791040039	0.0732237026
1232.5079113769	0.0732367635
1234.4367187500	0.0734708756
1236.3655261230	0.0732276663
1238.2943334961	0.0734023601
1240.2231408691	0.0731638670
1242.1519482422	0.0727574006
1244.0807556152	0.0722291470
1246.0095629883	0.0721472949
1247.9383703613	0.0718179271
1249.8671777344	0.0711432621
1251.7959851074	0.0706224740
1253.7247924805	0.0697248727
1255.6535998535	0.0691177249
1257.5824072266	0.0681147054
1259.5112145996	0.0668954030
1261.4400219726	0.0658495873
1263.3688293457	0.0652814955
1265.2976367187	0.0643355548
1267.2264440918	0.0633825958
1269.1552514648	0.0627507716
1271.0840588379	0.0613204390
1273.0128662109	0.0605274178
1274.9416735840	0.0593485758
1276.8704809570	0.0582867712
1278.7992883301	0.0571557358
1280.7280957031	0.0558081195
1282.6569030762	0.0552266277
1284.5857104492	0.0538139790
1286.5145178223	0.0528372377
1288.4433251953	0.0519077554
1290.3721325683	0.0512065664
1292.3009399414	0.0509025715
1294.2297473144	0.0503582656
1296.1585546875	0.0500519499
1298.0873620605	0.0500218645
1300.0161694336	0.0504657850
1301.9449768066	0.0502668172
1303.8737841797	0.0508122221
1305.8025915527	0.0513069555
1307.7313989258	0.0517255217
1309.6602062988	0.0529968068
1311.5890136719	0.0535160676
1313.5178210449	0.0546150729
1315.4466284180	0.0561525486
1317.3754357910	0.0574299209
1319.3042431640	0.0586734638
1321.2330505371	0.0605862923
1323.1618579101	0.0624825209
1325.0906652832	0.0641048849
1327.0194726562	0.0660832822
1328.9482800293	0.0676105544
1330.8770874023	0.0695279464
1332.8058947754	0.0712119043
1334.7347021484	0.0724530667
1336.6635095215	0.0731621087
1338.5923168945	0.0731846690
1340.5211242676	0.0740794018
1342.4499316406	0.0762234926
1344.3787390137	0.0770721138
1346.3075463867	0.0765217245
1348.2363537597	0.0768127590
1350.1651611328	0.0761210173
1352.0939685058	0.0757709220
1354.0227758789	0.0752762109
1355.9515832519	0.0741281360
1357.8803906250	0.0742861778
1359.8091979980	0.0733286738
1361.7380053711	0.0703309402
1363.6668127441	0.0694094449
1365.5956201172	0.0722067952
1367.5244274902	0.0707618892
1369.4532348633	0.0699112788
1371.3820422363	0.0709239393
1373.3108496094	0.0675723776
1375.2396569824	0.0682607815
1377.1684643555	0.0693243593
1379.0972717285	0.0690685213
1381.0260791015	0.0693305880
1382.9548864746	0.0688898712
1384.8836938476	0.0690404922
1386.8125012207	0.0665033683
1388.7413085937	0.0675602183
1390.6701159668	0.0718266666
1392.5989233398	0.0705985874
1394.5277307129	0.0672648177
1396.4565380859	0.0697910637
1398.3853454590	0.0700598136
1400.3141528320	0.0695390180
1402.2429602051	0.0739449486
1404.1717675781	0.0706790462
1406.1005749512	0.0708981454
1408.0293823242	0.0730770826
1409.9581896972	0.0710723996
1411.8869970703	0.0719653517
1413.8158044433	0.0697071403
1415.7446118164	0.0707764477
1417.6734191894	0.0648635179
1419.6022265625	0.0594493859
1421.5310339355	0.0659069642
1423.4598413086	0.0640833005
1425.3886486816	0.0622812286
1427.3174560547	0.0623528510
1429.2462634277	0.0583552532
1431.1750708008	0.0565681197
1433.1038781738	0.0569482669
1435.0326855469	0.0524985343
1436.9614929199	0.0459361896
1438.8903002929	0.0502621643
1440.8191076660	0.0509510487
1442.7479150390	0.0478218645
1444.6767224121	0.0494056568
1446.6055297851	0.0462104604
1448.5343371582	0.0464147665
1450.4631445312	0.0478679091
1452.3919519043	0.0490724295
1454.3207592773	0.0508852601
1456.2495666504	0.0438922606
1458.1783740234	0.0458495654
1460.1071813965	0.0582270660
1462.0359887695	0.0616300926
1463.9647961426	0.0621906146
1465.8936035156	0.0647142753
1467.8224108886	0.0726357996
1469.7512182617	0.0780072361
1471.6800256347	0.0722638667
1473.6088330078	0.0761592835
1475.5376403808	0.0850575641
1477.4664477539	0.0912567973
1479.3952551269	0.0988938510
1481.3240625000	0.1010861993
1483.2528698730	0.1069741845
1485.1816772461	0.1105626449
1487.1104846191	0.1102122441
1489.0392919922	0.1106929034
1490.9680993652	0.1119895875
1492.8969067383	0.1262209266
1494.8257141113	0.1247424334
1496.7545214843	0.1152857691
1498.6833288574	0.1278713942
1500.6121362304	0.1315964013
1502.5409436035	0.1392332166
1504.4697509765	0.1336148381
1506.3985583496	0.1046357900
1508.3273657226	0.1228831261
1510.2561730957	0.1396711171
1512.1849804687	0.1359924972
1514.1137878418	0.1453058571
1516.0425952148	0.1341734529
1517.9714025879	0.1391376406
1519.9002099609	0.1347371340
1521.8290173340	0.1209075898
1523.7578247070	0.1415355802
1525.6866320801	0.1397234946
1527.6154394531	0.1395987719
1529.5442468261	0.1506409496
1531.4730541992	0.1463359892
1533.4018615722	0.1368196309
1535.3306689453	0.1429814249
1537.2594763183	0.1504660845
1539.1882836914	0.1157937944
1541.1170910644	0.1199692860
1543.0458984375	0.1386820674
1544.9747058105	0.1343175769
1546.9035131836	0.1529483199
1548.8323205566	0.1450231969
1550.7611279297	0.1486280113
1552.6899353027	0.1477301419
1554.6187426758	0.1371031553
1556.5475500488	0.1449347138
1558.4763574218	0.1107055396
1560.4051647949	0.1166703105
1562.3339721679	0.1539375186
1564.2627795410	0.1473157108
1566.1915869140	0.1504220068
1568.1203942871	0.1492691487
1570.0492016601	0.1358545572
1571.9780090332	0.1517193913
1573.9068164062	0.1530597359
1575.8356237793	0.1270006895
1577.7644311523	0.1400020123
1579.6932385254	0.1546967477
1581.6220458984	0.1486890912
1583.5508532715	0.1523495317
1585.4796606445	0.1500909328
1587.4084680175	0.1508854628
1589.3372753906	0.1502518654
1591.2660827636	0.1499022543
1593.1948901367	0.1502611488
1595.1236975097	0.1484874785
1597.0525048828	0.1501805782
1598.9813122558	0.1493245959
1600.9101196289	0.1501058638
1602.8389270019	0.1479832530
1604.7677343750	0.1498465091
1606.6965417480	0.1481716037
1608.6253491211	0.1480859071
1610.5541564941	0.1479913294
1612.4829638672	0.1483619809
1614.4117712402	0.1502621174
1616.3405786132	0.1276514232
1618.2693859863	0.1361419261
1620.1981933593	0.1538424194
1622.1270007324	0.1396630108
1624.0558081054	0.1407210827
1625.9846154785	0.1455658376
1627.9134228515	0.1456835866
1629.8422302246	0.1446406394
1631.7710375976	0.1522201002
1633.6998449707	0.1429328322
1635.6286523437	0.1226723045
1637.5574597168	0.1388593018
1639.4862670898	0.1491439044
1641.4150744629	0.1461930722
1643.3438818359	0.1496210694
1645.2726892090	0.1375278533
1647.2014965820	0.1247629970
1649.1303039550	0.1482530385
1651.0591113281	0.1411491334
1652.9879187011	0.0996829271
1654.9167260742	0.1272168756
1656.8455334472	0.1525077820
1658.7743408203	0.1464829743
1660.7031481933	0.1504566222
1662.6319555664	0.1394182444
1664.5607629394	0.1455820948
1666.4895703125	0.1536388844
1668.4183776855	0.1383312047
1670.3471850586	0.1353674829
1672.2759924316	0.1490700841
1674.2047998047	0.1402757764
1676.1336071777	0.1354682446
1678.0624145507	0.1514230967
1679.9912219238	0.1468639672
1681.9200292968	0.1459951103
1683.8488366699	0.1235670969
1685.7776440429	0.1219140291
1687.7064514160	0.1576502472
1689.6352587890	0.1405145675
1691.5640661621	0.1512740850
1693.4928735351	0.1536034495
1695.4216809082	0.1194236949
1697.3504882812	0.1409456134
1699.2792956543	0.1278763115
1701.2081030273	0.1177872494
1703.1369104004	0.1501373500
1705.0657177734	0.1401987374
1706.9945251464	0.1406435072
1708.9233325195	0.1502007842
1710.8521398925	0.1449195743
1712.7809472656	0.1470020115
1714.7097546386	0.1388310790
1716.6385620117	0.1269543171
1718.5673693847	0.1252528280
1720.4961767578	0.1435087919
1722.4249841308	0.1475490034
1724.3537915039	0.1388882101
1726.2825988769	0.1481077373
1728.2114062500	0.1388882697
1730.1402136230	0.1400748491
1732.0690209961	0.1364905536
1733.9978283691	0.1104422212
1735.9266357421	0.1305641532
1737.8554431152	0.1416501701
1739.7842504882	0.1292150319
1741.7130578613	0.1382655501
1743.6418652343	0.1403094828
1745.5706726074	0.1403635144
1747.4994799804	0.1419197619
1749.4282873535	0.1370359659
1751.3570947265	0.1321283132
1753.2859020996	0.1434816718
1755.2147094726	0.1485999525
1757.1435168457	0.1384260654
1759.0723242187	0.1490169615
1761.0011315918	0.1420904696
1762.9299389648	0.1380429864
1764.8587463379	0.1533322632
1766.7875537109	0.1413471401
1768.7163610839	0.1422200352
1770.6451684570	0.1417527944
1772.5739758300	0.1300690770
1774.5027832031	0.1416604072
1776.4315905761	0.1481658816
1778.3603979492	0.1461457014
1780.2892053222	0.1449427307
1782.2180126953	0.1456554532
1784.1468200683	0.1456506103
1786.0756274414	0.1434663236
1788.0044348144	0.1489172280
1789.9332421875	0.1461773962
1791.8620495605	0.1352741867
1793.7908569336	0.1395957470
1795.7196643066	0.1475514323
1797.6484716796	0.1459704041
1799.5772790527	0.1443164945
1801.5060864257	0.1423704028
1803.4348937988	0.1456414461
1805.3637011718	0.1481865048
1807.2925085449	0.1466247886
1809.2213159179	0.1469668448
1811.1501232910	0.1439626515
1813.0789306640	0.1473804414
1815.0077380371	0.1478192806
1816.9365454101	0.1464600563
1818.8653527832	0.1475267708
1820.7941601562	0.1469329894
1822.7229675293	0.1486664116
1824.6517749023	0.1411918104
1826.5805822753	0.1449280083
1828.5093896484	0.1450963318
1830.4381970214	0.1381582916
1832.3670043945	0.1473740041
1834.2958117675	0.1465936154
1836.2246191406	0.1464964896
1838.1534265136	0.1458552480
1840.0822338867	0.1464598924
1842.0110412597	0.1466938853
1843.9398486328	0.1337931156
1845.8686560058	0.1402712315
1847.7974633789	0.1460841000
1849.7262707519	0.1436503530
1851.6550781250	0.1468274146
1853.5838854980	0.1446226835
1855.5126928710	0.1457314640
1857.4415002441	0.1449007243
1859.3703076171	0.1442479938
1861.2991149902	0.1448950768
1863.2279223632	0.1434110403
1865.1567297363	0.1445423365
1867.0855371093	0.1409447789
1869.0143444824	0.1365114599
1870.9431518554	0.1404024363
1872.8719592285	0.1443321556
1874.8007666015	0.1426699758
1876.7295739746	0.1431506276
1878.6583813476	0.1425418407
1880.5871887207	0.1419327557
1882.5159960937	0.1428399980
1884.4448034667	0.1411011666
1886.3736108398	0.1425336301
1888.3024182128	0.1399967819
1890.2312255859	0.1379022002
1892.1600329589	0.1417434514
1894.0888403320	0.1401503980
1896.0176477050	0.1394757181
1897.9464550781	0.1406666040
1899.8752624511	0.1400758326
1901.8040698242	0.1402837932
1903.7328771972	0.1395870298
1905.6616845703	0.1398831606
1907.5904919433	0.1386975348
1909.5192993164	0.1382015198
1911.4481066894	0.1389200538
1913.3769140625	0.1386611313
1915.3057214355	0.1397017837
1917.2345288085	0.1349474490
1919.1633361816	0.1348737478
1921.0921435546	0.1388953626
1923.0209509277	0.1353526711
1924.9497583007	0.1374599636
1926.8785656738	0.1385438144
1928.8073730468	0.1371214092
1930.7361804199	0.1382729858
1932.6649877929	0.1368644238
1934.5937951660	0.1379196644
1936.5226025390	0.1370971948
1938.4514099121	0.1373499632
1940.3802172851	0.1371631920
1942.3090246582	0.1338794529
1944.2378320312	0.1356740296
1946.1666394042	0.1367117614
1948.0954467773	0.1364288330
1950.0242541503	0.1366664171
1951.9530615234	0.1364260316
1953.8818688964	0.1364062279
1955.8106762695	0.1360045671
1957.7394836425	0.1362179220
1959.6682910156	0.1358470768
1961.5970983886	0.1357530951
1963.5259057617	0.1360817254
1965.4547131347	0.1353999972
1967.3835205078	0.1343173981
1969.3123278808	0.1350302100
1971.2411352539	0.1357060522
1973.1699426269	0.1350044757
1975.0987499999	0.1351679862
1977.0275573730	0.1347866207
1978.9563647460	0.1348095089
1980.8851721191	0.1345621347
1982.8139794921	0.1340745986
1984.7427868652	0.1343130767
1986.6715942382	0.1334835589
1988.6004016113	0.1337262541
1990.5292089843	0.1329146922
1992.4580163574	0.1315206289
1994.3868237304	0.1328253001
1996.3156311035	0.1330199391
1998.2444384765	0.1324684322
2000.1732458496	0.1325878799
2002.1020532226	0.1320913583
2004.0308605956	0.1319802105
2005.9596679687	0.1315932423
2007.8884753417	0.1311078519
2009.8172827148	0.1311503649
2011.7460900878	0.1307716966
2013.6748974609	0.1305350959
2015.6037048339	0.1297602654
2017.5325122070	0.1291289330
2019.4613195800	0.1295046508
2021.3901269531	0.1292316318
2023.3189343261	0.1289806664
2025.2477416992	0.1287931204
2027.1765490722	0.1283292770
2029.1053564453	0.1283167899
2031.0341638183	0.1279906929
2032.9629711914	0.1276133657
2034.8917785644	0.1275008023
2036.8205859374	0.1271548569
2038.7493933105	0.1268650591
2040.6782006835	0.1263236105
2042.6070080566	0.1261241287
2044.5358154296	0.1261271834
2046.4646228027	0.1256020814
2048.3934301757	0.1255141199
2050.3222375488	0.1252290010
2052.2510449218	0.1249498576
2054.1798522949	0.1247976422
2056.1086596679	0.1244089007
2058.0374670410	0.1242591143
2059.9662744140	0.1240219697
2061.8950817871	0.1239730120
2063.8238891601	0.1233187318
2065.7526965331	0.1229648143
2067.6815039062	0.1230731681
2069.6103112792	0.1227046251
2071.5391186523	0.1226696521
2073.4679260253	0.1222729385
2075.3967333984	0.1220514774
2077.3255407714	0.1218758821
2079.2543481445	0.1215914488
2081.1831555175	0.1214211732
2083.1119628906	0.1210194230
2085.0407702636	0.1209285110
2086.9695776367	0.1206325218
2088.8983850097	0.1203319877
2090.8271923828	0.1201285869
2092.7559997558	0.1199450195
2094.6848071288	0.1197594330
2096.6136145019	0.1196016073
2098.5424218749	0.1193315089
2100.4712292480	0.1191283613
2102.4000366210	0.1191484928
2104.3288439941	0.1186395437
2106.2576513671	0.1186217964
2108.1864587402	0.1184351444
2110.1152661132	0.1180049777
2112.0440734863	0.1178336591
2113.9728808593	0.1174744666
2115.9016882324	0.1174564362
2117.8304956054	0.1171694770
2119.7593029785	0.1172356382
2121.6881103515	0.1171296090
2123.6169177245	0.1168446839
2125.5457250976	0.1167353392
2127.4745324706	0.1163303405
2129.4033398437	0.1162986010
2131.3321472167	0.1160365641
2133.2609545898	0.1160127223
2135.1897619628	0.1158238202
2137.1185693359	0.1155232042
2139.0473767089	0.1155995876
2140.9761840820	0.1154000759
2142.9049914550	0.1152468771
2144.8337988281	0.1149711683
2146.7626062011	0.1148397475
2148.6914135742	0.1147590876
2150.6202209472	0.1146903038
2152.5490283203	0.1144567505
2154.4778356933	0.1142738387
2156.4066430663	0.1141897440
2158.3354504394	0.1139334813
2160.2642578124	0.1138994694
2162.1930651855	0.1135598123
2164.1218725585	0.1135415733
2166.0506799316	0.1134526730
2167.9794873046	0.1131711975
2169.9082946777	0.1131235138
2171.8371020507	0.1128607541
2173.7659094238	0.1128069013
2175.6947167968	0.1126429513
2177.6235241699	0.1124954373
2179.5523315429	0.1122977138
2181.4811389160	0.1122852564
2183.4099462890	0.1122331843
2185.3387536620	0.1118755862
2187.2675610351	0.1116778702
2189.1963684081	0.1114378199
2191.1251757812	0.1114987358
2193.0539831542	0.1113727093
2194.9827905273	0.1111424267
2196.9115979003	0.1109976992
2198.8404052734	0.1108727306
2200.7692126464	0.1107273102
2202.6980200195	0.1106119081
2204.6268273925	0.1106181219
2206.5556347656	0.1102353707
2208.4844421386	0.1101939529
2210.4132495117	0.1101026833
2212.3420568847	0.1100077033
2214.2708642577	0.1098672748
2216.1996716308	0.1095194072
2218.1284790038	0.1095510125
2220.0572863769	0.1093091369
2221.9860937499	0.1092241555
2223.9149011230	0.1089934558
2225.8437084960	0.1088066176
2227.7725158691	0.1087580845
2229.7013232421	0.1085159034
2231.6301306152	0.1084198505
2233.5589379882	0.1082982346
2235.4877453613	0.1082460433
2237.4165527343	0.1077671498
2239.3453601074	0.1076314896
2241.2741674804	0.1075340807
2243.2029748534	0.1072792858
2245.1317822265	0.1071739942
2247.0605895995	0.1067948863
2248.9893969726	0.1067865491
2250.9182043456	0.1065513194
2252.8470117187	0.1063795239
2254.7758190917	0.1062102467
2256.7046264648	0.1060727909
2258.6334338378	0.1060058177
2260.5622412109	0.1057336852
2262.4910485839	0.1057913005
2264.4198559570	0.1055230051
2266.3486633300	0.1053473726
2268.2774707031	0.1051706225
2270.2062780761	0.1050972342
2272.1350854491	0.1049873084
2274.0638928222	0.1048051789
2275.9927001952	0.1048121154
2277.9215075683	0.1044682264
2279.8503149413	0.1046172976
2281.7791223144	0.1043694317
2283.7079296874	0.1041227952
2285.6367370605	0.1040605307
2287.5655444335	0.1036875546
2289.4943518066	0.1036338955
2291.4231591796	0.1032873094
2293.3519665527	0.1030881703
2295.2807739257	0.1026450694
2297.2095812988	0.1023469567
2299.1383886718	0.1020296663
2301.0671960449	0.1015881449
2302.9960034179	0.1013476104
2304.9248107909	0.1005487815
2306.8536181640	0.1001220345
2308.7824255370	0.0992969945
2310.7112329101	0.0983478501
2312.6400402831	0.0974907875
2314.5688476562	0.0965027511
2316.4976550292	0.0956342220
2318.4264624023	0.0941764116
2320.3552697753	0.0931619257
2322.2840771484	0.0918296948
2324.2128845214	0.0906002074
2326.1416918945	0.0897981077
2328.0704992675	0.0885420144
2329.9993066406	0.0875941664
2331.9281140136	0.0867954046
2333.8569213866	0.0865178853
2335.7857287597	0.0861559510
2337.7145361327	0.0860284716
2339.6433435058	0.0861070454
2341.5721508788	0.0862369984
2343.5009582519	0.0875450075
2345.4297656249	0.0890472159
2347.3585729980	0.0925924629
2349.2873803710	0.0954580009
2351.2161877441	0.0922919512
2353.1449951171	0.0877365917
2355.0738024902	0.0847488791
2357.0026098632	0.0821650624
2358.9314172363	0.0806792378
2360.8602246093	0.0797418952
2362.7890319823	0.0795024186
2364.7178393554	0.0800604299
2366.6466467284	0.0810454190
2368.5754541015	0.0826176852
2370.5042614745	0.0844149888
2372.4330688476	0.0866991431
2374.3618762206	0.0891172960
2376.2906835937	0.0912079886
2378.2194909667	0.0932265818
2380.1482983398	0.0949195027
2382.0771057128	0.0958626568
2384.0059130859	0.0962949097
2385.9347204589	0.0966731608
2387.8635278320	0.0966896787
2389.7923352050	0.0966144130
2391.7211425780	0.0965862721
2393.6499499511	0.0963845402
2395.5787573241	0.0962485373
2397.5075646972	0.0961820185
2399.4363720702	0.0960626453
2401.3651794433	0.0958789065
2403.2939868163	0.0957874060
2405.2227941894	0.0955081135
2407.1516015624	0.0954153985
2409.0804089355	0.0953684002
2411.0092163085	0.0950025022
2412.9380236816	0.0949213952
2414.8668310546	0.0948493332
2416.7956384277	0.0948317945
2418.7244458007	0.0946795493
2420.6532531738	0.0945065916
2422.5820605468	0.0944365636
2424.5108679198	0.0941743553
2426.4396752929	0.0941566974
2428.3684826659	0.0939582884
2430.2972900390	0.0937925354
2432.2260974120	0.0937081352
2434.1549047851	0.0935280323
2436.0837121581	0.0935048163
2438.0125195312	0.0933154523
2439.9413269042	0.0932427347
2441.8701342773	0.0930820256
2443.7989416503	0.0928533152
2445.7277490234	0.0928004831
2447.6565563964	0.0926634669
2449.5853637695	0.0926136076
2451.5141711425	0.0924943835
2453.4429785155	0.0921688229
2455.3717858886	0.0920256525
2457.3005932616	0.0921031088
2459.2294006347	0.0919532850
2461.1582080077	0.0916840509
2463.0870153808	0.0915792286
2465.0158227538	0.0915513784
2466.9446301269	0.0914582908
2468.8734374999	0.0913124233
2470.8022448730	0.0911571980
2472.7310522460	0.0909509510
2474.6598596191	0.0909031183
2476.5886669921	0.0908612758
2478.5174743652	0.0906753391
2480.4462817382	0.0904756635
2482.3750891112	0.0903841257
2484.3038964843	0.0903868973
2486.2327038573	0.0902393460
2488.1615112304	0.0901110768
2490.0903186034	0.0899562016
2492.0191259765	0.0897451639
2493.9479333495	0.0896114334
2495.8767407226	0.0894719809
2497.8055480956	0.0894389078
2499.7343554687	0.0892595723
2501.6631628417	0.0890655890
2503.5919702148	0.0890640765
2505.5207775878	0.0888785273
2507.4495849609	0.0888367444
2509.3783923339	0.0888773054
2511.3071997069	0.0886707231
2513.2360070800	0.0884812176
2515.1648144530	0.0883364752
2517.0936218261	0.0882681310
2519.0224291991	0.0880071595
2520.9512365722	0.0878317356
2522.8800439452	0.0878725201
2524.8088513183	0.0877080634
2526.7376586913	0.0876529515
2528.6664660644	0.0874496102
2530.5952734374	0.0872986764
2532.5240808105	0.0873413160
2534.4528881835	0.0871679112
2536.3816955566	0.0870169848
2538.3105029296	0.0868413523
2540.2393103027	0.0867624506
2542.1681176757	0.0866258591
2544.0969250487	0.0864387304
2546.0257324218	0.0864258409
2547.9545397948	0.0863067061
2549.8833471679	0.0860809088
2551.8121545409	0.0860081464
2553.7409619140	0.0860599130
2555.6697692870	0.0858522803
2557.5985766601	0.0856938362
2559.5273840331	0.0856283754
2561.4561914062	0.0854369402
2563.3849987792	0.0853628665
2565.3138061523	0.0852729604
2567.2426135253	0.0850539654
2569.1714208984	0.0849693418
2571.1002282714	0.0849589631
2573.0290356444	0.0846759081
2574.9578430175	0.0845803171
2576.8866503905	0.0845086277
2578.8154577636	0.0842580199
2580.7442651366	0.0841423646
2582.6730725097	0.0840094239
2584.6018798827	0.0839940533
2586.5306872558	0.0838781595
2588.4594946288	0.0836973712
2590.3883020019	0.0835323259
2592.3171093749	0.0835310891
2594.2459167480	0.0833581835
2596.1747241210	0.0830596387
2598.1035314941	0.0831782818
2600.0323388671	0.0829050988
2601.9611462401	0.0829026252
2603.8899536132	0.0829181001
2605.8187609862	0.0825904086
2607.7475683593	0.0826240331
2609.6763757323	0.0823976994
2611.6051831054	0.0823520496
2613.5339904784	0.0822220296
2615.4627978515	0.0820042044
2617.3916052245	0.0819812939
2619.3204125976	0.0817756653
2621.2492199706	0.0816557333
2623.1780273437	0.0815267414
2625.1068347167	0.0814536810
2627.0356420898	0.0812126696
2628.9644494628	0.0811342373
2630.8932568358	0.0811796635
2632.8220642089	0.0809179097
2634.7508715819	0.0808048993
2636.6796789550	0.0808344334
2638.6084863280	0.0807066858
2640.5372937011	0.0804830194
2642.4661010741	0.0804901421
2644.3949084472	0.0802923143
2646.3237158202	0.0801267177
2648.2525231933	0.0800684690
2650.1813305663	0.0798247680
2652.1101379394	0.0798293054
2654.0389453124	0.0796924978
2655.9677526855	0.0795794576
2657.8965600585	0.0794460326
2659.8253674315	0.0793469325
2661.7541748046	0.0794323087
2663.6829821776	0.0791715905
2665.6117895507	0.0790239871
2667.5405969237	0.0789629966
2669.4694042968	0.0787930936
2671.3982116698	0.0786843970
2673.3270190429	0.0785000622
2675.2558264159	0.0783075467
2677.1846337890	0.0782172084
2679.1134411620	0.0781788230
2681.0422485351	0.0780680329
2682.9710559081	0.0778795779
2684.8998632812	0.0778006613
2686.8286706542	0.0777894109
2688.7574780273	0.0775515884
2690.6862854003	0.0773560405
2692.6150927733	0.0773245096
2694.5439001464	0.0772091746
2696.4727075194	0.0770367235
2698.4015148925	0.0770158768
2700.3303222655	0.0770002455
2702.2591296386	0.0768031627
2704.1879370116	0.0766384900
2706.1167443847	0.0764839649
2708.0455517577	0.0764531642
2709.9743591308	0.0763128698
2711.9031665038	0.0762022585
2713.8319738769	0.0761894584
2715.7607812499	0.0759919286
2717.6895886230	0.0759038702
2719.6183959960	0.0755735785
2721.5472033690	0.0754291266
2723.4760107421	0.0754699111
2725.4048181151	0.0753472447
2727.3336254882	0.0753325522
2729.2624328612	0.0751430020
2731.1912402343	0.0750044212
2733.1200476073	0.0747996718
2735.0488549804	0.0747219548
2736.9776623534	0.0746907741
2738.9064697265	0.0744635016
2740.8352770995	0.0743735880
2742.7640844726	0.0741791502
2744.6928918456	0.0740715638
2746.6216992187	0.0740321428
2748.5505065917	0.0739217550
2750.4793139647	0.0738289133
2752.4081213378	0.0737495124
2754.3369287108	0.0736291409
2756.2657360839	0.0735406503
2758.1945434569	0.0733535737
2760.1233508300	0.0730817318
2762.0521582030	0.0730675310
2763.9809655761	0.0728218257
2765.9097729491	0.0726790503
2767.8385803222	0.0727228820
2769.7673876952	0.0725971013
2771.6961950683	0.0724641308
2773.6250024413	0.0722965375
2775.5538098144	0.0722507462
2777.4826171874	0.0720409006
2779.4114245604	0.0718934461
2781.3402319335	0.0717851520
2783.2690393065	0.0717231557
2785.1978466796	0.0716591775
2787.1266540526	0.0714346021
2789.0554614257	0.0713824555
2790.9842687987	0.0710957944
2792.9130761718	0.0710360408
2794.8418835448	0.0709753260
2796.7706909179	0.0707066357
2798.6994982909	0.0706386417
2800.6283056640	0.0704382285
2802.5571130370	0.0702885836
2804.4859204101	0.0701371580
2806.4147277831	0.0701438040
2808.3435351562	0.0700086057
2810.2723425292	0.0697860420
2812.2011499022	0.0697055161
2814.1299572753	0.0695295110
2816.0587646483	0.0694048554
2817.9875720214	0.0691797137
2819.9163793944	0.0691316277
2821.8451867675	0.0690538585
2823.7739941405	0.0689682215
2825.7028015136	0.0688124150
2827.6316088866	0.0685434416
2829.5604162597	0.0684499443
2831.4892236327	0.0681966618
2833.4180310058	0.0682191774
2835.3468383788	0.0681568533
2837.2756457519	0.0678627342
2839.2044531249	0.0676222295
2841.1332604979	0.0673341602
2843.0620678710	0.0672261938
2844.9908752440	0.0669206232
2846.9196826171	0.0665436685
2848.8484899901	0.0662113279
2850.7772973632	0.0659573600
2852.7061047362	0.0659346133
2854.6349121093	0.0658950731
2856.5637194823	0.0657990277
2858.4925268554	0.0656666607
2860.4213342284	0.0655320734
2862.3501416015	0.0654999912
2864.2789489745	0.0654802620
2866.2077563476	0.0653493553
2868.1365637206	0.0652453005
2870.0653710936	0.0651041269
2871.9941784667	0.0650222898
2873.9229858397	0.0648205504
2875.8517932128	0.0646326989
2877.7806005858	0.0646754876
2879.7094079589	0.0645650104
2881.6382153319	0.0645232052
2883.5670227050	0.0643515736
2885.4958300780	0.0642866641
2887.4246374511	0.0642559677
2889.3534448241	0.0640462488
2891.2822521972	0.0639474168
2893.2110595702	0.0636872351
2895.1398669433	0.0635974258
2897.0686743163	0.0633262545
2898.9974816893	0.0632271171
2900.9262890624	0.0632320046
2902.8550964354	0.0628251955
2904.7839038085	0.0628298298
2906.7127111815	0.0626551062
2908.6415185546	0.0623297207
2910.5703259276	0.0620822571
2912.4991333007	0.0617383234
2914.4279406737	0.0614952818
2916.3567480468	0.0611753687
2918.2855554198	0.0610472262
2920.2143627929	0.0609483719
2922.1431701659	0.0607703067
2924.0719775390	0.0606919378
2926.0007849120	0.0606683940
2927.9295922851	0.0605647452
2929.8583996581	0.0605209097
2931.7872070311	0.0605546571
2933.7160144042	0.0604766160
2935.6448217772	0.0605358854
2937.5736291503	0.0605139509
2939.5024365233	0.0604252443
2941.4312438964	0.0605178624
2943.3600512694	0.0604682490
2945.2888586425	0.0603183955
2947.2176660155	0.0603209883
2949.1464733886	0.0601250082
2951.0752807616	0.0599350035
2953.0040881347	0.0598810650
2954.9328955077	0.0595810749
2956.8617028808	0.0594990999
2958.7905102538	0.0593364686
2960.7193176268	0.0590808913
2962.6481249999	0.0589826591
2964.5769323729	0.0588299669
2966.5057397460	0.0588670522
2968.4345471190	0.0587960668
2970.3633544921	0.0588346124
2972.2921618651	0.0589405298
2974.2209692382	0.0589124039
2976.1497766112	0.0589052662
2978.0785839843	0.0588409305
2980.0073913573	0.0588750802
2981.9361987304	0.0588414222
2983.8650061034	0.0588353872
2985.7938134765	0.0588044524
2987.7226208495	0.0586572737
2989.6514282225	0.0585890338
2991.5802355956	0.0585618690
2993.5090429686	0.0584441796
2995.4378503417	0.0583689138
2997.3666577147	0.0583355986
2999.2954650878	0.0581232458
3001.2242724608	0.0580644645
3003.1530798339	0.0579508133
3005.0818872069	0.0577582344
3007.0106945800	0.0576641634
3008.9395019530	0.0576367043
3010.8683093261	0.0575369671
3012.7971166991	0.0572580844
3014.7259240722	0.0572883263
3016.6547314452	0.0571299382
3018.5835388182	0.0569671616
3020.5123461913	0.0569715872
3022.4411535643	0.0567653626
3024.3699609374	0.0566179790
3026.2987683104	0.0564587787
3028.2275756835	0.0564324856
3030.1563830565	0.0561317243
3032.0851904296	0.0560375750
3034.0139978026	0.0561482348
3035.9428051757	0.0558546148
3037.8716125487	0.0558240488
3039.8004199218	0.0557013080
3041.7292272948	0.0555962361
3043.6580346679	0.0556059517
3045.5868420409	0.0553492904
3047.5156494139	0.0551935397
3049.4444567870	0.0551388413
3051.3732641600	0.0550384298
3053.3020715331	0.0550019667
3055.2308789061	0.0548354015
3057.1596862792	0.0546450354
3059.0884936522	0.0547553785
3061.0173010253	0.0544806793
3062.9461083983	0.0543069467
3064.8749157714	0.0543716773
3066.8037231444	0.0540345907
3068.7325305175	0.0540399551
3070.6613378905	0.0540602617
3072.5901452636	0.0538949296
3074.5189526366	0.0537981540
3076.4477600097	0.0536466464
3078.3765673827	0.0534986332
3080.3053747557	0.0532853976
3082.2341821288	0.0532490760
3084.1629895018	0.0532658100
3086.0917968749	0.0531190634
3088.0206042479	0.0529509224
3089.9494116210	0.0528484732
3091.8782189940	0.0527590662
3093.8070263671	0.0526557267
3095.7358337401	0.0524648353
3097.6646411132	0.0523807630
3099.5934484862	0.0523205101
3101.5222558593	0.0520858243
3103.4510632323	0.0520636886
3105.3798706054	0.0519753173
3107.3086779784	0.0518995076
3109.2374853514	0.0517708585
3111.1662927245	0.0515025705
3113.0951000975	0.0515008345
3115.0239074706	0.0513018146
3116.9527148436	0.0511398017
3118.8815222167	0.0510745049
3120.8103295897	0.0508856177
3122.7391369628	0.0508214980
3124.6679443358	0.0507157892
3126.5967517089	0.0505370051
3128.5255590819	0.0504747927
3130.4543664550	0.0504511334
3132.3831738280	0.0501512885
3134.3119812011	0.0500293560
3136.2407885741	0.0500980839
3138.1695959471	0.0498388633
3140.0984033202	0.0496189296
3142.0272106932	0.0495870933
3143.9560180663	0.0494829565
3145.8848254393	0.0493072867
3147.8136328124	0.0491621122
3149.7424401854	0.0490883067
3151.6712475585	0.0489934832
3153.6000549315	0.0487440005
3155.5288623046	0.0486576967
3157.4576696776	0.0486172028
3159.3864770507	0.0484231003
3161.3152844237	0.0482603014
3163.2440917968	0.0481250137
3165.1728991698	0.0480595678
3167.1017065428	0.0478551537
3169.0305139159	0.0478012636
3170.9593212889	0.0476627164
3172.8881286620	0.0474723950
3174.8169360350	0.0474966057
3176.7457434081	0.0471618511
3178.6745507811	0.0470387489
3180.6033581542	0.0469791554
3182.5321655272	0.0468613729
3184.4609729003	0.0467609763
3186.3897802733	0.0464779586
3188.3185876464	0.0464952253
3190.2473950194	0.0464036614
3192.1762023925	0.0463029109
3194.1050097655	0.0461798236
3196.0338171386	0.0459469333
3197.9626245116	0.0459199250
3199.8914318846	0.0458970033
3201.8202392577	0.0458032675
3203.7490466307	0.0456783399
3205.6778540038	0.0456148237
3207.6066613768	0.0453251079
3209.5354687499	0.0452569015
3211.4642761229	0.0453072079
3213.3930834960	0.0450902507
3215.3218908690	0.0450609252
3217.2506982421	0.0448629297
3219.1795056151	0.0447970890
3221.1083129882	0.0448466614
3223.0371203612	0.0446734726
3224.9659277343	0.0446346924
3226.8947351073	0.0445678532
3228.8235424803	0.0444799438
3230.7523498534	0.0444234535
3232.6811572264	0.0442800000
3234.6099645995	0.0441784374
3236.5387719725	0.0442445353
3238.4675793456	0.0441125631
3240.3963867186	0.0438909456
3242.3251940917	0.0439281836
3244.2540014647	0.0437375605
3246.1828088378	0.0436241254
3248.1116162108	0.0437885970
3250.0404235839	0.0436648726
3251.9692309569	0.0436070822
3253.8980383300	0.0435419120
3255.8268457030	0.0433334634
3257.7556530760	0.0433664694
3259.6844604491	0.0433409140
3261.6132678221	0.0433387607
3263.5420751952	0.0432589576
3265.4708825682	0.0430821367
3267.3996899413	0.0430293456
3269.3284973143	0.0429444462
3271.2573046874	0.0429555848
3273.1861120604	0.0428027473
3275.1149194335	0.0427214019
3277.0437268065	0.0426867679
3278.9725341796	0.0426554717
3280.9013415526	0.0426392555
3282.8301489257	0.0424354747
3284.7589562987	0.0426765755
3286.6877636717	0.0425080992
3288.6165710448	0.0422438309
3290.5453784178	0.0424384847
3292.4741857909	0.0421898514
3294.4029931639	0.0421469510
3296.3318005370	0.0421271771
3298.2606079100	0.0420149565
3300.1894152831	0.0420578942
3302.1182226561	0.0419478044
3304.0470300292	0.0419014655
3305.9758374022	0.0418444425
3307.9046447753	0.0416805223
3309.8334521483	0.0415716767
3311.7622595214	0.0415998809
3313.6910668944	0.0415755808
3315.6198742675	0.0415388048
3317.5486816405	0.0413814597
3319.4774890135	0.0412976742
3321.4062963866	0.0413705856
3323.3351037596	0.0412103981
3325.2639111327	0.0411101840
3327.1927185057	0.0409979299
3329.1215258788	0.0410043821
3331.0503332518	0.0410389379
3332.9791406249	0.0408938676
3334.9079479979	0.0408366546
3336.8367553710	0.0406592265
3338.7655627440	0.0406672955
3340.6943701171	0.0407510549
3342.6231774901	0.0405967347
3344.5519848632	0.0405137688
3346.4807922362	0.0404425114
3348.4095996092	0.0403090827
3350.3384069823	0.0401927903
3352.2672143553	0.0401820503
3354.1960217284	0.0401826873
3356.1248291014	0.0400845408
3358.0536364745	0.0400467962
3359.9824438475	0.0399616659
3361.9112512206	0.0398120731
3363.8400585936	0.0397431254
3365.7688659667	0.0396518558
3367.6976733397	0.0395342596
3369.6264807128	0.0393523499
3371.5552880858	0.0393883474
3373.4840954589	0.0393950008
3375.4129028319	0.0392165259
3377.3417102049	0.0392273553
3379.2705175780	0.0390602201
3381.1993249510	0.0390513539
3383.1281323241	0.0389841609
3385.0569396971	0.0387664139
3386.9857470702	0.0388114154
3388.9145544432	0.0387527980
3390.8433618163	0.0386172011
3392.7721691893	0.0383385196
3394.7009765624	0.0384490155
3396.6297839354	0.0384519547
3398.5585913085	0.0381793492
3400.4873986815	0.0382254496
3402.4162060546	0.0380862653
3404.3450134276	0.0380289666
3406.2738208006	0.0379654430
3408.2026281737	0.0379570797
3410.1314355467	0.0378170945
3412.0602429198	0.0377608240
3413.9890502928	0.0378259048
3415.9178576659	0.0375886559
3417.8466650389	0.0376500264
3419.7754724120	0.0373671427
3421.7042797850	0.0372444317
3423.6330871581	0.0373687521
3425.5618945311	0.0371909328
3427.4907019042	0.0371430367
3429.4195092772	0.0370828956
3431.3483166503	0.0371275097
3433.2771240233	0.0369529873
3435.2059313963	0.0368260667
3437.1347387694	0.0367364287
3439.0635461424	0.0367707089
3440.9923535155	0.0366861895
3442.9211608885	0.0364429951
3444.8499682616	0.0365730301
3446.7787756346	0.0361567140
3448.7075830077	0.0361202136
3450.6363903807	0.0364768170
3452.5651977538	0.0364003219
3454.4940051268	0.0362517461
3456.4228124999	0.0361500680
3458.3516198729	0.0362034328
3460.2804272460	0.0359856859
3462.2092346190	0.0359688327
3464.1380419921	0.0359919704
3466.0668493651	0.0358908661
3467.9956567381	0.0358185321
3469.9244641112	0.0358275846
3471.8532714842	0.0358998142
3473.7820788573	0.0356627181
3475.7108862303	0.0356909931
3477.6396936034	0.0357579365
3479.5685009764	0.0355977714
3481.4973083495	0.0352524742
3483.4261157225	0.0354241990
3485.3549230956	0.0356613621
3487.2837304686	0.0353004001
3489.2125378417	0.0353966653
3491.1413452147	0.0353593603
3493.0701525878	0.0353738740
3494.9989599608	0.0353766493
3496.9277673338	0.0352139287
3498.8565747069	0.0353374556
3500.7853820799	0.0351943299
3502.7141894530	0.0347936079
3504.6429968260	0.0347567722
3506.5718041991	0.0352702513
3508.5006115721	0.0349625647
3510.4294189452	0.0348032638
3512.3582263182	0.0350467972
3514.2870336913	0.0349004604
3516.2158410643	0.0350954309
3518.1446484374	0.0349119380
3520.0734558104	0.0349748060
3522.0022631835	0.0348382592
3523.9310705565	0.0344358757
3525.8598779295	0.0345691592
3527.7886853026	0.0344925299
3529.7174926756	0.0345308259
3531.6463000487	0.0346697532
3533.5751074217	0.0348899662
3535.5039147948	0.0346805751
3537.4327221678	0.0344506092
3539.3615295409	0.0348511599
3541.2903369139	0.0348014683
3543.2191442870	0.0344513692
3545.1479516600	0.0339794569
3547.0767590331	0.0336972624
3549.0055664061	0.0344922915
3550.9343737792	0.0346404314
3552.8631811522	0.0339343213
3554.7919885252	0.0343488157
3556.7207958983	0.0344840735
3558.6496032713	0.0344255380
3560.5784106444	0.0343652964
3562.5072180174	0.0340428874
3564.4360253905	0.0341453105
3566.3648327635	0.0325110182
3568.2936401366	0.0318567678
3570.2224475096	0.0337597430
3572.1512548827	0.0343521461
3574.0800622557	0.0340367481
3576.0088696288	0.0340318233
3577.9376770018	0.0340153128
3579.8664843749	0.0341101736
3581.7952917479	0.0340801924
3583.7240991210	0.0341126695
3585.6529064940	0.0334828347
3587.5817138670	0.0315632597
3589.5105212401	0.0321531519
3591.4393286131	0.0341132879
3593.3681359862	0.0334972963
3595.2969433592	0.0330316313
3597.2257507323	0.0334219113
3599.1545581053	0.0336128771
3601.0833654784	0.0334251337
3603.0121728514	0.0335564762
3604.9409802245	0.0340638533
3606.8697875975	0.0331437103
3608.7985949706	0.0315862969
3610.7274023436	0.0321552493
3612.6562097167	0.0326726437
3614.5850170897	0.0320955217
3616.5138244627	0.0337140411
3618.4426318358	0.0317731649
3620.3714392088	0.0309555344
3622.3002465819	0.0337232947
3624.2290539549	0.0330698639
3626.1578613280	0.0342427120
3628.0866687010	0.0302341767
3630.0154760741	0.0281338766
3631.9442834471	0.0335632078
3633.8730908202	0.0328858793
3635.8018981932	0.0331791267
3637.7307055663	0.0338374414
3639.6595129393	0.0332641825
3641.5883203124	0.0335790738
3643.5171276854	0.0331862792
3645.4459350584	0.0333891250
3647.3747424315	0.0308557972
3649.3035498045	0.0287751816
3651.2323571776	0.0291216001
3653.1611645506	0.0332021154
3655.0899719237	0.0328610688
3657.0187792967	0.0302073695
3658.9475866698	0.0335705429
3660.8763940428	0.0329255611
3662.8052014159	0.0332886875
3664.7340087889	0.0332049876
3666.6628161620	0.0328608565
3668.5916235350	0.0322649330
3670.5204309081	0.0274658576
3672.4492382811	0.0316782296
3674.3780456541	0.0307547376
3676.3068530272	0.0265834350
3678.2356604002	0.0316466801
3680.1644677733	0.0322793908
3682.0932751463	0.0321868137
3684.0220825194	0.0328937508
3685.9508898924	0.0324344188
3687.8796972655	0.0297473818
3689.8085046385	0.0279050730
3691.7373120116	0.0310315751
3693.6661193846	0.0315319374
3695.5949267577	0.0321097076
3697.5237341307	0.0321832970
3699.4525415038	0.0318582468
3701.3813488768	0.0313050449
3703.3101562499	0.0303390138
3705.2389636229	0.0325997025
3707.1677709959	0.0313757136
3709.0965783690	0.0308539681
3711.0253857420	0.0293942224
3712.9541931151	0.0279051326
3714.8830004881	0.0315796882
3716.8118078612	0.0311676618
3718.7406152342	0.0313383825
3720.6694226073	0.0307859629
3722.5982299803	0.0300050378
3724.5270373534	0.0308701321
3726.4558447264	0.0290757231
3728.3846520995	0.0309737846
3730.3134594725	0.0305257849
3732.2422668456	0.0285734944
3734.1710742186	0.0281974170
3736.0998815916	0.0270860754
3738.0286889647	0.0281311534
3739.9574963377	0.0299706943
3741.8863037108	0.0311588105
3743.8151110838	0.0254607257
3745.7439184569	0.0243671983
3747.6727258299	0.0298226718
3749.6015332030	0.0264853388
3751.5303405760	0.0248534791
3753.4591479491	0.0276233535
3755.3879553221	0.0292726383
3757.3167626952	0.0301628374
3759.2455700682	0.0284421500
3761.1743774413	0.0291885547
3763.1031848143	0.0305055752
3765.0319921873	0.0289221518
3766.9607995604	0.0293355882
3768.8896069334	0.0290419105
3770.8184143065	0.0280911289
3772.7472216795	0.0298379585
3774.6760290526	0.0297617204
3776.6048364256	0.0297113135
3778.5336437987	0.0291457232
3780.4624511717	0.0283121504
3782.3912585448	0.0296159424
3784.3200659178	0.0290715080
3786.2488732909	0.0289474688
3788.1776806639	0.0293944366
3790.1064880370	0.0292918235
3792.0352954100	0.0289995708
3793.9641027830	0.0294375960
3795.8929101561	0.0281268023
3797.8217175291	0.0278145894
3799.7505249022	0.0289186314
3801.6793322752	0.0240876004
3803.6081396483	0.0272531249
3805.5369470213	0.0290550217
3807.4657543944	0.0248295013
3809.3945617674	0.0287156273
3811.3233691405	0.0282384381
3813.2521765135	0.0290294793
3815.1809838866	0.0267120525
3817.1097912596	0.0242131241
3819.0385986327	0.0289421752
3820.9674060057	0.0246584937
3822.8962133787	0.0256156791
3824.8250207518	0.0287378989
3826.7538281248	0.0266008787
3828.6826354979	0.0281119496
3830.6114428709	0.0272816755
3832.5402502440	0.0265650600
3834.4690576170	0.0269903261
3836.3978649901	0.0258531757
3838.3266723631	0.0238089971
3840.2554797362	0.0254291445
3842.1842871092	0.0270246565
3844.1130944823	0.0260172002
3846.0419018553	0.0276050456
3847.9707092284	0.0273062587
3849.8995166014	0.0273902342
3851.8283239745	0.0251126271
3853.7571313475	0.0200505368
3855.6859387205	0.0229009464
3857.6147460936	0.0273279529
3859.5435534666	0.0265844390
3861.4723608397	0.0264587551
3863.4011682127	0.0259385034
3865.3299755858	0.0244917348
3867.2587829588	0.0266654491
3869.1875903319	0.0248677544
3871.1163977049	0.0234934986
3873.0452050780	0.0266692061
3874.9740124510	0.0250732936
3876.9028198241	0.0264550839
3878.8316271971	0.0268532317
3880.7604345702	0.0239471383
3882.6892419432	0.0265345126
3884.6180493162	0.0252225660
3886.5468566893	0.0235606413
3888.4756640623	0.0264827274
3890.4044714354	0.0253864452
3892.3332788084	0.0242442861
3894.2620861815	0.0259060524
3896.1908935545	0.0262107365
3898.1197009276	0.0252997652
3900.0485083006	0.0243204869
3901.9773156737	0.0240815189
3903.9061230467	0.0238080248
3905.8349304198	0.0242059864
3907.7637377928	0.0257418640
3909.6925451659	0.0257609971
3911.6213525389	0.0255350620
3913.5501599119	0.0257553104
3915.4789672850	0.0252815429
3917.4077746580	0.0245758295
3919.3365820311	0.0244990140
3921.2653894041	0.0251932815
3923.1941967772	0.0250034891
3925.1230041502	0.0246934984
3927.0518115233	0.0249205343
3928.9806188963	0.0251223035
3930.9094262694	0.0247065015
3932.8382336424	0.0241015926
3934.7670410155	0.0247591250
3936.6958483885	0.0249194130
3938.6246557616	0.0247734822
3940.5534631346	0.0248365682
3942.4822705076	0.0242263004
3944.4110778807	0.0243138075
3946.3398852537	0.0246011429
3948.2686926268	0.0242013391
3950.1974999998	0.0240909941
3952.1263073729	0.0244171806
3954.0551147459	0.0244666040
3955.9839221190	0.0243098401
3957.9127294920	0.0242626369
3959.8415368651	0.0242850706
3961.7703442381	0.0241021588
3963.6991516112	0.0240153577
3965.6279589842	0.0241661984
3967.5567663573	0.0239806138
3969.4855737303	0.0239951964
3971.4143811034	0.0239761285
3973.3431884764	0.0237734243
3975.2719958494	0.0237478539
3977.2008032225	0.0236380622
3979.1296105955	0.0236983541
3981.0584179686	0.0236694068
3982.9872253416	0.0236274824
3984.9160327147	0.0235698819
3986.8448400877	0.0234906934
3988.7736474608	0.0234908666
3990.7024548338	0.0233515538
3992.6312622069	0.0234203264
3994.5600695799	0.0233716462
3996.4888769530	0.0232479312
3998.4176843260	0.0232204739
4000.3464916991	0.0231805127
4002.2752990721	0.0232413411
4004.2041064451	0.0231282283
4006.1329138182	0.0230367500
4008.0617211912	0.0229679607
4009.9905285643	0.0229075290
4011.9193359373	0.0228953101
4013.8481433104	0.0228165612
4015.7769506834	0.0228183661
4017.7057580565	0.0227066781
4019.6345654295	0.0226665847
4021.5633728026	0.0227160528
4023.4921801756	0.0225636810
4025.4209875487	0.0224925652
4027.3497949217	0.0225151256
4029.2786022948	0.0224642903
4031.2074096678	0.0223647617
4033.1362170408	0.0223343223
4035.0650244139	0.0223459825
4036.9938317869	0.0222657323
4038.9226391600	0.0222254973
4040.8514465330	0.0222319495
4042.7802539061	0.0220961645
4044.7090612791	0.0219713002
4046.6378686522	0.0220659040
4048.5666760252	0.0220177583
4050.4954833983	0.0218984224
4052.4242907713	0.0218614377
4054.3530981444	0.0217705835
4056.2819055174	0.0217959583
4058.2107128905	0.0216576718
4060.1395202635	0.0216303468
4062.0683276365	0.0217109509
4063.9971350096	0.0215869844
4065.9259423826	0.0215812176
4067.8547497557	0.0214683563
4069.7835571287	0.0213989671
4071.7123645018	0.0213486440
4073.6411718748	0.0213018749
4075.5699792479	0.0213571526
4077.4987866209	0.0212922655
4079.4275939940	0.0212306269
4081.3564013670	0.0211272780
4083.2852087401	0.0211318284
4085.2140161131	0.0210923851
4087.1428234862	0.0210480019
4089.0716308592	0.0210495405
4091.0004382323	0.0209421702
4092.9292456053	0.0208961293
4094.8580529783	0.0208549462
4096.7868603514	0.0208110325
4098.7156677244	0.0206911042
4100.6444750975	0.0207589790
4102.5732824705	0.0206954852
4104.5020898436	0.0205661263
4106.4308972166	0.0206157230
4108.3597045897	0.0204735547
4110.2885119627	0.0204879120
4112.2173193358	0.0203799605
4114.1461267088	0.0203753952
4116.0749340819	0.0203964300
4118.0037414549	0.0202234350
4119.9325488280	0.0202121325
4121.8613562010	0.0201466363
4123.7901635740	0.0201948863
4125.7189709471	0.0200560279
4127.6477783201	0.0200417228
4129.5765856932	0.0200601425
4131.5053930662	0.0198944751
4133.4342004393	0.0199405886
4135.3630078123	0.0198563337
4137.2918151854	0.0198270790
4139.2206225584	0.0197961759
4141.1494299315	0.0197800100
4143.0782373045	0.0196687803
4145.0070446776	0.0196253620
4146.9358520506	0.0196389277
4148.8646594237	0.0194506925
4150.7934667967	0.0195512027
4152.7222741697	0.0194759779
4154.6510815428	0.0193930790
4156.5798889158	0.0193827525
4158.5086962889	0.0192339793
4160.4375036619	0.0192147680
4162.3663110350	0.0191984419
4164.2951184080	0.0192111209
4166.2239257811	0.0192141011
4168.1527331541	0.0192152839
4170.0815405272	0.0190007798
4172.0103479002	0.0190066285
4173.9391552733	0.0190487504
4175.8679626463	0.0188849643
4177.7967700194	0.0188790113
4179.7255773924	0.0187402926
4181.6543847654	0.0188303217
4183.5831921385	0.0187731907
4185.5119995115	0.0186600052
4187.4408068846	0.0187003724
4189.3696142576	0.0185474902
4191.2984216307	0.0186139103
4193.2272290037	0.0185588002
4195.1560363768	0.0184381604
4197.0848437498	0.0184551645
4199.0136511229	0.0183904674
4200.9424584959	0.0183548853
4202.8712658690	0.0183732323
4204.8000732420	0.0182481222
4206.7288806151	0.0182225835
4208.6576879881	0.0182309169
4210.5864953611	0.0180639774
4212.5153027342	0.0181229748
4214.4441101072	0.0180131998
4216.3729174803	0.0179604478
4218.3017248533	0.0179692507
4220.2305322264	0.0178932957
4222.1593395994	0.0179274492
4224.0881469725	0.0177716240
4226.0169543455	0.0178614054
4227.9457617186	0.0177652836
4229.8745690916	0.0176803302
4231.8033764647	0.0177149363
4233.7321838377	0.0175226219
4235.6609912108	0.0176466312
4237.5897985838	0.0175978616
4239.5186059569	0.0174719952
4241.4474133299	0.0174470991
4243.3762207029	0.0174253583
4245.3050280760	0.0173746645
4247.2338354490	0.0173010603
4249.1626428221	0.0173680428
4251.0914501951	0.0172719304
4253.0202575682	0.0172207095
4254.9490649412	0.0171934012
4256.8778723143	0.0171715599
4258.8066796873	0.0171851274
4260.7354870604	0.0171586648
4262.6642944334	0.0170951523
4264.5931018065	0.0169871598
4266.5219091795	0.0169637948
4268.4507165526	0.0169293620
4270.3795239256	0.0169392470
4272.3083312986	0.0167806968
4274.2371386717	0.0167457350
4276.1659460447	0.0168078654
4278.0947534178	0.0166952666
4280.0235607908	0.0167014711
4281.9523681639	0.0166221485
4283.8811755369	0.0166276377
4285.8099829100	0.0165522806
4287.7387902830	0.0165165626
4289.6675976561	0.0165677555
4291.5964050291	0.0164079741
4293.5252124022	0.0164712369
4295.4540197752	0.0164202340
4297.3828271483	0.0162526015
4299.3116345213	0.0162763800
4301.2404418943	0.0163008571
4303.1692492674	0.0162133202
4305.0980566404	0.0161032397
4307.0268640135	0.0161893275
4308.9556713865	0.0161746182
4310.8844787596	0.0160720069
4312.8132861326	0.0160957947
4314.7420935057	0.0160154849
4316.6709008787	0.0159251429
4318.5997082518	0.0159009807
4320.5285156248	0.0158394184
4322.4573229979	0.0158796981
4324.3861303709	0.0158619247
4326.3149377440	0.0158435870
4328.2437451170	0.0158056580
4330.1725524900	0.0156388935
4332.1013598631	0.0156923439
4334.0301672361	0.0156216547
4335.9589746092	0.0155317215
4337.8877819822	0.0156127792
4339.8165893553	0.0155368736
4341.7453967283	0.0155026922
4343.6742041014	0.0154636260
4345.6030114744	0.0153741874
4347.5318188475	0.0153477574
4349.4606262205	0.0153318755
4351.3894335936	0.0152944960
4353.3182409666	0.0153209642
4355.2470483397	0.0151945762
4357.1758557127	0.0151401367
4359.1046630858	0.0152220149
4361.0334704588	0.0150671722
4362.9622778318	0.0151257832
4364.8910852049	0.0150293419
4366.8198925779	0.0149152819
4368.7486999510	0.0150125697
4370.6775073240	0.0148664266
4372.6063146971	0.0148629537
4374.5351220701	0.0148467859
4376.4639294432	0.0148264021
4378.3927368162	0.0147892963
4380.3215441893	0.0147818904
4382.2503515623	0.0147234630
4384.1791589354	0.0145365074
4386.1079663084	0.0146339592
4388.0367736815	0.0145800579
4389.9655810545	0.0145415291
4391.8943884275	0.0145561192
4393.8231958006	0.0144485608
4395.7520031736	0.0144591974
4397.6808105467	0.0144832339
4399.6096179197	0.0143927559
4401.5384252928	0.0142661110
4403.4672326658	0.0143664666
4405.3960400389	0.0143263703
4407.3248474119	0.0143021131
4409.2536547850	0.0142332707
4411.1824621580	0.0141155319
4413.1112695311	0.0142271277
4415.0400769041	0.0141023118
4416.9688842772	0.0141225494
4418.8976916502	0.0140454527
4420.8264990232	0.0139222015
4422.7553063963	0.0140150264
4424.6841137693	0.0139254574
4426.6129211424	0.0139447507
4428.5417285154	0.0138750272
4430.4705358885	0.0138682555
4432.3993432615	0.0138731403
4434.3281506346	0.0137405619
4436.2569580076	0.0137840770
4438.1857653807	0.0137561988
4440.1145727537	0.0136836432
4442.0433801268	0.0136060007
4443.9721874998	0.0135755381
4445.9009948729	0.0136199929
4447.8298022459	0.0135735106
4449.7586096189	0.0134937754
4451.6874169920	0.0134877823
4453.6162243650	0.0134285707
4455.5450317381	0.0133308209
4457.4738391111	0.0133854179
4459.4026464842	0.0133718783
4461.3314538572	0.0133271087
4463.2602612303	0.0133211864
4465.1890686033	0.0132506825
4467.1178759764	0.0132417716
4469.0466833494	0.0132201724
4470.9754907225	0.0131331002
4472.9042980955	0.0130992057
4474.8331054686	0.0131044816
4476.7619128416	0.0130597446
4478.6907202147	0.0130161550
4480.6195275877	0.0129634589
4482.5483349607	0.0129291322
4484.4771423338	0.0129674301
4486.4059497068	0.0129266847
4488.3347570799	0.0128286649
4490.2635644529	0.0128351804
4492.1923718260	0.0128163490
4494.1211791990	0.0127475020
4496.0499865721	0.0128159262
4497.9787939451	0.0127623789
4499.9076013182	0.0126099531
4501.8364086912	0.0126267252
4503.7652160643	0.0126511483
4505.6940234373	0.0126001928
4507.6228308104	0.0125615019
4509.5516381834	0.0125397667
4511.4804455564	0.0124384128
4513.4092529295	0.0124903629
4515.3380603025	0.0125159882
4517.2668676756	0.0123701468
4519.1956750486	0.0124000851
4521.1244824217	0.0123444991
4523.0532897947	0.0122880302
4524.9820971678	0.0122982264
4526.9109045408	0.0122220116
4528.8397119139	0.0121723674
4530.7685192869	0.0121349329
4532.6973266600	0.0121613042
4534.6261340330	0.0120748328
4536.5549414061	0.0120865433
4538.4837487791	0.0120955557
4540.4125561521	0.0118952207
4542.3413635252	0.0119595099
4544.2701708982	0.0119384434
4546.1989782713	0.0118555073
4548.1277856443	0.0119525194
4550.0565930174	0.0118560307
4551.9854003904	0.0118414070
4553.9142077635	0.0118764061
4555.8430151365	0.0117952395
4557.7718225096	0.0117476881
4559.7006298826	0.0116356332
4561.6294372557	0.0116420109
4563.5582446287	0.0116982758
4565.4870520018	0.0116096064
4567.4158593748	0.0115928920
4569.3446667478	0.0115908459
4571.2734741209	0.0115089659
4573.2022814939	0.0115123782
4575.1310888670	0.0115435962
4577.0598962400	0.0114813829
4578.9887036131	0.0114184134
4580.9175109861	0.0113530792
4582.8463183592	0.0113004483
4584.7751257322	0.0113132447
4586.7039331053	0.0113493158
4588.6327404783	0.0113699418
4590.5615478514	0.0112663805
4592.4903552244	0.0111527741
4594.4191625975	0.0111873038
4596.3479699705	0.0112072416
4598.2767773435	0.0111379046
4600.2055847166	0.0110975355
4602.1343920896	0.0110512301
4604.0631994627	0.0109981373
4605.9920068357	0.0110015916
4607.9208142088	0.0109758573
4609.8496215818	0.0109418798
4611.7784289549	0.0109542469
4613.7072363279	0.0110086985
4615.6360437010	0.0109267076
4617.5648510740	0.0108528268
4619.4936584471	0.0109439138
4621.4224658201	0.0108146090
4623.3512731932	0.0106961448
4625.2800805662	0.0107077546
4627.2088879393	0.0106817354
4629.1376953123	0.0106955301
4631.0665026853	0.0106755029
4632.9953100584	0.0106701236
4634.9241174314	0.0105550746
4636.8529248045	0.0105370358
4638.7817321775	0.0106351078
4640.7105395506	0.0105434619
4642.6393469236	0.0104597192
4644.5681542967	0.0103881564
4646.4969616697	0.0103948861
4648.4257690428	0.0104305800
4650.3545764158	0.0103431996
4652.2833837889	0.0103383064
4654.2121911619	0.0103463717
4656.1409985350	0.0102819763
4658.0698059080	0.0103050536
4659.9986132810	0.0103028482
4661.9274206541	0.0102296639
4663.8562280271	0.0102289617
4665.7850354002	0.0101801325
4667.7138427732	0.0101162689
4669.6426501463	0.0101300320
4671.5714575193	0.0101479720
4673.5002648924	0.0101172859
4675.4290722654	0.0100837396
4677.3578796385	0.0100537864
4679.2866870115	0.0099675814
4681.2154943846	0.0099902190
4683.1443017576	0.0099790022
4685.0731091307	0.0098838173
4687.0019165037	0.0099096727
4688.9307238767	0.0099099670
4690.8595312498	0.0098455902
4692.7883386228	0.0098080095
4694.7171459959	0.0098286048
4696.6459533689	0.0098229190
4698.5747607420	0.0097213108
4700.5035681150	0.0096675940
4702.4323754881	0.0096873697
4704.3611828611	0.0096424483
4706.2899902342	0.0096968040
4708.2187976072	0.0097563826
4710.1476049803	0.0096515818
4712.0764123533	0.0095941853
4714.0052197264	0.0095299575
4715.9340270994	0.0095923636
4717.8628344724	0.0095866201
4719.7916418455	0.0094770007
4721.7204492185	0.0094624739
4723.6492565916	0.0093519501
4725.5780639646	0.0094518838
4727.5068713377	0.0095047932
4729.4356787107	0.0094079310
4731.3644860838	0.0093611218
4733.2932934568	0.0093113873
4735.2221008299	0.0093517490
4737.1509082029	0.0092726499
4739.0797155760	0.0092222560
4741.0085229490	0.0091903619
4742.9373303221	0.0091986470
4744.8661376951	0.0092080180
4746.7949450682	0.0091410503
4748.7237524412	0.0091243321
4750.6525598142	0.0090573113
4752.5813671873	0.0091004577
4754.5101745603	0.0090285577
4756.4389819334	0.0089799510
4758.3677893064	0.0090263169
4760.2965966795	0.0090124458
4762.2254040525	0.0090631228
4764.1542114256	0.0089610629
4766.0830187986	0.0089273304
4768.0118261717	0.0089075034
4769.9406335447	0.0088713700
4771.8694409178	0.0088462718
4773.7982482908	0.0087949261
4775.7270556639	0.0088594602
4777.6558630369	0.0088497140
4779.5846704099	0.0088260472
4781.5134777830	0.0087627582
4783.4422851560	0.0087742452
4785.3710925291	0.0087691974
4787.2998999021	0.0086805336
4789.2287072752	0.0087263165
4791.1575146482	0.0086936280
4793.0863220213	0.0085944980
4795.0151293943	0.0085554551
4796.9439367674	0.0085507352
4798.8727441404	0.0084920460
4800.8015515135	0.0085483994
4802.7303588865	0.0085335588
4804.6591662596	0.0084115211
4806.5879736326	0.0084720058
4808.5167810056	0.0084278360
4810.4455883787	0.0084063075
4812.3743957517	0.0084456354
4814.3032031248	0.0084869564
4816.2320104978	0.0084380042
4818.1608178709	0.0082765594
4820.0896252439	0.0082626343
4822.0184326170	0.0082934052
4823.9472399900	0.0082917670
4825.8760473631	0.0082089398
4827.8048547361	0.0082169436
4829.7336621092	0.0081683882
4831.6624694822	0.0081609236
4833.5912768553	0.0082192756
4835.5200842283	0.0080951098
4837.4488916013	0.0081675369
4839.3776989744	0.0080941785
4841.3065063474	0.0079926234
4843.2353137205	0.0080749169
4845.1641210935	0.0080498420
4847.0929284666	0.0079926653
4849.0217358396	0.0078848926
4850.9505432127	0.0079409685
4852.8793505857	0.0079414183
4854.8081579588	0.0079137143
4856.7369653318	0.0079806736
4858.6657727049	0.0079208501
4860.5945800779	0.0078676622
4862.5233874510	0.0078247935
4864.4521948240	0.0078174379
4866.3810021971	0.0078129359
4868.3098095701	0.0078089833
4870.2386169431	0.0077906363
4872.1674243162	0.0077205352
4874.0962316892	0.0076965578
4876.0250390623	0.0077209962
4877.9538464353	0.0076842373
4879.8826538084	0.0076665776
4881.8114611814	0.0077180620
4883.7402685545	0.0076551465
4885.6690759275	0.0075993985
4887.5978833006	0.0075444812
4889.5266906736	0.0075896876
4891.4554980467	0.0076121725
4893.3843054197	0.0074877003
4895.3131127928	0.0074969307
4897.2419201658	0.0074732881
4899.1707275388	0.0074922582
4901.0995349119	0.0074529750
4903.0283422849	0.0074315183
4904.9571496580	0.0074604005
4906.8859570310	0.0073512243
4908.8147644041	0.0073832236
4910.7435717771	0.0073399106
4912.6723791502	0.0073072929
4914.6011865232	0.0073041990
4916.5299938963	0.0072602965
4918.4588012693	0.0072309468
4920.3876086424	0.0071468237
4922.3164160154	0.0072175134
4924.2452233885	0.0072342064
4926.1740307615	0.0072145439
4928.1028381345	0.0071727699
4930.0316455076	0.0071555423
4931.9604528806	0.0071680797
4933.8892602537	0.0070767896
4935.8180676267	0.0071001742
4937.7468749998	0.0071126586
4939.6756823728	0.0071014706
4941.6044897459	0.0070401053
4943.5332971189	0.0070789494
4945.4621044920	0.0070656124
4947.3909118650	0.0069208555
4949.3197192381	0.0070437556
4951.2485266111	0.0069700023
4953.1773339842	0.0069033066
4955.1061413572	0.0069815074
4957.0349487302	0.0068596783
4958.9637561033	0.0068278504
4960.8925634763	0.0068156524
4962.8213708494	0.0068079489
4964.7501782224	0.0068401280
4966.6789855955	0.0067883460
4968.6077929685	0.0067415955
4970.5366003416	0.0067713778
4972.4654077146	0.0067365346
4974.3942150877	0.0067214682
4976.3230224607	0.0067320243
4978.2518298338	0.0066515999
4980.1806372068	0.0066436827
4982.1094445799	0.0066067511
4984.0382519529	0.0066345008
4985.9670593259	0.0066366401
4987.8958666990	0.0065818224
4989.8246740720	0.0066053723
4991.7534814451	0.0065659154
4993.6822888181	0.0066058645
4995.6110961912	0.0064777592
4997.5399035642	0.0064069368
4999.4687109373	0.0065232264
5001.3975183103	0.0064779483
5003.3263256834	0.0064696847
5005.2551330564	0.0064658890
5007.1839404295	0.0065015326
5009.1127478025	0.0064444691
5011.0415551756	0.0063863029
5012.9703625486	0.0063878382
5014.8991699217	0.0063349339
5016.8279772947	0.0063640326
5018.7567846677	0.0062383451
5020.6855920408	0.0062604733
5022.6143994138	0.0063320594
5024.5432067869	0.0062649734
5026.4720141599	0.0062340293
5028.4008215330	0.0061568618
5030.3296289060	0.0062360805
5032.2584362791	0.0061895698
5034.1872436521	0.0061648386
5036.1160510252	0.0061619584
5038.0448583982	0.0060792328
5039.9736657713	0.0062159607
5041.9024731443	0.0061484999
5043.8312805174	0.0061036684
5045.7600878904	0.0061288327
5047.6888952634	0.0060635996
5049.6177026365	0.0061065173
5051.5465100095	0.0060415440
5053.4753173826	0.0059974818
5055.4041247556	0.0059954501
5057.3329321287	0.0059857862
5059.2617395017	0.0059569525
5061.1905468748	0.0058952537
5063.1193542478	0.0059171035
5065.0481616209	0.0058841240
5066.9769689939	0.0058569983
5068.9057763670	0.0058899214
5070.8345837400	0.0058109201
5072.7633911131	0.0057697711
5074.6921984861	0.0058534965
5076.6210058591	0.0058431318
5078.5498132322	0.0058346745
5080.4786206052	0.0058089821
5082.4074279783	0.0056954389
5084.3362353513	0.0056744874
5086.2650427244	0.0057644271
5088.1938500974	0.0058059292
5090.1226574705	0.0056574163
5092.0514648435	0.0056544193
5093.9802722166	0.0057255300
5095.9090795896	0.0056929765
5097.8378869627	0.0056573041
5099.7666943357	0.0055584582
5101.6955017088	0.0056453547
5103.6243090818	0.0056553008
5105.5531164548	0.0055981418
5107.4819238279	0.0056246156
5109.4107312009	0.0055593038
5111.3395385740	0.0055963984
5113.2683459470	0.0055848812
5115.1971533201	0.0055455882
5117.1259606931	0.0054718056
5119.0547680662	0.0054344237
5120.9835754392	0.0054784035
5122.9123828123	0.0054234094
5124.8411901853	0.0054670493
5126.7699975584	0.0054545952
5128.6988049314	0.0054359538
5130.6276123045	0.0054205628
5132.5564196775	0.0053292708
5134.4852270506	0.0053631179
5136.4140344236	0.0053624967
5138.3428417966	0.0053451210
5140.2716491697	0.0053288853
5142.2004565427	0.0053383382
5144.1292639158	0.0053500431
5146.0580712888	0.0052589327
5147.9868786619	0.0052714385
5149.9156860349	0.0052837618
5151.8444934080	0.0052324440
5153.7733007810	0.0052387202
5155.7021081541	0.0051973322
5157.6309155271	0.0051604630
5159.5597229002	0.0051551266
5161.4885302732	0.0051553622
5163.4173376463	0.0051378040
5165.3461450193	0.0051256465
5167.2749523923	0.0051739565
5169.2037597654	0.0050722044
5171.1325671384	0.0050466899
5173.0613745115	0.0051172464
5174.9901818845	0.0050671687
5176.9189892576	0.0050710794
5178.8477966306	0.0049897162
5180.7766040037	0.0050289296
5182.7054113767	0.0050625661
5184.6342187498	0.0049511576
5186.5630261228	0.0049793376
5188.4918334959	0.0049629887
5190.4206408689	0.0049908478
5192.3494482420	0.0049505495
5194.2782556150	0.0049105799
5196.2070629880	0.0049486472
5198.1358703611	0.0049301181
5200.0646777341	0.0049213404
5201.9934851072	0.0048339199
5203.9222924802	0.0049233497
5205.8510998533	0.0049373074
5207.7799072263	0.0047777155
5209.7087145994	0.0047391616
5211.6375219724	0.0047776271
5213.5663293455	0.0048073735
5215.4951367185	0.0047430210
5217.4239440916	0.0047964077
5219.3527514646	0.0047511877
5221.2815588377	0.0047402075
5223.2103662107	0.0047750454
5225.1391735837	0.0046104556
5227.0679809568	0.0046922807
5228.9967883298	0.0047473693
5230.9255957029	0.0047016833
5232.8544030759	0.0046942942
5234.7832104490	0.0046610432
5236.7120178220	0.0047076112
5238.6408251951	0.0045995386
5240.5696325681	0.0045581479
5242.4984399412	0.0045992457
5244.4272473142	0.0045229271
5246.3560546873	0.0045858100
5248.2848620603	0.0045542903
5250.2136694334	0.0044485610
5252.1424768064	0.0045638252
5254.0712841795	0.0045558531
5256.0000915525	0.0044871317
5257.9288989255	0.0045160926
5259.8577062986	0.0045073880
5261.7865136716	0.0044595283
5263.7153210447	0.0043466422
5265.6441284177	0.0044243266
5267.5729357908	0.0045094229
5269.5017431638	0.0043823458
5271.4305505369	0.0044075735
5273.3593579099	0.0045072120
5275.2881652830	0.0044013904
5277.2169726560	0.0043157795
5279.1457800291	0.0043635806
5281.0745874021	0.0043443255
5283.0033947752	0.0043749427
5284.9322021482	0.0043596840
5286.8610095212	0.0043051015
5288.7898168943	0.0042895759
5290.7186242673	0.0042291083
5292.6474316404	0.0042598397
5294.5762390134	0.0042690285
5296.5050463865	0.0042781648
5298.4338537595	0.0042225150
5300.3626611326	0.0042225439
5302.2914685056	0.0042561749
5304.2202758787	0.0042046588
5306.1490832517	0.0042503118
5308.0778906248	0.0041954326
5310.0066979978	0.0042335456
5311.9355053709	0.0041854475
5313.8643127439	0.0041302536
5315.7931201169	0.0041822661
5317.7219274900	0.0040962864
5319.6507348630	0.0041711694
5321.5795422361	0.0040862225
5323.5083496091	0.0040642540
5325.4371569822	0.0041278638
5327.3659643552	0.0040417202
5329.2947717283	0.0040222164
5331.2235791013	0.0040159365
5333.1523864744	0.0040774555
5335.0811938474	0.0040056393
5337.0100012205	0.0039989613
5338.9388085935	0.0038972411
5340.8676159666	0.0039063804
5342.7964233396	0.0040735262
5344.7252307126	0.0039215367
5346.6540380857	0.0039318181
5348.5828454587	0.0038977589
5350.5116528318	0.0039771432
5352.4404602048	0.0039572320
5354.3692675779	0.0037758974
5356.2980749509	0.0039622644
5358.2268823240	0.0038807206
5360.1556896970	0.0038492207
5362.0844970701	0.0039498862
5364.0133044431	0.0039355564
5365.9421118162	0.0038951621
5367.8709191892	0.0038150207
5369.7997265623	0.0038318671
5371.7285339353	0.0037476537
5373.6573413083	0.0037914333
5375.5861486814	0.0037775112
5377.5149560544	0.0037378822
5379.4437634275	0.0038068844
5381.3725708005	0.0037381866
5383.3013781736	0.0038188496
5385.2301855466	0.0037618359
5387.1589929197	0.0036484492
5389.0878002927	0.0037375144
5391.0166076658	0.0037295860
5392.9454150388	0.0036404124
5394.8742224119	0.0035754279
5396.8030297849	0.0036768091
5398.7318371580	0.0036949655
5400.6606445310	0.0036211335
5402.5894519041	0.0036998256
5404.5182592771	0.0036302125
5406.4470666501	0.0036042049
5408.3758740232	0.0036036121
5410.3046813962	0.0035061114
5412.2334887693	0.0036172066
5414.1622961423	0.0035437425
5416.0911035154	0.0035329403
5418.0199108884	0.0036602481
5419.9487182615	0.0035278024
5421.8775256345	0.0035460084
5423.8063330076	0.0035477392
5425.7351403806	0.0035197199
5427.6639477537	0.0034787313
5429.5927551267	0.0033875913
5431.5215624998	0.0034985726
5433.4503698728	0.0034762966
5435.3791772458	0.0033712126
5437.3079846189	0.0034479487
5439.2367919919	0.0035219006
5441.1655993650	0.0033817547
5443.0944067380	0.0034114737
5445.0232141111	0.0034731687
5446.9520214841	0.0033376163
5448.8808288572	0.0034444197
5450.8096362302	0.0033837603
5452.7384436033	0.0033242314
5454.6672509763	0.0033867974
5456.5960583494	0.0033408753
5458.5248657224	0.0033807375
5460.4536730955	0.0032702084
5462.3824804685	0.0032944246
5464.3112878415	0.0033681765
5466.2400952146	0.0033332906
5468.1689025876	0.0033195247
5470.0977099607	0.0033105642
5472.0265173337	0.0033968759
5473.9553247068	0.0032660160
5475.8841320798	0.0032152613
5477.8129394529	0.0033186160
5479.7417468259	0.0032733330
5481.6705541990	0.0032494059
5483.5993615720	0.0032493807
5485.5281689451	0.0032687560
5487.4569763181	0.0032091844
5489.3857836912	0.0031917128
5491.3145910642	0.0032350090
5493.2433984372	0.0031657128
5495.1722058103	0.0031847958
5497.1010131833	0.0032129837
5499.0298205564	0.0031639414
5500.9586279294	0.0032033408
5502.8874353025	0.0031699282
5504.8162426755	0.0031263405
5506.7450500486	0.0031690248
5508.6738574216	0.0030851858
5510.6026647947	0.0031099226
5512.5314721677	0.0031692705
5514.4602795408	0.0030920296
5516.3890869138	0.0031179478
5518.3178942869	0.0031587176
5520.2467016599	0.0031394421
5522.1755090330	0.0030396997
5524.1043164060	0.0030289420
5526.0331237790	0.0030987523
5527.9619311521	0.0030635730
5529.8907385251	0.0030533243
5531.8195458982	0.0030076548
5533.7483532712	0.0030070427
5535.6771606443	0.0030132241
5537.6059680173	0.0029621194
5539.5347753904	0.0030030957
5541.4635827634	0.0029784371
5543.3923901365	0.0029882328
5545.3211975095	0.0030019751
5547.2500048826	0.0028846846
5549.1788122556	0.0029203319
5551.1076196287	0.0029116829
5553.0364270017	0.0028619217
5554.9652343747	0.0029972568
5556.8940417478	0.0029278565
5558.8228491208	0.0028796026
5560.7516564939	0.0029453519
5562.6804638669	0.0028700531
5564.6092712400	0.0029174248
5566.5380786130	0.0029033066
5568.4668859861	0.0028772624
5570.3956933591	0.0029051807
5572.3245007322	0.0028185246
5574.2533081052	0.0028177318
5576.1821154783	0.0028488673
5578.1109228513	0.0028939417
5580.0397302244	0.0028578390
5581.9685375974	0.0027705245
5583.8973449704	0.0027773986
5585.8261523435	0.0027909284
5587.7549597165	0.0028388719
5589.6837670896	0.0028064861
5591.6125744626	0.0027516237
5593.5413818357	0.0027999016
5595.4701892087	0.0027995859
5597.3989965818	0.0027291349
5599.3278039548	0.0027531097
5601.2566113279	0.0027794468
5603.1854187009	0.0027109003
5605.1142260740	0.0027241283
5607.0430334470	0.0027489511
5608.9718408201	0.0026972180
5610.9006481931	0.0026449584
5612.8294555661	0.0027178864
5614.7582629392	0.0027216529
5616.6870703122	0.0026571774
5618.6158776853	0.0027516223
5620.5446850583	0.0026593865
5622.4734924314	0.0026058101
5624.4022998044	0.0026778299
5626.3311071775	0.0026121419
5628.2599145505	0.0026308668
5630.1887219236	0.0026542777
5632.1175292966	0.0026503843
5634.0463366697	0.0026044594
5635.9751440427	0.0025888290
5637.9039514158	0.0026226761
5639.8327587888	0.0025667243
5641.7615661619	0.0025577797
5643.6903735349	0.0025922216
5645.6191809079	0.0025648698
5647.5479882810	0.0025229948
5649.4767956540	0.0025870674
5651.4056030271	0.0025745053
5653.3344104001	0.0025573559
5655.2632177732	0.0025636321
5657.1920251462	0.0024627745
5659.1208325193	0.0025327576
5661.0496398923	0.0025180383
5662.9784472654	0.0024734978
5664.9072546384	0.0025341350
5666.8360620115	0.0024843053
5668.7648693845	0.0025108089
5670.6936767576	0.0024796254
5672.6224841306	0.0024102479
5674.5512915036	0.0024486482
5676.4800988767	0.0024599750
5678.4089062497	0.0024258411
5680.3377136228	0.0024784966
5682.2665209958	0.0024833856
5684.1953283689	0.0023767529
5686.1241357419	0.0024580716
5688.0529431150	0.0024403757
5689.9817504880	0.0023528072
5691.9105578611	0.0024369925
5693.8393652341	0.0024092412
5695.7681726072	0.0023639428
5697.6969799802	0.0023711827
5699.6257873533	0.0023449829
5701.5545947263	0.0023046732
5703.4834020993	0.0022719856
5705.4122094724	0.0022681342
5707.3410168454	0.0023237017
5709.2698242185	0.0023452593
5711.1986315915	0.0022957413
5713.1274389646	0.0023332592
5715.0562463376	0.0023100139
5716.9850537107	0.0022654170
5718.9138610837	0.0023057696
5720.8426684568	0.0023034038
5722.7714758298	0.0023131431
5724.7002832029	0.0022443435
5726.6290905759	0.0021898313
5728.5578979490	0.0022839755
5730.4867053220	0.0022803736
5732.4155126950	0.0022665088
5734.3443200681	0.0023376672
5736.2731274411	0.0022604214
5738.2019348142	0.0021912721
5740.1307421872	0.0022576205
5742.0595495603	0.0022630105
5743.9883569333	0.0022081975
5745.9171643064	0.0022188514
5747.8459716794	0.0022488195
5749.7747790525	0.0021215663
5751.7035864255	0.0020626932
5753.6323937986	0.0021734729
5755.5612011716	0.0021541661
5757.4900085447	0.0021156811
5759.4188159177	0.0021311408
5761.3476232907	0.0021109683
5763.2764306638	0.0021258791
5765.2052380368	0.0021419469
5767.1340454099	0.0021287790
5769.0628527829	0.0021187402
5770.9916601560	0.0021243296
5772.9204675290	0.0021188313
5774.8492749021	0.0021085578
5776.7780822751	0.0021419278
5778.7068896482	0.0021126801
5780.6356970212	0.0020773483
5782.5645043943	0.0020993589
5784.4933117673	0.0020265435
5786.4221191404	0.0020346255
5788.3509265134	0.0020768847
5790.2797338865	0.0020246592
5792.2085412595	0.0020060004
5794.1373486325	0.0019825674
5796.0661560056	0.0019941991
5797.9949633786	0.0019290359
5799.9237707517	0.0019473538
5801.8525781247	0.0020436482
5803.7813854978	0.0019675069
5805.7101928708	0.0019936808
5807.6390002439	0.0019941633
5809.5678076169	0.0019676925
5811.4966149900	0.0019798144
5813.4254223630	0.0019179689
5815.3542297361	0.0019698362
5817.2830371091	0.0019961344
5819.2118444822	0.0019679288
5821.1406518552	0.0019446021
5823.0694592282	0.0019289174
5824.9982666013	0.0019131971
5826.9270739743	0.0018817715
5828.8558813474	0.0019630133
5830.7846887204	0.0019755471
5832.7134960935	0.0019387216
5834.6423034665	0.0019546824
5836.5711108396	0.0019117447
5838.4999182126	0.0018979931
5840.4287255857	0.0018479237
5842.3575329587	0.0018260179
5844.2863403318	0.0018801887
5846.2151477048	0.0018157195
5848.1439550779	0.0018574873
5850.0727624509	0.0019063582
5852.0015698239	0.0018048559
5853.9303771970	0.0018072498
5855.8591845700	0.0018001938
5857.7879919431	0.0018438739
5859.7167993161	0.0018418543
5861.6456066892	0.0017877163
5863.5744140622	0.0018121325
5865.5032214353	0.0016971002
5867.4320288083	0.0017522038
5869.3608361814	0.0018233624
5871.2896435544	0.0017532920
5873.2184509275	0.0017223908
5875.1472583005	0.0017178853
5877.0760656736	0.0018933405
5879.0048730466	0.0017985441
5880.9336804196	0.0016924308
5882.8624877927	0.0018258810
5884.7912951657	0.0017440633
5886.7201025388	0.0017338160
5888.6489099118	0.0017107695
5890.5777172849	0.0016833912
5892.5065246579	0.0017429650
5894.4353320310	0.0017007985
5896.3641394040	0.0017142955
5898.2929467771	0.0016901330
5900.2217541501	0.0017193251
5902.1505615232	0.0017697085
5904.0793688962	0.0016900820
5906.0081762693	0.0016573478
5907.9369836423	0.0016302606
5909.8657910154	0.0016599151
5911.7945983884	0.0017180278
5913.7234057614	0.0017087869
5915.6522131345	0.0016556035
5917.5810205075	0.0016411096
5919.5098278806	0.0016938394
5921.4386352536	0.0016358122
5923.3674426267	0.0016188265
5925.2962499997	0.0015760513
5927.2250573728	0.0015610594
5929.1538647458	0.0016834454
5931.0826721189	0.0015827389
5933.0114794919	0.0016065389
5934.9402868650	0.0016737146
5936.8690942380	0.0015937996
5938.7979016111	0.0016334439
5940.7267089841	0.0015638412
5942.6555163571	0.0015744113
5944.5843237302	0.0016118388
5946.5131311032	0.0015739992
5948.4419384763	0.0015967031
5950.3707458493	0.0015857760
5952.2995532224	0.0016022162
5954.2283605954	0.0015181435
5956.1571679685	0.0015175308
5958.0859753415	0.0015676608
5960.0147827146	0.0015026762
5961.9435900876	0.0015677817
5963.8723974607	0.0015586379
5965.8012048337	0.0014698973
5967.7300122068	0.0015439226
5969.6588195798	0.0015804047
5971.5876269528	0.0014827529
5973.5164343259	0.0015294764
5975.4452416989	0.0015999356
5977.3740490720	0.0014644685
5979.3028564450	0.0014363509
5981.2316638181	0.0015270435
5983.1604711911	0.0014761426
5985.0892785642	0.0014313792
5987.0180859372	0.0014961823
5988.9468933103	0.0014833426
5990.8757006833	0.0014596146
5992.8045080564	0.0014725730
5994.7333154294	0.0014459002
5996.6621228025	0.0014640519
5998.5909301755	0.0014352701
6000.5197375485	0.0014171301
