399.2631262207	0.0023843511
401.1919335938	0.0023812209
403.1207409668	0.0021376712
405.0495483398	0.0017736729
406.9783557129	0.0030173671
408.9071630859	0.0033216649
410.8359704590	0.0024869828
412.7647778320	0.0031628632
414.6935852051	0.0032606395
416.6223925781	0.0030495627
418.5511999512	0.0025463647
420.4800073242	0.0032182359
422.4088146973	0.0036045732
424.3376220703	0.0029336305
426.2664294434	0.0034963535
428.1952368164	0.0035685417
430.1240441895	0.0035104044
432.0528515625	0.0032775211
433.9816589355	0.0032964433
435.9104663086	0.0034395908
437.8392736816	0.0031020558
439.7680810547	0.0031823327
441.6968884277	0.0031696446
443.6256958008	0.0031997343
445.5545031738	0.0028263591
447.4833105469	0.0029428238
449.4121179199	0.0029452401
451.3409252930	0.0024020835
453.2697326660	0.0025637720
455.1985400391	0.0021861040
457.1273474121	0.0018856202
459.0561547852	0.0023011409
460.9849621582	0.0023693508
462.9137695313	0.0018781051
464.8425769043	0.0019057638
466.7713842773	0.0019475978
468.7001916504	0.0014941324
470.6289990234	0.0013894422
472.5578063965	0.0014375662
474.4866137695	0.0017918542
476.4154211426	0.0012361470
478.3442285156	0.0006328680
480.2730358887	0.0011088223
482.2018432617	0.0010912670
484.1306506348	0.0009075681
486.0594580078	0.0008921567
487.9882653809	0.0009488418
489.9170727539	0.0007579888
491.8458801270	0.0006866361
493.7746875000	0.0008794982
495.7034948730	0.0007937080
497.6323022461	0.0005490026
499.5611096191	0.0004557200
501.4899169922	0.0005987880
503.4187243652	0.0006440718
505.3475317383	0.0004865848
507.2763391113	0.0004119733
509.2051464844	0.0008631157
511.1339538574	0.0004081469
513.0627612305	0.0001854390
514.9915686035	0.0007263154
516.9203759766	0.0004988189
518.8491833496	0.0008610517
520.7779907227	0.0009435512
522.7067980957	0.0004456882
524.6356054688	0.0004517618
526.5644128418	0.0005095817
528.4932202148	0.0001790847
530.4220275879	0.0000270254
532.3508349609	0.0003642867
534.2796423340	0.0003653732
536.2084497070	0.0005404510
538.1372570801	0.0006228303
540.0660644531	0.0008582585
541.9948718262	0.0007124649
543.9236791992	0.0001081921
545.8524865723	0.0005061695
547.7812939453	0.0002577704
549.7101013184	0.0004532352
551.6389086914	0.0007059040
553.5677160645	0.0002844660
555.4965234375	0.0009465376
557.4253308105	0.0005241736
559.3541381836	0.0002588686
561.2829455566	0.0006839402
563.2117529297	0.0004641915
565.1405603027	0.0004514335
567.0693676758	0.0003468037
568.9981750488	0.0006672185
570.9269824219	0.0006468022
572.8557897949	0.0005518447
574.7845971680	0.0007706776
576.7134045410	0.0005520643
578.6422119141	0.0005693483
580.5710192871	0.0005415542
582.4998266602	0.0007302225
584.4286340332	0.0006866588
586.3574414063	0.0002877053
588.2862487793	0.0005054194
590.2150561523	0.0004024828
592.1438635254	0.0002417718
594.0726708984	0.0005987846
596.0014782715	0.0004348301
597.9302856445	0.0000854674
599.8590930176	0.0002712427
601.7879003906	0.0005574399
603.7167077637	0.0009492165
605.6455151367	0.0006270348
607.5743225098	0.0001915734
609.5031298828	0.0004943369
611.4319372559	0.0003684315
613.3607446289	0.0002864208
615.2895520020	-0.0001013634
617.2183593750	0.0001303305
619.1471667480	0.0002335474
621.0759741211	-0.0002448923
623.0047814941	0.0001963176
624.9335888672	-0.0001321852
626.8623962402	0.0002832369
628.7912036133	0.0002487314
630.7200109863	0.0004742172
632.6488183594	0.0019453948
634.5776257324	0.0017036342
636.5064331055	0.0020809891
638.4352404785	0.0025933785
640.3640478516	0.0026054597
642.2928552246	0.0031230203
644.2216625977	0.0034926860
646.1504699707	0.0036289548
648.0792773438	0.0035008523
650.0080847168	0.0035967983
651.9368920898	0.0038449808
653.8656994629	0.0044772476
655.7945068359	0.0044107772
657.7233142090	0.0044565722
659.6521215820	0.0050278902
661.5809289551	0.0048508272
663.5097363281	0.0049472544
665.4385437012	0.0049153501
667.3673510742	0.0049749524
669.2961584473	0.0054196408
671.2249658203	0.0061157821
673.1537731934	0.0063923746
675.0825805664	0.0063362066
677.0113879395	0.0068225693
678.9401953125	0.0066659600
680.8690026855	0.0067818435
682.7978100586	0.0068456922
684.7266174316	0.0068395669
686.6554248047	0.0072361608
688.5842321777	0.0067848256
690.5130395508	0.0068462677
692.4418469238	0.0072922530
694.3706542969	0.0077565098
696.2994616699	0.0087441746
698.2282690430	0.0099988617
700.1570764160	0.0106491847
702.0858837891	0.0100905206
704.0146911621	0.0096528865
705.9434985352	0.0087482799
707.8723059082	0.0073458483
709.8011132813	0.0061579524
711.7299206543	0.0043928544
713.6587280273	0.0027248468
715.5875354004	0.0014796965
717.5163427734	0.0008583518
719.4451501465	0.0007490553
721.3739575195	0.0004143673
723.3027648926	0.0004618260
725.2315722656	0.0004369392
727.1603796387	0.0003333809
729.0891870117	0.0004775841
731.0179943848	-0.0000457549
732.9468017578	0.0001483702
734.8756091309	0.0004835458
736.8044165039	-0.0000077735
738.7332238770	0.0002162771
740.6620312500	0.0000154310
742.5908386230	0.0000134315
744.5196459961	0.0005148271
746.4484533691	0.0002398443
748.3772607422	0.0001817123
750.3060681152	0.0000375164
752.2348754883	0.0003110597
754.1636828613	0.0006131038
756.0924902344	0.0004338727
758.0212976074	0.0007356395
759.9501049805	0.0004573932
761.8789123535	0.0002012128
763.8077197266	0.0004351041
765.7365270996	0.0004960224
767.6653344727	0.0008148561
769.5941418457	0.0003241019
771.5229492188	0.0002620520
773.4517565918	0.0007784588
775.3805639648	0.0005096936
777.3093713379	0.0004932754
779.2381787109	0.0004175424
781.1669860840	0.0006348768
783.0957934570	0.0006989739
785.0246008301	0.0004663015
786.9534082031	0.0008451038
788.8822155762	0.0008313305
790.8110229492	0.0008293838
792.7398303223	0.0007139380
794.6686376953	0.0004181491
796.5974450684	0.0005662488
798.5262524414	0.0009333413
800.4550598145	0.0013327883
802.3838671875	0.0013127634
804.3126745605	0.0012548771
806.2414819336	0.0008426703
808.1702893066	0.0005008038
810.0990966797	0.0007024145
812.0279040527	0.0006313119
813.9567114258	0.0004726422
815.8855187988	0.0003919280
817.8143261719	0.0005712382
819.7431335449	0.0005722019
821.6719409180	0.0004680954
823.6007482910	0.0005472334
825.5295556641	0.0007959761
827.4583630371	0.0011569251
829.3871704102	0.0010639667
831.3159777832	0.0013481285
833.2447851563	0.0019040606
835.1735925293	0.0021700647
837.1023999023	0.0022543203
839.0312072754	0.0023910811
840.9600146484	0.0024374174
842.8888220215	0.0018408473
844.8176293945	0.0016985307
846.7464367676	0.0016040213
848.6752441406	0.0013235934
850.6040515137	0.0014803247
852.5328588867	0.0013901019
854.4616662598	0.0013515726
856.3904736328	0.0010971570
858.3192810059	0.0008395126
860.2480883789	0.0008983429
862.1768957520	0.0007927213
864.1057031250	0.0006977055
866.0345104980	0.0006303847
867.9633178711	0.0007157885
869.8921252441	0.0004143612
871.8209326172	0.0003789721
873.7497399902	0.0009601583
875.6785473633	0.0008078515
877.6073547363	0.0005062112
879.5361621094	0.0006012136
881.4649694824	0.0006291646
883.3937768555	0.0004903332
885.3225842285	0.0006940828
887.2513916016	0.0008099267
889.1801989746	0.0003306403
891.1090063477	0.0004146595
893.0378137207	0.0005237610
894.9666210938	0.0004783817
896.8954284668	0.0006874142
898.8242358398	0.0005349873
900.7530432129	0.0004945018
902.6818505859	0.0006362626
904.6106579590	0.0007908061
906.5394653320	0.0007051999
908.4682727051	0.0006066562
910.3970800781	0.0008344339
912.3258874512	0.0009413109
914.2546948242	0.0011601818
916.1835021973	0.0012695685
918.1123095703	0.0013875866
920.0411169434	0.0014017653
921.9699243164	0.0014672580
923.8987316895	0.0018200583
925.8275390625	0.0018622819
927.7563464355	0.0022234488
929.6851538086	0.0024516252
931.6139611816	0.0024556010
933.5427685547	0.0027810205
935.4715759277	0.0029553003
937.4003833008	0.0031065932
939.3291906738	0.0033678869
941.2579980469	0.0034081032
943.1868054199	0.0031914490
945.1156127930	0.0033385800
947.0444201660	0.0033501801
948.9732275391	0.0030775724
950.9020349121	0.0031097769
952.8308422852	0.0032259431
954.7596496582	0.0031832191
956.6884570313	0.0030866661
958.6172644043	0.0032146834
960.5460717773	0.0030059358
962.4748791504	0.0030465322
964.4036865234	0.0033634691
966.3324938965	0.0034048855
968.2613012695	0.0035466440
970.1901086426	0.0034841695
972.1189160156	0.0038846964
974.0477233887	0.0040624849
975.9765307617	0.0042535514
977.9053381348	0.0050973445
979.8341455078	0.0052325027
981.7629528809	0.0056678057
983.6917602539	0.0064739096
985.6205676270	0.0070458092
987.5493750000	0.0078887111
989.4781823730	0.0088045737
991.4069897461	0.0097349454
993.3357971191	0.0106124375
995.2646044922	0.0115948357
997.1934118652	0.0126640415
999.1222192383	0.0135914348
1001.0510266113	0.0144575378
1002.9798339844	0.0153308678
1004.9086413574	0.0163991116
1006.8374487305	0.0176724456
1008.7662561035	0.0186125841
1010.6950634766	0.0197261833
1012.6238708496	0.0210448392
1014.5526782227	0.0218836330
1016.4814855957	0.0229887087
1018.4102929688	0.0241236165
1020.3391003418	0.0253187045
1022.2679077148	0.0266197212
1024.1967150879	0.0274088308
1026.1255224609	0.0282678027
1028.0543298340	0.0292960033
1029.9831372070	0.0303264000
1031.9119445801	0.0310372487
1033.8407519531	0.0315569937
1035.7695593262	0.0321170092
1037.6983666992	0.0324740931
1039.6271740723	0.0327266939
1041.5559814453	0.0325880349
1043.4847888184	0.0321452320
1045.4135961914	0.0318142548
1047.3424035645	0.0313668288
1049.2712109375	0.0309071466
1051.2000183105	0.0306694154
1053.1288256836	0.0298375264
1055.0576330566	0.0292729512
1056.9864404297	0.0289860256
1058.9152478027	0.0279167779
1060.8440551758	0.0272649750
1062.7728625488	0.0262493156
1064.7016699219	0.0253295265
1066.6304772949	0.0246536750
1068.5592846680	0.0233276300
1070.4880920410	0.0225540251
1072.4168994141	0.0213617142
1074.3457067871	0.0206031092
1076.2745141602	0.0198281817
1078.2033215332	0.0181693435
1080.1321289062	0.0176500939
1082.0609362793	0.0170319974
1083.9897436523	0.0161298756
1085.9185510254	0.0153351985
1087.8473583984	0.0145546254
1089.7761657715	0.0140375383
1091.7049731445	0.0133632971
1093.6337805176	0.0129976198
1095.5625878906	0.0124019841
1097.4913952637	0.0119302711
1099.4202026367	0.0116180349
1101.3490100098	0.0112192845
1103.2778173828	0.0111178374
1105.2066247559	0.0106396638
1107.1354321289	0.0104308687
1109.0642395019	0.0104179643
1110.9930468750	0.0102305794
1112.9218542480	0.0101372581
1114.8506616211	0.0102053694
1116.7794689941	0.0101910401
1118.7082763672	0.0098758675
1120.6370837402	0.0101248119
1122.5658911133	0.0102224685
1124.4946984863	0.0103843426
1126.4235058594	0.0106704123
1128.3523132324	0.0105139380
1130.2811206055	0.0110015552
1132.2099279785	0.0112269223
1134.1387353516	0.0114020184
1136.0675427246	0.0119955596
1137.9963500977	0.0125062279
1139.9251574707	0.0133908419
1141.8539648437	0.0143039171
1143.7827722168	0.0151493531
1145.7115795898	0.0162291769
1147.6403869629	0.0173635148
1149.5691943359	0.0180371962
1151.4980017090	0.0190511048
1153.4268090820	0.0200818181
1155.3556164551	0.0208772793
1157.2844238281	0.0219122432
1159.2132312012	0.0224593580
1161.1420385742	0.0235310681
1163.0708459473	0.0243852586
1164.9996533203	0.0250438489
1166.9284606934	0.0261951182
1168.8572680664	0.0271523148
1170.7860754394	0.0283125546
1172.7148828125	0.0291819461
1174.6436901855	0.0303318109
1176.5724975586	0.0312122032
1178.5013049316	0.0321998149
1180.4301123047	0.0336679742
1182.3589196777	0.0349547789
1184.2877270508	0.0369115546
1186.2165344238	0.0382668935
1188.1453417969	0.0398926511
1190.0741491699	0.0420350209
1192.0029565430	0.0437207371
1193.9317639160	0.0457496494
1195.8605712891	0.0480328798
1197.7893786621	0.0502632186
1199.7181860351	0.0523699224
1201.6469934082	0.0549217574
1203.5758007812	0.0569603518
1205.5046081543	0.0589021817
1207.4334155273	0.0611546077
1209.3622229004	0.0631464422
1211.2910302734	0.0651754960
1213.2198376465	0.0667528212
1215.1486450195	0.0685591772
1217.0774523926	0.0700319409
1219.0062597656	0.0711932629
1220.9350671387	0.0723642856
1222.8638745117	0.0732308328
1224.7926818848	0.0739059746
1226.7214892578	0.0742574409
1228.6502966308	0.0749059990
1230.5791040039	0.0750894621
1232.5079113769	0.0751266032
1234.4367187500	0.0753448755
1236.3655261230	0.0754039511
1238.2943334961	0.0751520470
1240.2231408691	0.0748887286
1242.1519482422	0.0749129727
1244.0807556152	0.0743605644
1246.0095629883	0.0739317536
1247.9383703613	0.0733341128
1249.8671777344	0.0729855597
1251.7959851074	0.0725083724
1253.7247924805	0.0715661496
1255.6535998535	0.0709703639
1257.5824072266	0.0698253661
1259.5112145996	0.0689079314
1261.4400219726	0.0677985996
1263.3688293457	0.0669263899
1265.2976367187	0.0661183745
1267.2264440918	0.0650659949
1269.1552514648	0.0642266646
1271.0840588379	0.0630853474
1273.0128662109	0.0624926835
1274.9416735840	0.0611150190
1276.8704809570	0.0599428415
1278.7992883301	0.0587513447
1280.7280957031	0.0572694130
1282.6569030762	0.0565947741
1284.5857104492	0.0552858114
1286.5145178223	0.0544250943
1288.4433251953	0.0534806438
1290.3721325683	0.0527664274
1292.3009399414	0.0521301106
1294.2297473144	0.0515750758
1296.1585546875	0.0516041294
1298.0873620605	0.0511717200
1300.0161694336	0.0516331643
1301.9449768066	0.0517996028
1303.8737841797	0.0521199182
1305.8025915527	0.0527832694
1307.7313989258	0.0532172769
1309.6602062988	0.0543209463
1311.5890136719	0.0550589412
1313.5178210449	0.0559473857
1315.4466284180	0.0573289916
1317.3754357910	0.0589067042
1319.3042431640	0.0601169020
1321.2330505371	0.0619130693
1323.1618579101	0.0639808774
1325.0906652832	0.0657682717
1327.0194726562	0.0680650622
1328.9482800293	0.0697041899
1330.8770874023	0.0714071095
1332.8058947754	0.0728718787
1334.7347021484	0.0741496235
1336.6635095215	0.0751887336
1338.5923168945	0.0751252472
1340.5211242676	0.0760552958
1342.4499316406	0.0781727135
1344.3787390137	0.0789361149
1346.3075463867	0.0786391199
1348.2363537597	0.0786445513
1350.1651611328	0.0781758130
1352.0939685058	0.0780055299
1354.0227758789	0.0771531090
1355.9515832519	0.0762810037
1357.8803906250	0.0761163980
1359.8091979980	0.0748769343
1361.7380053711	0.0724534243
1363.6668127441	0.0714146420
1365.5956201172	0.0740847737
1367.5244274902	0.0727682114
1369.4532348633	0.0714461654
1371.3820422363	0.0726030469
1373.3108496094	0.0694517866
1375.2396569824	0.0698900223
1377.1684643555	0.0712018609
1379.0972717285	0.0708791390
1381.0260791015	0.0709266812
1382.9548864746	0.0705142841
1384.8836938476	0.0708499625
1386.8125012207	0.0683531165
1388.7413085937	0.0693444312
1390.6701159668	0.0739136189
1392.5989233398	0.0724197403
1394.5277307129	0.0688986108
1396.4565380859	0.0716487989
1398.3853454590	0.0716805309
1400.3141528320	0.0712023675
1402.2429602051	0.0758333877
1404.1717675781	0.0724802241
1406.1005749512	0.0728065223
1408.0293823242	0.0748110712
1409.9581896972	0.0725781098
1411.8869970703	0.0739534497
1413.8158044433	0.0715090036
1415.7446118164	0.0723168701
1417.6734191894	0.0665895715
1419.6022265625	0.0609417856
1421.5310339355	0.0676300228
1423.4598413086	0.0657399595
1425.3886486816	0.0636861473
1427.3174560547	0.0640909970
1429.2462634277	0.0599393323
1431.1750708008	0.0578756258
1433.1038781738	0.0584164076
1435.0326855469	0.0538115017
1436.9614929199	0.0469713211
1438.8903002929	0.0514869168
1440.8191076660	0.0522520430
1442.7479150390	0.0491231158
1444.6767224121	0.0506520048
1446.6055297851	0.0475125797
1448.5343371582	0.0478112325
1450.4631445312	0.0490103066
1452.3919519043	0.0503019169
1454.3207592773	0.0520527884
1456.2495666504	0.0449280292
1458.1783740234	0.0470658466
1460.1071813965	0.0596121475
1462.0359887695	0.0631447360
1463.9647961426	0.0637491792
1465.8936035156	0.0665481761
1467.8224108886	0.0746121258
1469.7512182617	0.0799745396
1471.6800256347	0.0740252435
1473.6088330078	0.0779555291
1475.5376403808	0.0873215720
1477.4664477539	0.0934816524
1479.3952551269	0.1011885405
1481.3240625000	0.1035789549
1483.2528698730	0.1094340682
1485.1816772461	0.1132011116
1487.1104846191	0.1129521504
1489.0392919922	0.1133621335
1490.9680993652	0.1150633395
1492.8969067383	0.1295270324
1494.8257141113	0.1275843084
1496.7545214843	0.1183419228
1498.6833288574	0.1312068403
1500.6121362304	0.1347005367
1502.5409436035	0.1424620450
1504.4697509765	0.1365781426
1506.3985583496	0.1074231267
1508.3273657226	0.1262511611
1510.2561730957	0.1429142058
1512.1849804687	0.1391840279
1514.1137878418	0.1488204151
1516.0425952148	0.1373468637
1517.9714025879	0.1425425708
1519.9002099609	0.1379186511
1521.8290173340	0.1238502562
1523.7578247070	0.1450698525
1525.6866320801	0.1429844201
1527.6154394531	0.1429819763
1529.5442468261	0.1543618143
1531.4730541992	0.1498625875
1533.4018615722	0.1400456429
1535.3306689453	0.1464402527
1537.2594763183	0.1538759172
1539.1882836914	0.1183841899
1541.1170910644	0.1231928021
1543.0458984375	0.1420225948
1544.9747058105	0.1376231611
1546.9035131836	0.1568168253
1548.8323205566	0.1485446543
1550.7611279297	0.1522834599
1552.6899353027	0.1511005759
1554.6187426758	0.1406016201
1556.5475500488	0.1482596993
1558.4763574218	0.1129086763
1560.4051647949	0.1196191758
1562.3339721679	0.1576886773
1564.2627795410	0.1507954299
1566.1915869140	0.1540056318
1568.1203942871	0.1529080719
1570.0492016601	0.1390129030
1571.9780090332	0.1552150697
1573.9068164062	0.1565892994
1575.8356237793	0.1297603548
1577.7644311523	0.1432958245
1579.6932385254	0.1584817767
1581.6220458984	0.1524662077
1583.5508532715	0.1558693647
1585.4796606445	0.1535563767
1587.4084680175	0.1545650065
1589.3372753906	0.1535911709
1591.2660827636	0.1535133123
1593.1948901367	0.1537817419
1595.1236975097	0.1518625170
1597.0525048828	0.1539022326
1598.9813122558	0.1528871953
1600.9101196289	0.1536630839
1602.8389270019	0.1514585614
1604.7677343750	0.1534187645
1606.6965417480	0.1517987251
1608.6253491211	0.1513583362
1610.5541564941	0.1512092203
1612.4829638672	0.1517809927
1614.4117712402	0.1534763426
1616.3405786132	0.1304975152
1618.2693859863	0.1395124197
1620.1981933593	0.1574102789
1622.1270007324	0.1428004056
1624.0558081054	0.1440792978
1625.9846154785	0.1490205824
1627.9134228515	0.1487843990
1629.8422302246	0.1478617191
1631.7710375976	0.1556108147
1633.6998449707	0.1459527314
1635.6286523437	0.1255147159
1637.5574597168	0.1418420374
1639.4862670898	0.1525685787
1641.4150744629	0.1497074068
1643.3438818359	0.1527031362
1645.2726892090	0.1404246390
1647.2014965820	0.1275762469
1649.1303039550	0.1515526175
1651.0591113281	0.1440700591
1652.9879187011	0.1018912792
1654.9167260742	0.1304136962
1656.8455334472	0.1560613215
1658.7743408203	0.1498018801
1660.7031481933	0.1537488997
1662.6319555664	0.1422991455
1664.5607629394	0.1486623287
1666.4895703125	0.1570937037
1668.4183776855	0.1415101886
1670.3471850586	0.1383772790
1672.2759924316	0.1522755027
1674.2047998047	0.1431905031
1676.1336071777	0.1384326518
1678.0624145507	0.1546394229
1679.9912219238	0.1498118192
1681.9200292968	0.1490780264
1683.8488366699	0.1263222992
1685.7776440429	0.1248325557
1687.7064514160	0.1610591114
1689.6352587890	0.1434157789
1691.5640661621	0.1547754556
1693.4928735351	0.1569729894
1695.4216809082	0.1219282746
1697.3504882812	0.1440826207
1699.2792956543	0.1305573583
1701.2081030273	0.1203093529
1703.1369104004	0.1535209417
1705.0657177734	0.1432412863
1706.9945251464	0.1438124180
1708.9233325195	0.1536315084
1710.8521398925	0.1482209861
1712.7809472656	0.1504965574
1714.7097546386	0.1419935226
1716.6385620117	0.1295699030
1718.5673693847	0.1279590726
1720.4961767578	0.1467416137
1722.4249841308	0.1503670961
1724.3537915039	0.1417019218
1726.2825988769	0.1514140666
1728.2114062500	0.1415914893
1730.1402136230	0.1430295706
1732.0690209961	0.1391267627
1733.9978283691	0.1125791073
1735.9266357421	0.1335109174
1737.8554431152	0.1443883628
1739.7842504882	0.1319814622
1741.7130578613	0.1412588358
1743.6418652343	0.1432296932
1745.5706726074	0.1434020698
1747.4994799804	0.1447824240
1749.4282873535	0.1400454789
1751.3570947265	0.1350418776
1753.2859020996	0.1464284658
1755.2147094726	0.1515592337
1757.1435168457	0.1414013952
1759.0723242187	0.1521717906
1761.0011315918	0.1447297186
1762.9299389648	0.1410155594
1764.8587463379	0.1564865410
1766.7875537109	0.1440192610
1768.7163610839	0.1452171355
1770.6451684570	0.1446002126
1772.5739758300	0.1327069700
1774.5027832031	0.1445728093
1776.4315905761	0.1511761546
1778.3603979492	0.1492646933
1780.2892053222	0.1479863524
1782.2180126953	0.1486425400
1784.1468200683	0.1485500336
1786.0756274414	0.1461848617
1788.0044348144	0.1519473493
1789.9332421875	0.1492260695
1791.8620495605	0.1378526837
1793.7908569336	0.1424344182
1795.7196643066	0.1505677402
1797.6484716796	0.1486617327
1799.5772790527	0.1472537518
1801.5060864257	0.1455215812
1803.4348937988	0.1487148106
1805.3637011718	0.1512367725
1807.2925085449	0.1495842636
1809.2213159179	0.1500003338
1811.1501232910	0.1469464898
1813.0789306640	0.1502719671
1815.0077380371	0.1508582234
1816.9365454101	0.1494611502
1818.8653527832	0.1503403187
1820.7941601562	0.1497662961
1822.7229675293	0.1515574306
1824.6517749023	0.1441038251
1826.5805822753	0.1479319483
1828.5093896484	0.1478818506
1830.4381970214	0.1410214603
1832.3670043945	0.1504313648
1834.2958117675	0.1492980719
1836.2246191406	0.1493466198
1838.1534265136	0.1487822533
1840.0822338867	0.1493473947
1842.0110412597	0.1495804787
1843.9398486328	0.1362795979
1845.8686560058	0.1430997849
1847.7974633789	0.1490116715
1849.7262707519	0.1464463174
1851.6550781250	0.1499099731
1853.5838854980	0.1474025100
1855.5126928710	0.1484932601
1857.4415002441	0.1477740705
1859.3703076171	0.1469455063
1861.2991149902	0.1476695240
1863.2279223632	0.1462546885
1865.1567297363	0.1474341154
1867.0855371093	0.1436752379
1869.0143444824	0.1390936971
1870.9431518554	0.1431790143
1872.8719592285	0.1470921636
1874.8007666015	0.1452529281
1876.7295739746	0.1458030939
1878.6583813476	0.1452112496
1880.5871887207	0.1446532309
1882.5159960937	0.1455024481
1884.4448034667	0.1435060203
1886.3736108398	0.1451598108
1888.3024182128	0.1426471472
1890.2312255859	0.1403526217
1892.1600329589	0.1443831027
1894.0888403320	0.1426976919
1896.0176477050	0.1419502795
1897.9464550781	0.1432352811
1899.8752624511	0.1425824463
1901.8040698242	0.1428143978
1903.7328771972	0.1420805454
1905.6616845703	0.1424207389
1907.5904919433	0.1413095295
1909.5192993164	0.1406701803
1911.4481066894	0.1413124353
1913.3769140625	0.1410211325
1915.3057214355	0.1420261860
1917.2345288085	0.1373203993
1919.1633361816	0.1373137534
1921.0921435546	0.1413372606
1923.0209509277	0.1377427578
1924.9497583007	0.1398330331
1926.8785656738	0.1409135759
1928.8073730468	0.1395361423
1930.7361804199	0.1406787634
1932.6649877929	0.1392308474
1934.5937951660	0.1402144432
1936.5226025390	0.1392932534
1938.4514099121	0.1397298574
1940.3802172851	0.1395753473
1942.3090246582	0.1361716092
1944.2378320312	0.1380721480
1946.1666394042	0.1390744448
1948.0954467773	0.1388211101
1950.0242541503	0.1390976012
1951.9530615234	0.1387125254
1953.8818688964	0.1387431026
1955.8106762695	0.1383016109
1957.7394836425	0.1385337859
1959.6682910156	0.1383292377
1961.5970983886	0.1380079985
1963.5259057617	0.1383558512
1965.4547131347	0.1377979517
1967.3835205078	0.1365342438
1969.3123278808	0.1374028474
1971.2411352539	0.1380553544
1973.1699426269	0.1372309923
1975.0987499999	0.1375069320
1977.0275573730	0.1370025426
1978.9563647460	0.1370679289
1980.8851721191	0.1369917095
1982.8139794921	0.1364237964
1984.7427868652	0.1366884410
1986.6715942382	0.1359004080
1988.6004016113	0.1358003914
1990.5292089843	0.1348383129
1992.4580163574	0.1335986555
1994.3868237304	0.1351142228
1996.3156311035	0.1355242729
1998.2444384765	0.1346229166
2000.1732458496	0.1345324516
2002.1020532226	0.1341952980
2004.0308605956	0.1340880692
2005.9596679687	0.1337844431
2007.8884753417	0.1331882775
2009.8172827148	0.1331310570
2011.7460900878	0.1328668296
2013.6748974609	0.1326678991
2015.6037048339	0.1318091601
2017.5325122070	0.1310501248
2019.4613195800	0.1314303577
2021.3901269531	0.1313687712
2023.3189343261	0.1311058104
2025.2477416992	0.1307276338
2027.1765490722	0.1304343045
2029.1053564453	0.1302891076
2031.0341638183	0.1298548579
2032.9629711914	0.1295972168
2034.8917785644	0.1293682754
2036.8205859374	0.1291750073
2038.7493933105	0.1287723780
2040.6782006835	0.1281886548
2042.6070080566	0.1280724406
2044.5358154296	0.1279863119
2046.4646228027	0.1276722550
2048.3934301757	0.1274245679
2050.3222375488	0.1269938648
2052.2510449218	0.1268136799
2054.1798522949	0.1266403794
2056.1086596679	0.1262400448
2058.0374670410	0.1260961592
2059.9662744140	0.1258253306
2061.8950817871	0.1256438196
2063.8238891601	0.1251604408
2065.7526965331	0.1248237044
2067.6815039062	0.1248519421
2069.6103112792	0.1245594844
2071.5391186523	0.1244329214
2073.4679260253	0.1241293624
2075.3967333984	0.1238498241
2077.3255407714	0.1235099733
2079.2543481445	0.1232333630
2081.1831555175	0.1231633723
2083.1119628906	0.1228696927
2085.0407702636	0.1227101907
2086.9695776367	0.1224271208
2088.8983850097	0.1220373809
2090.8271923828	0.1216861308
2092.7559997558	0.1215803474
2094.6848071288	0.1214365214
2096.6136145019	0.1212124154
2098.5424218749	0.1209350675
2100.4712292480	0.1206314862
2102.4000366210	0.1206382066
2104.3288439941	0.1203056276
2106.2576513671	0.1200849190
2108.1864587402	0.1198169738
2110.1152661132	0.1196085960
2112.0440734863	0.1195789427
2113.9728808593	0.1191974282
2115.9016882324	0.1190606505
2117.8304956054	0.1189628989
2119.7593029785	0.1188725308
2121.6881103515	0.1185933352
2123.6169177245	0.1183859408
2125.5457250976	0.1182617471
2127.4745324706	0.1180596501
2129.4033398437	0.1178752184
2131.3321472167	0.1176659390
2133.2609545898	0.1176587641
2135.1897619628	0.1172080040
2137.1185693359	0.1171132699
2139.0473767089	0.1169817895
2140.9761840820	0.1166357920
2142.9049914550	0.1166187897
2144.8337988281	0.1164080948
2146.7626062011	0.1164103001
2148.6914135742	0.1160591170
2150.6202209472	0.1159508899
2152.5490283203	0.1159443259
2154.4778356933	0.1156938970
2156.4066430663	0.1155241728
2158.3354504394	0.1152898520
2160.2642578124	0.1153347641
2162.1930651855	0.1150457114
2164.1218725585	0.1149696261
2166.0506799316	0.1149022877
2167.9794873046	0.1146176681
2169.9082946777	0.1143931895
2171.8371020507	0.1143128574
2173.7659094238	0.1143089607
2175.6947167968	0.1139318794
2177.6235241699	0.1139219105
2179.5523315429	0.1136953533
2181.4811389160	0.1136249602
2183.4099462890	0.1135653406
2185.3387536620	0.1131086498
2187.2675610351	0.1130963415
2189.1963684081	0.1130376011
2191.1251757812	0.1129326895
2193.0539831542	0.1126766056
2194.9827905273	0.1125321537
2196.9115979003	0.1123412773
2198.8404052734	0.1122861058
2200.7692126464	0.1121472493
2202.6980200195	0.1118290126
2204.6268273925	0.1118686497
2206.5556347656	0.1115798503
2208.4844421386	0.1116335392
2210.4132495117	0.1114547476
2212.3420568847	0.1111962497
2214.2708642577	0.1111279577
2216.1996716308	0.1108585671
2218.1284790038	0.1107580960
2220.0572863769	0.1103706658
2221.9860937499	0.1104540527
2223.9149011230	0.1103581041
2225.8437084960	0.1101642698
2227.7725158691	0.1100258678
2229.7013232421	0.1097666100
2231.6301306152	0.1097262949
2233.5589379882	0.1093545556
2235.4877453613	0.1092600971
2237.4165527343	0.1089606136
2239.3453601074	0.1088607460
2241.2741674804	0.1087352186
2243.2029748534	0.1084508151
2245.1317822265	0.1084301323
2247.0605895995	0.1080895960
2248.9893969726	0.1079999283
2250.9182043456	0.1077200472
2252.8470117187	0.1077092886
2254.7758190917	0.1074390560
2256.7046264648	0.1070836335
2258.6334338378	0.1071396470
2260.5622412109	0.1067885458
2262.4910485839	0.1067793667
2264.4198559570	0.1064761356
2266.3486633300	0.1063700095
2268.2774707031	0.1063580588
2270.2062780761	0.1060361564
2272.1350854491	0.1059638560
2274.0638928222	0.1059060395
2275.9927001952	0.1058870405
2277.9215075683	0.1055781469
2279.8503149413	0.1055919230
2281.7791223144	0.1054792330
2283.7079296874	0.1052946597
2285.6367370605	0.1051422209
2287.5655444335	0.1048307791
2289.4943518066	0.1047290191
2291.4231591796	0.1041938066
2293.3519665527	0.1039911211
2295.2807739257	0.1038589776
2297.2095812988	0.1034298763
2299.1383886718	0.1029691249
2301.0671960449	0.1025381684
2302.9960034179	0.1021459997
2304.9248107909	0.1015394628
2306.8536181640	0.1009897441
2308.7824255370	0.1000896245
2310.7112329101	0.0993792415
2312.6400402831	0.0985091478
2314.5688476562	0.0974583328
2316.4976550292	0.0964721143
2318.4264624023	0.0950557441
2320.3552697753	0.0939694718
2322.2840771484	0.0925742462
2324.2128845214	0.0913244486
2326.1416918945	0.0904935002
2328.0704992675	0.0893981159
2329.9993066406	0.0882508010
2331.9281140136	0.0874201655
2333.8569213866	0.0872682780
2335.7857287597	0.0868846178
2337.7145361327	0.0867310464
2339.6433435058	0.0867205560
2341.5721508788	0.0870155916
2343.5009582519	0.0883414596
2345.4297656249	0.0898347348
2347.3585729980	0.0934265554
2349.2873803710	0.0962461829
2351.2161877441	0.0930930674
2353.1449951171	0.0884220451
2355.0738024902	0.0853760540
2357.0026098632	0.0827385262
2358.9314172363	0.0812190771
2360.8602246093	0.0802490041
2362.7890319823	0.0800214112
2364.7178393554	0.0806609690
2366.6466467284	0.0816079378
2368.5754541015	0.0831532776
2370.5042614745	0.0849300325
2372.4330688476	0.0873496681
2374.3618762206	0.0897964388
2376.2906835937	0.0919046924
2378.2194909667	0.0939967334
2380.1482983398	0.0954903439
2382.0771057128	0.0964959860
2384.0059130859	0.0970540494
2385.9347204589	0.0974253118
2387.8635278320	0.0975097716
2389.7923352050	0.0974019021
2391.7211425780	0.0972762406
2393.6499499511	0.0971175805
2395.5787573241	0.0971311927
2397.5075646972	0.0969150364
2399.4363720702	0.0967521444
2401.3651794433	0.0966212600
2403.2939868163	0.0964302570
2405.2227941894	0.0963582546
2407.1516015624	0.0962330550
2409.0804089355	0.0960278660
2411.0092163085	0.0958517864
2412.9380236816	0.0958052799
2414.8668310546	0.0956202000
2416.7956384277	0.0955663621
2418.7244458007	0.0954868942
2420.6532531738	0.0952269360
2422.5820605468	0.0950769484
2424.5108679198	0.0948880315
2426.4396752929	0.0947172120
2428.3684826659	0.0945595056
2430.2972900390	0.0944855660
2432.2260974120	0.0943882018
2434.1549047851	0.0942921191
2436.0837121581	0.0941473991
2438.0125195312	0.0939439088
2439.9413269042	0.0938714594
2441.8701342773	0.0937618241
2443.7989416503	0.0936376750
2445.7277490234	0.0934679210
2447.6565563964	0.0933786482
2449.5853637695	0.0932045653
2451.5141711425	0.0929966420
2453.4429785155	0.0930085778
2455.3717858886	0.0929326564
2457.3005932616	0.0927472413
2459.2294006347	0.0925538316
2461.1582080077	0.0924078524
2463.0870153808	0.0922424793
2465.0158227538	0.0921244472
2466.9446301269	0.0919378251
2468.8734374999	0.0918014497
2470.8022448730	0.0918262005
2472.7310522460	0.0916987509
2474.6598596191	0.0915784985
2476.5886669921	0.0914188772
2478.5174743652	0.0913074389
2480.4462817382	0.0911716297
2482.3750891112	0.0909487605
2484.3038964843	0.0908491239
2486.2327038573	0.0907252803
2488.1615112304	0.0906042904
2490.0903186034	0.0905215591
2492.0191259765	0.0904552788
2493.9479333495	0.0903151929
2495.8767407226	0.0901651755
2497.8055480956	0.0899965465
2499.7343554687	0.0898668766
2501.6631628417	0.0897372961
2503.5919702148	0.0895583257
2505.5207775878	0.0894249976
2507.4495849609	0.0892775953
2509.3783923339	0.0893190205
2511.3071997069	0.0891126990
2513.2360070800	0.0889581591
2515.1648144530	0.0890130550
2517.0936218261	0.0887216181
2519.0224291991	0.0886141956
2520.9512365722	0.0886221677
2522.8800439452	0.0884953365
2524.8088513183	0.0882229656
2526.7376586913	0.0880565345
2528.6664660644	0.0879611447
2530.5952734374	0.0878247693
2532.5240808105	0.0878470242
2534.4528881835	0.0876558200
2536.3816955566	0.0875288621
2538.3105029296	0.0874120742
2540.2393103027	0.0872448385
2542.1681176757	0.0871468931
2544.0969250487	0.0869974792
2546.0257324218	0.0869154930
2547.9545397948	0.0867103338
2549.8833471679	0.0866281986
2551.8121545409	0.0865688622
2553.7409619140	0.0864305943
2555.6697692870	0.0863352120
2557.5985766601	0.0862008333
2559.5273840331	0.0860674381
2561.4561914062	0.0859151334
2563.3849987792	0.0858182609
2565.3138061523	0.0856456459
2567.2426135253	0.0855056196
2569.1714208984	0.0853434801
2571.1002282714	0.0852357745
2573.0290356444	0.0852036476
2574.9578430175	0.0849277079
2576.8866503905	0.0847872570
2578.8154577636	0.0847212076
2580.7442651366	0.0845476240
2582.6730725097	0.0845600367
2584.6018798827	0.0844997913
2586.5306872558	0.0842601806
2588.4594946288	0.0841710567
2590.3883020019	0.0839978606
2592.3171093749	0.0838627741
2594.2459167480	0.0838291422
2596.1747241210	0.0836054385
2598.1035314941	0.0835015625
2600.0323388671	0.0834524930
2601.9611462401	0.0833935142
2603.8899536132	0.0830801725
2605.8187609862	0.0828301311
2607.7475683593	0.0829546899
2609.6763757323	0.0827834457
2611.6051831054	0.0825597793
2613.5339904784	0.0824692249
2615.4627978515	0.0824573040
2617.3916052245	0.0823099464
2619.3204125976	0.0821606964
2621.2492199706	0.0822049826
2623.1780273437	0.0820043981
2625.1068347167	0.0817725733
2627.0356420898	0.0815607235
2628.9644494628	0.0815340132
2630.8932568358	0.0814363286
2632.8220642089	0.0812028050
2634.7508715819	0.0812967718
2636.6796789550	0.0811976939
2638.6084863280	0.0809683949
2640.5372937011	0.0808449760
2642.4661010741	0.0806829333
2644.3949084472	0.0805489793
2646.3237158202	0.0804361999
2648.2525231933	0.0803220719
2650.1813305663	0.0802451223
2652.1101379394	0.0800892264
2654.0389453124	0.0799149051
2655.9677526855	0.0798834860
2657.8965600585	0.0797143281
2659.8253674315	0.0795635283
2661.7541748046	0.0795729160
2663.6829821776	0.0795134604
2665.6117895507	0.0792654157
2667.5405969237	0.0790731907
2669.4694042968	0.0790038258
2671.3982116698	0.0788570940
2673.3270190429	0.0788652748
2675.2558264159	0.0787112564
2677.1846337890	0.0784964263
2679.1134411620	0.0784842521
2681.0422485351	0.0783185214
2682.9710559081	0.0781654269
2684.8998632812	0.0781496167
2686.8286706542	0.0779850855
2688.7574780273	0.0777285546
2690.6862854003	0.0777448267
2692.6150927733	0.0776031241
2694.5439001464	0.0773717314
2696.4727075194	0.0773742273
2698.4015148925	0.0772408545
2700.3303222655	0.0770977587
2702.2591296386	0.0770407468
2704.1879370116	0.0769516602
2706.1167443847	0.0767493322
2708.0455517577	0.0766086876
2709.9743591308	0.0765082836
2711.9031665038	0.0764112696
2713.8319738769	0.0762955844
2715.7607812499	0.0761030093
2717.6895886230	0.0760412812
2719.6183959960	0.0759121552
2721.5472033690	0.0757638663
2723.4760107421	0.0755917877
2725.4048181151	0.0755151659
2727.3336254882	0.0754755735
2729.2624328612	0.0753328428
2731.1912402343	0.0752218813
2733.1200476073	0.0749816746
2735.0488549804	0.0749222785
2736.9776623534	0.0748332739
2738.9064697265	0.0746714622
2740.8352770995	0.0745399594
2742.7640844726	0.0744353682
2744.6928918456	0.0743395090
2746.6216992187	0.0740546584
2748.5505065917	0.0740715861
2750.4793139647	0.0740076676
2752.4081213378	0.0737799332
2754.3369287108	0.0736778677
2756.2657360839	0.0735808164
2758.1945434569	0.0733799785
2760.1233508300	0.0732078031
2762.0521582030	0.0732380450
2763.9809655761	0.0730569586
2765.9097729491	0.0729728714
2767.8385803222	0.0727241188
2769.7673876952	0.0725796521
2771.6961950683	0.0726045892
2773.6250024413	0.0723610222
2775.5538098144	0.0724035054
2777.4826171874	0.0722317025
2779.4114245604	0.0721153840
2781.3402319335	0.0719890594
2783.2690393065	0.0717326477
2785.1978466796	0.0716389939
2787.1266540526	0.0714508593
2789.0554614257	0.0713887513
2790.9842687987	0.0712131262
2792.9130761718	0.0710611194
2794.8418835448	0.0708276480
2796.7706909179	0.0707436875
2798.6994982909	0.0706678033
2800.6283056640	0.0704923347
2802.5571130370	0.0704946890
2804.4859204101	0.0702467635
2806.4147277831	0.0702007711
2808.3435351562	0.0699771792
2810.2723425292	0.0698849484
2812.2011499022	0.0698315799
2814.1299572753	0.0695345625
2816.0587646483	0.0695588887
2817.9875720214	0.0692261755
2819.9163793944	0.0691443831
2821.8451867675	0.0691443235
2823.7739941405	0.0690082535
2825.7028015136	0.0688890293
2827.6316088866	0.0685408637
2829.5604162597	0.0685203075
2831.4892236327	0.0683374703
2833.4180310058	0.0681864172
2835.3468383788	0.0681327879
2837.2756457519	0.0678359866
2839.2044531249	0.0676973462
2841.1332604979	0.0675311238
2843.0620678710	0.0672142655
2844.9908752440	0.0669591427
2846.9196826171	0.0665363967
2848.8484899901	0.0661338121
2850.7772973632	0.0660287738
2852.7061047362	0.0658578351
2854.6349121093	0.0659654886
2856.5637194823	0.0658572987
2858.4925268554	0.0656090826
2860.4213342284	0.0656886026
2862.3501416015	0.0654740930
2864.2789489745	0.0654718131
2866.2077563476	0.0653984398
2868.1365637206	0.0651564151
2870.0653710936	0.0651103780
2871.9941784667	0.0649683923
2873.9229858397	0.0648203492
2875.8517932128	0.0647041649
2877.7806005858	0.0645858943
2879.7094079589	0.0645652711
2881.6382153319	0.0646178424
2883.5670227050	0.0644002110
2885.4958300780	0.0643723309
2887.4246374511	0.0641502440
2889.3534448241	0.0637990236
2891.2822521972	0.0638604239
2893.2110595702	0.0636023879
2895.1398669433	0.0634908974
2897.0686743163	0.0634098649
2898.9974816893	0.0632348657
2900.9262890624	0.0630828738
2902.8550964354	0.0629415363
2904.7839038085	0.0628076494
2906.7127111815	0.0624623671
2908.6415185546	0.0624161623
2910.5703259276	0.0621234253
2912.4991333007	0.0617993698
2914.4279406737	0.0614628233
2916.3567480468	0.0610612184
2918.2855554198	0.0610134006
2920.2143627929	0.0609178469
2922.1431701659	0.0609773546
2924.0719775390	0.0606879517
2926.0007849120	0.0606062934
2927.9295922851	0.0606778711
2929.8583996581	0.0604552478
2931.7872070311	0.0605632327
2933.7160144042	0.0603975765
2935.6448217772	0.0603112839
2937.5736291503	0.0603492297
2939.5024365233	0.0603014641
2941.4312438964	0.0603601746
2943.3600512694	0.0603214577
2945.2888586425	0.0602459833
2947.2176660155	0.0601152629
2949.1464733886	0.0599877462
2951.0752807616	0.0598398075
2953.0040881347	0.0597629473
2954.9328955077	0.0595678762
2956.8617028808	0.0593650118
2958.7905102538	0.0592126325
2960.7193176268	0.0590454563
2962.6481249999	0.0589634553
2964.5769323729	0.0587754957
2966.5057397460	0.0586950108
2968.4345471190	0.0586210117
2970.3633544921	0.0587213524
2972.2921618651	0.0588507690
2974.2209692382	0.0587721802
2976.1497766112	0.0588146597
2978.0785839843	0.0587909669
2980.0073913573	0.0587689877
2981.9361987304	0.0587247610
2983.8650061034	0.0586399212
2985.7938134765	0.0585897267
2987.7226208495	0.0585412979
2989.6514282225	0.0585679114
2991.5802355956	0.0585267991
2993.5090429686	0.0582183823
2995.4378503417	0.0581362061
2997.3666577147	0.0582357943
2999.2954650878	0.0579490587
3001.2242724608	0.0579583831
3003.1530798339	0.0578471199
3005.0818872069	0.0575754121
3007.0106945800	0.0576324202
3008.9395019530	0.0574179813
3010.8683093261	0.0572769605
3012.7971166991	0.0570944175
3014.7259240722	0.0569760241
3016.6547314452	0.0569670908
3018.5835388182	0.0568217933
3020.5123461913	0.0568146333
3022.4411535643	0.0567023829
3024.3699609374	0.0565593392
3026.2987683104	0.0563524887
3028.2275756835	0.0562065765
3030.1563830565	0.0560928322
3032.0851904296	0.0558833852
3034.0139978026	0.0557717979
3035.9428051757	0.0557385534
3037.8716125487	0.0557198972
3039.8004199218	0.0554842390
3041.7292272948	0.0554072186
3043.6580346679	0.0554024018
3045.5868420409	0.0552498959
3047.5156494139	0.0551290885
3049.4444567870	0.0548930764
3051.3732641600	0.0547932200
3053.3020715331	0.0547028035
3055.2308789061	0.0545750260
3057.1596862792	0.0545200855
3059.0884936522	0.0544018000
3061.0173010253	0.0543578155
3062.9461083983	0.0542423949
3064.8749157714	0.0540107638
3066.8037231444	0.0538781881
3068.7325305175	0.0538778082
3070.6613378905	0.0538048595
3072.5901452636	0.0536468625
3074.5189526366	0.0536255464
3076.4477600097	0.0534798652
3078.3765673827	0.0533023290
3080.3053747557	0.0531874374
3082.2341821288	0.0530214235
3084.1629895018	0.0531039275
3086.0917968749	0.0529345647
3088.0206042479	0.0527577102
3089.9494116210	0.0527925268
3091.8782189940	0.0525808036
3093.8070263671	0.0525104553
3095.7358337401	0.0522637218
3097.6646411132	0.0521686524
3099.5934484862	0.0521466807
3101.5222558593	0.0519187599
3103.4510632323	0.0519384332
3105.3798706054	0.0517090708
3107.3086779784	0.0516027734
3109.2374853514	0.0514533632
3111.1662927245	0.0512948781
3113.0951000975	0.0513076857
3115.0239074706	0.0510264337
3116.9527148436	0.0509347171
3118.8815222167	0.0508235283
3120.8103295897	0.0507091507
3122.7391369628	0.0505969599
3124.6679443358	0.0505445376
3126.5967517089	0.0504580736
3128.5255590819	0.0501546375
3130.4543664550	0.0501579307
3132.3831738280	0.0499957427
3134.3119812011	0.0497853868
3136.2407885741	0.0496922918
3138.1695959471	0.0496392548
3140.0984033202	0.0496062636
3142.0272106932	0.0493148975
3143.9560180663	0.0492065474
3145.8848254393	0.0491303205
3147.8136328124	0.0489698201
3149.7424401854	0.0488485396
3151.6712475585	0.0487169214
3153.6000549315	0.0485735014
3155.5288623046	0.0484224856
3157.4576696776	0.0482898243
3159.3864770507	0.0481520221
3161.3152844237	0.0480748266
3163.2440917968	0.0478956737
3165.1728991698	0.0477385670
3167.1017065428	0.0476486348
3169.0305139159	0.0475870222
3170.9593212889	0.0474327728
3172.8881286620	0.0472976565
3174.8169360350	0.0472096056
3176.7457434081	0.0469339937
3178.6745507811	0.0469393544
3180.6033581542	0.0468497500
3182.5321655272	0.0467136502
3184.4609729003	0.0466072336
3186.3897802733	0.0463797748
3188.3185876464	0.0464491211
3190.2473950194	0.0461248234
3192.1762023925	0.0459498763
3194.1050097655	0.0460068136
3196.0338171386	0.0457466282
3197.9626245116	0.0457688086
3199.8914318846	0.0456640534
3201.8202392577	0.0455382541
3203.7490466307	0.0454661138
3205.6778540038	0.0452676341
3207.6066613768	0.0452120267
3209.5354687499	0.0450707227
3211.4642761229	0.0450144783
3213.3930834960	0.0448910221
3215.3218908690	0.0446753874
3217.2506982421	0.0447073728
3219.1795056151	0.0446325354
3221.1083129882	0.0445122272
3223.0371203612	0.0444269143
3224.9659277343	0.0443635471
3226.8947351073	0.0443153083
3228.8235424803	0.0441185459
3230.7523498534	0.0440741107
3232.6811572264	0.0439677238
3234.6099645995	0.0438451245
3236.5387719725	0.0439301357
3238.4675793456	0.0438618511
3240.3963867186	0.0437628329
3242.3251940917	0.0436701104
3244.2540014647	0.0434845909
3246.1828088378	0.0434118062
3248.1116162108	0.0434813350
3250.0404235839	0.0433159322
3251.9692309569	0.0431970693
3253.8980383300	0.0432550609
3255.8268457030	0.0431608446
3257.7556530760	0.0431466848
3259.6844604491	0.0430100039
3261.6132678221	0.0429539755
3263.5420751952	0.0429377630
3265.4708825682	0.0428554267
3267.3996899413	0.0429041721
3269.3284973143	0.0426824763
3271.2573046874	0.0425489098
3273.1861120604	0.0426352918
3275.1149194335	0.0426252559
3277.0437268065	0.0424384475
3278.9725341796	0.0423946455
3280.9013415526	0.0423530266
3282.8301489257	0.0422071442
3284.7589562987	0.0423349589
3286.6877636717	0.0421928056
3288.6165710448	0.0420843102
3290.5453784178	0.0420805812
3292.4741857909	0.0419185311
3294.4029931639	0.0418126658
3296.3318005370	0.0417860709
3298.2606079100	0.0418155417
3300.1894152831	0.0416059457
3302.1182226561	0.0416479819
3304.0470300292	0.0416344851
3305.9758374022	0.0414470732
3307.9046447753	0.0413983390
3309.8334521483	0.0413164161
3311.7622595214	0.0413248502
3313.6910668944	0.0411455706
3315.6198742675	0.0411385447
3317.5486816405	0.0410945676
3319.4774890135	0.0410345197
3321.4062963866	0.0411249697
3323.3351037596	0.0409828313
3325.2639111327	0.0408614054
3327.1927185057	0.0407136977
3329.1215258788	0.0407299921
3331.0503332518	0.0406001732
3332.9791406249	0.0405544341
3334.9079479979	0.0406338274
3336.8367553710	0.0403359160
3338.7655627440	0.0403593294
3340.6943701171	0.0403712690
3342.6231774901	0.0401428938
3344.5519848632	0.0401510820
3346.4807922362	0.0401670337
3348.4095996092	0.0400272682
3350.3384069823	0.0399271175
3352.2672143553	0.0398376770
3354.1960217284	0.0397784524
3356.1248291014	0.0397335663
3358.0536364745	0.0396192595
3359.9824438475	0.0396100730
3361.9112512206	0.0395101756
3363.8400585936	0.0393951945
3365.7688659667	0.0392345041
3367.6976733397	0.0391595848
3369.6264807128	0.0391707048
3371.5552880858	0.0390742049
3373.4840954589	0.0390521213
3375.4129028319	0.0388623402
3377.3417102049	0.0388343595
3379.2705175780	0.0387794077
3381.1993249510	0.0386806615
3383.1281323241	0.0386674032
3385.0569396971	0.0384878740
3386.9857470702	0.0384701788
3388.9145544432	0.0384096652
3390.8433618163	0.0383345410
3392.7721691893	0.0381075963
3394.7009765624	0.0380467772
3396.6297839354	0.0380853117
3398.5585913085	0.0378700495
3400.4873986815	0.0378657654
3402.4162060546	0.0377843305
3404.3450134276	0.0377225839
3406.2738208006	0.0376186445
3408.2026281737	0.0375045016
3410.1314355467	0.0374839455
3412.0602429198	0.0374118350
3413.9890502928	0.0373364687
3415.9178576659	0.0373137444
3417.8466650389	0.0373016670
3419.7754724120	0.0370285735
3421.7042797850	0.0369391888
3423.6330871581	0.0369047634
3425.5618945311	0.0369926803
3427.4907019042	0.0368764251
3429.4195092772	0.0366553441
3431.3483166503	0.0367951393
3433.2771240233	0.0365357623
3435.2059313963	0.0365097597
3437.1347387694	0.0364077389
3439.0635461424	0.0363592356
3440.9923535155	0.0363103375
3442.9211608885	0.0360393897
3444.8499682616	0.0362441987
3446.7787756346	0.0358494371
3448.7075830077	0.0358436145
3450.6363903807	0.0361234285
3452.5651977538	0.0359045863
3454.4940051268	0.0359421521
3456.4228124999	0.0358417071
3458.3516198729	0.0357763991
3460.2804272460	0.0357274711
3462.2092346190	0.0356723368
3464.1380419921	0.0355792567
3466.0668493651	0.0355237685
3467.9956567381	0.0354280546
3469.9244641112	0.0353841856
3471.8532714842	0.0354696065
3473.7820788573	0.0352942534
3475.7108862303	0.0352650471
3477.6396936034	0.0353002399
3479.5685009764	0.0351926833
3481.4973083495	0.0348877609
3483.4261157225	0.0350496843
3485.3549230956	0.0352404863
3487.2837304686	0.0349256247
3489.2125378417	0.0349428542
3491.1413452147	0.0349906832
3493.0701525878	0.0351064876
3494.9989599608	0.0349467508
3496.9277673338	0.0347282439
3498.8565747069	0.0348063223
3500.7853820799	0.0348027982
3502.7141894530	0.0344320275
3504.6429968260	0.0343595184
3506.5718041991	0.0349589363
3508.5006115721	0.0344856083
3510.4294189452	0.0342961177
3512.3582263182	0.0346245691
3514.2870336913	0.0345888063
3516.2158410643	0.0347721167
3518.1446484374	0.0345461704
3520.0734558104	0.0346468613
3522.0022631835	0.0343828686
3523.9310705565	0.0340212360
3525.8598779295	0.0341389775
3527.7886853026	0.0340531021
3529.7174926756	0.0341171846
3531.6463000487	0.0342282355
3533.5751074217	0.0345403142
3535.5039147948	0.0343243331
3537.4327221678	0.0341281965
3539.3615295409	0.0343491882
3541.2903369139	0.0342456587
3543.2191442870	0.0341428220
3545.1479516600	0.0336111858
3547.0767590331	0.0332235359
3549.0055664061	0.0339904130
3550.9343737792	0.0341688208
3552.8631811522	0.0335062258
3554.7919885252	0.0339597166
3556.7207958983	0.0341034010
3558.6496032713	0.0339348465
3560.5784106444	0.0338168032
3562.5072180174	0.0335231312
3564.4360253905	0.0337322392
3566.3648327635	0.0321100876
3568.2936401366	0.0314471349
3570.2224475096	0.0334046297
3572.1512548827	0.0339146405
3574.0800622557	0.0335485153
3576.0088696288	0.0336708464
3577.9376770018	0.0336592793
3579.8664843749	0.0336202160
3581.7952917479	0.0336083844
3583.7240991210	0.0336428583
3585.6529064940	0.0330274254
3587.5817138670	0.0311514549
3589.5105212401	0.0317355171
3591.4393286131	0.0337178037
3593.3681359862	0.0330384150
3595.2969433592	0.0326286331
3597.2257507323	0.0330944732
3599.1545581053	0.0332308970
3601.0833654784	0.0330239311
3603.0121728514	0.0331426412
3604.9409802245	0.0336505547
3606.8697875975	0.0327497795
3608.7985949706	0.0312165022
3610.7274023436	0.0317159072
3612.6562097167	0.0322228745
3614.5850170897	0.0316847935
3616.5138244627	0.0332413577
3618.4426318358	0.0313192867
3620.3714392088	0.0304910466
3622.3002465819	0.0332778543
3624.2290539549	0.0326821767
3626.1578613280	0.0337346755
3628.0866687010	0.0297877081
3630.0154760741	0.0277843531
3631.9442834471	0.0330208689
3633.8730908202	0.0324261189
3635.8018981932	0.0327807441
3637.7307055663	0.0332411081
3639.6595129393	0.0327754170
3641.5883203124	0.0330895334
3643.5171276854	0.0326710194
3645.4459350584	0.0330331996
3647.3747424315	0.0303828828
3649.3035498045	0.0282680709
3651.2323571776	0.0287117139
3653.1611645506	0.0326186717
3655.0899719237	0.0321706533
3657.0187792967	0.0296027306
3658.9475866698	0.0330099352
3660.8763940428	0.0324646831
3662.8052014159	0.0327323452
3664.7340087889	0.0326041393
3666.6628161620	0.0324372016
3668.5916235350	0.0317285843
3670.5204309081	0.0269803572
3672.4492382811	0.0312578678
3674.3780456541	0.0302401055
3676.3068530272	0.0261501931
3678.2356604002	0.0311776232
3680.1644677733	0.0317518115
3682.0932751463	0.0315546431
3684.0220825194	0.0322768241
3685.9508898924	0.0319791064
3687.8796972655	0.0293247513
3689.8085046385	0.0274743848
3691.7373120116	0.0306312349
3693.6661193846	0.0312066562
3695.5949267577	0.0316288061
3697.5237341307	0.0316338688
3699.4525415038	0.0313795358
3701.3813488768	0.0307568535
3703.3101562499	0.0298107602
3705.2389636229	0.0320880637
3707.1677709959	0.0308224596
3709.0965783690	0.0302724764
3711.0253857420	0.0289359875
3712.9541931151	0.0274899341
3714.8830004881	0.0310640186
3716.8118078612	0.0305623561
3718.7406152342	0.0306743085
3720.6694226073	0.0302765742
3722.5982299803	0.0294271000
3724.5270373534	0.0302634612
3726.4558447264	0.0285931099
3728.3846520995	0.0303459316
3730.3134594725	0.0299718920
3732.2422668456	0.0281168483
3734.1710742186	0.0276619270
3736.0998815916	0.0266273879
3738.0286889647	0.0277060792
3739.9574963377	0.0294033289
3741.8863037108	0.0305723101
3743.8151110838	0.0249278992
3745.7439184569	0.0237973146
3747.6727258299	0.0292959735
3749.6015332030	0.0259761773
3751.5303405760	0.0244287942
3753.4591479491	0.0272537433
3755.3879553221	0.0287780147
3757.3167626952	0.0296695195
3759.2455700682	0.0279670693
3761.1743774413	0.0286619887
3763.1031848143	0.0299480371
3765.0319921873	0.0283488892
3766.9607995604	0.0288347155
3768.8896069334	0.0286006741
3770.8184143065	0.0275439657
3772.7472216795	0.0292842221
3774.6760290526	0.0292708538
3776.6048364256	0.0292339399
3778.5336437987	0.0286963284
3780.4624511717	0.0276553929
3782.3912585448	0.0289935879
3784.3200659178	0.0286792144
3786.2488732909	0.0284969285
3788.1776806639	0.0288602561
3790.1064880370	0.0287409965
3792.0352954100	0.0286018923
3793.9641027830	0.0290140025
3795.8929101561	0.0276191905
3797.8217175291	0.0272993110
3799.7505249022	0.0283242278
3801.6793322752	0.0236756504
3803.6081396483	0.0267573632
3805.5369470213	0.0285041369
3807.4657543944	0.0244091898
3809.3945617674	0.0281289872
3811.3233691405	0.0276861340
3813.2521765135	0.0284776967
3815.1809838866	0.0261939820
3817.1097912596	0.0238149222
3819.0385986327	0.0284450371
3820.9674060057	0.0242508370
3822.8962133787	0.0251753367
3824.8250207518	0.0281679220
3826.7538281248	0.0260981079
3828.6826354979	0.0275841355
3830.6114428709	0.0267730728
3832.5402502440	0.0260986127
3834.4690576170	0.0265395325
3836.3978649901	0.0254606754
3838.3266723631	0.0234407112
3840.2554797362	0.0250348449
3842.1842871092	0.0265093520
3844.1130944823	0.0254877508
3846.0419018553	0.0271139480
3847.9707092284	0.0266503096
3849.8995166014	0.0266763791
3851.8283239745	0.0246929526
3853.7571313475	0.0197308231
3855.6859387205	0.0223990828
3857.6147460936	0.0268757101
3859.5435534666	0.0261072274
3861.4723608397	0.0259842984
3863.4011682127	0.0255830958
3865.3299755858	0.0240319856
3867.2587829588	0.0261869933
3869.1875903319	0.0244003087
3871.1163977049	0.0230458602
3873.0452050780	0.0261114743
3874.9740124510	0.0244146418
3876.9028198241	0.0259506665
3878.8316271971	0.0263044611
3880.7604345702	0.0234420002
3882.6892419432	0.0260587558
3884.6180493162	0.0246344991
3886.5468566893	0.0231070966
3888.4756640623	0.0261217579
3890.4044714354	0.0248727240
3892.3332788084	0.0236500409
3894.2620861815	0.0254602525
3896.1908935545	0.0257026628
3898.1197009276	0.0247316621
3900.0485083006	0.0237407647
3901.9773156737	0.0234373417
3903.9061230467	0.0232979115
3905.8349304198	0.0236828141
3907.7637377928	0.0252443701
3909.6925451659	0.0252246596
3911.6213525389	0.0249919370
3913.5501599119	0.0252180360
3915.4789672850	0.0246075280
3917.4077746580	0.0241934136
3919.3365820311	0.0240497254
3921.2653894041	0.0246145763
3923.1941967772	0.0245842859
3925.1230041502	0.0241530128
3927.0518115233	0.0245012101
3928.9806188963	0.0246465839
3930.9094262694	0.0241203494
3932.8382336424	0.0236354694
3934.7670410155	0.0242904052
3936.6958483885	0.0244292207
3938.6246557616	0.0242258869
3940.5534631346	0.0243196003
3942.4822705076	0.0236525778
3944.4110778807	0.0237756222
3946.3398852537	0.0241185911
3948.2686926268	0.0237277485
3950.1974999998	0.0237294510
3952.1263073729	0.0238502920
3954.0551147459	0.0238655321
3955.9839221190	0.0238406844
3957.9127294920	0.0237528533
3959.8415368651	0.0237320624
3961.7703442381	0.0235802978
3963.6991516112	0.0235666819
3965.6279589842	0.0236363262
3967.5567663573	0.0235785060
3969.4855737303	0.0235052854
3971.4143811034	0.0233055614
3973.3431884764	0.0233106706
3975.2719958494	0.0232446548
3977.2008032225	0.0231643617
3979.1296105955	0.0232543629
3981.0584179686	0.0231046602
3982.9872253416	0.0231021866
3984.9160327147	0.0230753329
3986.8448400877	0.0229718573
3988.7736474608	0.0229348391
3990.7024548338	0.0228684917
3992.6312622069	0.0228248127
3994.5600695799	0.0227221325
3996.4888769530	0.0227433480
3998.4176843260	0.0226751398
4000.3464916991	0.0225977376
4002.2752990721	0.0226317309
4004.2041064451	0.0225441568
4006.1329138182	0.0224558059
4008.0617211912	0.0224332549
4009.9905285643	0.0223984830
4011.9193359373	0.0223501232
4013.8481433104	0.0223567784
4015.7769506834	0.0222444534
4017.7057580565	0.0221522488
4019.6345654295	0.0221411921
4021.5633728026	0.0221416987
4023.4921801756	0.0221929159
4025.4209875487	0.0220469236
4027.3497949217	0.0219722800
4029.2786022948	0.0219435245
4031.2074096678	0.0218060203
4033.1362170408	0.0217911210
4035.0650244139	0.0216983948
4036.9938317869	0.0216868520
4038.9226391600	0.0217194129
4040.8514465330	0.0215850659
4042.7802539061	0.0215926096
4044.7090612791	0.0215221904
4046.6378686522	0.0214415267
4048.5666760252	0.0215239041
4050.4954833983	0.0214641578
4052.4242907713	0.0214136355
4054.3530981444	0.0213838108
4056.2819055174	0.0212441422
4058.2107128905	0.0211532973
4060.1395202635	0.0212626196
4062.0683276365	0.0211892985
4063.9971350096	0.0210011583
4065.9259423826	0.0210241750
4067.8547497557	0.0209168438
4069.7835571287	0.0209300183
4071.7123645018	0.0209272411
4073.6411718748	0.0208333284
4075.5699792479	0.0208759978
4077.4987866209	0.0208188128
4079.4275939940	0.0207392015
4081.3564013670	0.0206708796
4083.2852087401	0.0206780247
4085.2140161131	0.0205333419
4087.1428234862	0.0204767175
4089.0716308592	0.0205368306
4091.0004382323	0.0204581507
4092.9292456053	0.0204504281
4094.8580529783	0.0203313194
4096.7868603514	0.0202867240
4098.7156677244	0.0202055722
4100.6444750975	0.0201217718
4102.5732824705	0.0200568605
4104.5020898436	0.0200040843
4106.4308972166	0.0200427137
4108.3597045897	0.0199712534
4110.2885119627	0.0200309791
4112.2173193358	0.0198576134
4114.1461267088	0.0198078081
4116.0749340819	0.0198914893
4118.0037414549	0.0197301041
4119.9325488280	0.0197198614
4121.8613562010	0.0196970142
4123.7901635740	0.0196438618
4125.7189709471	0.0195258111
4127.6477783201	0.0195865594
4129.5765856932	0.0195505247
4131.5053930662	0.0194572955
4133.4342004393	0.0194095522
4135.3630078123	0.0192505270
4137.2918151854	0.0193418749
4139.2206225584	0.0192295872
4141.1494299315	0.0192496479
4143.0782373045	0.0192156993
4145.0070446776	0.0191184133
4146.9358520506	0.0191576891
4148.8646594237	0.0189865492
4150.7934667967	0.0190417301
4152.7222741697	0.0189087391
4154.6510815428	0.0189181864
4156.5798889158	0.0189121980
4158.5086962889	0.0187599137
4160.4375036619	0.0188555792
4162.3663110350	0.0187396407
4164.2951184080	0.0186929815
4166.2239257811	0.0185705796
4168.1527331541	0.0185559690
4170.0815405272	0.0186242349
4172.0103479002	0.0185671002
4173.9391552733	0.0185515955
4175.8679626463	0.0184226148
4177.7967700194	0.0183523484
4179.7255773924	0.0183152333
4181.6543847654	0.0182981584
4183.5831921385	0.0182406232
4185.5119995115	0.0182570573
4187.4408068846	0.0181818716
4189.3696142576	0.0180594251
4191.2984216307	0.0180465952
4193.2272290037	0.0179678239
4195.1560363768	0.0179374665
4197.0848437498	0.0179016851
4199.0136511229	0.0179571323
4200.9424584959	0.0178125445
4202.8712658690	0.0177939348
4204.8000732420	0.0178405046
4206.7288806151	0.0176651664
4208.6576879881	0.0176958218
4210.5864953611	0.0176428892
4212.5153027342	0.0176647343
4214.4441101072	0.0175578855
4216.3729174803	0.0174689889
4218.3017248533	0.0174608957
4220.2305322264	0.0173943210
4222.1593395994	0.0174627751
4224.0881469725	0.0172992721
4226.0169543455	0.0173095036
4227.9457617186	0.0172272343
4229.8745690916	0.0171359908
4231.8033764647	0.0172401071
4233.7321838377	0.0171533637
4235.6609912108	0.0171261504
4237.5897985838	0.0170315169
4239.5186059569	0.0169966407
4241.4474133299	0.0170389041
4243.3762207029	0.0169382878
4245.3050280760	0.0167744644
4247.2338354490	0.0168536231
4249.1626428221	0.0168102626
4251.0914501951	0.0166892894
4253.0202575682	0.0167863779
4254.9490649412	0.0166595802
4256.8778723143	0.0166720096
4258.8066796873	0.0166093521
4260.7354870604	0.0166076943
4262.6642944334	0.0166465100
4264.5931018065	0.0164597258
4266.5219091795	0.0165136345
4268.4507165526	0.0164781231
4270.3795239256	0.0164586566
4272.3083312986	0.0164064057
4274.2371386717	0.0163720027
4276.1659460447	0.0163488574
4278.0947534178	0.0162610002
4280.0235607908	0.0162652247
4281.9523681639	0.0162057504
4283.8811755369	0.0161746852
4285.8099829100	0.0160113089
4287.7387902830	0.0160327014
4289.6675976561	0.0159778967
4291.5964050291	0.0159016177
4293.5252124022	0.0160352960
4295.4540197752	0.0159227774
4297.3828271483	0.0158722103
4299.3116345213	0.0158474501
4301.2404418943	0.0158716477
4303.1692492674	0.0157571137
4305.0980566404	0.0157110114
4307.0268640135	0.0157117955
4308.9556713865	0.0155754518
4310.8844787596	0.0156600252
4312.8132861326	0.0155551024
4314.7420935057	0.0155378710
4316.6709008787	0.0154921841
4318.5997082518	0.0154438019
4320.5285156248	0.0154729169
4322.4573229979	0.0153251849
4324.3861303709	0.0153442733
4326.3149377440	0.0152967591
4328.2437451170	0.0153332986
4330.1725524900	0.0152529357
4332.1013598631	0.0151223168
4334.0301672361	0.0152065884
4335.9589746092	0.0151263494
4337.8877819822	0.0150496457
4339.8165893553	0.0150809400
4341.7453967283	0.0150617249
4343.6742041014	0.0149395633
4345.6030114744	0.0149777252
4347.5318188475	0.0149242785
4349.4606262205	0.0148541331
4351.3894335936	0.0149229057
4353.3182409666	0.0147928130
4355.2470483397	0.0147388941
4357.1758557127	0.0147541594
4359.1046630858	0.0147251803
4361.0334704588	0.0146724097
4362.9622778318	0.0146664716
4364.8910852049	0.0145776654
4366.8198925779	0.0145150730
4368.7486999510	0.0145497546
4370.6775073240	0.0144363437
4372.6063146971	0.0144563047
4374.5351220701	0.0143970968
4376.4639294432	0.0142983580
4378.3927368162	0.0143183479
4380.3215441893	0.0143026039
4382.2503515623	0.0143094156
4384.1791589354	0.0142717790
4386.1079663084	0.0142258238
4388.0367736815	0.0141589660
4389.9655810545	0.0141093843
4391.8943884275	0.0141186584
4393.8231958006	0.0141037209
4395.7520031736	0.0139110368
4397.6808105467	0.0139631163
4399.6096179197	0.0140849911
4401.5384252928	0.0138943940
4403.4672326658	0.0138329994
4405.3960400389	0.0137975048
4407.3248474119	0.0138824442
4409.2536547850	0.0138309710
4411.1824621580	0.0137707787
4413.1112695311	0.0137949437
4415.0400769041	0.0136887105
4416.9688842772	0.0137454867
4418.8976916502	0.0135175921
4420.8264990232	0.0134927798
4422.7553063963	0.0135584464
4424.6841137693	0.0134664457
4426.6129211424	0.0134919882
4428.5417285154	0.0133665344
4430.4705358885	0.0134568848
4432.3993432615	0.0134056322
4434.3281506346	0.0133409062
4436.2569580076	0.0133140199
4438.1857653807	0.0132551286
4440.1145727537	0.0133187901
4442.0433801268	0.0131932851
4443.9721874998	0.0132331643
4445.9009948729	0.0131815188
4447.8298022459	0.0131629221
4449.7586096189	0.0131650604
4451.6874169920	0.0130330091
4453.6162243650	0.0130543178
4455.5450317381	0.0129784178
4457.4738391111	0.0129930098
4459.4026464842	0.0129169412
4461.3314538572	0.0128683299
4463.2602612303	0.0128735173
4465.1890686033	0.0127702914
4467.1178759764	0.0128442198
4469.0466833494	0.0127314515
4470.9754907225	0.0126416199
4472.9042980955	0.0126871280
4474.8331054686	0.0126056504
4476.7619128416	0.0126454942
4478.6907202147	0.0126706865
4480.6195275877	0.0125081940
4482.5483349607	0.0124670118
4484.4771423338	0.0125514977
4486.4059497068	0.0124589689
4488.3347570799	0.0124413725
4490.2635644529	0.0125187319
4492.1923718260	0.0123909973
4494.1211791990	0.0123736840
4496.0499865721	0.0124370260
4497.9787939451	0.0123296827
4499.9076013182	0.0122740157
4501.8364086912	0.0121902358
4503.7652160643	0.0121419225
4505.6940234373	0.0122043714
4507.6228308104	0.0121367685
4509.5516381834	0.0120579973
4511.4804455564	0.0120472210
4513.4092529295	0.0120425373
4515.3380603025	0.0120183062
4517.2668676756	0.0120399985
4519.1956750486	0.0119908499
4521.1244824217	0.0119203087
4523.0532897947	0.0119354194
4524.9820971678	0.0118558593
4526.9109045408	0.0118704922
4528.8397119139	0.0117922844
4530.7685192869	0.0117267370
4532.6973266600	0.0118240081
4534.6261340330	0.0117385108
4536.5549414061	0.0117081571
4538.4837487791	0.0116813891
4540.4125561521	0.0115988180
4542.3413635252	0.0115853185
4544.2701708982	0.0116117578
4546.1989782713	0.0115609057
4548.1277856443	0.0114489123
4550.0565930174	0.0114832018
4551.9854003904	0.0114774536
4553.9142077635	0.0114621269
4555.8430151365	0.0114509128
4557.7718225096	0.0113308113
4559.7006298826	0.0111970250
4561.6294372557	0.0112271067
4563.5582446287	0.0113302656
4565.4870520018	0.0112391338
4567.4158593748	0.0111466311
4569.3446667478	0.0110944547
4571.2734741209	0.0111134611
4573.2022814939	0.0111290962
4575.1310888670	0.0111057973
4577.0598962400	0.0111631230
4578.9887036131	0.0110788699
4580.9175109861	0.0109838713
4582.8463183592	0.0109280571
4584.7751257322	0.0108941384
4586.7039331053	0.0109123774
4588.6327404783	0.0108681154
4590.5615478514	0.0108373025
4592.4903552244	0.0108147468
4594.4191625975	0.0107857715
4596.3479699705	0.0107520977
4598.2767773435	0.0107391234
4600.2055847166	0.0106935706
4602.1343920896	0.0107281124
4604.0631994627	0.0107825808
4605.9920068357	0.0106253373
4607.9208142088	0.0105817318
4609.8496215818	0.0106003284
4611.7784289549	0.0105690379
4613.7072363279	0.0105278250
4615.6360437010	0.0104204100
4617.5648510740	0.0104635814
4619.4936584471	0.0104600629
4621.4224658201	0.0104650641
4623.3512731932	0.0105317105
4625.2800805662	0.0104032047
4627.2088879393	0.0103079937
4629.1376953123	0.0102196690
4631.0665026853	0.0101724006
4632.9953100584	0.0102457749
4634.9241174314	0.0102310069
4636.8529248045	0.0101007139
4638.7817321775	0.0100748613
4640.7105395506	0.0101670995
4642.6393469236	0.0100780074
4644.5681542967	0.0100900577
4646.4969616697	0.0101197083
4648.4257690428	0.0100356191
4650.3545764158	0.0100398529
4652.2833837889	0.0099432413
4654.2121911619	0.0099635087
4656.1409985350	0.0099436026
4658.0698059080	0.0099086398
4659.9986132810	0.0099189105
4661.9274206541	0.0098003987
4663.8562280271	0.0098298183
4665.7850354002	0.0098179607
4667.7138427732	0.0098089874
4669.6426501463	0.0097560380
4671.5714575193	0.0097141694
4673.5002648924	0.0097674932
4675.4290722654	0.0096964482
4677.3578796385	0.0096790399
4679.2866870115	0.0096264360
4681.2154943846	0.0096186856
4683.1443017576	0.0095855864
4685.0731091307	0.0095025944
4687.0019165037	0.0094958916
4688.9307238767	0.0094811600
4690.8595312498	0.0094821295
4692.7883386228	0.0094266515
4694.7171459959	0.0094661005
4696.6459533689	0.0094784759
4698.5747607420	0.0094259996
4700.5035681150	0.0093990369
4702.4323754881	0.0093728937
4704.3611828611	0.0093082106
4706.2899902342	0.0092669986
4708.2187976072	0.0093230959
4710.1476049803	0.0092051849
4712.0764123533	0.0091914870
4714.0052197264	0.0091861542
4715.9340270994	0.0091603240
4717.8628344724	0.0092238104
4719.7916418455	0.0091295363
4721.7204492185	0.0091118878
4723.6492565916	0.0090925246
4725.5780639646	0.0091249924
4727.5068713377	0.0090572787
4729.4356787107	0.0089781424
4731.3644860838	0.0089966990
4733.2932934568	0.0088915760
4735.2221008299	0.0089355083
4737.1509082029	0.0089391004
4739.0797155760	0.0089228824
4741.0085229490	0.0088979974
4742.9373303221	0.0088838926
4744.8661376951	0.0088808518
4746.7949450682	0.0088323578
4748.7237524412	0.0088566821
4750.6525598142	0.0087448042
4752.5813671873	0.0087671094
4754.5101745603	0.0087917019
4756.4389819334	0.0086752027
4758.3677893064	0.0085994508
4760.2965966795	0.0085921595
4762.2254040525	0.0086370045
4764.1542114256	0.0085779279
4766.0830187986	0.0085918382
4768.0118261717	0.0086054448
4769.9406335447	0.0085455962
4771.8694409178	0.0084621496
4773.7982482908	0.0085022431
4775.7270556639	0.0085071158
4777.6558630369	0.0084327683
4779.5846704099	0.0084281312
4781.5134777830	0.0083234124
4783.4422851560	0.0084139919
4785.3710925291	0.0083843898
4787.2998999021	0.0082968269
4789.2287072752	0.0083515039
4791.1575146482	0.0083309859
4793.0863220213	0.0083553176
4795.0151293943	0.0082649626
4796.9439367674	0.0082540009
4798.8727441404	0.0081672072
4800.8015515135	0.0081475405
4802.7303588865	0.0082605369
4804.6591662596	0.0082178796
4806.5879736326	0.0081598721
4808.5167810056	0.0080667846
4810.4455883787	0.0080945492
4812.3743957517	0.0080443546
4814.3032031248	0.0080074258
4816.2320104978	0.0079832952
4818.1608178709	0.0079504829
4820.0896252439	0.0080030151
4822.0184326170	0.0079084001
4823.9472399900	0.0079014227
4825.8760473631	0.0079276506
4827.8048547361	0.0079288399
4829.7336621092	0.0078722732
4831.6624694822	0.0078511685
4833.5912768553	0.0077938074
4835.5200842283	0.0077817882
4837.4488916013	0.0078890882
4839.3776989744	0.0077387681
4841.3065063474	0.0077492343
4843.2353137205	0.0077550132
4845.1641210935	0.0076735970
4847.0929284666	0.0076364232
4849.0217358396	0.0076194452
4850.9505432127	0.0076728659
4852.8793505857	0.0075529758
4854.8081579588	0.0075779939
4856.7369653318	0.0076224022
4858.6657727049	0.0076439194
4860.5945800779	0.0075483997
4862.5233874510	0.0074892044
4864.4521948240	0.0075644725
4866.3810021971	0.0074540544
4868.3098095701	0.0074907173
4870.2386169431	0.0073851561
4872.1674243162	0.0073484285
4874.0962316892	0.0073813950
4876.0250390623	0.0073056798
4877.9538464353	0.0073660547
4879.8826538084	0.0073289713
4881.8114611814	0.0073032584
4883.7402685545	0.0072928108
4885.6690759275	0.0073423148
4887.5978833006	0.0072355149
4889.5266906736	0.0072180834
4891.4554980467	0.0072695860
4893.3843054197	0.0072046448
4895.3131127928	0.0072621498
4897.2419201658	0.0071525383
4899.1707275388	0.0071985102
4901.0995349119	0.0070930836
4903.0283422849	0.0070250081
4904.9571496580	0.0071679996
4906.8859570310	0.0071053971
4908.8147644041	0.0071136784
4910.7435717771	0.0069760582
4912.6723791502	0.0070464155
4914.6011865232	0.0070583439
4916.5299938963	0.0069391970
4918.4588012693	0.0069863321
4920.3876086424	0.0069063511
4922.3164160154	0.0069707343
4924.2452233885	0.0069342935
4926.1740307615	0.0068907756
4928.1028381345	0.0069269221
4930.0316455076	0.0068836440
4931.9604528806	0.0068735695
4933.8892602537	0.0068528289
4935.8180676267	0.0067799604
4937.7468749998	0.0066960808
4939.6756823728	0.0067703044
4941.6044897459	0.0067711067
4943.5332971189	0.0066986582
4945.4621044920	0.0066903820
4947.3909118650	0.0067521036
4949.3197192381	0.0067274263
4951.2485266111	0.0066528157
4953.1773339842	0.0066562155
4955.1061413572	0.0065835491
4957.0349487302	0.0066311411
4958.9637561033	0.0065649124
4960.8925634763	0.0065294374
4962.8213708494	0.0065893116
4964.7501782224	0.0064830855
4966.6789855955	0.0064744856
4968.6077929685	0.0064447988
4970.5366003416	0.0064331079
4972.4654077146	0.0064060134
4974.3942150877	0.0064115562
4976.3230224607	0.0064515308
4978.2518298338	0.0064215763
4980.1806372068	0.0064145178
4982.1094445799	0.0063523361
4984.0382519529	0.0063401083
4985.9670593259	0.0063086599
4987.8958666990	0.0063250149
4989.8246740720	0.0063068643
4991.7534814451	0.0062102284
4993.6822888181	0.0062768194
4995.6110961912	0.0062572598
4997.5399035642	0.0061221779
4999.4687109373	0.0061958833
5001.3975183103	0.0062264167
5003.3263256834	0.0060540084
5005.2551330564	0.0061654630
5007.1839404295	0.0062226960
5009.1127478025	0.0061264979
5011.0415551756	0.0060979375
5012.9703625486	0.0060138702
5014.8991699217	0.0060778828
5016.8279772947	0.0060604243
5018.7567846677	0.0061090076
5020.6855920408	0.0060860040
5022.6143994138	0.0059731738
5024.5432067869	0.0060329251
5026.4720141599	0.0059690000
5028.4008215330	0.0059913779
5030.3296289060	0.0059357863
5032.2584362791	0.0058929296
5034.1872436521	0.0059260586
5036.1160510252	0.0059175799
5038.0448583982	0.0059251841
5039.9736657713	0.0058025680
5041.9024731443	0.0058698626
5043.8312805174	0.0058603920
5045.7600878904	0.0057882126
5047.6888952634	0.0058016754
5049.6177026365	0.0057513095
5051.5465100095	0.0057446267
5053.4753173826	0.0056825401
5055.4041247556	0.0057477690
5057.3329321287	0.0057063233
5059.2617395017	0.0056253793
5061.1905468748	0.0056415866
5063.1193542478	0.0055503249
5065.0481616209	0.0056527699
5066.9769689939	0.0057000238
5068.9057763670	0.0055365916
5070.8345837400	0.0055450080
5072.7633911131	0.0056425817
5074.6921984861	0.0055276249
5076.6210058591	0.0055040373
5078.5498132322	0.0055852835
5080.4786206052	0.0054919370
5082.4074279783	0.0055019669
5084.3362353513	0.0055259801
5086.2650427244	0.0054945350
5088.1938500974	0.0054504247
5090.1226574705	0.0054435870
5092.0514648435	0.0054504061
5093.9802722166	0.0053446013
5095.9090795896	0.0053636050
5097.8378869627	0.0053648492
5099.7666943357	0.0053427611
5101.6955017088	0.0053345924
5103.6243090818	0.0053217099
5105.5531164548	0.0053365910
5107.4819238279	0.0052780621
5109.4107312009	0.0053402218
5111.3395385740	0.0052554077
5113.2683459470	0.0052115074
5115.1971533201	0.0053089662
5117.1259606931	0.0052224332
5119.0547680662	0.0052612200
5120.9835754392	0.0052361507
5122.9123828123	0.0051572658
5124.8411901853	0.0051515000
5126.7699975584	0.0051541338
5128.6988049314	0.0052013029
5130.6276123045	0.0051933117
5132.5564196775	0.0051293988
5134.4852270506	0.0050155409
5136.4140344236	0.0051149386
5138.3428417966	0.0051392708
5140.2716491697	0.0050621452
5142.2004565427	0.0050925473
5144.1292639158	0.0050395695
5146.0580712888	0.0050692419
5147.9868786619	0.0050348043
5149.9156860349	0.0050486159
5151.8444934080	0.0049691787
5153.7733007810	0.0049277684
5155.7021081541	0.0050622262
5157.6309155271	0.0048479689
5159.5597229002	0.0048753731
5161.4885302732	0.0049886936
5163.4173376463	0.0048723542
5165.3461450193	0.0049058022
5167.2749523923	0.0049016485
5169.2037597654	0.0048502283
5171.1325671384	0.0047944975
5173.0613745115	0.0048602661
5174.9901818845	0.0048851110
5176.9189892576	0.0047799461
5178.8477966306	0.0047926274
5180.7766040037	0.0047974191
5182.7054113767	0.0047294553
5184.6342187498	0.0047835233
5186.5630261228	0.0047628735
5188.4918334959	0.0046144528
5190.4206408689	0.0047149220
5192.3494482420	0.0047369748
5194.2782556150	0.0046750912
5196.2070629880	0.0046745753
5198.1358703611	0.0046627759
5200.0646777341	0.0047183810
5201.9934851072	0.0046163425
5203.9222924802	0.0045780828
5205.8510998533	0.0045311884
5207.7799072263	0.0044937599
5209.7087145994	0.0046015992
5211.6375219724	0.0046443827
5213.5663293455	0.0046590907
5215.4951367185	0.0045261974
5217.4239440916	0.0045007570
5219.3527514646	0.0045587299
5221.2815588377	0.0045095296
5223.2103662107	0.0045184060
5225.1391735837	0.0044424930
5227.0679809568	0.0043577449
5228.9967883298	0.0044921036
5230.9255957029	0.0045086178
5232.8544030759	0.0043388186
5234.7832104490	0.0044217175
5236.7120178220	0.0044849534
5238.6408251951	0.0044164332
5240.5696325681	0.0043377532
5242.4984399412	0.0043476745
5244.4272473142	0.0044111554
5246.3560546873	0.0042966977
5248.2848620603	0.0042966390
5250.2136694334	0.0042601684
5252.1424768064	0.0043337098
5254.0712841795	0.0043418184
5256.0000915525	0.0041738185
5257.9288989255	0.0043531954
5259.8577062986	0.0042882953
5261.7865136716	0.0041918214
5263.7153210447	0.0042336979
5265.6441284177	0.0041553518
5267.5729357908	0.0042269793
5269.5017431638	0.0041713454
5271.4305505369	0.0042040953
5273.3593579099	0.0043130238
5275.2881652830	0.0041325539
5277.2169726560	0.0041084625
5279.1457800291	0.0041555450
5281.0745874021	0.0040489230
5283.0033947752	0.0041988250
5284.9322021482	0.0041613663
5286.8610095212	0.0040224371
5288.7898168943	0.0041282931
5290.7186242673	0.0040095244
5292.6474316404	0.0040451647
5294.5762390134	0.0040734238
5296.5050463865	0.0039759334
5298.4338537595	0.0040355669
5300.3626611326	0.0040167402
5302.2914685056	0.0040258029
5304.2202758787	0.0040164674
5306.1490832517	0.0039796969
5308.0778906248	0.0039707762
5310.0066979978	0.0040287301
5311.9355053709	0.0039782659
5313.8643127439	0.0039193677
5315.7931201169	0.0039742352
5317.7219274900	0.0039081699
5319.6507348630	0.0039185081
5321.5795422361	0.0038937051
5323.5083496091	0.0039057066
5325.4371569822	0.0039219591
5327.3659643552	0.0038265088
5329.2947717283	0.0038187476
5331.2235791013	0.0038510193
5333.1523864744	0.0038124733
5335.0811938474	0.0037902244
5337.0100012205	0.0038990797
5338.9388085935	0.0036990861
5340.8676159666	0.0037307716
5342.7964233396	0.0038237385
5344.7252307126	0.0035296534
5346.6540380857	0.0037013269
5348.5828454587	0.0037421789
5350.5116528318	0.0037098313
5352.4404602048	0.0037914501
5354.3692675779	0.0036578740
5356.2980749509	0.0036941129
5358.2268823240	0.0036919098
5360.1556896970	0.0037021870
5362.0844970701	0.0036538518
5364.0133044431	0.0035989555
5365.9421118162	0.0036424543
5367.8709191892	0.0036262074
5369.7997265623	0.0036390645
5371.7285339353	0.0036136252
5373.6573413083	0.0036025483
5375.5861486814	0.0035739928
5377.5149560544	0.0035596201
5379.4437634275	0.0035222536
5381.3725708005	0.0035416884
5383.3013781736	0.0036393853
5385.2301855466	0.0035110363
5387.1589929197	0.0034529152
5389.0878002927	0.0035830336
5391.0166076658	0.0035563575
5392.9454150388	0.0034514507
5394.8742224119	0.0034077829
5396.8030297849	0.0034043333
5398.7318371580	0.0034769047
5400.6606445310	0.0034870722
5402.5894519041	0.0034934264
5404.5182592771	0.0034746891
5406.4470666501	0.0033690291
5408.3758740232	0.0033629355
5410.3046813962	0.0033773500
5412.2334887693	0.0034149345
5414.1622961423	0.0033108974
5416.0911035154	0.0033097179
5418.0199108884	0.0034439731
5419.9487182615	0.0033694836
5421.8775256345	0.0034234370
5423.8063330076	0.0033616899
5425.7351403806	0.0033384208
5427.6639477537	0.0033972273
5429.5927551267	0.0031908257
5431.5215624998	0.0032655792
5433.4503698728	0.0033531005
5435.3791772458	0.0032212990
5437.3079846189	0.0032606071
5439.2367919919	0.0032651704
5441.1655993650	0.0032070540
5443.0944067380	0.0032511754
5445.0232141111	0.0032093769
5446.9520214841	0.0031571328
5448.8808288572	0.0031804112
5450.8096362302	0.0031661247
5452.7384436033	0.0031810752
5454.6672509763	0.0031375722
5456.5960583494	0.0031551044
5458.5248657224	0.0032020635
5460.4536730955	0.0031261519
5462.3824804685	0.0031399804
5464.3112878415	0.0031084546
5466.2400952146	0.0030292855
5468.1689025876	0.0030783848
5470.0977099607	0.0031226105
5472.0265173337	0.0031526084
5473.9553247068	0.0031008190
5475.8841320798	0.0030216107
5477.8129394529	0.0031305803
5479.7417468259	0.0031006434
5481.6705541990	0.0030113235
5483.5993615720	0.0030892685
5485.5281689451	0.0030519124
5487.4569763181	0.0030055828
5489.3857836912	0.0030053025
5491.3145910642	0.0030732094
5493.2433984372	0.0030280384
5495.1722058103	0.0029225559
5497.1010131833	0.0030325898
5499.0298205564	0.0029944973
5500.9586279294	0.0029010596
5502.8874353025	0.0029038605
5504.8162426755	0.0029483014
5506.7450500486	0.0029587680
5508.6738574216	0.0029139351
5510.6026647947	0.0028668195
5512.5314721677	0.0027954718
5514.4602795408	0.0029563820
5516.3890869138	0.0029794457
5518.3178942869	0.0028618718
5520.2467016599	0.0029279615
5522.1755090330	0.0029014898
5524.1043164060	0.0028762589
5526.0331237790	0.0029026612
5527.9619311521	0.0028806278
5529.8907385251	0.0028327850
5531.8195458982	0.0028299326
5533.7483532712	0.0027981768
5535.6771606443	0.0027958390
5537.6059680173	0.0028313147
5539.5347753904	0.0027878834
5541.4635827634	0.0028400444
5543.3923901365	0.0028328011
5545.3211975095	0.0027894634
5547.2500048826	0.0028298199
5549.1788122556	0.0028240811
5551.1076196287	0.0027826508
5553.0364270017	0.0027634993
5554.9652343747	0.0027754297
5556.8940417478	0.0027726281
5558.8228491208	0.0027753180
5560.7516564939	0.0027124425
5562.6804638669	0.0027459464
5564.6092712400	0.0027619053
5566.5380786130	0.0026763040
5568.4668859861	0.0027460009
5570.3956933591	0.0027201925
5572.3245007322	0.0026653174
5574.2533081052	0.0026748753
5576.1821154783	0.0026511014
5578.1109228513	0.0026692646
5580.0397302244	0.0026821815
5581.9685375974	0.0026422590
5583.8973449704	0.0026010715
5585.8261523435	0.0026709745
5587.7549597165	0.0026512304
5589.6837670896	0.0025558439
5591.6125744626	0.0025778250
5593.5413818357	0.0026239892
5595.4701892087	0.0026186374
5597.3989965818	0.0025948554
5599.3278039548	0.0025781994
5601.2566113279	0.0025548893
5603.1854187009	0.0026070485
5605.1142260740	0.0025563953
5607.0430334470	0.0025186548
5608.9718408201	0.0026098592
5610.9006481931	0.0025429137
5612.8294555661	0.0025364216
5614.7582629392	0.0025399409
5616.6870703122	0.0024610623
5618.6158776853	0.0024878238
5620.5446850583	0.0024972726
5622.4734924314	0.0024909819
5624.4022998044	0.0024766605
5626.3311071775	0.0024492452
5628.2599145505	0.0024384642
5630.1887219236	0.0024717303
5632.1175292966	0.0024777311
5634.0463366697	0.0024184627
5635.9751440427	0.0024444959
5637.9039514158	0.0023925733
5639.8327587888	0.0024115595
5641.7615661619	0.0025130925
5643.6903735349	0.0023726341
5645.6191809079	0.0024074400
5647.5479882810	0.0024943911
5649.4767956540	0.0023764842
5651.4056030271	0.0023782807
5653.3344104001	0.0023889826
5655.2632177732	0.0023652259
5657.1920251462	0.0023427242
5659.1208325193	0.0023405559
5661.0496398923	0.0023568245
5662.9784472654	0.0023331568
5664.9072546384	0.0023613889
5666.8360620115	0.0023986339
5668.7648693845	0.0023487010
5670.6936767576	0.0022930708
5672.6224841306	0.0023573576
5674.5512915036	0.0023422274
5676.4800988767	0.0022706774
5678.4089062497	0.0022634934
5680.3377136228	0.0022244253
5682.2665209958	0.0022583192
5684.1953283689	0.0022925357
5686.1241357419	0.0022690147
5688.0529431150	0.0022158641
5689.9817504880	0.0022091079
5691.9105578611	0.0022404017
5693.8393652341	0.0022395938
5695.7681726072	0.0022860926
5697.6969799802	0.0022598084
5699.6257873533	0.0021786529
5701.5545947263	0.0021567051
5703.4834020993	0.0022084252
5705.4122094724	0.0022544907
5707.3410168454	0.0022085547
5709.2698242185	0.0021243631
5711.1986315915	0.0021609655
5713.1274389646	0.0022281702
5715.0562463376	0.0021351716
5716.9850537107	0.0021304016
5718.9138610837	0.0021385937
5720.8426684568	0.0021470408
5722.7714758298	0.0021404335
5724.7002832029	0.0020689934
5726.6290905759	0.0021576725
5728.5578979490	0.0021353913
5730.4867053220	0.0020907298
5732.4155126950	0.0020564504
5734.3443200681	0.0020550727
5736.2731274411	0.0021368428
5738.2019348142	0.0020625689
5740.1307421872	0.0020584976
5742.0595495603	0.0020548319
5743.9883569333	0.0021007061
5745.9171643064	0.0020515770
5747.8459716794	0.0019379179
5749.7747790525	0.0020849360
5751.7035864255	0.0020159907
5753.6323937986	0.0019760851
5755.5612011716	0.0021009804
5757.4900085447	0.0020439341
5759.4188159177	0.0019994269
5761.3476232907	0.0019481804
5763.2764306638	0.0019432310
5765.2052380368	0.0019897099
5767.1340454099	0.0019886349
5769.0628527829	0.0019924329
5770.9916601560	0.0019339577
5772.9204675290	0.0019384874
5774.8492749021	0.0019453932
5776.7780822751	0.0019250184
5778.7068896482	0.0019983826
5780.6356970212	0.0019168147
5782.5645043943	0.0018773673
5784.4933117673	0.0018584470
5786.4221191404	0.0018081614
5788.3509265134	0.0019254987
5790.2797338865	0.0018942660
5792.2085412595	0.0018919071
5794.1373486325	0.0019199394
5796.0661560056	0.0019068540
5797.9949633786	0.0019083117
5799.9237707517	0.0018461886
5801.8525781247	0.0018974573
5803.7813854978	0.0018855073
5805.7101928708	0.0018805657
5807.6390002439	0.0018834266
5809.5678076169	0.0018654980
5811.4966149900	0.0018836637
5813.4254223630	0.0018579606
5815.3542297361	0.0018379448
5817.2830371091	0.0018085365
5819.2118444822	0.0018648715
5821.1406518552	0.0017846203
5823.0694592282	0.0017408032
5824.9982666013	0.0017713576
5826.9270739743	0.0017373826
5828.8558813474	0.0018306582
5830.7846887204	0.0017939829
5832.7134960935	0.0017731569
5834.6423034665	0.0018011080
5836.5711108396	0.0017970668
5838.4999182126	0.0017351061
5840.4287255857	0.0016697190
5842.3575329587	0.0017449055
5844.2863403318	0.0017345392
5846.2151477048	0.0017361874
5848.1439550779	0.0017218862
5850.0727624509	0.0017093079
5852.0015698239	0.0017059140
5853.9303771970	0.0016977454
5855.8591845700	0.0017518750
5857.7879919431	0.0017400235
5859.7167993161	0.0016958691
5861.6456066892	0.0016535753
5863.5744140622	0.0016616877
5865.5032214353	0.0016371246
5867.4320288083	0.0016778163
5869.3608361814	0.0016311841
5871.2896435544	0.0015992194
5873.2184509275	0.0016869430
5875.1472583005	0.0015779112
5877.0760656736	0.0016402388
5879.0048730466	0.0016445406
5880.9336804196	0.0016127103
5882.8624877927	0.0016822797
5884.7912951657	0.0016099680
5886.7201025388	0.0016332825
5888.6489099118	0.0016265730
5890.5777172849	0.0015698971
5892.5065246579	0.0015440439
5894.4353320310	0.0016125171
5896.3641394040	0.0016025805
5898.2929467771	0.0015592226
5900.2217541501	0.0015190082
5902.1505615232	0.0015293652
5904.0793688962	0.0017154681
5906.0081762693	0.0015734902
5907.9369836423	0.0015063037
5909.8657910154	0.0015137171
5911.7945983884	0.0014734536
5913.7234057614	0.0015864657
5915.6522131345	0.0015277729
5917.5810205075	0.0015401249
5919.5098278806	0.0015554281
5921.4386352536	0.0015522655
5923.3674426267	0.0015034061
5925.2962499997	0.0015055332
5927.2250573728	0.0015568114
5929.1538647458	0.0015367594
5931.0826721189	0.0015905609
5933.0114794919	0.0014603029
5934.9402868650	0.0014556530
5936.8690942380	0.0014952483
5938.7979016111	0.0014621288
5940.7267089841	0.0014252613
5942.6555163571	0.0014286789
5944.5843237302	0.0015734059
5946.5131311032	0.0014642336
5948.4419384763	0.0014675681
5950.3707458493	0.0014639227
5952.2995532224	0.0013839165
5954.2283605954	0.0014432513
5956.1571679685	0.0013985018
5958.0859753415	0.0014302800
5960.0147827146	0.0014556837
5961.9435900876	0.0014566912
5963.8723974607	0.0014385255
5965.8012048337	0.0014288251
5967.7300122068	0.0013972725
5969.6588195798	0.0014197414
5971.5876269528	0.0014456625
5973.5164343259	0.0013615340
5975.4452416989	0.0014369441
5977.3740490720	0.0013926014
5979.3028564450	0.0013701322
5981.2316638181	0.0013833252
5983.1604711911	0.0013317349
5985.0892785642	0.0014082371
5987.0180859372	0.0014054438
5988.9468933103	0.0013493432
5990.8757006833	0.0012674613
5992.8045080564	0.0013634828
5994.7333154294	0.0014322808
5996.6621228025	0.0013324039
5998.5909301755	0.0013182824
6000.5197375485	0.0013589753
