399.2631262207	0.0014643145
401.1919335938	0.0016306348
403.1207409668	0.0019051845
405.0495483398	0.0021171856
406.9783557129	0.0019547448
408.9071630859	0.0023185019
410.8359704590	0.0024455297
412.7647778320	0.0020521958
414.6935852051	0.0021007659
416.6223925781	0.0020053263
418.5511999512	0.0024367368
420.4800073242	0.0025054947
422.4088146973	0.0019737675
424.3376220703	0.0020717748
426.2664294434	0.0026107519
428.1952368164	0.0030809962
430.1240441895	0.0024798503
432.0528515625	0.0020160575
433.9816589355	0.0025970829
435.9104663086	0.0029374035
437.8392736816	0.0024826983
439.7680810547	0.0019114430
441.6968884277	0.0018270777
443.6256958008	0.0021305615
445.5545031738	0.0021118307
447.4833105469	0.0018662389
449.4121179199	0.0023293337
451.3409252930	0.0018796797
453.2697326660	0.0012957873
455.1985400391	0.0016786236
457.1273474121	0.0013819276
459.0561547852	0.0013858220
460.9849621582	0.0016273340
462.9137695313	0.0013553263
464.8425769043	0.0009191709
466.7713842773	0.0011261175
468.7001916504	0.0012960420
470.6289990234	0.0009322102
472.5578063965	0.0010093887
474.4866137695	0.0005820277
476.4154211426	0.0007649480
478.3442285156	0.0010078730
480.2730358887	0.0006495396
482.2018432617	0.0005937941
484.1306506348	0.0002898566
486.0594580078	0.0005890891
487.9882653809	0.0005729204
489.9170727539	0.0006932392
491.8458801270	0.0007413956
493.7746875000	0.0003035607
495.7034948730	0.0003490136
497.6323022461	0.0002902187
499.5611096191	0.0005501071
501.4899169922	0.0000274019
503.4187243652	0.0001626948
505.3475317383	0.0005264340
507.2763391113	0.0001441678
509.2051464844	0.0003585170
511.1339538574	-0.0001404851
513.0627612305	0.0002450150
514.9915686035	0.0004098527
516.9203759766	-0.0000278408
518.8491833496	0.0004746462
520.7779907227	0.0004288596
522.7067980957	0.0004457903
524.6356054688	0.0000498697
526.5644128418	0.0001625744
528.4932202148	0.0004234136
530.4220275879	0.0001154975
532.3508349609	0.0003668414
534.2796423340	-0.0000400926
536.2084497070	0.0003690386
538.1372570801	0.0006335853
540.0660644531	0.0000088393
541.9948718262	0.0002087762
543.9236791992	-0.0000416340
545.8524865723	0.0000606078
547.7812939453	0.0006010790
549.7101013184	0.0002815768
551.6389086914	-0.0001371758
553.5677160645	0.0000048658
555.4965234375	0.0001146442
557.4253308105	0.0000836921
559.3541381836	0.0002781441
561.2829455566	0.0002461359
563.2117529297	0.0002031706
565.1405603027	0.0003435995
567.0693676758	0.0003625507
568.9981750488	0.0003144449
570.9269824219	0.0001244017
572.8557897949	0.0000334884
574.7845971680	0.0001489580
576.7134045410	0.0001095674
578.6422119141	0.0003793998
580.5710192871	0.0002922111
582.4998266602	-0.0000824166
584.4286340332	0.0000483866
586.3574414063	0.0000935882
588.2862487793	0.0002329885
590.2150561523	-0.0002711031
592.1438635254	-0.0001601282
594.0726708984	0.0005341920
596.0014782715	0.0001933151
597.9302856445	0.0002494457
599.8590930176	0.0004979602
601.7879003906	0.0003681532
603.7167077637	0.0002616316
605.6455151367	0.0003622134
607.5743225098	0.0000960106
609.5031298828	0.0002914202
611.4319372559	0.0002724433
613.3607446289	-0.0000931380
615.2895520020	0.0003095381
617.2183593750	0.0002376625
619.1471667480	0.0001116516
621.0759741211	-0.0000996111
623.0047814941	-0.0002854789
624.9335888672	-0.0000566654
626.8623962402	0.0002295596
628.7912036133	-0.0000104411
630.7200109863	0.0003339998
632.6488183594	0.0009421653
634.5776257324	0.0011771931
636.5064331055	0.0017771972
638.4352404785	0.0016637255
640.3640478516	0.0017913084
642.2928552246	0.0021538853
644.2216625977	0.0023490814
646.1504699707	0.0024543889
648.0792773438	0.0025584958
650.0080847168	0.0031091180
651.9368920898	0.0028532408
653.8656994629	0.0029688291
655.7945068359	0.0030674818
657.7233142090	0.0029645851
659.6521215820	0.0035090125
661.5809289551	0.0031965023
663.5097363281	0.0036563263
665.4385437012	0.0040994007
667.3673510742	0.0036748857
669.2961584473	0.0042710416
671.2249658203	0.0043886928
673.1537731934	0.0043219849
675.0825805664	0.0046899877
677.0113879395	0.0045155352
678.9401953125	0.0046084211
680.8690026855	0.0050621815
682.7978100586	0.0050823446
684.7266174316	0.0046364372
686.6554248047	0.0046827467
688.5842321777	0.0048775962
690.5130395508	0.0049134968
692.4418469238	0.0054387162
694.3706542969	0.0054853009
696.2994616699	0.0061031277
698.2282690430	0.0072769844
700.1570764160	0.0074082846
702.0858837891	0.0075169168
704.0146911621	0.0070569245
705.9434985352	0.0062556900
707.8723059082	0.0056189606
709.8011132813	0.0041232519
711.7299206543	0.0027128430
713.6587280273	0.0017344482
715.5875354004	0.0009671408
717.5163427734	0.0006644884
719.4451501465	0.0003373887
721.3739575195	0.0000937388
723.3027648926	0.0001870556
725.2315722656	0.0003125748
727.1603796387	0.0003293957
729.0891870117	-0.0000628164
731.0179943848	-0.0000481419
732.9468017578	0.0004159710
734.8756091309	0.0001415566
736.8044165039	-0.0002235986
738.7332238770	-0.0002051808
740.6620312500	0.0000733263
742.5908386230	0.0000328487
744.5196459961	0.0000008982
746.4484533691	0.0003060692
748.3772607422	0.0001036493
750.3060681152	0.0000616512
752.2348754883	0.0001732527
754.1636828613	0.0003182138
756.0924902344	0.0003220638
758.0212976074	0.0000523812
759.9501049805	0.0002037292
761.8789123535	0.0002397663
763.8077197266	0.0002856216
765.7365270996	0.0003876194
767.6653344727	0.0000648555
769.5941418457	0.0001758716
771.5229492188	0.0003422949
773.4517565918	0.0003493615
775.3805639648	0.0005096889
777.3093713379	0.0002800906
779.2381787109	0.0000595934
781.1669860840	0.0005981268
783.0957934570	0.0004144193
785.0246008301	0.0002916284
786.9534082031	0.0007195870
788.8822155762	0.0004319958
790.8110229492	0.0005921124
792.7398303223	0.0005321410
794.6686376953	0.0005010540
796.5974450684	0.0008453971
798.5262524414	0.0008486841
800.4550598145	0.0009679066
802.3838671875	0.0007928753
804.3126745605	0.0007834847
806.2414819336	0.0008560491
808.1702893066	0.0007466633
810.0990966797	0.0005212261
812.0279040527	0.0004891301
813.9567114258	0.0005768149
815.8855187988	0.0004003103
817.8143261719	0.0004792694
819.7431335449	0.0003386242
821.6719409180	0.0004325974
823.6007482910	0.0005078772
825.5295556641	0.0004317404
827.4583630371	0.0007805053
829.3871704102	0.0008276075
831.3159777832	0.0010522108
833.2447851563	0.0012783380
835.1735925293	0.0015681727
837.1023999023	0.0016753997
839.0312072754	0.0012224801
840.9600146484	0.0013245957
842.8888220215	0.0014068070
844.8176293945	0.0011449717
846.7464367676	0.0011123823
848.6752441406	0.0011678694
850.6040515137	0.0010524892
852.5328588867	0.0009545622
854.4616662598	0.0007911081
856.3904736328	0.0005957365
858.3192810059	0.0010186019
860.2480883789	0.0009927372
862.1768957520	0.0003042738
864.1057031250	0.0003652654
866.0345104980	0.0005162616
867.9633178711	0.0002157783
869.8921252441	0.0001866962
871.8209326172	0.0002651664
873.7497399902	0.0002989592
875.6785473633	0.0004207098
877.6073547363	0.0005683334
879.5361621094	0.0004166007
881.4649694824	0.0002682579
883.3937768555	0.0003736387
885.3225842285	0.0003569711
887.2513916016	0.0004977129
889.1801989746	0.0005787477
891.1090063477	0.0004452358
893.0378137207	0.0004576801
894.9666210938	0.0005411268
896.8954284668	0.0003790075
898.8242358398	0.0001563866
900.7530432129	0.0002965556
902.6818505859	0.0003650283
904.6106579590	0.0004572233
906.5394653320	0.0005082154
908.4682727051	0.0005869662
910.3970800781	0.0007133944
912.3258874512	0.0008877346
914.2546948242	0.0011471179
916.1835021973	0.0007320184
918.1123095703	0.0008566832
920.0411169434	0.0011909575
921.9699243164	0.0010354243
923.8987316895	0.0015342250
925.8275390625	0.0017898655
927.7563464355	0.0016583449
929.6851538086	0.0017135281
931.6139611816	0.0018748009
933.5427685547	0.0018823482
935.4715759277	0.0019610641
937.4003833008	0.0022785813
939.3291906738	0.0024139397
941.2579980469	0.0024208119
943.1868054199	0.0023671687
945.1156127930	0.0026297672
947.0444201660	0.0026037660
948.9732275391	0.0026133179
950.9020349121	0.0025874851
952.8308422852	0.0021437774
954.7596496582	0.0025090841
956.6884570313	0.0024851959
958.6172644043	0.0021393709
960.5460717773	0.0022270796
962.4748791504	0.0021943969
964.4036865234	0.0022863622
966.3324938965	0.0025372396
968.2613012695	0.0026458655
970.1901086426	0.0024215127
972.1189160156	0.0027291270
974.0477233887	0.0029979283
975.9765307617	0.0031411722
977.9053381348	0.0034253648
979.8341455078	0.0035159152
981.7629528809	0.0041751298
983.6917602539	0.0044867247
985.6205676270	0.0047353460
987.5493750000	0.0053824275
989.4781823730	0.0061456952
991.4069897461	0.0071207713
993.3357971191	0.0075528333
995.2646044922	0.0080812629
997.1934118652	0.0089207925
999.1222192383	0.0096261529
1001.0510266113	0.0102633070
1002.9798339844	0.0112210084
1004.9086413574	0.0120954458
1006.8374487305	0.0124826375
1008.7662561035	0.0133619336
1010.6950634766	0.0142059065
1012.6238708496	0.0148406457
1014.5526782227	0.0156315565
1016.4814855957	0.0163634047
1018.4102929688	0.0172788687
1020.3391003418	0.0180596523
1022.2679077148	0.0188824944
1024.1967150879	0.0196955763
1026.1255224609	0.0202846117
1028.0543298340	0.0210193954
1029.9831372070	0.0215433221
1031.9119445801	0.0220262446
1033.8407519531	0.0226138532
1035.7695593262	0.0228224508
1037.6983666992	0.0230590850
1039.6271740723	0.0233568456
1041.5559814453	0.0233225916
1043.4847888184	0.0230244435
1045.4135961914	0.0225904249
1047.3424035645	0.0223621950
1049.2712109375	0.0222190358
1051.2000183105	0.0217452385
1053.1288256836	0.0212564040
1055.0576330566	0.0209879540
1056.9864404297	0.0204539709
1058.9152478027	0.0199127179
1060.8440551758	0.0194786731
1062.7728625488	0.0187758375
1064.7016699219	0.0181304477
1066.6304772949	0.0174425952
1068.5592846680	0.0168645643
1070.4880920410	0.0162052475
1072.4168994141	0.0152415466
1074.3457067871	0.0144490264
1076.2745141602	0.0138778156
1078.2033215332	0.0134418579
1080.1321289062	0.0125516383
1082.0609362793	0.0119258026
1083.9897436523	0.0116525460
1085.9185510254	0.0109176952
1087.8473583984	0.0105945151
1089.7761657715	0.0100940745
1091.7049731445	0.0093574319
1093.6337805176	0.0091375876
1095.5625878906	0.0088228127
1097.4913952637	0.0085018119
1099.4202026367	0.0082373768
1101.3490100098	0.0081845764
1103.2778173828	0.0080276728
1105.2066247559	0.0075145084
1107.1354321289	0.0075548999
1109.0642395019	0.0076046865
1110.9930468750	0.0074969511
1112.9218542480	0.0073439712
1114.8506616211	0.0070181051
1116.7794689941	0.0071752821
1118.7082763672	0.0071025286
1120.6370837402	0.0071550319
1122.5658911133	0.0073500257
1124.4946984863	0.0072324155
1126.4235058594	0.0074546821
1128.3523132324	0.0075213187
1130.2811206055	0.0077729011
1132.2099279785	0.0080473581
1134.1387353516	0.0083032493
1136.0675427246	0.0085635819
1137.9963500977	0.0088894404
1139.9251574707	0.0096995719
1141.8539648437	0.0100202654
1143.7827722168	0.0109131932
1145.7115795898	0.0119377039
1147.6403869629	0.0122690452
1149.5691943359	0.0129244896
1151.4980017090	0.0136132482
1153.4268090820	0.0143124387
1155.3556164551	0.0147213005
1157.2844238281	0.0152796358
1159.2132312012	0.0161182322
1161.1420385742	0.0166530870
1163.0708459473	0.0170465149
1164.9996533203	0.0179132354
1166.9284606934	0.0185595080
1168.8572680664	0.0188671928
1170.7860754394	0.0200689547
1172.7148828125	0.0206695944
1174.6436901855	0.0213048588
1176.5724975586	0.0222440027
1178.5013049316	0.0227862746
1180.4301123047	0.0238903947
1182.3589196777	0.0248898193
1184.2877270508	0.0261891298
1186.2165344238	0.0273082182
1188.1453417969	0.0284784753
1190.0741491699	0.0297581628
1192.0029565430	0.0308073796
1193.9317639160	0.0325342342
1195.8605712891	0.0340084657
1197.7893786621	0.0354354233
1199.7181860351	0.0370225944
1201.6469934082	0.0386609063
1203.5758007812	0.0400570631
1205.5046081543	0.0416445397
1207.4334155273	0.0433541909
1209.3622229004	0.0444613248
1211.2910302734	0.0459221825
1213.2198376465	0.0469505154
1215.1486450195	0.0482649021
1217.0774523926	0.0494971871
1219.0062597656	0.0500756539
1220.9350671387	0.0511134565
1222.8638745117	0.0515772030
1224.7926818848	0.0521163158
1226.7214892578	0.0525607653
1228.6502966308	0.0527025312
1230.5791040039	0.0531147420
1232.5079113769	0.0532568693
1234.4367187500	0.0531280376
1236.3655261230	0.0529418886
1238.2943334961	0.0529726893
1240.2231408691	0.0529856831
1242.1519482422	0.0529832914
1244.0807556152	0.0527446941
1246.0095629883	0.0522657037
1247.9383703613	0.0517542213
1249.8671777344	0.0515628234
1251.7959851074	0.0513021424
1253.7247924805	0.0504241586
1255.6535998535	0.0498672873
1257.5824072266	0.0492581651
1259.5112145996	0.0484952629
1261.4400219726	0.0477708727
1263.3688293457	0.0469634682
1265.2976367187	0.0463851579
1267.2264440918	0.0460596308
1269.1552514648	0.0455818400
1271.0840588379	0.0448179916
1273.0128662109	0.0441869944
1274.9416735840	0.0431617163
1276.8704809570	0.0423413143
1278.7992883301	0.0415328667
1280.7280957031	0.0405183211
1282.6569030762	0.0399075747
1284.5857104492	0.0391835794
1286.5145178223	0.0385982879
1288.4433251953	0.0378968492
1290.3721325683	0.0374638736
1292.3009399414	0.0371174142
1294.2297473144	0.0368043445
1296.1585546875	0.0365977101
1298.0873620605	0.0362453535
1300.0161694336	0.0364460275
1301.9449768066	0.0365512781
1303.8737841797	0.0370101817
1305.8025915527	0.0374428332
1307.7313989258	0.0378058031
1309.6602062988	0.0384414680
1311.5890136719	0.0389045179
1313.5178210449	0.0398924313
1315.4466284180	0.0408274494
1317.3754357910	0.0417904332
1319.3042431640	0.0427697599
1321.2330505371	0.0441798121
1323.1618579101	0.0455558039
1325.0906652832	0.0466834195
1327.0194726562	0.0482795946
1328.9482800293	0.0492541119
1330.8770874023	0.0505942702
1332.8058947754	0.0517980307
1334.7347021484	0.0526135750
1336.6635095215	0.0532904603
1338.5923168945	0.0530748069
1340.5211242676	0.0539656207
1342.4499316406	0.0554798283
1344.3787390137	0.0558665171
1346.3075463867	0.0558184385
1348.2363537597	0.0556390733
1350.1651611328	0.0553941242
1352.0939685058	0.0553448759
1354.0227758789	0.0546743646
1355.9515832519	0.0541151538
1357.8803906250	0.0538461097
1359.8091979980	0.0530740581
1361.7380053711	0.0514124408
1363.6668127441	0.0505201928
1365.5956201172	0.0522480495
1367.5244274902	0.0516058132
1369.4532348633	0.0509207062
1371.3820422363	0.0513925552
1373.3108496094	0.0493395999
1375.2396569824	0.0496674106
1377.1684643555	0.0502964742
1379.0972717285	0.0501153953
1381.0260791015	0.0503701307
1382.9548864746	0.0502050258
1384.8836938476	0.0499474742
1386.8125012207	0.0482859164
1388.7413085937	0.0492956750
1390.6701159668	0.0521496460
1392.5989233398	0.0511260517
1394.5277307129	0.0487368777
1396.4565380859	0.0506578311
1398.3853454590	0.0507864133
1400.3141528320	0.0503802598
1402.2429602051	0.0534948520
1404.1717675781	0.0511970446
1406.1005749512	0.0514441431
1408.0293823242	0.0528501123
1409.9581896972	0.0513476022
1411.8869970703	0.0521241948
1413.8158044433	0.0506007969
1415.7446118164	0.0513528660
1417.6734191894	0.0471898057
1419.6022265625	0.0432072505
1421.5310339355	0.0477950424
1423.4598413086	0.0465264618
1425.3886486816	0.0449845269
1427.3174560547	0.0451741591
1429.2462634277	0.0423896424
1431.1750708008	0.0411021449
1433.1038781738	0.0415242761
1435.0326855469	0.0380743444
1436.9614929199	0.0334001184
1438.8903002929	0.0365069658
1440.8191076660	0.0368783623
1442.7479150390	0.0348111950
1444.6767224121	0.0357930288
1446.6055297851	0.0334891565
1448.5343371582	0.0339062251
1450.4631445312	0.0349522531
1452.3919519043	0.0355279669
1454.3207592773	0.0366582312
1456.2495666504	0.0318165272
1458.1783740234	0.0336233564
1460.1071813965	0.0427758060
1462.0359887695	0.0448121279
1463.9647961426	0.0450809002
1465.8936035156	0.0472836532
1467.8224108886	0.0530285314
1469.7512182617	0.0566652939
1471.6800256347	0.0523972735
1473.6088330078	0.0554444864
1475.5376403808	0.0619029999
1477.4664477539	0.0661081821
1479.3952551269	0.0715755522
1481.3240625000	0.0732419714
1483.2528698730	0.0772655457
1485.1816772461	0.0797132105
1487.1104846191	0.0795859918
1489.0392919922	0.0799123123
1490.9680993652	0.0811897814
1492.8969067383	0.0911847800
1494.8257141113	0.0895713121
1496.7545214843	0.0832713395
1498.6833288574	0.0923418850
1500.6121362304	0.0947335511
1502.5409436035	0.1000988111
1504.4697509765	0.0957947001
1506.3985583496	0.0757292807
1508.3273657226	0.0889688358
1510.2561730957	0.1001439244
1512.1849804687	0.0976733267
1514.1137878418	0.1042032242
1516.0425952148	0.0962827504
1517.9714025879	0.1001386419
1519.9002099609	0.0965418518
1521.8290173340	0.0872685313
1523.7578247070	0.1017367914
1525.6866320801	0.0999627262
1527.6154394531	0.1005102992
1529.5442468261	0.1079293489
1531.4730541992	0.1044662297
1533.4018615722	0.0979614258
1535.3306689453	0.1025363654
1537.2594763183	0.1071758643
1539.1882836914	0.0829176307
1541.1170910644	0.0866923928
1543.0458984375	0.0993918926
1544.9747058105	0.0965514332
1546.9035131836	0.1093642116
1548.8323205566	0.1038875878
1550.7611279297	0.1066926420
1552.6899353027	0.1054729223
1554.6187426758	0.0984915793
1556.5475500488	0.1032909304
1558.4763574218	0.0794754326
1560.4051647949	0.0846811831
1562.3339721679	0.1100986451
1564.2627795410	0.1053939387
1566.1915869140	0.1077491641
1568.1203942871	0.1066094264
1570.0492016601	0.0974733010
1571.9780090332	0.1087940931
1573.9068164062	0.1089184061
1575.8356237793	0.0911376029
1577.7644311523	0.1008205265
1579.6932385254	0.1105623394
1581.6220458984	0.1065043733
1583.5508532715	0.1086434424
1585.4796606445	0.1072621793
1587.4084680175	0.1080739647
1589.3372753906	0.1071452647
1591.2660827636	0.1070283651
1593.1948901367	0.1073811650
1595.1236975097	0.1062908024
1597.0525048828	0.1073529869
1598.9813122558	0.1067507789
1600.9101196289	0.1071590334
1602.8389270019	0.1057174131
1604.7677343750	0.1071698070
1606.6965417480	0.1058003455
1608.6253491211	0.1058083922
1610.5541564941	0.1054653004
1612.4829638672	0.1059549302
1614.4117712402	0.1071096510
1616.3405786132	0.0913134813
1618.2693859863	0.0978177041
1620.1981933593	0.1097145602
1622.1270007324	0.0998697579
1624.0558081054	0.1007813215
1625.9846154785	0.1041657329
1627.9134228515	0.1040242687
1629.8422302246	0.1031525433
1631.7710375976	0.1083902195
1633.6998449707	0.1015289873
1635.6286523437	0.0881266296
1637.5574597168	0.0993816033
1639.4862670898	0.1062027961
1641.4150744629	0.1044786125
1643.3438818359	0.1064345688
1645.2726892090	0.0978366286
1647.2014965820	0.0894964784
1649.1303039550	0.1058753803
1651.0591113281	0.0999717116
1652.9879187011	0.0717525780
1654.9167260742	0.0916637927
1656.8455334472	0.1084815785
1658.7743408203	0.1045189723
1660.7031481933	0.1071613729
1662.6319555664	0.0992847830
1664.5607629394	0.1038724408
1666.4895703125	0.1091048717
1668.4183776855	0.0985031575
1670.3471850586	0.0969425291
1672.2759924316	0.1062701344
1674.2047998047	0.0997056067
1676.1336071777	0.0968706012
1678.0624145507	0.1079169512
1679.9912219238	0.1045546830
1681.9200292968	0.1039987952
1683.8488366699	0.0881983861
1685.7776440429	0.0879074037
1687.7064514160	0.1121416390
1689.6352587890	0.0999988019
1691.5640661621	0.1083879471
1693.4928735351	0.1088103503
1695.4216809082	0.0854354203
1697.3504882812	0.1007965952
1699.2792956543	0.0909850448
1701.2081030273	0.0848386139
1703.1369104004	0.1069006771
1705.0657177734	0.0996745899
1706.9945251464	0.1004628316
1708.9233325195	0.1067955792
1710.8521398925	0.1034523100
1712.7809472656	0.1048512310
1714.7097546386	0.0988318250
1716.6385620117	0.0905780941
1718.5673693847	0.0896925330
1720.4961767578	0.1025273278
1722.4249841308	0.1046440899
1724.3537915039	0.0989826992
1726.2825988769	0.1054270864
1728.2114062500	0.0986402258
1730.1402136230	0.1000183523
1732.0690209961	0.0967176110
1733.9978283691	0.0789945871
1735.9266357421	0.0938821882
1737.8554431152	0.1005470455
1739.7842504882	0.0922437236
1741.7130578613	0.0987048447
1743.6418652343	0.0997024998
1745.5706726074	0.1001520380
1747.4994799804	0.1010091603
1749.4282873535	0.0974925905
1751.3570947265	0.0942733586
1753.2859020996	0.1022685766
1755.2147094726	0.1056958959
1757.1435168457	0.0986389220
1759.0723242187	0.1058081090
1761.0011315918	0.1006965637
1762.9299389648	0.0986604095
1764.8587463379	0.1090207249
1766.7875537109	0.1001892760
1768.7163610839	0.1011506915
1770.6451684570	0.1006140485
1772.5739758300	0.0929344818
1774.5027832031	0.1010725349
1776.4315905761	0.1051139981
1778.3603979492	0.1038782597
1780.2892053222	0.1031130850
1782.2180126953	0.1036592722
1784.1468200683	0.1034519523
1786.0756274414	0.1019518226
1788.0044348144	0.1058854610
1789.9332421875	0.1035064012
1791.8620495605	0.0960787982
1793.7908569336	0.0995093882
1795.7196643066	0.1047835797
1797.6484716796	0.1035061926
1799.5772790527	0.1023408920
1801.5060864257	0.1011131406
1803.4348937988	0.1035850197
1805.3637011718	0.1051893383
1807.2925085449	0.1040223464
1809.2213159179	0.1043194383
1811.1501232910	0.1022042185
1813.0789306640	0.1045951396
1815.0077380371	0.1049592867
1816.9365454101	0.1040337756
1818.8653527832	0.1047149003
1820.7941601562	0.1043041348
1822.7229675293	0.1052406579
1824.6517749023	0.1000605077
1826.5805822753	0.1028764695
1828.5093896484	0.1027162597
1830.4381970214	0.0981259793
1832.3670043945	0.1046091467
1834.2958117675	0.1038059369
1836.2246191406	0.1038151160
1838.1534265136	0.1033979878
1840.0822338867	0.1039338857
1842.0110412597	0.1037289277
1843.9398486328	0.0948100388
1845.8686560058	0.0997475535
1847.7974633789	0.1036070436
1849.7262707519	0.1019685417
1851.6550781250	0.1040022224
1853.5838854980	0.1023289487
1855.5126928710	0.1031065732
1857.4415002441	0.1025158614
1859.3703076171	0.1023436189
1861.2991149902	0.1026130989
1863.2279223632	0.1015998870
1865.1567297363	0.1024910063
1867.0855371093	0.0996979922
1869.0143444824	0.0966393203
1870.9431518554	0.0994761437
1872.8719592285	0.1020941436
1874.8007666015	0.1007569879
1876.7295739746	0.1010825410
1878.6583813476	0.1007238030
1880.5871887207	0.1005115062
1882.5159960937	0.1009991169
1884.4448034667	0.0995439440
1886.3736108398	0.1007740498
1888.3024182128	0.0989078358
1890.2312255859	0.0974218994
1892.1600329589	0.1001698226
1894.0888403320	0.0990062952
1896.0176477050	0.0986445248
1897.9464550781	0.0993535817
1899.8752624511	0.0989623368
1901.8040698242	0.0990587696
1903.7328771972	0.0983757377
1905.6616845703	0.0987529457
1907.5904919433	0.0979470313
1909.5192993164	0.0974538624
1911.4481066894	0.0980076939
1913.3769140625	0.0978232920
1915.3057214355	0.0984933674
1917.2345288085	0.0952364877
1919.1633361816	0.0951966345
1921.0921435546	0.0979405791
1923.0209509277	0.0955270231
1924.9497583007	0.0971092209
1926.8785656738	0.0976587832
1928.8073730468	0.0965727270
1930.7361804199	0.0974912643
1932.6649877929	0.0962735713
1934.5937951660	0.0969832093
1936.5226025390	0.0965729356
1938.4514099121	0.0967609435
1940.3802172851	0.0966109931
1942.3090246582	0.0943362713
1944.2378320312	0.0956549719
1946.1666394042	0.0962172225
1948.0954467773	0.0960757881
1950.0242541503	0.0963645428
1951.9530615234	0.0961120576
1953.8818688964	0.0961525962
1955.8106762695	0.0957791954
1957.7394836425	0.0959116891
1959.6682910156	0.0957462862
1961.5970983886	0.0955978706
1963.5259057617	0.0957573354
1965.4547131347	0.0952717066
1967.3835205078	0.0945483744
1969.3123278808	0.0950352103
1971.2411352539	0.0954047889
1973.1699426269	0.0948797166
1975.0987499999	0.0950632095
1977.0275573730	0.0947981626
1978.9563647460	0.0948296338
1980.8851721191	0.0947114006
1982.8139794921	0.0943710506
1984.7427868652	0.0945561603
1986.6715942382	0.0940005854
1988.6004016113	0.0940408856
1990.5292089843	0.0932713896
1992.4580163574	0.0923768878
1994.3868237304	0.0933558196
1996.3156311035	0.0934571549
1998.2444384765	0.0930714160
2000.1732458496	0.0930140465
2002.1020532226	0.0926996022
2004.0308605956	0.0926511288
2005.9596679687	0.0923793018
2007.8884753417	0.0921365991
2009.8172827148	0.0920119211
2011.7460900878	0.0917607024
2013.6748974609	0.0917191505
2015.6037048339	0.0910814181
2017.5325122070	0.0905997008
2019.4613195800	0.0908394754
2021.3901269531	0.0907599628
2023.3189343261	0.0905935168
2025.2477416992	0.0902990922
2027.1765490722	0.0900717229
2029.1053564453	0.0899846852
2031.0341638183	0.0896265060
2032.9629711914	0.0894967169
2034.8917785644	0.0894416571
2036.8205859374	0.0891965702
2038.7493933105	0.0889736935
2040.6782006835	0.0884714574
2042.6070080566	0.0881900191
2044.5358154296	0.0882396847
2046.4646228027	0.0880014226
2048.3934301757	0.0879151300
2050.3222375488	0.0876877010
2052.2510449218	0.0873939246
2054.1798522949	0.0872292891
2056.1086596679	0.0871160626
2058.0374670410	0.0870517641
2059.9662744140	0.0865775347
2061.8950817871	0.0865253955
2063.8238891601	0.0861748159
2065.7526965331	0.0857501924
2067.6815039062	0.0861012042
2069.6103112792	0.0858145952
2071.5391186523	0.0855661705
2073.4679260253	0.0856193453
2075.3967333984	0.0854094774
2077.3255407714	0.0852055699
2079.2543481445	0.0850437284
2081.1831555175	0.0848740041
2083.1119628906	0.0847288296
2085.0407702636	0.0845874473
2086.9695776367	0.0843230933
2088.8983850097	0.0841243863
2090.8271923828	0.0838132128
2092.7559997558	0.0837062001
2094.6848071288	0.0836001039
2096.6136145019	0.0834436119
2098.5424218749	0.0834476054
2100.4712292480	0.0832077861
2102.4000366210	0.0830906406
2104.3288439941	0.0828606859
2106.2576513671	0.0826800019
2108.1864587402	0.0825197995
2110.1152661132	0.0823635608
2112.0440734863	0.0823353827
2113.9728808593	0.0820817500
2115.9016882324	0.0819865614
2117.8304956054	0.0819226056
2119.7593029785	0.0818216950
2121.6881103515	0.0815024674
2123.6169177245	0.0814496875
2125.5457250976	0.0815060884
2127.4745324706	0.0811744332
2129.4033398437	0.0810592026
2131.3321472167	0.0809048712
2133.2609545898	0.0809055567
2135.1897619628	0.0807690322
2137.1185693359	0.0806321204
2139.0473767089	0.0805613101
2140.9761840820	0.0803316087
2142.9049914550	0.0803399086
2144.8337988281	0.0800850093
2146.7626062011	0.0799509138
2148.6914135742	0.0798494071
2150.6202209472	0.0797407180
2152.5490283203	0.0797578096
2154.4778356933	0.0796485990
2156.4066430663	0.0795390680
2158.3354504394	0.0792801976
2160.2642578124	0.0791796446
2162.1930651855	0.0790518969
2164.1218725585	0.0789806098
2166.0506799316	0.0788985342
2167.9794873046	0.0787847787
2169.9082946777	0.0787973478
2171.8371020507	0.0785791427
2173.7659094238	0.0784911066
2175.6947167968	0.0784791261
2177.6235241699	0.0782568157
2179.5523315429	0.0780475810
2181.4811389160	0.0781390220
2183.4099462890	0.0779861659
2185.3387536620	0.0778654441
2187.2675610351	0.0778432786
2189.1963684081	0.0775107741
2191.1251757812	0.0776958242
2193.0539831542	0.0775871947
2194.9827905273	0.0773902163
2196.9115979003	0.0774327219
2198.8404052734	0.0771719813
2200.7692126464	0.0771629587
2202.6980200195	0.0770347193
2204.6268273925	0.0768829286
2206.5556347656	0.0768328235
2208.4844421386	0.0768451840
2210.4132495117	0.0767649263
2212.3420568847	0.0765745193
2214.2708642577	0.0764373392
2216.1996716308	0.0761604235
2218.1284790038	0.0761733055
2220.0572863769	0.0761126429
2221.9860937499	0.0758610964
2223.9149011230	0.0757587552
2225.8437084960	0.0757048279
2227.7725158691	0.0755378455
2229.7013232421	0.0754097700
2231.6301306152	0.0754476413
2233.5589379882	0.0752662718
2235.4877453613	0.0751209706
2237.4165527343	0.0749915838
2239.3453601074	0.0748974681
2241.2741674804	0.0747882873
2243.2029748534	0.0745287538
2245.1317822265	0.0745213926
2247.0605895995	0.0745403096
2248.9893969726	0.0743044466
2250.9182043456	0.0739854276
2252.8470117187	0.0739090741
2254.7758190917	0.0737967789
2256.7046264648	0.0736325607
2258.6334338378	0.0736131072
2260.5622412109	0.0735238791
2262.4910485839	0.0733819753
2264.4198559570	0.0732069612
2266.3486633300	0.0731226057
2268.2774707031	0.0730419159
2270.2062780761	0.0729751289
2272.1350854491	0.0728388280
2274.0638928222	0.0727810860
2275.9927001952	0.0727929622
2277.9215075683	0.0726459622
2279.8503149413	0.0725504607
2281.7791223144	0.0723728389
2283.7079296874	0.0722983181
2285.6367370605	0.0721810386
2287.5655444335	0.0721025914
2289.4943518066	0.0719922036
2291.4231591796	0.0716819763
2293.3519665527	0.0715759695
2295.2807739257	0.0712984353
2297.2095812988	0.0710817575
2299.1383886718	0.0708576292
2301.0671960449	0.0705810338
2302.9960034179	0.0703259408
2304.9248107909	0.0699360520
2306.8536181640	0.0696337596
2308.7824255370	0.0690467358
2310.7112329101	0.0685642660
2312.6400402831	0.0680414885
2314.5688476562	0.0673762113
2316.4976550292	0.0668404475
2318.4264624023	0.0661064833
2320.3552697753	0.0654345155
2322.2840771484	0.0645842254
2324.2128845214	0.0637564510
2326.1416918945	0.0632815808
2328.0704992675	0.0627007857
2329.9993066406	0.0619128905
2331.9281140136	0.0615252592
2333.8569213866	0.0613991022
2335.7857287597	0.0610281266
2337.7145361327	0.0611098409
2339.6433435058	0.0611222610
2341.5721508788	0.0611749068
2343.5009582519	0.0619979501
2345.4297656249	0.0629558712
2347.3585729980	0.0649881586
2349.2873803710	0.0664926916
2351.2161877441	0.0647104084
2353.1449951171	0.0620281547
2355.0738024902	0.0600721873
2357.0026098632	0.0585892424
2358.9314172363	0.0577972680
2360.8602246093	0.0570799857
2362.7890319823	0.0568979979
2364.7178393554	0.0571753755
2366.6466467284	0.0576837957
2368.5754541015	0.0587031282
2370.5042614745	0.0597954169
2372.4330688476	0.0611325912
2374.3618762206	0.0624444336
2376.2906835937	0.0637607202
2378.2194909667	0.0649567693
2380.1482983398	0.0656604469
2382.0771057128	0.0662696213
2384.0059130859	0.0666404665
2385.9347204589	0.0668086782
2387.8635278320	0.0669250935
2389.7923352050	0.0669567436
2391.7211425780	0.0667883307
2393.6499499511	0.0666265339
2395.5787573241	0.0665324628
2397.5075646972	0.0664015263
2399.4363720702	0.0663466156
2401.3651794433	0.0661376566
2403.2939868163	0.0660576075
2405.2227941894	0.0660806447
2407.1516015624	0.0660091564
2409.0804089355	0.0657762289
2411.0092163085	0.0656488389
2412.9380236816	0.0656898916
2414.8668310546	0.0654581934
2416.7956384277	0.0654573441
2418.7244458007	0.0653648973
2420.6532531738	0.0652249753
2422.5820605468	0.0653012544
2424.5108679198	0.0650230870
2426.4396752929	0.0648373216
2428.3684826659	0.0648877770
2430.2972900390	0.0647996217
2432.2260974120	0.0646373108
2434.1549047851	0.0646070391
2436.0837121581	0.0644815564
2438.0125195312	0.0644024611
2439.9413269042	0.0642756820
2441.8701342773	0.0641211718
2443.7989416503	0.0642213374
2445.7277490234	0.0639786199
2447.6565563964	0.0638563186
2449.5853637695	0.0638383850
2451.5141711425	0.0637377948
2453.4429785155	0.0636671185
2455.3717858886	0.0634330437
2457.3005932616	0.0634097904
2459.2294006347	0.0632130429
2461.1582080077	0.0631543100
2463.0870153808	0.0631968006
2465.0158227538	0.0630975068
2466.9446301269	0.0630421042
2468.8734374999	0.0628223121
2470.8022448730	0.0629055649
2472.7310522460	0.0628438741
2474.6598596191	0.0625596419
2476.5886669921	0.0624463409
2478.5174743652	0.0624176711
2480.4462817382	0.0623865388
2482.3750891112	0.0621956363
2484.3038964843	0.0622112677
2486.2327038573	0.0621994212
2488.1615112304	0.0620379262
2490.0903186034	0.0619256087
2492.0191259765	0.0617706403
2493.9479333495	0.0617056638
2495.8767407226	0.0617561489
2497.8055480956	0.0615773797
2499.7343554687	0.0613256283
2501.6631628417	0.0614586025
2503.5919702148	0.0613533519
2505.5207775878	0.0611035526
2507.4495849609	0.0610787272
2509.3783923339	0.0608896278
2511.3071997069	0.0607964471
2513.2360070800	0.0608610883
2515.1648144530	0.0607952066
2517.0936218261	0.0606706850
2519.0224291991	0.0606253222
2520.9512365722	0.0604494810
2522.8800439452	0.0603004433
2524.8088513183	0.0602643564
2526.7376586913	0.0600731410
2528.6664660644	0.0599888861
2530.5952734374	0.0600501411
2532.5240808105	0.0600854829
2534.4528881835	0.0599142052
2536.3816955566	0.0597566292
2538.3105029296	0.0597449318
2540.2393103027	0.0595679693
2542.1681176757	0.0594483092
2544.0969250487	0.0593537986
2546.0257324218	0.0592901669
2547.9545397948	0.0592660904
2549.8833471679	0.0591496974
2551.8121545409	0.0591594428
2553.7409619140	0.0590434372
2555.6697692870	0.0588427261
2557.5985766601	0.0588502809
2559.5273840331	0.0587690361
2561.4561914062	0.0585365072
2563.3849987792	0.0584604852
2565.3138061523	0.0585051104
2567.2426135253	0.0584495179
2569.1714208984	0.0582808405
2571.1002282714	0.0580643713
2573.0290356444	0.0580696650
2574.9578430175	0.0580660366
2576.8866503905	0.0578563735
2578.8154577636	0.0577993467
2580.7442651366	0.0576842204
2582.6730725097	0.0576361418
2584.6018798827	0.0576153845
2586.5306872558	0.0574740432
2588.4594946288	0.0575128496
2590.3883020019	0.0573272519
2592.3171093749	0.0571389720
2594.2459167480	0.0571137629
2596.1747241210	0.0570213422
2598.1035314941	0.0570277460
2600.0323388671	0.0569305196
2601.9611462401	0.0568001866
2603.8899536132	0.0567151308
2605.8187609862	0.0566375107
2607.7475683593	0.0565493703
2609.6763757323	0.0564914010
2611.6051831054	0.0564278066
2613.5339904784	0.0563279577
2615.4627978515	0.0563201420
2617.3916052245	0.0562223457
2619.3204125976	0.0560648590
2621.2492199706	0.0558068082
2623.1780273437	0.0557414815
2625.1068347167	0.0557239056
2627.0356420898	0.0555618852
2628.9644494628	0.0556530952
2630.8932568358	0.0554776005
2632.8220642089	0.0553953424
2634.7508715819	0.0554581843
2636.6796789550	0.0552956089
2638.6084863280	0.0552623868
2640.5372937011	0.0551184192
2642.4661010741	0.0550080128
2644.3949084472	0.0549216717
2646.3237158202	0.0548346639
2648.2525231933	0.0548336431
2650.1813305663	0.0547912046
2652.1101379394	0.0546296015
2654.0389453124	0.0544593222
2655.9677526855	0.0544421002
2657.8965600585	0.0543455258
2659.8253674315	0.0543501973
2661.7541748046	0.0542036816
2663.6829821776	0.0540533140
2665.6117895507	0.0540813133
2667.5405969237	0.0538847223
2669.4694042968	0.0538601987
2671.3982116698	0.0537635460
2673.3270190429	0.0536057539
2675.2558264159	0.0535907149
2677.1846337890	0.0534847230
2679.1134411620	0.0534475036
2681.0422485351	0.0533989966
2682.9710559081	0.0532319397
2684.8998632812	0.0530619398
2686.8286706542	0.0531088561
2688.7574780273	0.0530547276
2690.6862854003	0.0528586693
2692.6150927733	0.0528599955
2694.5439001464	0.0527417511
2696.4727075194	0.0525805987
2698.4015148925	0.0526147261
2700.3303222655	0.0525255948
2702.2591296386	0.0524016544
2704.1879370116	0.0523766391
2706.1167443847	0.0522246100
2708.0455517577	0.0522123650
2709.9743591308	0.0522105619
2711.9031665038	0.0520771891
2713.8319738769	0.0519520640
2715.7607812499	0.0517901704
2717.6895886230	0.0517381206
2719.6183959960	0.0515376739
2721.5472033690	0.0514421314
2723.4760107421	0.0515122786
2725.4048181151	0.0514755696
2727.3336254882	0.0514316857
2729.2624328612	0.0512335449
2731.1912402343	0.0510932542
2733.1200476073	0.0509703979
2735.0488549804	0.0508870706
2736.9776623534	0.0508335307
2738.9064697265	0.0507430211
2740.8352770995	0.0507492982
2742.7640844726	0.0506327376
2744.6928918456	0.0505289659
2746.6216992187	0.0504564643
2748.5505065917	0.0503544547
2750.4793139647	0.0502253883
2752.4081213378	0.0501704067
2754.3369287108	0.0501631796
2756.2657360839	0.0500097573
2758.1945434569	0.0499606505
2760.1233508300	0.0498484485
2762.0521582030	0.0497066304
2763.9809655761	0.0496690273
2765.9097729491	0.0495526306
2767.8385803222	0.0494902320
2769.7673876952	0.0493769348
2771.6961950683	0.0493103079
2773.6250024413	0.0493198708
2775.5538098144	0.0491088703
2777.4826171874	0.0490149297
2779.4114245604	0.0489132255
2781.3402319335	0.0487152338
2783.2690393065	0.0488850772
2785.1978466796	0.0487684384
2787.1266540526	0.0485561565
2789.0554614257	0.0486424677
2790.9842687987	0.0484697521
2792.9130761718	0.0483869202
2794.8418835448	0.0482803136
2796.7706909179	0.0480830222
2798.6994982909	0.0480271354
2800.6283056640	0.0478945039
2802.5571130370	0.0478130244
2804.4859204101	0.0478060767
2806.4147277831	0.0476255566
2808.3435351562	0.0474770963
2810.2723425292	0.0475510545
2812.2011499022	0.0473533794
2814.1299572753	0.0473135188
2816.0587646483	0.0473455451
2817.9875720214	0.0470532849
2819.9163793944	0.0469976515
2821.8451867675	0.0468157753
2823.7739941405	0.0466884971
2825.7028015136	0.0466572940
2827.6316088866	0.0465202928
2829.5604162597	0.0465054847
2831.4892236327	0.0464032106
2833.4180310058	0.0463363789
2835.3468383788	0.0461619683
2837.2756457519	0.0459766984
2839.2044531249	0.0459662005
2841.1332604979	0.0458949879
2843.0620678710	0.0456017405
2844.9908752440	0.0453784801
2846.9196826171	0.0452629663
2848.8484899901	0.0449445769
2850.7772973632	0.0448312722
2852.7061047362	0.0447282381
2854.6349121093	0.0446582139
2856.5637194823	0.0446808785
2858.4925268554	0.0445572995
2860.4213342284	0.0445702374
2862.3501416015	0.0444285125
2864.2789489745	0.0443206541
2866.2077563476	0.0443265364
2868.1365637206	0.0442650020
2870.0653710936	0.0441991314
2871.9941784667	0.0439627580
2873.9229858397	0.0439249426
2875.8517932128	0.0439899415
2877.7806005858	0.0438654199
2879.7094079589	0.0438276380
2881.6382153319	0.0437224954
2883.5670227050	0.0435541347
2885.4958300780	0.0435560867
2887.4246374511	0.0434501767
2889.3534448241	0.0434147716
2891.2822521972	0.0434214249
2893.2110595702	0.0432442129
2895.1398669433	0.0431756526
2897.0686743163	0.0429928005
2898.9974816893	0.0427922085
2900.9262890624	0.0426810235
2902.8550964354	0.0425904132
2904.7839038085	0.0425221696
2906.7127111815	0.0422943160
2908.6415185546	0.0422232524
2910.5703259276	0.0421478190
2912.4991333007	0.0417898670
2914.4279406737	0.0414295644
2916.3567480468	0.0413116030
2918.2855554198	0.0412497818
2920.2143627929	0.0410699733
2922.1431701659	0.0411222503
2924.0719775390	0.0411978960
2926.0007849120	0.0410091057
2927.9295922851	0.0409526899
2929.8583996581	0.0409846604
2931.7872070311	0.0408696458
2933.7160144042	0.0408961326
2935.6448217772	0.0408675149
2937.5736291503	0.0408063047
2939.5024365233	0.0408755764
2941.4312438964	0.0407570824
2943.3600512694	0.0407669619
2945.2888586425	0.0407327674
2947.2176660155	0.0405778214
2949.1464733886	0.0405535847
2951.0752807616	0.0404679105
2953.0040881347	0.0403676033
2954.9328955077	0.0402320363
2956.8617028808	0.0402003378
2958.7905102538	0.0400883071
2960.7193176268	0.0399127826
2962.6481249999	0.0398894176
2964.5769323729	0.0397702754
2966.5057397460	0.0396838598
2968.4345471190	0.0397388935
2970.3633544921	0.0397696123
2972.2921618651	0.0397263579
2974.2209692382	0.0397768058
2976.1497766112	0.0398655981
2978.0785839843	0.0398277268
2980.0073913573	0.0396866649
2981.9361987304	0.0397335589
2983.8650061034	0.0397568457
2985.7938134765	0.0395398289
2987.7226208495	0.0395890959
2989.6514282225	0.0395663679
2991.5802355956	0.0395352766
2993.5090429686	0.0395445190
2995.4378503417	0.0393436290
2997.3666577147	0.0393226743
2999.2954650878	0.0393111967
3001.2242724608	0.0392923206
3003.1530798339	0.0390822478
3005.0818872069	0.0388392545
3007.0106945800	0.0388639309
3008.9395019530	0.0388790444
3010.8683093261	0.0387418643
3012.7971166991	0.0385548435
3014.7259240722	0.0385418907
3016.6547314452	0.0383236781
3018.5835388182	0.0382983871
3020.5123461913	0.0384500958
3022.4411535643	0.0382688567
3024.3699609374	0.0382266752
3026.2987683104	0.0381674096
3028.2275756835	0.0380242392
3030.1563830565	0.0379390866
3032.0851904296	0.0377878621
3034.0139978026	0.0375923589
3035.9428051757	0.0376164392
3037.8716125487	0.0375807509
3039.8004199218	0.0374570563
3041.7292272948	0.0375322029
3043.6580346679	0.0373415798
3045.5868420409	0.0372529365
3047.5156494139	0.0371644534
3049.4444567870	0.0370060429
3051.3732641600	0.0369851366
3053.3020715331	0.0368655175
3055.2308789061	0.0368924290
3057.1596862792	0.0367131419
3059.0884936522	0.0366164744
3061.0173010253	0.0365988314
3062.9461083983	0.0365057848
3064.8749157714	0.0365245752
3066.8037231444	0.0363281667
3068.7325305175	0.0363152139
3070.6613378905	0.0362655967
3072.5901452636	0.0361570418
3074.5189526366	0.0361148231
3076.4477600097	0.0359680839
3078.3765673827	0.0359442830
3080.3053747557	0.0358917788
3082.2341821288	0.0359042063
3084.1629895018	0.0357777625
3086.0917968749	0.0355669707
3088.0206042479	0.0355423316
3089.9494116210	0.0355161130
3091.8782189940	0.0354854837
3093.8070263671	0.0353117026
3095.7358337401	0.0351760685
3097.6646411132	0.0352203734
3099.5934484862	0.0351196304
3101.5222558593	0.0349620022
3103.4510632323	0.0349327549
3105.3798706054	0.0347987339
3107.3086779784	0.0346695632
3109.2374853514	0.0346336067
3111.1662927245	0.0345660225
3113.0951000975	0.0345250443
3115.0239074706	0.0343864262
3116.9527148436	0.0342841968
3118.8815222167	0.0342195034
3120.8103295897	0.0341279283
3122.7391369628	0.0341272280
3124.6679443358	0.0340350643
3126.5967517089	0.0338909477
3128.5255590819	0.0338615812
3130.4543664550	0.0337598398
3132.3831738280	0.0336226709
3134.3119812011	0.0336434320
3136.2407885741	0.0334077328
3138.1695959471	0.0332437642
3140.0984033202	0.0332973003
3142.0272106932	0.0331505686
3143.9560180663	0.0332456604
3145.8848254393	0.0330589786
3147.8136328124	0.0328193270
3149.7424401854	0.0329404585
3151.6712475585	0.0326591581
3153.6000549315	0.0325672515
3155.5288623046	0.0325538218
3157.4576696776	0.0323196687
3159.3864770507	0.0322939940
3161.3152844237	0.0322718471
3163.2440917968	0.0322267860
3165.1728991698	0.0320831053
3167.1017065428	0.0320041180
3169.0305139159	0.0319426060
3170.9593212889	0.0318253450
3172.8881286620	0.0317704082
3174.8169360350	0.0316019878
3176.7457434081	0.0315054283
3178.6745507811	0.0314249769
3180.6033581542	0.0313849077
3182.5321655272	0.0312605277
3184.4609729003	0.0311258622
3186.3897802733	0.0312363133
3188.3185876464	0.0310695488
3190.2473950194	0.0308775529
3192.1762023925	0.0308568478
3194.1050097655	0.0309059974
3196.0338171386	0.0308277905
3197.9626245116	0.0305537507
3199.8914318846	0.0306042209
3201.8202392577	0.0304800421
3203.7490466307	0.0303545147
3205.6778540038	0.0304023251
3207.6066613768	0.0301808529
3209.5354687499	0.0301240534
3211.4642761229	0.0301096048
3213.3930834960	0.0300462544
3215.3218908690	0.0300059356
3217.2506982421	0.0299421288
3219.1795056151	0.0298466906
3221.1083129882	0.0297120064
3223.0371203612	0.0296859555
3224.9659277343	0.0296645761
3226.8947351073	0.0296563618
3228.8235424803	0.0296310913
3230.7523498534	0.0295550339
3232.6811572264	0.0294556953
3234.6099645995	0.0294262487
3236.5387719725	0.0293767750
3238.4675793456	0.0293092914
3240.3963867186	0.0292773321
3242.3251940917	0.0291816108
3244.2540014647	0.0292029157
3246.1828088378	0.0290214010
3248.1116162108	0.0290617906
3250.0404235839	0.0292538870
3251.9692309569	0.0289956629
3253.8980383300	0.0289472844
3255.8268457030	0.0288894959
3257.7556530760	0.0287910644
3259.6844604491	0.0287699178
3261.6132678221	0.0287679322
3263.5420751952	0.0287659690
3265.4708825682	0.0286126994
3267.3996899413	0.0287005380
3269.3284973143	0.0286010467
3271.2573046874	0.0285315029
3273.1861120604	0.0286080390
3275.1149194335	0.0284176208
3277.0437268065	0.0283893943
3278.9725341796	0.0283978172
3280.9013415526	0.0284062177
3282.8301489257	0.0283491351
3284.7589562987	0.0282723159
3286.6877636717	0.0283122342
3288.6165710448	0.0282397345
3290.5453784178	0.0281571969
3292.4741857909	0.0280742552
3294.4029931639	0.0280622020
3296.3318005370	0.0280554220
3298.2606079100	0.0279434621
3300.1894152831	0.0279490929
3302.1182226561	0.0279628821
3304.0470300292	0.0278467685
3305.9758374022	0.0277555734
3307.9046447753	0.0276830830
3309.8334521483	0.0276261996
3311.7622595214	0.0275883656
3313.6910668944	0.0276142098
3315.6198742675	0.0276161581
3317.5486816405	0.0275284369
3319.4774890135	0.0275634024
3321.4062963866	0.0274773650
3323.3351037596	0.0274636112
3325.2639111327	0.0274522156
3327.1927185057	0.0272783786
3329.1215258788	0.0272769779
3331.0503332518	0.0271175168
3332.9791406249	0.0271914955
3334.9079479979	0.0271838624
3336.8367553710	0.0269187428
3338.7655627440	0.0270156171
3340.6943701171	0.0269832313
3342.6231774901	0.0269752294
3344.5519848632	0.0269038826
3346.4807922362	0.0267846063
3348.4095996092	0.0268097725
3350.3384069823	0.0267331600
3352.2672143553	0.0266829655
3354.1960217284	0.0265698824
3356.1248291014	0.0265658777
3358.0536364745	0.0264948569
3359.9824438475	0.0264242701
3361.9112512206	0.0264621247
3363.8400585936	0.0263645053
3365.7688659667	0.0263349451
3367.6976733397	0.0262963809
3369.6264807128	0.0262587145
3371.5552880858	0.0261399671
3373.4840954589	0.0261387415
3375.4129028319	0.0261555873
3377.3417102049	0.0259514228
3379.2705175780	0.0259696655
3381.1993249510	0.0259347856
3383.1281323241	0.0258750059
3385.0569396971	0.0258364771
3386.9857470702	0.0257187951
3388.9145544432	0.0258135758
3390.8433618163	0.0256369859
3392.7721691893	0.0254373588
3394.7009765624	0.0256302543
3396.6297839354	0.0255414676
3398.5585913085	0.0253147352
3400.4873986815	0.0253370497
3402.4162060546	0.0252920166
3404.3450134276	0.0252329838
3406.2738208006	0.0252937376
3408.2026281737	0.0251848213
3410.1314355467	0.0250786133
3412.0602429198	0.0251249168
3413.9890502928	0.0250001848
3415.9178576659	0.0249896105
3417.8466650389	0.0250056069
3419.7754724120	0.0248053223
3421.7042797850	0.0246957615
3423.6330871581	0.0246627647
3425.5618945311	0.0247243792
3427.4907019042	0.0246323366
3429.4195092772	0.0245713741
3431.3483166503	0.0246347450
3433.2771240233	0.0245193951
3435.2059313963	0.0244787727
3437.1347387694	0.0244215075
3439.0635461424	0.0244148783
3440.9923535155	0.0243015289
3442.9211608885	0.0242323987
3444.8499682616	0.0242396891
3446.7787756346	0.0239242353
3448.7075830077	0.0239437483
3450.6363903807	0.0240648575
3452.5651977538	0.0240331851
3454.4940051268	0.0240328945
3456.4228124999	0.0239183009
3458.3516198729	0.0239296965
3460.2804272460	0.0239100792
3462.2092346190	0.0238514300
3464.1380419921	0.0238387175
3466.0668493651	0.0237502046
3467.9956567381	0.0237673447
3469.9244641112	0.0238625966
3471.8532714842	0.0237293169
3473.7820788573	0.0236159489
3475.7108862303	0.0235494226
3477.6396936034	0.0235324129
3479.5685009764	0.0235998854
3481.4973083495	0.0233267825
3483.4261157225	0.0233881958
3485.3549230956	0.0235824939
3487.2837304686	0.0233712699
3489.2125378417	0.0232971087
3491.1413452147	0.0233162120
3493.0701525878	0.0233456343
3494.9989599608	0.0233001560
3496.9277673338	0.0233077928
3498.8565747069	0.0233493634
3500.7853820799	0.0232978724
3502.7141894530	0.0230221152
3504.6429968260	0.0230152458
3506.5718041991	0.0233385302
3508.5006115721	0.0231245104
3510.4294189452	0.0230459049
3512.3582263182	0.0230624378
3514.2870336913	0.0231193081
3516.2158410643	0.0231961273
3518.1446484374	0.0230507106
3520.0734558104	0.0231901426
3522.0022631835	0.0228841100
3523.9310705565	0.0226775780
3525.8598779295	0.0228228979
3527.7886853026	0.0227531958
3529.7174926756	0.0227859393
3531.6463000487	0.0229110830
3533.5751074217	0.0230580680
3535.5039147948	0.0228257887
3537.4327221678	0.0227250177
3539.3615295409	0.0229208991
3541.2903369139	0.0229516588
3543.2191442870	0.0227983892
3545.1479516600	0.0223908573
3547.0767590331	0.0222547576
3549.0055664061	0.0226727463
3550.9343737792	0.0227541625
3552.8631811522	0.0224760454
3554.7919885252	0.0227361098
3556.7207958983	0.0227212440
3558.6496032713	0.0226415377
3560.5784106444	0.0226391740
3562.5072180174	0.0224814564
3564.4360253905	0.0225351341
3566.3648327635	0.0213877633
3568.2936401366	0.0210352894
3570.2224475096	0.0224337392
3572.1512548827	0.0226708949
3574.0800622557	0.0224150643
3576.0088696288	0.0225926358
3577.9376770018	0.0225122757
3579.8664843749	0.0224345066
3581.7952917479	0.0223615803
3583.7240991210	0.0224526525
3585.6529064940	0.0221129470
3587.5817138670	0.0207290873
3589.5105212401	0.0211233087
3591.4393286131	0.0225214660
3593.3681359862	0.0220805667
3595.2969433592	0.0217642710
3597.2257507323	0.0220913328
3599.1545581053	0.0222006664
3601.0833654784	0.0220521186
3603.0121728514	0.0221111253
3604.9409802245	0.0223825425
3606.8697875975	0.0218355805
3608.7985949706	0.0208905600
3610.7274023436	0.0212544911
3612.6562097167	0.0215173513
3614.5850170897	0.0211277343
3616.5138244627	0.0221925527
3618.4426318358	0.0209488608
3620.3714392088	0.0205405410
3622.3002465819	0.0223304294
3624.2290539549	0.0218713265
3626.1578613280	0.0225465782
3628.0866687010	0.0198657662
3630.0154760741	0.0186279230
3631.9442834471	0.0221131295
3633.8730908202	0.0216928236
3635.8018981932	0.0219222717
3637.7307055663	0.0221779570
3639.6595129393	0.0218353607
3641.5883203124	0.0220538583
3643.5171276854	0.0217640176
3645.4459350584	0.0219905414
3647.3747424315	0.0202412624
3649.3035498045	0.0189151987
3651.2323571776	0.0193810090
3653.1611645506	0.0219001621
3655.0899719237	0.0215084404
3657.0187792967	0.0198625438
3658.9475866698	0.0221041217
3660.8763940428	0.0216849968
3662.8052014159	0.0218140669
3664.7340087889	0.0218766909
3666.6628161620	0.0217236578
3668.5916235350	0.0211164542
3670.5204309081	0.0182144344
3672.4492382811	0.0209244490
3674.3780456541	0.0201295279
3676.3068530272	0.0177317467
3678.2356604002	0.0208783317
3680.1644677733	0.0211339444
3682.0932751463	0.0211547799
3684.0220825194	0.0215851218
3685.9508898924	0.0213341489
3687.8796972655	0.0195069946
3689.8085046385	0.0184854623
3691.7373120116	0.0205462053
3693.6661193846	0.0207596403
3695.5949267577	0.0211619660
3697.5237341307	0.0210770238
3699.4525415038	0.0208680555
3701.3813488768	0.0205095187
3703.3101562499	0.0199968331
3705.2389636229	0.0213948600
3707.1677709959	0.0205409247
3709.0965783690	0.0202694405
3711.0253857420	0.0192216802
3712.9541931151	0.0185690131
3714.8830004881	0.0208252501
3716.8118078612	0.0203510933
3718.7406152342	0.0206417572
3720.6694226073	0.0202040412
3722.5982299803	0.0197556242
3724.5270373534	0.0202805717
3726.4558447264	0.0191475153
3728.3846520995	0.0203126296
3730.3134594725	0.0199730955
3732.2422668456	0.0189081654
3734.1710742186	0.0185094178
3736.0998815916	0.0178083461
3738.0286889647	0.0186233856
3739.9574963377	0.0197295435
3741.8863037108	0.0203425214
3743.8151110838	0.0167055316
3745.7439184569	0.0161807556
3747.6727258299	0.0195301231
3749.6015332030	0.0174172949
3751.5303405760	0.0164424852
3753.4591479491	0.0180610605
3755.3879553221	0.0192367546
3757.3167626952	0.0197531097
3759.2455700682	0.0185636021
3761.1743774413	0.0191561393
3763.1031848143	0.0199717730
3765.0319921873	0.0190090127
3766.9607995604	0.0192211326
3768.8896069334	0.0190754328
3770.8184143065	0.0185518134
3772.7472216795	0.0194720440
3774.6760290526	0.0195328444
3776.6048364256	0.0194883440
3778.5336437987	0.0189872347
3780.4624511717	0.0185904764
3782.3912585448	0.0194353759
3784.3200659178	0.0190204922
3786.2488732909	0.0188862570
3788.1776806639	0.0192745104
3790.1064880370	0.0192280561
3792.0352954100	0.0190128926
3793.9641027830	0.0192608312
3795.8929101561	0.0183458999
3797.8217175291	0.0182076525
3799.7505249022	0.0187848285
3801.6793322752	0.0159020834
3803.6081396483	0.0180018321
3805.5369470213	0.0188733190
3807.4657543944	0.0163519345
3809.3945617674	0.0188549273
3811.3233691405	0.0184572786
3813.2521765135	0.0188843645
3815.1809838866	0.0174152553
3817.1097912596	0.0159446206
3819.0385986327	0.0189006291
3820.9674060057	0.0162283853
3822.8962133787	0.0168044791
3824.8250207518	0.0188070759
3826.7538281248	0.0174797960
3828.6826354979	0.0183599964
3830.6114428709	0.0178634636
3832.5402502440	0.0174122117
3834.4690576170	0.0177073963
3836.3978649901	0.0168770738
3838.3266723631	0.0156355333
3840.2554797362	0.0167186968
3842.1842871092	0.0175215863
3844.1130944823	0.0169965792
3846.0419018553	0.0180221386
3847.9707092284	0.0177133773
3849.8995166014	0.0178283975
3851.8283239745	0.0163596570
3853.7571313475	0.0131293805
3855.6859387205	0.0150105227
3857.6147460936	0.0178557150
3859.5435534666	0.0173422769
3861.4723608397	0.0172852576
3863.4011682127	0.0169248097
3865.3299755858	0.0160550699
3867.2587829588	0.0174385756
3869.1875903319	0.0161460005
3871.1163977049	0.0154116508
3873.0452050780	0.0174371526
3874.9740124510	0.0164297558
3876.9028198241	0.0173280612
3878.8316271971	0.0174006317
3880.7604345702	0.0156258568
3882.6892419432	0.0172262080
3884.6180493162	0.0163983554
3886.5468566893	0.0154460743
3888.4756640623	0.0172200352
3890.4044714354	0.0164580811
3892.3332788084	0.0157383010
3894.2620861815	0.0169153735
3896.1908935545	0.0170621425
3898.1197009276	0.0164513998
3900.0485083006	0.0158336926
3901.9773156737	0.0156879891
3903.9061230467	0.0155215049
3905.8349304198	0.0156761706
3907.7637377928	0.0168069005
3909.6925451659	0.0167591572
3911.6213525389	0.0165420696
3913.5501599119	0.0167700127
3915.4789672850	0.0163800977
3917.4077746580	0.0159548372
3919.3365820311	0.0158100259
3921.2653894041	0.0163078308
3923.1941967772	0.0162628479
3925.1230041502	0.0160095859
3927.0518115233	0.0162933040
3928.9806188963	0.0163402148
3930.9094262694	0.0160171334
3932.8382336424	0.0156824701
3934.7670410155	0.0160551071
3936.6958483885	0.0161866117
3938.6246557616	0.0161627922
3940.5534631346	0.0161829703
3942.4822705076	0.0156927966
3944.4110778807	0.0157932993
3946.3398852537	0.0159555413
3948.2686926268	0.0157183744
3950.1974999998	0.0157783180
3952.1263073729	0.0158157125
3954.0551147459	0.0158076212
3955.9839221190	0.0157721806
3957.9127294920	0.0156724360
3959.8415368651	0.0157360844
3961.7703442381	0.0155769289
3963.6991516112	0.0155547215
3965.6279589842	0.0157278497
3967.5567663573	0.0155479694
3969.4855737303	0.0155302268
3971.4143811034	0.0154533032
3973.3431884764	0.0153932553
3975.2719958494	0.0154561177
3977.2008032225	0.0153710553
3979.1296105955	0.0154442312
3981.0584179686	0.0153655093
3982.9872253416	0.0153067876
3984.9160327147	0.0153224692
3986.8448400877	0.0152356178
3988.7736474608	0.0151842330
3990.7024548338	0.0151484255
3992.6312622069	0.0151517242
3994.5600695799	0.0151294628
3996.4888769530	0.0151303951
3998.4176843260	0.0150090372
4000.3464916991	0.0149301691
4002.2752990721	0.0149332918
4004.2041064451	0.0149057936
4006.1329138182	0.0148900989
4008.0617211912	0.0148156583
4009.9905285643	0.0148795433
4011.9193359373	0.0148588065
4013.8481433104	0.0146990987
4015.7769506834	0.0146448202
4017.7057580565	0.0147195533
4019.6345654295	0.0146907382
4021.5633728026	0.0145355687
4023.4921801756	0.0145601016
4025.4209875487	0.0145324739
4027.3497949217	0.0145199699
4029.2786022948	0.0144982487
4031.2074096678	0.0143686179
4033.1362170408	0.0144623090
4035.0650244139	0.0144384755
4036.9938317869	0.0142868832
4038.9226391600	0.0143319927
4040.8514465330	0.0142585188
4042.7802539061	0.0141788851
4044.7090612791	0.0142202368
4046.6378686522	0.0141536659
4048.5666760252	0.0141429901
4050.4954833983	0.0141177624
4052.4242907713	0.0140489340
4054.3530981444	0.0140609946
4056.2819055174	0.0140651688
4058.2107128905	0.0140049253
4060.1395202635	0.0139379930
4062.0683276365	0.0139522925
4063.9971350096	0.0138886701
4065.9259423826	0.0138771627
4067.8547497557	0.0138226748
4069.7835571287	0.0137685854
4071.7123645018	0.0138392709
4073.6411718748	0.0136823151
4075.5699792479	0.0137385661
4077.4987866209	0.0137335639
4079.4275939940	0.0134596527
4081.3564013670	0.0135195218
4083.2852087401	0.0135709224
4085.2140161131	0.0135784745
4087.1428234862	0.0135430265
4089.0716308592	0.0134559907
4091.0004382323	0.0135124009
4092.9292456053	0.0134067051
4094.8580529783	0.0132969040
4096.7868603514	0.0133474357
4098.7156677244	0.0133259092
4100.6444750975	0.0132523738
4102.5732824705	0.0132486671
4104.5020898436	0.0132224839
4106.4308972166	0.0131528322
4108.3597045897	0.0132068759
4110.2885119627	0.0131442733
4112.2173193358	0.0130814593
4114.1461267088	0.0131293815
4116.0749340819	0.0129810534
4118.0037414549	0.0130083580
4119.9325488280	0.0129931476
4121.8613562010	0.0128676295
4123.7901635740	0.0129535180
4125.7189709471	0.0128740836
4127.6477783201	0.0128130727
4129.5765856932	0.0128027517
4131.5053930662	0.0128053594
4133.4342004393	0.0127858799
4135.3630078123	0.0126812700
4137.2918151854	0.0126879364
4139.2206225584	0.0126455929
4141.1494299315	0.0126296096
4143.0782373045	0.0126059782
4145.0070446776	0.0125977267
4146.9358520506	0.0125204679
4148.8646594237	0.0124694705
4150.7934667967	0.0125312787
4152.7222741697	0.0123919696
4154.6510815428	0.0123826321
4156.5798889158	0.0124201961
4158.5086962889	0.0124114044
4160.4375036619	0.0123343710
4162.3663110350	0.0122782728
4164.2951184080	0.0123420674
4166.2239257811	0.0122457976
4168.1527331541	0.0122731291
4170.0815405272	0.0122323483
4172.0103479002	0.0121461954
4173.9391552733	0.0121444594
4175.8679626463	0.0121245701
4177.7967700194	0.0121385884
4179.7255773924	0.0120548625
4181.6543847654	0.0119909421
4183.5831921385	0.0119476747
4185.5119995115	0.0119752288
4187.4408068846	0.0119062271
4189.3696142576	0.0119027440
4191.2984216307	0.0118307900
4193.2272290037	0.0117101008
4195.1560363768	0.0118929176
4197.0848437498	0.0117593799
4199.0136511229	0.0117023923
4200.9424584959	0.0117421262
4202.8712658690	0.0116719883
4204.8000732420	0.0117012365
4206.7288806151	0.0116329733
4208.6576879881	0.0116412640
4210.5864953611	0.0115307774
4212.5153027342	0.0115562119
4214.4441101072	0.0116258021
4216.3729174803	0.0115050925
4218.3017248533	0.0114324372
4220.2305322264	0.0113966782
4222.1593395994	0.0114593860
4224.0881469725	0.0114428131
4226.0169543455	0.0113708572
4227.9457617186	0.0113526825
4229.8745690916	0.0114410762
4231.8033764647	0.0113153886
4233.7321838377	0.0112097226
4235.6609912108	0.0113131236
4237.5897985838	0.0111855427
4239.5186059569	0.0111511517
4241.4474133299	0.0111325849
4243.3762207029	0.0111388415
4245.3050280760	0.0111485552
4247.2338354490	0.0110677052
4249.1626428221	0.0110327769
4251.0914501951	0.0109707452
4253.0202575682	0.0109641049
4254.9490649412	0.0109264106
4256.8778723143	0.0109958770
4258.8066796873	0.0109363459
4260.7354870604	0.0108705210
4262.6642944334	0.0109565677
4264.5931018065	0.0109029207
4266.5219091795	0.0108705694
4268.4507165526	0.0107643809
4270.3795239256	0.0107652657
4272.3083312986	0.0107950130
4274.2371386717	0.0106938677
4276.1659460447	0.0106743090
4278.0947534178	0.0106969979
4280.0235607908	0.0106591480
4281.9523681639	0.0105947666
4283.8811755369	0.0104748271
4285.8099829100	0.0104366858
4287.7387902830	0.0106215728
4289.6675976561	0.0105197355
4291.5964050291	0.0105099427
4293.5252124022	0.0105237234
4295.4540197752	0.0103440937
4297.3828271483	0.0104014333
4299.3116345213	0.0103323571
4301.2404418943	0.0103751346
4303.1692492674	0.0103438608
4305.0980566404	0.0103198905
4307.0268640135	0.0103430562
4308.9556713865	0.0101905372
4310.8844787596	0.0102270627
4312.8132861326	0.0101022348
4314.7420935057	0.0101336893
4316.6709008787	0.0101630799
4318.5997082518	0.0100679584
4320.5285156248	0.0101048741
4322.4573229979	0.0100007476
4324.3861303709	0.0099839801
4326.3149377440	0.0100263869
4328.2437451170	0.0100438576
4330.1725524900	0.0099665783
4332.1013598631	0.0099571832
4334.0301672361	0.0099053076
4335.9589746092	0.0098665366
4337.8877819822	0.0099279359
4339.8165893553	0.0098397369
4341.7453967283	0.0098401317
4343.6742041014	0.0097305421
4345.6030114744	0.0097313430
4347.5318188475	0.0097743487
4349.4606262205	0.0097046765
4351.3894335936	0.0097100865
4353.3182409666	0.0096444776
4355.2470483397	0.0096211033
4357.1758557127	0.0095632076
4359.1046630858	0.0095955683
4361.0334704588	0.0095287450
4362.9622778318	0.0095249284
4364.8910852049	0.0095842592
4366.8198925779	0.0094341645
4368.7486999510	0.0094370935
4370.6775073240	0.0094919661
4372.6063146971	0.0094868522
4374.5351220701	0.0093007004
4376.4639294432	0.0093714558
4378.3927368162	0.0094314385
4380.3215441893	0.0092586474
4382.2503515623	0.0093132053
4384.1791589354	0.0092515778
4386.1079663084	0.0093323998
4388.0367736815	0.0092506651
4389.9655810545	0.0091416743
4391.8943884275	0.0092202062
4393.8231958006	0.0091080228
4395.7520031736	0.0091547947
4397.6808105467	0.0090801679
4399.6096179197	0.0090474170
4401.5384252928	0.0091165043
4403.4672326658	0.0090992926
4405.3960400389	0.0090777352
4407.3248474119	0.0089420397
4409.2536547850	0.0089510847
4411.1824621580	0.0090058232
4413.1112695311	0.0089482404
4415.0400769041	0.0089206155
4416.9688842772	0.0089239310
4418.8976916502	0.0088429544
4420.8264990232	0.0088290647
4422.7553063963	0.0088157654
4424.6841137693	0.0087506371
4426.6129211424	0.0087961424
4428.5417285154	0.0087633934
4430.4705358885	0.0087000150
4432.3993432615	0.0086766602
4434.3281506346	0.0087108295
4436.2569580076	0.0086762002
4438.1857653807	0.0086112339
4440.1145727537	0.0085734036
4442.0433801268	0.0085138138
4443.9721874998	0.0085550025
4445.9009948729	0.0084820809
4447.8298022459	0.0084427092
4449.7586096189	0.0084842108
4451.6874169920	0.0085272174
4453.6162243650	0.0084901014
4455.5450317381	0.0083770100
4457.4738391111	0.0083925780
4459.4026464842	0.0083579365
4461.3314538572	0.0083683366
4463.2602612303	0.0083465353
4465.1890686033	0.0083295386
4467.1178759764	0.0083120065
4469.0466833494	0.0083005950
4470.9754907225	0.0082950434
4472.9042980955	0.0081706485
4474.8331054686	0.0082675107
4476.7619128416	0.0081922933
4478.6907202147	0.0081628785
4480.6195275877	0.0082089715
4482.5483349607	0.0080876760
4484.4771423338	0.0081860321
4486.4059497068	0.0081062019
4488.3347570799	0.0081354659
4490.2635644529	0.0081558283
4492.1923718260	0.0080524916
4494.1211791990	0.0081146862
4496.0499865721	0.0080344677
4497.9787939451	0.0080008088
4499.9076013182	0.0079463087
4501.8364086912	0.0079216370
4503.7652160643	0.0078979917
4505.6940234373	0.0078752730
4507.6228308104	0.0078986483
4509.5516381834	0.0078381822
4511.4804455564	0.0078696823
4513.4092529295	0.0077877808
4515.3380603025	0.0077877725
4517.2668676756	0.0078243222
4519.1956750486	0.0077253394
4521.1244824217	0.0077457381
4523.0532897947	0.0077141016
4524.9820971678	0.0076806787
4526.9109045408	0.0076583219
4528.8397119139	0.0076287761
4530.7685192869	0.0076842811
4532.6973266600	0.0076772026
4534.6261340330	0.0075547984
4536.5549414061	0.0075243330
4538.4837487791	0.0075815367
4540.4125561521	0.0074882922
4542.3413635252	0.0074229157
4544.2701708982	0.0074851643
4546.1989782713	0.0074745491
4548.1277856443	0.0073992917
4550.0565930174	0.0074083954
4551.9854003904	0.0074128085
4553.9142077635	0.0073410980
4555.8430151365	0.0073429644
4557.7718225096	0.0073544802
4559.7006298826	0.0073538115
4561.6294372557	0.0073044091
4563.5582446287	0.0071779592
4565.4870520018	0.0072208149
4567.4158593748	0.0072735390
4569.3446667478	0.0071649123
4571.2734741209	0.0072130114
4573.2022814939	0.0072423471
4575.1310888670	0.0071563385
4577.0598962400	0.0071827718
4578.9887036131	0.0071148346
4580.9175109861	0.0071460437
4582.8463183592	0.0071996069
4584.7751257322	0.0070748981
4586.7039331053	0.0070585073
4588.6327404783	0.0070166839
4590.5615478514	0.0069953017
4592.4903552244	0.0069633117
4594.4191625975	0.0069988780
4596.3479699705	0.0070952401
4598.2767773435	0.0069061313
4600.2055847166	0.0068267705
4602.1343920896	0.0068898085
4604.0631994627	0.0069199158
4605.9920068357	0.0069540334
4607.9208142088	0.0068736286
4609.8496215818	0.0068004206
4611.7784289549	0.0068411482
4613.7072363279	0.0068429038
4615.6360437010	0.0066948407
4617.5648510740	0.0067849834
4619.4936584471	0.0068232883
4621.4224658201	0.0066874931
4623.3512731932	0.0067401724
4625.2800805662	0.0066271257
4627.2088879393	0.0066414792
4629.1376953123	0.0066952100
4631.0665026853	0.0066257156
4632.9953100584	0.0066481289
4634.9241174314	0.0065174913
4636.8529248045	0.0065285601
4638.7817321775	0.0065396614
4640.7105395506	0.0065209046
4642.6393469236	0.0065954248
4644.5681542967	0.0065366905
4646.4969616697	0.0065229461
4648.4257690428	0.0064525120
4650.3545764158	0.0063945088
4652.2833837889	0.0064496798
4654.2121911619	0.0064286808
4656.1409985350	0.0063517392
4658.0698059080	0.0063894745
4659.9986132810	0.0064129727
4661.9274206541	0.0063226568
4663.8562280271	0.0063476255
4665.7850354002	0.0063248305
4667.7138427732	0.0062602703
4669.6426501463	0.0062398463
4671.5714575193	0.0062700631
4673.5002648924	0.0063355966
4675.4290722654	0.0063363514
4677.3578796385	0.0063341446
4679.2866870115	0.0062228339
4681.2154943846	0.0062066745
4683.1443017576	0.0062070461
4685.0731091307	0.0061501795
4687.0019165037	0.0061889337
4688.9307238767	0.0061389948
4690.8595312498	0.0061350791
4692.7883386228	0.0060644667
4694.7171459959	0.0059915222
4696.6459533689	0.0060364371
4698.5747607420	0.0060583586
4700.5035681150	0.0060911211
4702.4323754881	0.0060042832
4704.3611828611	0.0059850942
4706.2899902342	0.0059885168
4708.2187976072	0.0059101507
4710.1476049803	0.0059690080
4712.0764123533	0.0059528323
4714.0052197264	0.0058627333
4715.9340270994	0.0058593201
4717.8628344724	0.0058427653
4719.7916418455	0.0058863405
4721.7204492185	0.0058613117
4723.6492565916	0.0057927724
4725.5780639646	0.0058568520
4727.5068713377	0.0057811225
4729.4356787107	0.0057833763
4731.3644860838	0.0058254665
4733.2932934568	0.0056955982
4735.2221008299	0.0057159187
4737.1509082029	0.0057111955
4739.0797155760	0.0056813066
4741.0085229490	0.0056935432
4742.9373303221	0.0056743538
4744.8661376951	0.0056773257
4746.7949450682	0.0056297220
4748.7237524412	0.0055759661
4750.6525598142	0.0055953278
4752.5813671873	0.0056233266
4754.5101745603	0.0055343704
4756.4389819334	0.0056014201
4758.3677893064	0.0056296997
4760.2965966795	0.0054484801
4762.2254040525	0.0054815249
4764.1542114256	0.0055336328
4766.0830187986	0.0055263890
4768.0118261717	0.0055220136
4769.9406335447	0.0054777507
4771.8694409178	0.0054576108
4773.7982482908	0.0054854285
4775.7270556639	0.0055104620
4777.6558630369	0.0054241186
4779.5846704099	0.0053781699
4781.5134777830	0.0053929458
4783.4422851560	0.0053856177
4785.3710925291	0.0053390460
4787.2998999021	0.0053513078
4789.2287072752	0.0053004846
4791.1575146482	0.0052024252
4793.0863220213	0.0053003179
4795.0151293943	0.0052774809
4796.9439367674	0.0052836882
4798.8727441404	0.0052978611
4800.8015515135	0.0051380703
4802.7303588865	0.0051938700
4804.6591662596	0.0052540363
4806.5879736326	0.0052032205
4808.5167810056	0.0051907711
4810.4455883787	0.0051424103
4812.3743957517	0.0051034866
4814.3032031248	0.0051424503
4816.2320104978	0.0051537072
4818.1608178709	0.0051062321
4820.0896252439	0.0051363697
4822.0184326170	0.0051281089
4823.9472399900	0.0051324894
4825.8760473631	0.0051244907
4827.8048547361	0.0049763224
4829.7336621092	0.0050791902
4831.6624694822	0.0051368019
4833.5912768553	0.0049088215
4835.5200842283	0.0050052707
4837.4488916013	0.0050572641
4839.3776989744	0.0048998208
4841.3065063474	0.0049392213
4843.2353137205	0.0049445285
4845.1641210935	0.0049466034
4847.0929284666	0.0049237246
4849.0217358396	0.0049094069
4850.9505432127	0.0049497858
4852.8793505857	0.0048824865
4854.8081579588	0.0048449496
4856.7369653318	0.0048574526
4858.6657727049	0.0048695868
4860.5945800779	0.0048026033
4862.5233874510	0.0047851852
4864.4521948240	0.0047991630
4866.3810021971	0.0047136042
4868.3098095701	0.0047035096
4870.2386169431	0.0047121011
4872.1674243162	0.0046867472
4874.0962316892	0.0046756207
4876.0250390623	0.0047054738
4877.9538464353	0.0046870136
4879.8826538084	0.0046233223
4881.8114611814	0.0045930482
4883.7402685545	0.0046344311
4885.6690759275	0.0046535861
4887.5978833006	0.0046266597
4889.5266906736	0.0046829972
4891.4554980467	0.0045585521
4893.3843054197	0.0045615388
4895.3131127928	0.0046237288
4897.2419201658	0.0045215017
4899.1707275388	0.0045856237
4901.0995349119	0.0045047142
4903.0283422849	0.0044970037
4904.9571496580	0.0045122285
4906.8859570310	0.0044490853
4908.8147644041	0.0044595650
4910.7435717771	0.0044217966
4912.6723791502	0.0045155971
4914.6011865232	0.0044562900
4916.5299938963	0.0044397200
4918.4588012693	0.0044907574
4920.3876086424	0.0044300379
4922.3164160154	0.0044414019
4924.2452233885	0.0043756147
4926.1740307615	0.0043577109
4928.1028381345	0.0043603079
4930.0316455076	0.0043739630
4931.9604528806	0.0043354193
4933.8892602537	0.0042740917
4935.8180676267	0.0043148659
4937.7468749998	0.0043361504
4939.6756823728	0.0043330649
4941.6044897459	0.0042457301
4943.5332971189	0.0041979882
4945.4621044920	0.0042456714
4947.3909118650	0.0042870329
4949.3197192381	0.0041789138
4951.2485266111	0.0041761277
4953.1773339842	0.0042333328
4955.1061413572	0.0041212458
4957.0349487302	0.0041976213
4958.9637561033	0.0041572303
4960.8925634763	0.0041180616
4962.8213708494	0.0042206002
4964.7501782224	0.0041511669
4966.6789855955	0.0041162595
4968.6077929685	0.0041556396
4970.5366003416	0.0041939411
4972.4654077146	0.0040818043
4974.3942150877	0.0040344559
4976.3230224607	0.0040473035
4978.2518298338	0.0040189456
4980.1806372068	0.0040757237
4982.1094445799	0.0040564574
4984.0382519529	0.0040433146
4985.9670593259	0.0040260549
4987.8958666990	0.0040126415
4989.8246740720	0.0039667971
4991.7534814451	0.0039830701
4993.6822888181	0.0039990125
4995.6110961912	0.0039178897
4997.5399035642	0.0039903121
4999.4687109373	0.0039167358
5001.3975183103	0.0038579432
5003.3263256834	0.0039505358
5005.2551330564	0.0039412770
5007.1839404295	0.0038704365
5009.1127478025	0.0038190249
5011.0415551756	0.0038777422
5012.9703625486	0.0038070059
5014.8991699217	0.0037709372
5016.8279772947	0.0038503078
5018.7567846677	0.0038194540
5020.6855920408	0.0037902719
5022.6143994138	0.0037935784
5024.5432067869	0.0037443803
5026.4720141599	0.0037062154
5028.4008215330	0.0037960592
5030.3296289060	0.0037404280
5032.2584362791	0.0037201704
5034.1872436521	0.0037903509
5036.1160510252	0.0037035360
5038.0448583982	0.0037255604
5039.9736657713	0.0036814027
5041.9024731443	0.0036212404
5043.8312805174	0.0036657648
5045.7600878904	0.0037127561
5047.6888952634	0.0037492353
5049.6177026365	0.0036396331
5051.5465100095	0.0036292407
5053.4753173826	0.0036044999
5055.4041247556	0.0035514175
5057.3329321287	0.0036489232
5059.2617395017	0.0035934572
5061.1905468748	0.0036057713
5063.1193542478	0.0037047518
5065.0481616209	0.0035887086
5066.9769689939	0.0035542427
5068.9057763670	0.0035731173
5070.8345837400	0.0035178168
5072.7633911131	0.0035539938
5074.6921984861	0.0035163101
5076.6210058591	0.0034875632
5078.5498132322	0.0035461835
5080.4786206052	0.0035185586
5082.4074279783	0.0035127075
5084.3362353513	0.0034631025
5086.2650427244	0.0034224221
5088.1938500974	0.0034900024
5090.1226574705	0.0034695626
5092.0514648435	0.0033908579
5093.9802722166	0.0033924789
5095.9090795896	0.0034741573
5097.8378869627	0.0034542922
5099.7666943357	0.0033352445
5101.6955017088	0.0033215433
5103.6243090818	0.0033459649
5105.5531164548	0.0033596859
5107.4819238279	0.0034072262
5109.4107312009	0.0033522954
5111.3395385740	0.0033019916
5113.2683459470	0.0033520600
5115.1971533201	0.0032654798
5117.1259606931	0.0032346724
5119.0547680662	0.0032785507
5120.9835754392	0.0032504117
5122.9123828123	0.0032624640
5124.8411901853	0.0032183998
5126.7699975584	0.0032683522
5128.6988049314	0.0032551857
5130.6276123045	0.0032014127
5132.5564196775	0.0032918707
5134.4852270506	0.0032381737
5136.4140344236	0.0032368340
5138.3428417966	0.0031761529
5140.2716491697	0.0031088120
5142.2004565427	0.0032097313
5144.1292639158	0.0032024914
5146.0580712888	0.0031943619
5147.9868786619	0.0031205164
5149.9156860349	0.0030687382
5151.8444934080	0.0030912468
5153.7733007810	0.0031254026
5155.7021081541	0.0031812096
5157.6309155271	0.0031255563
5159.5597229002	0.0031301505
5161.4885302732	0.0031550578
5163.4173376463	0.0031063962
5165.3461450193	0.0030375505
5167.2749523923	0.0030576815
5169.2037597654	0.0030839057
5171.1325671384	0.0030217550
5173.0613745115	0.0030826302
5174.9901818845	0.0030833196
5176.9189892576	0.0030544433
5178.8477966306	0.0030612035
5180.7766040037	0.0029492066
5182.7054113767	0.0029566917
5184.6342187498	0.0030221115
5186.5630261228	0.0029143733
5188.4918334959	0.0028788154
5190.4206408689	0.0029449107
5192.3494482420	0.0029350496
5194.2782556150	0.0029426133
5196.2070629880	0.0028841472
5198.1358703611	0.0029260349
5200.0646777341	0.0029844788
5201.9934851072	0.0029018349
5203.9222924802	0.0029256716
5205.8510998533	0.0028302534
5207.7799072263	0.0028052591
5209.7087145994	0.0028588660
5211.6375219724	0.0028537917
5213.5663293455	0.0028811344
5215.4951367185	0.0027736330
5217.4239440916	0.0027957605
5219.3527514646	0.0028171276
5221.2815588377	0.0028420999
5223.2103662107	0.0028841887
5225.1391735837	0.0028134026
5227.0679809568	0.0028739711
5228.9967883298	0.0027968558
5230.9255957029	0.0027490160
5232.8544030759	0.0027589924
5234.7832104490	0.0027158486
5236.7120178220	0.0028350861
5238.6408251951	0.0027578033
5240.5696325681	0.0027179325
5242.4984399412	0.0027582813
5244.4272473142	0.0026287083
5246.3560546873	0.0026853611
5248.2848620603	0.0026778309
5250.2136694334	0.0026577464
5252.1424768064	0.0027190233
5254.0712841795	0.0026102676
5256.0000915525	0.0026394464
5257.9288989255	0.0026428495
5259.8577062986	0.0026475212
5261.7865136716	0.0026528654
5263.7153210447	0.0025512585
5265.6441284177	0.0026916668
5267.5729357908	0.0026953877
5269.5017431638	0.0025850637
5271.4305505369	0.0026031560
5273.3593579099	0.0026169904
5275.2881652830	0.0026203578
5277.2169726560	0.0026136732
5279.1457800291	0.0026453896
5281.0745874021	0.0025801775
5283.0033947752	0.0025593238
5284.9322021482	0.0025539892
5286.8610095212	0.0025591513
5288.7898168943	0.0025178567
5290.7186242673	0.0024569184
5292.6474316404	0.0025765288
5294.5762390134	0.0024969503
5296.5050463865	0.0024937815
5298.4338537595	0.0025585592
5300.3626611326	0.0024809386
5302.2914685056	0.0024708991
5304.2202758787	0.0025204439
5306.1490832517	0.0025565559
5308.0778906248	0.0023582436
5310.0066979978	0.0023690914
5311.9355053709	0.0024562264
5313.8643127439	0.0024002029
5315.7931201169	0.0024087010
5317.7219274900	0.0023895055
5319.6507348630	0.0025168865
5321.5795422361	0.0024752729
5323.5083496091	0.0023649402
5325.4371569822	0.0023897309
5327.3659643552	0.0023929914
5329.2947717283	0.0023812077
5331.2235791013	0.0023404215
5333.1523864744	0.0023568294
5335.0811938474	0.0023727855
5337.0100012205	0.0024153106
5338.9388085935	0.0023460775
5340.8676159666	0.0023316708
5342.7964233396	0.0023643719
5344.7252307126	0.0022999481
5346.6540380857	0.0023157098
5348.5828454587	0.0023157683
5350.5116528318	0.0023773191
5352.4404602048	0.0022669495
5354.3692675779	0.0021624099
5356.2980749509	0.0022814476
5358.2268823240	0.0023119277
5360.1556896970	0.0022822567
5362.0844970701	0.0022836383
5364.0133044431	0.0022935076
5365.9421118162	0.0022326498
5367.8709191892	0.0023149424
5369.7997265623	0.0022485810
5371.7285339353	0.0021737237
5373.6573413083	0.0022865608
5375.5861486814	0.0021499842
5377.5149560544	0.0021818345
5379.4437634275	0.0022185664
5381.3725708005	0.0021724552
5383.3013781736	0.0021773102
5385.2301855466	0.0021018982
5387.1589929197	0.0022015383
5389.0878002927	0.0022059022
5391.0166076658	0.0021421784
5392.9454150388	0.0021533181
5394.8742224119	0.0021156424
5396.8030297849	0.0021278805
5398.7318371580	0.0022092203
5400.6606445310	0.0022273806
5402.5894519041	0.0021452708
5404.5182592771	0.0021111302
5406.4470666501	0.0021390254
5408.3758740232	0.0021292744
5410.3046813962	0.0020744666
5412.2334887693	0.0021039518
5414.1622961423	0.0020764726
5416.0911035154	0.0020558985
5418.0199108884	0.0020968146
5419.9487182615	0.0020478088
5421.8775256345	0.0020747771
5423.8063330076	0.0020509337
5425.7351403806	0.0020911628
5427.6639477537	0.0021413718
5429.5927551267	0.0020425958
5431.5215624998	0.0020459909
5433.4503698728	0.0020364425
5435.3791772458	0.0020311081
5437.3079846189	0.0020271293
5439.2367919919	0.0020031540
5441.1655993650	0.0020161211
5443.0944067380	0.0020057422
5445.0232141111	0.0020046514
5446.9520214841	0.0019860289
5448.8808288572	0.0019716620
5450.8096362302	0.0019826097
5452.7384436033	0.0019652392
5454.6672509763	0.0019438762
5456.5960583494	0.0019852731
5458.5248657224	0.0019957135
5460.4536730955	0.0019634890
5462.3824804685	0.0019227876
5464.3112878415	0.0019560878
5466.2400952146	0.0020077580
5468.1689025876	0.0019201767
5470.0977099607	0.0019312059
5472.0265173337	0.0019435390
5473.9553247068	0.0019438448
5475.8841320798	0.0018972526
5477.8129394529	0.0018097896
5479.7417468259	0.0019805646
5481.6705541990	0.0019587891
5483.5993615720	0.0018823091
5485.5281689451	0.0019672110
5487.4569763181	0.0018997244
5489.3857836912	0.0018472844
5491.3145910642	0.0018377199
5493.2433984372	0.0018315843
5495.1722058103	0.0018125670
5497.1010131833	0.0018864151
5499.0298205564	0.0019232933
5500.9586279294	0.0018324661
5502.8874353025	0.0018398471
5504.8162426755	0.0018231689
5506.7450500486	0.0018162428
5508.6738574216	0.0017945219
5510.6026647947	0.0018123435
5512.5314721677	0.0018881740
5514.4602795408	0.0018364126
5516.3890869138	0.0018501029
5518.3178942869	0.0018440329
5520.2467016599	0.0018151682
5522.1755090330	0.0017829926
5524.1043164060	0.0017171992
5526.0331237790	0.0018216287
5527.9619311521	0.0017525679
5529.8907385251	0.0016683799
5531.8195458982	0.0018455628
5533.7483532712	0.0018008023
5535.6771606443	0.0016457823
5537.6059680173	0.0016757906
5539.5347753904	0.0017308939
5541.4635827634	0.0017051073
5543.3923901365	0.0017171627
5545.3211975095	0.0017294306
5547.2500048826	0.0016874711
5549.1788122556	0.0017048417
5551.1076196287	0.0016616152
5553.0364270017	0.0016473378
5554.9652343747	0.0017326679
5556.8940417478	0.0017503246
5558.8228491208	0.0016675738
5560.7516564939	0.0016267027
5562.6804638669	0.0016859402
5564.6092712400	0.0016565855
5566.5380786130	0.0016663861
5568.4668859861	0.0016569324
5570.3956933591	0.0015729459
5572.3245007322	0.0016006705
5574.2533081052	0.0016009602
5576.1821154783	0.0016002641
5578.1109228513	0.0016461196
5580.0397302244	0.0016742714
5581.9685375974	0.0016537183
5583.8973449704	0.0016603464
5585.8261523435	0.0015930656
5587.7549597165	0.0015251809
5589.6837670896	0.0016444582
5591.6125744626	0.0015956676
5593.5413818357	0.0015768077
5595.4701892087	0.0016278714
5597.3989965818	0.0015527854
5599.3278039548	0.0016023922
5601.2566113279	0.0016120188
5603.1854187009	0.0015568697
5605.1142260740	0.0015403491
5607.0430334470	0.0015557557
5608.9718408201	0.0015582459
5610.9006481931	0.0015145633
5612.8294555661	0.0014692781
5614.7582629392	0.0014491724
5616.6870703122	0.0015132847
5618.6158776853	0.0015140667
5620.5446850583	0.0014964163
5622.4734924314	0.0015139841
5624.4022998044	0.0015092019
5626.3311071775	0.0015215497
5628.2599145505	0.0015068538
5630.1887219236	0.0014936909
5632.1175292966	0.0014690218
5634.0463366697	0.0014529969
5635.9751440427	0.0014671152
5637.9039514158	0.0014538707
5639.8327587888	0.0014152399
5641.7615661619	0.0014425498
5643.6903735349	0.0014835951
5645.6191809079	0.0014758509
5647.5479882810	0.0014896267
5649.4767956540	0.0014499994
5651.4056030271	0.0014465130
5653.3344104001	0.0014684404
5655.2632177732	0.0014839575
5657.1920251462	0.0015168365
5659.1208325193	0.0014364261
5661.0496398923	0.0014280346
5662.9784472654	0.0014696636
5664.9072546384	0.0014202854
5666.8360620115	0.0013812727
5668.7648693845	0.0014198140
5670.6936767576	0.0014850930
5672.6224841306	0.0014213930
5674.5512915036	0.0013675350
5676.4800988767	0.0013955940
5678.4089062497	0.0013664297
5680.3377136228	0.0013354177
5682.2665209958	0.0013530909
5684.1953283689	0.0013431843
5686.1241357419	0.0013333113
5688.0529431150	0.0014253785
5689.9817504880	0.0014105838
5691.9105578611	0.0013063188
5693.8393652341	0.0013446140
5695.7681726072	0.0013451285
5697.6969799802	0.0013235679
5699.6257873533	0.0013264706
5701.5545947263	0.0013236613
5703.4834020993	0.0013245522
5705.4122094724	0.0012619548
5707.3410168454	0.0013228580
5709.2698242185	0.0013207283
5711.1986315915	0.0012899588
5713.1274389646	0.0013640884
5715.0562463376	0.0012577346
5716.9850537107	0.0013007673
5718.9138610837	0.0013785359
5720.8426684568	0.0012956848
5722.7714758298	0.0013249125
5724.7002832029	0.0012953277
5726.6290905759	0.0012769180
5728.5578979490	0.0013310316
5730.4867053220	0.0013157008
5732.4155126950	0.0013047953
5734.3443200681	0.0013108760
5736.2731274411	0.0012824866
5738.2019348142	0.0012899388
5740.1307421872	0.0012522002
5742.0595495603	0.0012150760
5743.9883569333	0.0012962201
5745.9171643064	0.0012888396
5747.8459716794	0.0012697782
5749.7747790525	0.0012550135
5751.7035864255	0.0012566476
5753.6323937986	0.0012366737
5755.5612011716	0.0011639481
5757.4900085447	0.0012316683
5759.4188159177	0.0012338650
5761.3476232907	0.0012526226
5763.2764306638	0.0012273942
5765.2052380368	0.0011453452
5767.1340454099	0.0012101008
5769.0628527829	0.0012322422
5770.9916601560	0.0012250032
5772.9204675290	0.0011794990
5774.8492749021	0.0012008365
5776.7780822751	0.0011544896
5778.7068896482	0.0011185248
5780.6356970212	0.0012390332
5782.5645043943	0.0011885008
5784.4933117673	0.0011472577
5786.4221191404	0.0011673567
5788.3509265134	0.0011983896
5790.2797338865	0.0011492237
5792.2085412595	0.0011009646
5794.1373486325	0.0011689840
5796.0661560056	0.0011385280
5797.9949633786	0.0011597426
5799.9237707517	0.0011135519
5801.8525781247	0.0010640218
5803.7813854978	0.0011437838
5805.7101928708	0.0011421150
5807.6390002439	0.0011122905
5809.5678076169	0.0010865961
5811.4966149900	0.0010931712
5813.4254223630	0.0011035457
5815.3542297361	0.0011131817
5817.2830371091	0.0011266361
5819.2118444822	0.0011131153
5821.1406518552	0.0010857396
5823.0694592282	0.0010960876
5824.9982666013	0.0010971408
5826.9270739743	0.0010789300
5828.8558813474	0.0011241399
5830.7846887204	0.0010809619
5832.7134960935	0.0010537499
5834.6423034665	0.0010605705
5836.5711108396	0.0010744412
5838.4999182126	0.0011366622
5840.4287255857	0.0010532285
5842.3575329587	0.0010331766
5844.2863403318	0.0010966349
5846.2151477048	0.0010125785
5848.1439550779	0.0009716298
5850.0727624509	0.0010500012
5852.0015698239	0.0009984841
5853.9303771970	0.0009981100
5855.8591845700	0.0010844362
5857.7879919431	0.0010178904
5859.7167993161	0.0010672766
5861.6456066892	0.0010596969
5863.5744140622	0.0009990188
5865.5032214353	0.0010658589
5867.4320288083	0.0009852892
5869.3608361814	0.0009584029
5871.2896435544	0.0010232973
5873.2184509275	0.0010366888
5875.1472583005	0.0010642183
5877.0760656736	0.0010376209
5879.0048730466	0.0009729242
5880.9336804196	0.0009935328
5882.8624877927	0.0009740106
5884.7912951657	0.0009407650
5886.7201025388	0.0010218746
5888.6489099118	0.0009532484
5890.5777172849	0.0009437808
5892.5065246579	0.0010381128
5894.4353320310	0.0009479824
5896.3641394040	0.0009309225
5898.2929467771	0.0009200143
5900.2217541501	0.0009125473
5902.1505615232	0.0009689401
5904.0793688962	0.0008807936
5906.0081762693	0.0009235803
5907.9369836423	0.0009658721
5909.8657910154	0.0008814660
5911.7945983884	0.0009841308
5913.7234057614	0.0009508957
5915.6522131345	0.0009080869
5917.5810205075	0.0009937561
5919.5098278806	0.0008702384
5921.4386352536	0.0008301259
5923.3674426267	0.0008946811
5925.2962499997	0.0009054544
5927.2250573728	0.0009211369
5929.1538647458	0.0009112451
5931.0826721189	0.0009100138
5933.0114794919	0.0009358746
5934.9402868650	0.0009333752
5936.8690942380	0.0009027631
5938.7979016111	0.0008945026
5940.7267089841	0.0008693081
5942.6555163571	0.0009138261
5944.5843237302	0.0008490497
5946.5131311032	0.0008309954
5948.4419384763	0.0009716655
5950.3707458493	0.0008488502
5952.2995532224	0.0008293673
5954.2283605954	0.0008794120
5956.1571679685	0.0008804608
5958.0859753415	0.0009565648
5960.0147827146	0.0008425670
5961.9435900876	0.0007902014
5963.8723974607	0.0008206872
5965.8012048337	0.0008117106
5967.7300122068	0.0007924192
5969.6588195798	0.0008161546
5971.5876269528	0.0008769578
5973.5164343259	0.0008393277
5975.4452416989	0.0007983824
5977.3740490720	0.0008279070
5979.3028564450	0.0008952090
5981.2316638181	0.0008565539
5983.1604711911	0.0008386436
5985.0892785642	0.0008287494
5987.0180859372	0.0007901849
5988.9468933103	0.0008558984
5990.8757006833	0.0008786526
5992.8045080564	0.0008775969
5994.7333154294	0.0008206200
5996.6621228025	0.0008450991
5998.5909301755	0.0008459701
6000.5197375485	0.0007381060
