399.2631262207	0.0016442705
401.1919335938	0.0019783576
403.1207409668	0.0018015713
405.0495483398	0.0020233861
406.9783557129	0.0019462011
408.9071630859	0.0025884262
410.8359704590	0.0028576236
412.7647778320	0.0021597794
414.6935852051	0.0019344916
416.6223925781	0.0023827478
418.5511999512	0.0022558512
420.4800073242	0.0019780956
422.4088146973	0.0021114412
424.3376220703	0.0025487128
426.2664294434	0.0031372355
428.1952368164	0.0023586298
430.1240441895	0.0023980052
432.0528515625	0.0028961725
433.9816589355	0.0023382823
435.9104663086	0.0026019956
437.8392736816	0.0019217897
439.7680810547	0.0019929113
441.6968884277	0.0026655546
443.6256958008	0.0017285622
445.5545031738	0.0019695612
447.4833105469	0.0022695856
449.4121179199	0.0021095041
451.3409252930	0.0021866229
453.2697326660	0.0019237087
455.1985400391	0.0019953754
457.1273474121	0.0020883158
459.0561547852	0.0017352663
460.9849621582	0.0014361669
462.9137695313	0.0017648733
464.8425769043	0.0016555958
466.7713842773	0.0014882635
468.7001916504	0.0014999444
470.6289990234	0.0011302372
472.5578063965	0.0010273276
474.4866137695	0.0008894541
476.4154211426	0.0011623147
478.3442285156	0.0012264824
480.2730358887	0.0010973089
482.2018432617	0.0010564361
484.1306506348	0.0008302894
486.0594580078	0.0012593439
487.9882653809	0.0010329930
489.9170727539	0.0006094988
491.8458801270	0.0007711659
493.7746875000	0.0008372996
495.7034948730	0.0008757736
497.6323022461	0.0007033136
499.5611096191	0.0007179066
501.4899169922	0.0009123881
503.4187243652	0.0011833106
505.3475317383	0.0011491773
507.2763391113	0.0009420566
509.2051464844	0.0010169612
511.1339538574	0.0009548395
513.0627612305	0.0007660624
514.9915686035	0.0009271518
516.9203759766	0.0012515245
518.8491833496	0.0009589283
520.7779907227	0.0010560828
522.7067980957	0.0012040008
524.6356054688	0.0008829609
526.5644128418	0.0007918054
528.4932202148	0.0003045398
530.4220275879	0.0004949801
532.3508349609	0.0006895136
534.2796423340	0.0007082807
536.2084497070	0.0011941558
538.1372570801	0.0007825046
540.0660644531	0.0007123378
541.9948718262	0.0007164929
543.9236791992	0.0007715591
545.8524865723	0.0007429585
547.7812939453	0.0002372521
549.7101013184	0.0010409794
551.6389086914	0.0009287479
553.5677160645	0.0003725196
555.4965234375	0.0009457746
557.4253308105	0.0011926055
559.3541381836	0.0011183624
561.2829455566	0.0003988143
563.2117529297	0.0005238818
565.1405603027	0.0007966152
567.0693676758	0.0006702734
568.9981750488	0.0009730055
570.9269824219	0.0008212203
572.8557897949	0.0011491587
574.7845971680	0.0007418682
576.7134045410	0.0007260453
578.6422119141	0.0010582970
580.5710192871	0.0005493071
582.4998266602	0.0012532973
584.4286340332	0.0008193648
586.3574414063	0.0007146316
588.2862487793	0.0010724685
590.2150561523	0.0002799541
592.1438635254	0.0008716460
594.0726708984	0.0007826064
596.0014782715	0.0004681673
597.9302856445	0.0007647016
599.8590930176	0.0005555414
601.7879003906	0.0008266057
603.7167077637	0.0008815934
605.6455151367	0.0007078268
607.5743225098	0.0008938246
609.5031298828	0.0012177899
611.4319372559	0.0006346029
613.3607446289	0.0000603929
615.2895520020	0.0005991894
617.2183593750	0.0009455173
619.1471667480	0.0009102889
621.0759741211	0.0005251768
623.0047814941	0.0005152590
624.9335888672	0.0004261034
626.8623962402	0.0003212363
628.7912036133	0.0007235459
630.7200109863	0.0008267731
632.6488183594	0.0011437107
634.5776257324	0.0013494899
636.5064331055	0.0017531870
638.4352404785	0.0018324330
640.3640478516	0.0018714375
642.2928552246	0.0025258374
644.2216625977	0.0024556639
646.1504699707	0.0026220449
648.0792773438	0.0025736261
650.0080847168	0.0023967465
651.9368920898	0.0030276086
653.8656994629	0.0029142457
655.7945068359	0.0030602384
657.7233142090	0.0035836124
659.6521215820	0.0033562114
661.5809289551	0.0032333904
663.5097363281	0.0035180841
665.4385437012	0.0036883664
667.3673510742	0.0032672556
669.2961584473	0.0037521785
671.2249658203	0.0044146678
673.1537731934	0.0040336489
675.0825805664	0.0043422338
677.0113879395	0.0044817533
678.9401953125	0.0046268217
680.8690026855	0.0050229868
682.7978100586	0.0047922619
684.7266174316	0.0047854772
686.6554248047	0.0047852164
688.5842321777	0.0048269769
690.5130395508	0.0047788057
692.4418469238	0.0049969130
694.3706542969	0.0053492137
696.2994616699	0.0056409659
698.2282690430	0.0066427765
700.1570764160	0.0071689738
702.0858837891	0.0071687959
704.0146911621	0.0065999106
705.9434985352	0.0056263916
707.8723059082	0.0049041873
709.8011132813	0.0037929059
711.7299206543	0.0028595827
713.6587280273	0.0020597379
715.5875354004	0.0012383334
717.5163427734	0.0008439351
719.4451501465	0.0007756543
721.3739575195	0.0008928860
723.3027648926	0.0007695545
725.2315722656	0.0004018276
727.1603796387	0.0003723893
729.0891870117	0.0006413806
731.0179943848	0.0005752257
732.9468017578	0.0003663696
734.8756091309	0.0005171028
736.8044165039	0.0006288529
738.7332238770	0.0006867277
740.6620312500	0.0007979680
742.5908386230	0.0006885125
744.5196459961	0.0008252060
746.4484533691	0.0006335847
748.3772607422	0.0004385340
750.3060681152	0.0008381665
752.2348754883	0.0009081547
754.1636828613	0.0006432470
756.0924902344	0.0007961926
758.0212976074	0.0008522369
759.9501049805	0.0005471238
761.8789123535	0.0008816378
763.8077197266	0.0008880196
765.7365270996	0.0006364418
767.6653344727	0.0008515230
769.5941418457	0.0007505075
771.5229492188	0.0008176342
773.4517565918	0.0007428661
775.3805639648	0.0007390545
777.3093713379	0.0010174871
779.2381787109	0.0009393205
781.1669860840	0.0007430433
783.0957934570	0.0005888660
785.0246008301	0.0009551133
786.9534082031	0.0008363651
788.8822155762	0.0006538063
790.8110229492	0.0008746732
792.7398303223	0.0007218539
794.6686376953	0.0008519461
796.5974450684	0.0007001552
798.5262524414	0.0009276229
800.4550598145	0.0012704381
802.3838671875	0.0011023540
804.3126745605	0.0011409752
806.2414819336	0.0008679058
808.1702893066	0.0007586811
810.0990966797	0.0005321142
812.0279040527	0.0005822071
813.9567114258	0.0008556274
815.8855187988	0.0006378466
817.8143261719	0.0006910139
819.7431335449	0.0006030417
821.6719409180	0.0007594912
823.6007482910	0.0008677105
825.5295556641	0.0007631945
827.4583630371	0.0011669451
829.3871704102	0.0010646496
831.3159777832	0.0009522848
833.2447851563	0.0014727658
835.1735925293	0.0014615161
837.1023999023	0.0015072081
839.0312072754	0.0020021326
840.9600146484	0.0018163237
842.8888220215	0.0015809401
844.8176293945	0.0013512160
846.7464367676	0.0012950116
848.6752441406	0.0014251710
850.6040515137	0.0011113596
852.5328588867	0.0011544098
854.4616662598	0.0009422131
856.3904736328	0.0009390656
858.3192810059	0.0010084601
860.2480883789	0.0007146088
862.1768957520	0.0008283070
864.1057031250	0.0005294686
866.0345104980	0.0005523447
867.9633178711	0.0008494889
869.8921252441	0.0008232206
871.8209326172	0.0006682280
873.7497399902	0.0006923534
875.6785473633	0.0008130173
877.6073547363	0.0006474566
879.5361621094	0.0007959033
881.4649694824	0.0005459953
883.3937768555	0.0006472524
885.3225842285	0.0007069876
887.2513916016	0.0005208355
889.1801989746	0.0008703861
891.1090063477	0.0004585571
893.0378137207	0.0005704933
894.9666210938	0.0005081961
896.8954284668	0.0004252344
898.8242358398	0.0007158954
900.7530432129	0.0003282938
902.6818505859	0.0006687540
904.6106579590	0.0007167386
906.5394653320	0.0005738343
908.4682727051	0.0007606957
910.3970800781	0.0008852198
912.3258874512	0.0008815867
914.2546948242	0.0007854262
916.1835021973	0.0009333667
918.1123095703	0.0010592737
920.0411169434	0.0013232393
921.9699243164	0.0013201692
923.8987316895	0.0013598583
925.8275390625	0.0014474442
927.7563464355	0.0016775359
929.6851538086	0.0018446224
931.6139611816	0.0018396466
933.5427685547	0.0021915326
935.4715759277	0.0019047910
937.4003833008	0.0019001145
939.3291906738	0.0022112890
941.2579980469	0.0024559735
943.1868054199	0.0026166383
945.1156127930	0.0022136676
947.0444201660	0.0023044217
948.9732275391	0.0021458012
950.9020349121	0.0020715608
952.8308422852	0.0022814744
954.7596496582	0.0020193961
956.6884570313	0.0020259325
958.6172644043	0.0022433037
960.5460717773	0.0024840892
962.4748791504	0.0022513166
964.4036865234	0.0021884663
966.3324938965	0.0024585905
968.2613012695	0.0022639972
970.1901086426	0.0024549782
972.1189160156	0.0027388204
974.0477233887	0.0028204406
975.9765307617	0.0032227125
977.9053381348	0.0034008455
979.8341455078	0.0035992051
981.7629528809	0.0041011870
983.6917602539	0.0042692618
985.6205676270	0.0046390230
987.5493750000	0.0053833574
989.4781823730	0.0060055633
991.4069897461	0.0066017378
993.3357971191	0.0070737554
995.2646044922	0.0077463249
997.1934118652	0.0084998477
999.1222192383	0.0090164617
1001.0510266113	0.0097123906
1002.9798339844	0.0104400376
1004.9086413574	0.0111257024
1006.8374487305	0.0119106248
1008.7662561035	0.0126068881
1010.6950634766	0.0133077037
1012.6238708496	0.0139724948
1014.5526782227	0.0146159939
1016.4814855957	0.0154456310
1018.4102929688	0.0163233075
1020.3391003418	0.0171084534
1022.2679077148	0.0176851321
1024.1967150879	0.0182496049
1026.1255224609	0.0189156309
1028.0543298340	0.0196660608
1029.9831372070	0.0202854313
1031.9119445801	0.0205264725
1033.8407519531	0.0210733097
1035.7695593262	0.0216124654
1037.6983666992	0.0216892511
1039.6271740723	0.0217874218
1041.5559814453	0.0217439570
1043.4847888184	0.0215490442
1045.4135961914	0.0213361960
1047.3424035645	0.0210243315
1049.2712109375	0.0206652768
1051.2000183105	0.0204467271
1053.1288256836	0.0201330651
1055.0576330566	0.0196441337
1056.9864404297	0.0192444697
1058.9152478027	0.0186963603
1060.8440551758	0.0181389973
1062.7728625488	0.0176253766
1064.7016699219	0.0171201695
1066.6304772949	0.0166354589
1068.5592846680	0.0157515220
1070.4880920410	0.0150243361
1072.4168994141	0.0146277957
1074.3457067871	0.0136950267
1076.2745141602	0.0128607927
1078.2033215332	0.0124587202
1080.1321289062	0.0118315611
1082.0609362793	0.0112781869
1083.9897436523	0.0109316073
1085.9185510254	0.0105515281
1087.8473583984	0.0098265372
1089.7761657715	0.0093019083
1091.7049731445	0.0091241300
1093.6337805176	0.0086465273
1095.5625878906	0.0083849095
1097.4913952637	0.0080546383
1099.4202026367	0.0076919752
1101.3490100098	0.0077212416
1103.2778173828	0.0077881720
1105.2066247559	0.0076427502
1107.1354321289	0.0071910229
1109.0642395019	0.0070927078
1110.9930468750	0.0071229842
1112.9218542480	0.0070325565
1114.8506616211	0.0070138616
1116.7794689941	0.0067895576
1118.7082763672	0.0067425948
1120.6370837402	0.0070844665
1122.5658911133	0.0070572197
1124.4946984863	0.0069325017
1126.4235058594	0.0073810937
1128.3523132324	0.0072844718
1130.2811206055	0.0072079236
1132.2099279785	0.0077014114
1134.1387353516	0.0078631658
1136.0675427246	0.0081145959
1137.9963500977	0.0085909255
1139.9251574707	0.0092785740
1141.8539648437	0.0098204967
1143.7827722168	0.0104385223
1145.7115795898	0.0111593939
1147.6403869629	0.0115134567
1149.5691943359	0.0121888518
1151.4980017090	0.0129537005
1153.4268090820	0.0133967064
1155.3556164551	0.0138885472
1157.2844238281	0.0145700611
1159.2132312012	0.0150505025
1161.1420385742	0.0157397389
1163.0708459473	0.0165276285
1164.9996533203	0.0168680474
1166.9284606934	0.0174118690
1168.8572680664	0.0180827361
1170.7860754394	0.0189572051
1172.7148828125	0.0196032114
1174.6436901855	0.0201263968
1176.5724975586	0.0211291518
1178.5013049316	0.0218562577
1180.4301123047	0.0225591194
1182.3589196777	0.0235899165
1184.2877270508	0.0247669984
1186.2165344238	0.0258795712
1188.1453417969	0.0269932933
1190.0741491699	0.0282697529
1192.0029565430	0.0295057911
1193.9317639160	0.0307678804
1195.8605712891	0.0322480500
1197.7893786621	0.0336017646
1199.7181860351	0.0349207595
1201.6469934082	0.0366647467
1203.5758007812	0.0381517410
1205.5046081543	0.0396224335
1207.4334155273	0.0409645066
1209.3622229004	0.0423376262
1211.2910302734	0.0440557338
1213.2198376465	0.0449967757
1215.1486450195	0.0459948033
1217.0774523926	0.0470250994
1219.0062597656	0.0477493629
1220.9350671387	0.0486139394
1222.8638745117	0.0493608676
1224.7926818848	0.0497458056
1226.7214892578	0.0498682112
1228.6502966308	0.0503186099
1230.5791040039	0.0504934117
1232.5079113769	0.0506624877
1234.4367187500	0.0506991744
1236.3655261230	0.0506136939
1238.2943334961	0.0506673269
1240.2231408691	0.0503533632
1242.1519482422	0.0505062900
1244.0807556152	0.0501702689
1246.0095629883	0.0495619252
1247.9383703613	0.0494864993
1249.8671777344	0.0492334478
1251.7959851074	0.0488080308
1253.7247924805	0.0482030511
1255.6535998535	0.0476613045
1257.5824072266	0.0468936972
1259.5112145996	0.0461721420
1261.4400219726	0.0455211550
1263.3688293457	0.0450339019
1265.2976367187	0.0445688814
1267.2264440918	0.0437049642
1269.1552514648	0.0431870371
1271.0840588379	0.0426269136
1273.0128662109	0.0418346152
1274.9416735840	0.0410252288
1276.8704809570	0.0402716920
1278.7992883301	0.0394934937
1280.7280957031	0.0386827588
1282.6569030762	0.0380462855
1284.5857104492	0.0374071598
1286.5145178223	0.0365207903
1288.4433251953	0.0357892141
1290.3721325683	0.0356239006
1292.3009399414	0.0349971503
1294.2297473144	0.0346618332
1296.1585546875	0.0345980301
1298.0873620605	0.0344644934
1300.0161694336	0.0347321257
1301.9449768066	0.0346693769
1303.8737841797	0.0351848081
1305.8025915527	0.0355211981
1307.7313989258	0.0357783698
1309.6602062988	0.0364081077
1311.5890136719	0.0367680900
1313.5178210449	0.0375818163
1315.4466284180	0.0385638662
1317.3754357910	0.0396702625
1319.3042431640	0.0405846387
1321.2330505371	0.0418191701
1323.1618579101	0.0431355014
1325.0906652832	0.0442350879
1327.0194726562	0.0454616509
1328.9482800293	0.0467069373
1330.8770874023	0.0481948107
1332.8058947754	0.0489693843
1334.7347021484	0.0500403605
1336.6635095215	0.0507327393
1338.5923168945	0.0504940264
1340.5211242676	0.0512946211
1342.4499316406	0.0526464209
1344.3787390137	0.0531520396
1346.3075463867	0.0531645194
1348.2363537597	0.0533274002
1350.1651611328	0.0527702235
1352.0939685058	0.0527168661
1354.0227758789	0.0522784963
1355.9515832519	0.0513501540
1357.8803906250	0.0513448603
1359.8091979980	0.0506130010
1361.7380053711	0.0488455519
1363.6668127441	0.0481368750
1365.5956201172	0.0499436334
1367.5244274902	0.0491099134
1369.4532348633	0.0484647341
1371.3820422363	0.0492337793
1373.3108496094	0.0468813442
1375.2396569824	0.0472881049
1377.1684643555	0.0479160845
1379.0972717285	0.0476291701
1381.0260791015	0.0479158983
1382.9548864746	0.0476815999
1384.8836938476	0.0479445830
1386.8125012207	0.0460501090
1388.7413085937	0.0466846637
1390.6701159668	0.0497323275
1392.5989233398	0.0488571525
1394.5277307129	0.0464278422
1396.4565380859	0.0480313823
1398.3853454590	0.0482775867
1400.3141528320	0.0478661060
1402.2429602051	0.0511372201
1404.1717675781	0.0489115342
1406.1005749512	0.0489765182
1408.0293823242	0.0505274683
1409.9581896972	0.0489404649
1411.8869970703	0.0498680174
1413.8158044433	0.0482714735
1415.7446118164	0.0489547513
1417.6734191894	0.0448739305
1419.6022265625	0.0408369154
1421.5310339355	0.0456187949
1423.4598413086	0.0444003418
1425.3886486816	0.0430470221
1427.3174560547	0.0431560427
1429.2462634277	0.0403806716
1431.1750708008	0.0390344188
1433.1038781738	0.0394853465
1435.0326855469	0.0365347192
1436.9614929199	0.0313576758
1438.8903002929	0.0345029235
1440.8191076660	0.0353007950
1442.7479150390	0.0330609158
1444.6767224121	0.0343386978
1446.6055297851	0.0320685357
1448.5343371582	0.0322730392
1450.4631445312	0.0332411081
1452.3919519043	0.0338114649
1454.3207592773	0.0350625589
1456.2495666504	0.0302912630
1458.1783740234	0.0314772427
1460.1071813965	0.0402174443
1462.0359887695	0.0426926129
1463.9647961426	0.0428019986
1465.8936035156	0.0447341986
1467.8224108886	0.0503471792
1469.7512182617	0.0541576222
1471.6800256347	0.0500535779
1473.6088330078	0.0525190011
1475.5376403808	0.0588188767
1477.4664477539	0.0630483329
1479.3952551269	0.0684951097
1481.3240625000	0.0701242089
1483.2528698730	0.0742175430
1485.1816772461	0.0768167078
1487.1104846191	0.0765450746
1489.0392919922	0.0767785758
1490.9680993652	0.0775418952
1492.8969067383	0.0879314393
1494.8257141113	0.0869979411
1496.7545214843	0.0798225403
1498.6833288574	0.0889139548
1500.6121362304	0.0916011930
1502.5409436035	0.0968878865
1504.4697509765	0.0933856815
1506.3985583496	0.0721951723
1508.3273657226	0.0848367512
1510.2561730957	0.0973971188
1512.1849804687	0.0946085304
1514.1137878418	0.1014309376
1516.0425952148	0.0932283849
1517.9714025879	0.0966980085
1519.9002099609	0.0939798430
1521.8290173340	0.0835316777
1523.7578247070	0.0986271948
1525.6866320801	0.0974748731
1527.6154394531	0.0968893990
1529.5442468261	0.1052515283
1531.4730541992	0.1025803760
1533.4018615722	0.0953360051
1535.3306689453	0.0995624512
1537.2594763183	0.1057449728
1539.1882836914	0.0803299695
1541.1170910644	0.0827031732
1543.0458984375	0.0967651606
1544.9747058105	0.0934499502
1546.9035131836	0.1069914177
1548.8323205566	0.1014513373
1550.7611279297	0.1039620042
1552.6899353027	0.1035400182
1554.6187426758	0.0955226123
1556.5475500488	0.1012047827
1558.4763574218	0.0764174312
1560.4051647949	0.0800925642
1562.3339721679	0.1075181961
1564.2627795410	0.1031763777
1566.1915869140	0.1050824299
1568.1203942871	0.1044911295
1570.0492016601	0.0946051478
1571.9780090332	0.1060323417
1573.9068164062	0.1078367680
1575.8356237793	0.0884662122
1577.7644311523	0.0972648263
1579.6932385254	0.1083950847
1581.6220458984	0.1041368991
1583.5508532715	0.1066880077
1585.4796606445	0.1052558720
1587.4084680175	0.1060586423
1589.3372753906	0.1052731127
1591.2660827636	0.1049967185
1593.1948901367	0.1055287197
1595.1236975097	0.1041143090
1597.0525048828	0.1054830849
1598.9813122558	0.1048036590
1600.9101196289	0.1054830402
1602.8389270019	0.1039729342
1604.7677343750	0.1052804738
1606.6965417480	0.1042443961
1608.6253491211	0.1039243340
1610.5541564941	0.1040809974
1612.4829638672	0.1042554379
1614.4117712402	0.1057480872
1616.3405786132	0.0893493891
1618.2693859863	0.0949330777
1620.1981933593	0.1084956378
1622.1270007324	0.0981543660
1624.0558081054	0.0986697376
1625.9846154785	0.1024393141
1627.9134228515	0.1023060754
1629.8422302246	0.1016514748
1631.7710375976	0.1070954353
1633.6998449707	0.1007056683
1635.6286523437	0.0856052637
1637.5574597168	0.0968320966
1639.4862670898	0.1052023247
1641.4150744629	0.1030986384
1643.3438818359	0.1052807048
1645.2726892090	0.0969167426
1647.2014965820	0.0871164799
1649.1303039550	0.1039906442
1651.0591113281	0.0999361128
1652.9879187011	0.0690350235
1654.9167260742	0.0884265751
1656.8455334472	0.1077784002
1658.7743408203	0.1032872498
1660.7031481933	0.1061896831
1662.6319555664	0.0979554951
1664.5607629394	0.1021759138
1666.4895703125	0.1083898619
1668.4183776855	0.0972276106
1670.3471850586	0.0949807465
1672.2759924316	0.1051398665
1674.2047998047	0.0989817828
1676.1336071777	0.0950884521
1678.0624145507	0.1069787890
1679.9912219238	0.1037826464
1681.9200292968	0.1030303687
1683.8488366699	0.0870618522
1685.7776440429	0.0851037502
1687.7064514160	0.1115931720
1689.6352587890	0.0993308946
1691.5640661621	0.1067274213
1693.4928735351	0.1093267351
1695.4216809082	0.0835942179
1697.3504882812	0.0991470814
1699.2792956543	0.0903947875
1701.2081030273	0.0820838064
1703.1369104004	0.1059544086
1705.0657177734	0.0991202220
1706.9945251464	0.0991425812
1708.9233325195	0.1065125614
1710.8521398925	0.1025970429
1712.7809472656	0.1042545661
1714.7097546386	0.0983839035
1716.6385620117	0.0892873406
1718.5673693847	0.0879483968
1720.4961767578	0.1014453098
1722.4249841308	0.1047639102
1724.3537915039	0.0982780010
1726.2825988769	0.1050679088
1728.2114062500	0.0983476043
1730.1402136230	0.0991363376
1732.0690209961	0.0971134454
1733.9978283691	0.0774524063
1735.9266357421	0.0919229388
1737.8554431152	0.1006191373
1739.7842504882	0.0912691802
1741.7130578613	0.0978122875
1743.6418652343	0.0994483978
1745.5706726074	0.0996072292
1747.4994799804	0.1005526632
1749.4282873535	0.0971314162
1751.3570947265	0.0934806019
1753.2859020996	0.1015038565
1755.2147094726	0.1057435572
1757.1435168457	0.0979787186
1759.0723242187	0.1058730260
1761.0011315918	0.1010710225
1762.9299389648	0.0974884853
1764.8587463379	0.1091141775
1766.7875537109	0.1003850773
1768.7163610839	0.1005831361
1770.6451684570	0.1005125865
1772.5739758300	0.0920016170
1774.5027832031	0.1002739966
1776.4315905761	0.1051078737
1778.3603979492	0.1039649472
1780.2892053222	0.1030572951
1782.2180126953	0.1033562422
1784.1468200683	0.1034706682
1786.0756274414	0.1019483954
1788.0044348144	0.1059710681
1789.9332421875	0.1040901840
1791.8620495605	0.0957964063
1793.7908569336	0.0987680405
1795.7196643066	0.1049455255
1797.6484716796	0.1037497967
1799.5772790527	0.1024535447
1801.5060864257	0.1010966152
1803.4348937988	0.1035480648
1805.3637011718	0.1056427062
1807.2925085449	0.1043573022
1809.2213159179	0.1044837683
1811.1501232910	0.1023864597
1813.0789306640	0.1049776077
1815.0077380371	0.1052827984
1816.9365454101	0.1041461453
1818.8653527832	0.1048829854
1820.7941601562	0.1043935567
1822.7229675293	0.1059628874
1824.6517749023	0.1004723608
1826.5805822753	0.1031106859
1828.5093896484	0.1034394950
1830.4381970214	0.0980520397
1832.3670043945	0.1048972905
1834.2958117675	0.1043194532
1836.2246191406	0.1042471603
1838.1534265136	0.1039434075
1840.0822338867	0.1042090952
1842.0110412597	0.1046825498
1843.9398486328	0.0949972942
1845.8686560058	0.0997822136
1847.7974633789	0.1043731421
1849.7262707519	0.1023967192
1851.6550781250	0.1049494445
1853.5838854980	0.1031464338
1855.5126928710	0.1039176956
1857.4415002441	0.1033950299
1859.3703076171	0.1027701348
1861.2991149902	0.1034317017
1863.2279223632	0.1023347750
1865.1567297363	0.1032107919
1867.0855371093	0.1006371230
1869.0143444824	0.0972392559
1870.9431518554	0.1000400931
1872.8719592285	0.1030614227
1874.8007666015	0.1017088667
1876.7295739746	0.1021585464
1878.6583813476	0.1020284891
1880.5871887207	0.1014366746
1882.5159960937	0.1021490693
1884.4448034667	0.1006432474
1886.3736108398	0.1016997993
1888.3024182128	0.1001632959
1890.2312255859	0.0985474885
1892.1600329589	0.1014723778
1894.0888403320	0.1002681851
1896.0176477050	0.0998280644
1897.9464550781	0.1007065177
1899.8752624511	0.1002406627
1901.8040698242	0.1004629359
1903.7328771972	0.0998361558
1905.6616845703	0.1002391428
1907.5904919433	0.0993679911
1909.5192993164	0.0988411382
1911.4481066894	0.0994417369
1913.3769140625	0.0993259177
1915.3057214355	0.1000500321
1917.2345288085	0.0965453461
1919.1633361816	0.0965371430
1921.0921435546	0.0995424837
1923.0209509277	0.0969815329
1924.9497583007	0.0983416513
1926.8785656738	0.0992157161
1928.8073730468	0.0983430296
1930.7361804199	0.0992250815
1932.6649877929	0.0981321037
1934.5937951660	0.0987452418
1936.5226025390	0.0982679874
1938.4514099121	0.0985025465
1940.3802172851	0.0984547287
1942.3090246582	0.0960632265
1944.2378320312	0.0973850489
1946.1666394042	0.0981237963
1948.0954467773	0.0977978557
1950.0242541503	0.0982647687
1951.9530615234	0.0979844779
1953.8818688964	0.0978851467
1955.8106762695	0.0976968855
1957.7394836425	0.0977879241
1959.6682910156	0.0977282226
1961.5970983886	0.0975222439
1963.5259057617	0.0976335257
1965.4547131347	0.0973313004
1967.3835205078	0.0966264680
1969.3123278808	0.0970441103
1971.2411352539	0.0973960459
1973.1699426269	0.0969904661
1975.0987499999	0.0972700417
1977.0275573730	0.0969882831
1978.9563647460	0.0969623253
1980.8851721191	0.0969455838
1982.8139794921	0.0966451615
1984.7427868652	0.0967992172
1986.6715942382	0.0961211026
1988.6004016113	0.0961132795
1990.5292089843	0.0956686437
1992.4580163574	0.0946884155
1994.3868237304	0.0956338570
1996.3156311035	0.0959748775
1998.2444384765	0.0955063179
2000.1732458496	0.0953772217
2002.1020532226	0.0950659811
2004.0308605956	0.0951823965
2005.9596679687	0.0949215591
2007.8884753417	0.0945095420
2009.8172827148	0.0944564417
2011.7460900878	0.0943496898
2013.6748974609	0.0944006592
2015.6037048339	0.0938228816
2017.5325122070	0.0932811648
2019.4613195800	0.0935145020
2021.3901269531	0.0934737697
2023.3189343261	0.0931073204
2025.2477416992	0.0930592120
2027.1765490722	0.0930174142
2029.1053564453	0.0926871449
2031.0341638183	0.0925606191
2032.9629711914	0.0923353508
2034.8917785644	0.0920774266
2036.8205859374	0.0920180529
2038.7493933105	0.0918992907
2040.6782006835	0.0915210769
2042.6070080566	0.0912151113
2044.5358154296	0.0913310647
2046.4646228027	0.0910664275
2048.3934301757	0.0909098461
2050.3222375488	0.0908274353
2052.2510449218	0.0905049220
2054.1798522949	0.0904867202
2056.1086596679	0.0903171822
2058.0374670410	0.0900274664
2059.9662744140	0.0897912681
2061.8950817871	0.0897658467
2063.8238891601	0.0894729346
2065.7526965331	0.0891293511
2067.6815039062	0.0892789364
2069.6103112792	0.0891686976
2071.5391186523	0.0889044032
2073.4679260253	0.0888300538
2075.3967333984	0.0887664258
2077.3255407714	0.0884970427
2079.2543481445	0.0883697420
2081.1831555175	0.0881976932
2083.1119628906	0.0879947469
2085.0407702636	0.0879293382
2086.9695776367	0.0877051502
2088.8983850097	0.0876413435
2090.8271923828	0.0874418169
2092.7559997558	0.0873612389
2094.6848071288	0.0872140825
2096.6136145019	0.0869732499
2098.5424218749	0.0868512169
2100.4712292480	0.0865505487
2102.4000366210	0.0866513550
2104.3288439941	0.0866225362
2106.2576513671	0.0864046961
2108.1864587402	0.0861911327
2110.1152661132	0.0860138759
2112.0440734863	0.0859797597
2113.9728808593	0.0858236477
2115.9016882324	0.0856788903
2117.8304956054	0.0854544789
2119.7593029785	0.0854075104
2121.6881103515	0.0853130370
2123.6169177245	0.0852301568
2125.5457250976	0.0850334466
2127.4745324706	0.0848616064
2129.4033398437	0.0849176571
2131.3321472167	0.0846505910
2133.2609545898	0.0846166760
2135.1897619628	0.0844814032
2137.1185693359	0.0843261629
2139.0473767089	0.0843302831
2140.9761840820	0.0841570199
2142.9049914550	0.0840350688
2144.8337988281	0.0839732662
2146.7626062011	0.0839106739
2148.6914135742	0.0837310851
2150.6202209472	0.0838290751
2152.5490283203	0.0836781561
2154.4778356933	0.0835358575
2156.4066430663	0.0834771693
2158.3354504394	0.0833101422
2160.2642578124	0.0833454877
2162.1930651855	0.0829626247
2164.1218725585	0.0830310285
2166.0506799316	0.0830688924
2167.9794873046	0.0828494504
2169.9082946777	0.0828464180
2171.8371020507	0.0826069564
2173.7659094238	0.0825177580
2175.6947167968	0.0824270546
2177.6235241699	0.0823763311
2179.5523315429	0.0821411610
2181.4811389160	0.0821904838
2183.4099462890	0.0822317600
2185.3387536620	0.0819143280
2187.2675610351	0.0818752646
2189.1963684081	0.0817907751
2191.1251757812	0.0818326697
2193.0539831542	0.0816200972
2194.9827905273	0.0815422535
2196.9115979003	0.0814072862
2198.8404052734	0.0810864419
2200.7692126464	0.0811581463
2202.6980200195	0.0810080767
2204.6268273925	0.0810851604
2206.5556347656	0.0810392573
2208.4844421386	0.0807684958
2210.4132495117	0.0807404518
2212.3420568847	0.0807233006
2214.2708642577	0.0805036575
2216.1996716308	0.0803583115
2218.1284790038	0.0804348215
2220.0572863769	0.0802457929
2221.9860937499	0.0802421272
2223.9149011230	0.0800187141
2225.8437084960	0.0798046291
2227.7725158691	0.0798293501
2229.7013232421	0.0796814486
2231.6301306152	0.0796813071
2233.5589379882	0.0794459283
2235.4877453613	0.0793789178
2237.4165527343	0.0793366954
2239.3453601074	0.0791880935
2241.2741674804	0.0790797025
2243.2029748534	0.0789113343
2245.1317822265	0.0788042843
2247.0605895995	0.0785903111
2248.9893969726	0.0785683692
2250.9182043456	0.0784611255
2252.8470117187	0.0783630461
2254.7758190917	0.0781746358
2256.7046264648	0.0780315250
2258.6334338378	0.0781081691
2260.5622412109	0.0779383630
2262.4910485839	0.0779291987
2264.4198559570	0.0776902735
2266.3486633300	0.0774617195
2268.2774707031	0.0775354952
2270.2062780761	0.0774071515
2272.1350854491	0.0772325397
2274.0638928222	0.0771592855
2275.9927001952	0.0771156326
2277.9215075683	0.0769609660
2279.8503149413	0.0769127756
2281.7791223144	0.0769497380
2283.7079296874	0.0769543573
2285.6367370605	0.0766918361
2287.5655444335	0.0764812231
2289.4943518066	0.0764486045
2291.4231591796	0.0762290806
2293.3519665527	0.0761071146
2295.2807739257	0.0758304074
2297.2095812988	0.0755683780
2299.1383886718	0.0754070804
2301.0671960449	0.0751568228
2302.9960034179	0.0747597069
2304.9248107909	0.0742825195
2306.8536181640	0.0739243552
2308.7824255370	0.0734770894
2310.7112329101	0.0730818883
2312.6400402831	0.0723068118
2314.5688476562	0.0715592206
2316.4976550292	0.0710144415
2318.4264624023	0.0701022148
2320.3552697753	0.0692245513
2322.2840771484	0.0682559460
2324.2128845214	0.0674507320
2326.1416918945	0.0667316988
2328.0704992675	0.0659628510
2329.9993066406	0.0652853623
2331.9281140136	0.0647916496
2333.8569213866	0.0645960420
2335.7857287597	0.0642659962
2337.7145361327	0.0643152446
2339.6433435058	0.0642952174
2341.5721508788	0.0643749386
2343.5009582519	0.0652689412
2345.4297656249	0.0662805289
2347.3585729980	0.0688421503
2349.2873803710	0.0709214211
2351.2161877441	0.0687960312
2353.1449951171	0.0655969009
2355.0738024902	0.0634376630
2357.0026098632	0.0614966601
2358.9314172363	0.0604031868
2360.8602246093	0.0598379299
2362.7890319823	0.0596289150
2364.7178393554	0.0599005595
2366.6466467284	0.0605724454
2368.5754541015	0.0617101341
2370.5042614745	0.0631188899
2372.4330688476	0.0647655576
2374.3618762206	0.0664043874
2376.2906835937	0.0679236352
2378.2194909667	0.0692011267
2380.1482983398	0.0703212321
2382.0771057128	0.0710504949
2384.0059130859	0.0713927224
2385.9347204589	0.0716951415
2387.8635278320	0.0717176050
2389.7923352050	0.0718172640
2391.7211425780	0.0717624798
2393.6499499511	0.0715626106
2395.5787573241	0.0715397075
2397.5075646972	0.0714546591
2399.4363720702	0.0713253617
2401.3651794433	0.0712436289
2403.2939868163	0.0712756887
2405.2227941894	0.0710552335
2407.1516015624	0.0710241199
2409.0804089355	0.0709852129
2411.0092163085	0.0707934946
2412.9380236816	0.0708108470
2414.8668310546	0.0705834180
2416.7956384277	0.0705383196
2418.7244458007	0.0704283565
2420.6532531738	0.0702591613
2422.5820605468	0.0701817274
2424.5108679198	0.0700877756
2426.4396752929	0.0701287985
2428.3684826659	0.0699320063
2430.2972900390	0.0698714405
2432.2260974120	0.0698446929
2434.1549047851	0.0697598010
2436.0837121581	0.0696214736
2438.0125195312	0.0694661513
2439.9413269042	0.0694317818
2441.8701342773	0.0693499595
2443.7989416503	0.0692345202
2445.7277490234	0.0690022409
2447.6565563964	0.0691549703
2449.5853637695	0.0690944642
2451.5141711425	0.0688493550
2453.4429785155	0.0688759089
2455.3717858886	0.0686688125
2457.3005932616	0.0686382949
2459.2294006347	0.0685678273
2461.1582080077	0.0684530139
2463.0870153808	0.0683498383
2465.0158227538	0.0682915747
2466.9446301269	0.0682246312
2468.8734374999	0.0680763125
2470.8022448730	0.0680749416
2472.7310522460	0.0678267106
2474.6598596191	0.0678710341
2476.5886669921	0.0678329170
2478.5174743652	0.0677036792
2480.4462817382	0.0677521378
2482.3750891112	0.0673659295
2484.3038964843	0.0674585849
2486.2327038573	0.0675141960
2488.1615112304	0.0671733916
2490.0903186034	0.0671547055
2492.0191259765	0.0670633316
2493.9479333495	0.0669856742
2495.8767407226	0.0669612661
2497.8055480956	0.0668643117
2499.7343554687	0.0667475611
2501.6631628417	0.0666129440
2503.5919702148	0.0666262805
2505.5207775878	0.0666279420
2507.4495849609	0.0664463937
2509.3783923339	0.0662950277
2511.3071997069	0.0662528425
2513.2360070800	0.0661823899
2515.1648144530	0.0659568459
2517.0936218261	0.0659784749
2519.0224291991	0.0660566688
2520.9512365722	0.0657856762
2522.8800439452	0.0657918006
2524.8088513183	0.0656739473
2526.7376586913	0.0655376092
2528.6664660644	0.0656742901
2530.5952734374	0.0654707998
2532.5240808105	0.0653990507
2534.4528881835	0.0653062314
2536.3816955566	0.0651438832
2538.3105029296	0.0651454479
2540.2393103027	0.0650574714
2542.1681176757	0.0651033521
2544.0969250487	0.0650148839
2546.0257324218	0.0647722706
2547.9545397948	0.0647189617
2549.8833471679	0.0647030920
2551.8121545409	0.0645985305
2553.7409619140	0.0644676685
2555.6697692870	0.0643771589
2557.5985766601	0.0643195063
2559.5273840331	0.0642694458
2561.4561914062	0.0642166436
2563.3849987792	0.0641243085
2565.3138061523	0.0640644804
2567.2426135253	0.0639684424
2569.1714208984	0.0637919754
2571.1002282714	0.0637452751
2573.0290356444	0.0636232942
2574.9578430175	0.0635508597
2576.8866503905	0.0635368004
2578.8154577636	0.0633879304
2580.7442651366	0.0633825287
2582.6730725097	0.0632748753
2584.6018798827	0.0631390065
2586.5306872558	0.0630820990
2588.4594946288	0.0629898012
2590.3883020019	0.0629489571
2592.3171093749	0.0628174469
2594.2459167480	0.0626846701
2596.1747241210	0.0626932457
2598.1035314941	0.0626856685
2600.0323388671	0.0624728203
2601.9611462401	0.0623660237
2603.8899536132	0.0623632148
2605.8187609862	0.0622896887
2607.7475683593	0.0622227304
2609.6763757323	0.0621013939
2611.6051831054	0.0619836114
2613.5339904784	0.0619003996
2615.4627978515	0.0619254932
2617.3916052245	0.0617913976
2619.3204125976	0.0616666153
2621.2492199706	0.0616016798
2623.1780273437	0.0614131987
2625.1068347167	0.0613743812
2627.0356420898	0.0613198504
2628.9644494628	0.0613337979
2630.8932568358	0.0611679927
2632.8220642089	0.0610573031
2634.7508715819	0.0611269176
2636.6796789550	0.0609367043
2638.6084863280	0.0609072521
2640.5372937011	0.0607608184
2642.4661010741	0.0606011450
2644.3949084472	0.0606499948
2646.3237158202	0.0605624840
2648.2525231933	0.0604467317
2650.1813305663	0.0604013577
2652.1101379394	0.0602490455
2654.0389453124	0.0600405559
2655.9677526855	0.0601932891
2657.8965600585	0.0601254068
2659.8253674315	0.0598504394
2661.7541748046	0.0598491728
2663.6829821776	0.0597729869
2665.6117895507	0.0596968196
2667.5405969237	0.0596454144
2669.4694042968	0.0595578589
2671.3982116698	0.0594528466
2673.3270190429	0.0594061092
2675.2558264159	0.0593039766
2677.1846337890	0.0591062605
2679.1134411620	0.0590395741
2681.0422485351	0.0591070838
2682.9710559081	0.0590981692
2684.8998632812	0.0588924512
2686.8286706542	0.0587887652
2688.7574780273	0.0587523058
2690.6862854003	0.0586677715
2692.6150927733	0.0585150868
2694.5439001464	0.0584889352
2696.4727075194	0.0584880561
2698.4015148925	0.0582938865
2700.3303222655	0.0583006218
2702.2591296386	0.0582058355
2704.1879370116	0.0581008755
2706.1167443847	0.0580446199
2708.0455517577	0.0579293370
2709.9743591308	0.0579464361
2711.9031665038	0.0577622652
2713.8319738769	0.0576635301
2715.7607812499	0.0575878397
2717.6895886230	0.0574283600
2719.6183959960	0.0573647507
2721.5472033690	0.0573258772
2723.4760107421	0.0573140457
2725.4048181151	0.0571681634
2727.3336254882	0.0571553707
2729.2624328612	0.0571067408
2731.1912402343	0.0569099635
2733.1200476073	0.0569550991
2735.0488549804	0.0568215251
2736.9776623534	0.0565182045
2738.9064697265	0.0566204600
2740.8352770995	0.0566428080
2742.7640844726	0.0564463027
2744.6928918456	0.0563667640
2746.6216992187	0.0561901778
2748.5505065917	0.0561448298
2750.4793139647	0.0561142862
2752.4081213378	0.0560238585
2754.3369287108	0.0560074747
2756.2657360839	0.0559784845
2758.1945434569	0.0559083372
2760.1233508300	0.0556480438
2762.0521582030	0.0556295514
2763.9809655761	0.0556098036
2765.9097729491	0.0554285459
2767.8385803222	0.0553846285
2769.7673876952	0.0552529395
2771.6961950683	0.0551823527
2773.6250024413	0.0550276116
2775.5538098144	0.0549331978
2777.4826171874	0.0549764410
2779.4114245604	0.0548006780
2781.3402319335	0.0547142103
2783.2690393065	0.0546430275
2785.1978466796	0.0544161871
2787.1266540526	0.0543475822
2789.0554614257	0.0542964637
2790.9842687987	0.0542546809
2792.9130761718	0.0542191565
2794.8418835448	0.0540465042
2796.7706909179	0.0540304668
2798.6994982909	0.0539103597
2800.6283056640	0.0538153350
2802.5571130370	0.0537764132
2804.4859204101	0.0535584055
2806.4147277831	0.0535229258
2808.3435351562	0.0533746257
2810.2723425292	0.0532305017
2812.2011499022	0.0531520098
2814.1299572753	0.0530639514
2816.0587646483	0.0529145785
2817.9875720214	0.0528045148
2819.9163793944	0.0529284999
2821.8451867675	0.0527262352
2823.7739941405	0.0526740998
2825.7028015136	0.0525609590
2827.6316088866	0.0523539707
2829.5604162597	0.0524092093
2831.4892236327	0.0521752685
2833.4180310058	0.0520900488
2835.3468383788	0.0520417690
2837.2756457519	0.0520051345
2839.2044531249	0.0518444031
2841.1332604979	0.0515982844
2843.0620678710	0.0514785498
2844.9908752440	0.0511831827
2846.9196826171	0.0510381684
2848.8484899901	0.0506128594
2850.7772973632	0.0504756272
2852.7061047362	0.0506055728
2854.6349121093	0.0503085703
2856.5637194823	0.0503215790
2858.4925268554	0.0502514355
2860.4213342284	0.0501791611
2862.3501416015	0.0502868630
2864.2789489745	0.0501090512
2866.2077563476	0.0500304215
2868.1365637206	0.0500721112
2870.0653710936	0.0498792902
2871.9941784667	0.0497414470
2873.9229858397	0.0497963578
2875.8517932128	0.0496921092
2877.7806005858	0.0496105067
2879.7094079589	0.0495357439
2881.6382153319	0.0493647754
2883.5670227050	0.0493207052
2885.4958300780	0.0493256189
2887.4246374511	0.0492700152
2889.3534448241	0.0490847044
2891.2822521972	0.0489353389
2893.2110595702	0.0489268899
2895.1398669433	0.0487210825
2897.0686743163	0.0485869944
2898.9974816893	0.0487141013
2900.9262890624	0.0485086851
2902.8550964354	0.0483703390
2904.7839038085	0.0483022779
2906.7127111815	0.0480335206
2908.6415185546	0.0479472913
2910.5703259276	0.0477388278
2912.4991333007	0.0475640595
2914.4279406737	0.0472777262
2916.3567480468	0.0469883271
2918.2855554198	0.0469484702
2920.2143627929	0.0467672050
2922.1431701659	0.0467900783
2924.0719775390	0.0467935465
2926.0007849120	0.0466913581
2927.9295922851	0.0466219485
2929.8583996581	0.0465392917
2931.7872070311	0.0465576947
2933.7160144042	0.0465324819
2935.6448217772	0.0465721451
2937.5736291503	0.0466094948
2939.5024365233	0.0465640947
2941.4312438964	0.0464718342
2943.3600512694	0.0464569256
2945.2888586425	0.0464085937
2947.2176660155	0.0463498756
2949.1464733886	0.0463264138
2951.0752807616	0.0461899862
2953.0040881347	0.0461144820
2954.9328955077	0.0458822325
2956.8617028808	0.0458159149
2958.7905102538	0.0457752943
2960.7193176268	0.0455287695
2962.6481249999	0.0455287620
2964.5769323729	0.0454759374
2966.5057397460	0.0453843847
2968.4345471190	0.0452455059
2970.3633544921	0.0452981219
2972.2921618651	0.0454149619
2974.2209692382	0.0453073159
2976.1497766112	0.0454278924
2978.0785839843	0.0454412699
2980.0073913573	0.0453934744
2981.9361987304	0.0454240367
2983.8650061034	0.0453848876
2985.7938134765	0.0453500599
2987.7226208495	0.0452426597
2989.6514282225	0.0452661887
2991.5802355956	0.0452555642
2993.5090429686	0.0451359078
2995.4378503417	0.0451327786
2997.3666577147	0.0450509228
2999.2954650878	0.0449468940
3001.2242724608	0.0449180529
3003.1530798339	0.0448161587
3005.0818872069	0.0447525233
3007.0106945800	0.0447087809
3008.9395019530	0.0446159318
3010.8683093261	0.0444101579
3012.7971166991	0.0442265570
3014.7259240722	0.0442637205
3016.6547314452	0.0441828519
3018.5835388182	0.0440488532
3020.5123461913	0.0439507738
3022.4411535643	0.0438805223
3024.3699609374	0.0438422225
3026.2987683104	0.0437180735
3028.2275756835	0.0436934233
3030.1563830565	0.0435756557
3032.0851904296	0.0434212238
3034.0139978026	0.0433007032
3035.9428051757	0.0432594419
3037.8716125487	0.0433410257
3039.8004199218	0.0431475416
3041.7292272948	0.0430267081
3043.6580346679	0.0430447236
3045.5868420409	0.0428246967
3047.5156494139	0.0426474735
3049.4444567870	0.0427013934
3051.3732641600	0.0427138209
3053.3020715331	0.0425645486
3055.2308789061	0.0423976071
3057.1596862792	0.0423268601
3059.0884936522	0.0423552915
3061.0173010253	0.0422930755
3062.9461083983	0.0421782620
3064.8749157714	0.0420547687
3066.8037231444	0.0419386923
3068.7325305175	0.0419297777
3070.6613378905	0.0419276915
3072.5901452636	0.0418050289
3074.5189526366	0.0416912436
3076.4477600097	0.0416817293
3078.3765673827	0.0415721349
3080.3053747557	0.0415291935
3082.2341821288	0.0414491743
3084.1629895018	0.0412731171
3086.0917968749	0.0412146077
3088.0206042479	0.0411708206
3089.9494116210	0.0411683023
3091.8782189940	0.0410402864
3093.8070263671	0.0409263335
3095.7358337401	0.0408416986
3097.6646411132	0.0407573394
3099.5934484862	0.0406773686
3101.5222558593	0.0404862575
3103.4510632323	0.0404849648
3105.3798706054	0.0404343829
3107.3086779784	0.0402962938
3109.2374853514	0.0401834399
3111.1662927245	0.0401236825
3113.0951000975	0.0400307029
3115.0239074706	0.0398404635
3116.9527148436	0.0398521610
3118.8815222167	0.0397293121
3120.8103295897	0.0396134928
3122.7391369628	0.0395912305
3124.6679443358	0.0394806005
3126.5967517089	0.0393710881
3128.5255590819	0.0392600894
3130.4543664550	0.0392986462
3132.3831738280	0.0391448028
3134.3119812011	0.0390104093
3136.2407885741	0.0389947817
3138.1695959471	0.0387780815
3140.0984033202	0.0387053676
3142.0272106932	0.0386243947
3143.9560180663	0.0384762324
3145.8848254393	0.0384753123
3147.8136328124	0.0383222103
3149.7424401854	0.0381830186
3151.6712475585	0.0381835923
3153.6000549315	0.0380162075
3155.5288623046	0.0379242375
3157.4576696776	0.0378636345
3159.3864770507	0.0378335789
3161.3152844237	0.0378034338
3163.2440917968	0.0375907123
3165.1728991698	0.0374816358
3167.1017065428	0.0373356789
3169.0305139159	0.0372901931
3170.9593212889	0.0371687524
3172.8881286620	0.0369943455
3174.8169360350	0.0370421149
3176.7457434081	0.0368830822
3178.6745507811	0.0367556140
3180.6033581542	0.0367343388
3182.5321655272	0.0367449149
3184.4609729003	0.0366110057
3186.3897802733	0.0364886485
3188.3185876464	0.0364799574
3190.2473950194	0.0363091007
3192.1762023925	0.0363152474
3194.1050097655	0.0361253545
3196.0338171386	0.0359664150
3197.9626245116	0.0359904021
3199.8914318846	0.0358953886
3201.8202392577	0.0358981118
3203.7490466307	0.0357320830
3205.6778540038	0.0356582999
3207.6066613768	0.0355740339
3209.5354687499	0.0353994593
3211.4642761229	0.0354060419
3213.3930834960	0.0353639983
3215.3218908690	0.0352860689
3217.2506982421	0.0352187976
3219.1795056151	0.0352145210
3221.1083129882	0.0350879505
3223.0371203612	0.0349744596
3224.9659277343	0.0350578278
3226.8947351073	0.0349317193
3228.8235424803	0.0347726420
3230.7523498534	0.0347958654
3232.6811572264	0.0346803814
3234.6099645995	0.0345550403
3236.5387719725	0.0345827602
3238.4675793456	0.0345798582
3240.3963867186	0.0345021151
3242.3251940917	0.0344172344
3244.2540014647	0.0343513638
3246.1828088378	0.0342467092
3248.1116162108	0.0342847332
3250.0404235839	0.0342945792
3251.9692309569	0.0341755301
3253.8980383300	0.0341849253
3255.8268457030	0.0342045799
3257.7556530760	0.0341200307
3259.6844604491	0.0339613743
3261.6132678221	0.0340269282
3263.5420751952	0.0340173393
3265.4708825682	0.0339607634
3267.3996899413	0.0339774080
3269.3284973143	0.0338123851
3271.2573046874	0.0338348933
3273.1861120604	0.0337303653
3275.1149194335	0.0336729623
3277.0437268065	0.0336682573
3278.9725341796	0.0336337425
3280.9013415526	0.0336963460
3282.8301489257	0.0335381366
3284.7589562987	0.0335477255
3286.6877636717	0.0334315002
3288.6165710448	0.0334186777
3290.5453784178	0.0333983302
3292.4741857909	0.0332548171
3294.4029931639	0.0333923176
3296.3318005370	0.0332178324
3298.2606079100	0.0331601277
3300.1894152831	0.0331380218
3302.1182226561	0.0330787748
3304.0470300292	0.0331049636
3305.9758374022	0.0329676010
3307.9046447753	0.0328986757
3309.8334521483	0.0328563601
3311.7622595214	0.0328585394
3313.6910668944	0.0327543877
3315.6198742675	0.0328300446
3317.5486816405	0.0328281634
3319.4774890135	0.0327266268
3321.4062963866	0.0327732638
3323.3351037596	0.0326262340
3325.2639111327	0.0325787179
3327.1927185057	0.0326068774
3329.1215258788	0.0326434411
3331.0503332518	0.0324499756
3332.9791406249	0.0323855951
3334.9079479979	0.0323898718
3336.8367553710	0.0322425291
3338.7655627440	0.0323645920
3340.6943701171	0.0321593992
3342.6231774901	0.0320881493
3344.5519848632	0.0321634486
3346.4807922362	0.0320588052
3348.4095996092	0.0320278630
3350.3384069823	0.0318959579
3352.2672143553	0.0318607055
3354.1960217284	0.0317595080
3356.1248291014	0.0317361355
3358.0536364745	0.0317395702
3359.9824438475	0.0316503569
3361.9112512206	0.0315998271
3363.8400585936	0.0314899907
3365.7688659667	0.0314149261
3367.6976733397	0.0313494354
3369.6264807128	0.0312381443
3371.5552880858	0.0312296413
3373.4840954589	0.0313389823
3375.4129028319	0.0312105697
3377.3417102049	0.0312227793
3379.2705175780	0.0312317349
3381.1993249510	0.0310660936
3383.1281323241	0.0310564116
3385.0569396971	0.0308560282
3386.9857470702	0.0308163259
3388.9145544432	0.0308653452
3390.8433618163	0.0307478420
3392.7721691893	0.0306016915
3394.7009765624	0.0305972062
3396.6297839354	0.0305752251
3398.5585913085	0.0303800777
3400.4873986815	0.0304346588
3402.4162060546	0.0303654596
3404.3450134276	0.0302527100
3406.2738208006	0.0302140601
3408.2026281737	0.0302261934
3410.1314355467	0.0302792080
3412.0602429198	0.0302033648
3413.9890502928	0.0302006509
3415.9178576659	0.0300637279
3417.8466650389	0.0299645215
3419.7754724120	0.0298002027
3421.7042797850	0.0297180507
3423.6330871581	0.0298371557
3425.5618945311	0.0298047140
3427.4907019042	0.0296904407
3429.4195092772	0.0295819044
3431.3483166503	0.0295552537
3433.2771240233	0.0294925086
3435.2059313963	0.0295569561
3437.1347387694	0.0294032581
3439.0635461424	0.0294115581
3440.9923535155	0.0294363573
3442.9211608885	0.0291571300
3444.8499682616	0.0292801391
3446.7787756346	0.0289744008
3448.7075830077	0.0289731231
3450.6363903807	0.0292310752
3452.5651977538	0.0290569775
3454.4940051268	0.0291681588
3456.4228124999	0.0290574618
3458.3516198729	0.0289659519
3460.2804272460	0.0288682282
3462.2092346190	0.0287948027
3464.1380419921	0.0288898684
3466.0668493651	0.0288563184
3467.9956567381	0.0288386494
3469.9244641112	0.0287912283
3471.8532714842	0.0287452694
3473.7820788573	0.0286434479
3475.7108862303	0.0287054814
3477.6396936034	0.0287313610
3479.5685009764	0.0285827387
3481.4973083495	0.0283816084
3483.4261157225	0.0283803120
3485.3549230956	0.0285655931
3487.2837304686	0.0284101292
3489.2125378417	0.0283718333
3491.1413452147	0.0284745265
3493.0701525878	0.0284013860
3494.9989599608	0.0283471830
3496.9277673338	0.0283886939
3498.8565747069	0.0283817183
3500.7853820799	0.0283506811
3502.7141894530	0.0280307233
3504.6429968260	0.0279633403
3506.5718041991	0.0284859166
3508.5006115721	0.0281115361
3510.4294189452	0.0279001892
3512.3582263182	0.0282495432
3514.2870336913	0.0282930303
3516.2158410643	0.0283669736
3518.1446484374	0.0281046629
3520.0734558104	0.0281712133
3522.0022631835	0.0280481763
3523.9310705565	0.0277259815
3525.8598779295	0.0278736390
3527.7886853026	0.0277991444
3529.7174926756	0.0278401487
3531.6463000487	0.0280244574
3533.5751074217	0.0281761270
3535.5039147948	0.0280905347
3537.4327221678	0.0279235318
3539.3615295409	0.0281001665
3541.2903369139	0.0281406045
3543.2191442870	0.0279063303
3545.1479516600	0.0274853855
3547.0767590331	0.0272175632
3549.0055664061	0.0278852321
3550.9343737792	0.0280015469
3552.8631811522	0.0273198634
3554.7919885252	0.0277895797
3556.7207958983	0.0279449485
3558.6496032713	0.0277891308
3560.5784106444	0.0277123209
3562.5072180174	0.0275270790
3564.4360253905	0.0276791975
3566.3648327635	0.0262353867
3568.2936401366	0.0257602781
3570.2224475096	0.0273607820
3572.1512548827	0.0277929567
3574.0800622557	0.0276125353
3576.0088696288	0.0276873149
3577.9376770018	0.0276108067
3579.8664843749	0.0275552161
3581.7952917479	0.0275770016
3583.7240991210	0.0275927037
3585.6529064940	0.0271178037
3587.5817138670	0.0255688168
3589.5105212401	0.0259548388
3591.4393286131	0.0277290195
3593.3681359862	0.0271792356
3595.2969433592	0.0266728587
3597.2257507323	0.0271501094
3599.1545581053	0.0272647217
3601.0833654784	0.0270820856
3603.0121728514	0.0273339264
3604.9409802245	0.0276852213
3606.8697875975	0.0268803947
3608.7985949706	0.0256467983
3610.7274023436	0.0261358544
3612.6562097167	0.0265476461
3614.5850170897	0.0259877909
3616.5138244627	0.0275224820
3618.4426318358	0.0258517265
3620.3714392088	0.0250082612
3622.3002465819	0.0275481008
3624.2290539549	0.0269564837
3626.1578613280	0.0279436149
3628.0866687010	0.0245605931
3630.0154760741	0.0226590149
3631.9442834471	0.0273063164
3633.8730908202	0.0266924296
3635.8018981932	0.0269615818
3637.7307055663	0.0275653489
3639.6595129393	0.0271097086
3641.5883203124	0.0273915678
3643.5171276854	0.0270586610
3645.4459350584	0.0273125954
3647.3747424315	0.0251144823
3649.3035498045	0.0233339965
3651.2323571776	0.0236124285
3653.1611645506	0.0270295702
3655.0899719237	0.0267560687
3657.0187792967	0.0245025381
3658.9475866698	0.0274272840
3660.8763940428	0.0268987827
3662.8052014159	0.0271870121
3664.7340087889	0.0271767527
3666.6628161620	0.0268803015
3668.5916235350	0.0263540670
3670.5204309081	0.0224088356
3672.4492382811	0.0259295963
3674.3780456541	0.0249397308
3676.3068530272	0.0214786138
3678.2356604002	0.0258185789
3680.1644677733	0.0262743235
3682.0932751463	0.0262681097
3684.0220825194	0.0269135069
3685.9508898924	0.0265634954
3687.8796972655	0.0244027376
3689.8085046385	0.0227847155
3691.7373120116	0.0253541246
3693.6661193846	0.0259119309
3695.5949267577	0.0263931863
3697.5237341307	0.0262891687
3699.4525415038	0.0260964762
3701.3813488768	0.0256950315
3703.3101562499	0.0247997530
3705.2389636229	0.0267486908
3707.1677709959	0.0256483164
3709.0965783690	0.0252136141
3711.0253857420	0.0240956172
3712.9541931151	0.0228648353
3714.8830004881	0.0259828083
3716.8118078612	0.0255612358
3718.7406152342	0.0257311836
3720.6694226073	0.0252427347
3722.5982299803	0.0245925821
3724.5270373534	0.0253002625
3726.4558447264	0.0236420892
3728.3846520995	0.0253655240
3730.3134594725	0.0250355490
3732.2422668456	0.0234051570
3734.1710742186	0.0230893083
3736.0998815916	0.0222490206
3738.0286889647	0.0231810622
3739.9574963377	0.0245683640
3741.8863037108	0.0256667025
3743.8151110838	0.0207697041
3745.7439184569	0.0199027397
3747.6727258299	0.0246173590
3749.6015332030	0.0216787718
3751.5303405760	0.0203042310
3753.4591479491	0.0225847922
3755.3879553221	0.0241249334
3757.3167626952	0.0247882102
3759.2455700682	0.0233018845
3761.1743774413	0.0241151582
3763.1031848143	0.0251017585
3765.0319921873	0.0237949044
3766.9607995604	0.0242048651
3768.8896069334	0.0239282940
3770.8184143065	0.0230728649
3772.7472216795	0.0245888140
3774.6760290526	0.0245705228
3776.6048364256	0.0245683827
3778.5336437987	0.0241082739
3780.4624511717	0.0233677272
3782.3912585448	0.0246417504
3784.3200659178	0.0240948386
3786.2488732909	0.0239154138
3788.1776806639	0.0242763720
3790.1064880370	0.0241582394
3792.0352954100	0.0240896810
3793.9641027830	0.0243922658
3795.8929101561	0.0232669935
3797.8217175291	0.0229747053
3799.7505249022	0.0238303132
3801.6793322752	0.0198033191
3803.6081396483	0.0224306304
3805.5369470213	0.0239228383
3807.4657543944	0.0204759426
3809.3945617674	0.0238273032
3811.3233691405	0.0233817659
3813.2521765135	0.0241222456
3815.1809838866	0.0220612884
3817.1097912596	0.0199426711
3819.0385986327	0.0240424275
3820.9674060057	0.0203375798
3822.8962133787	0.0211772062
3824.8250207518	0.0238654166
3826.7538281248	0.0220572501
3828.6826354979	0.0232103802
3830.6114428709	0.0225869492
3832.5402502440	0.0220862310
3834.4690576170	0.0223910995
3836.3978649901	0.0214668214
3838.3266723631	0.0196690783
3840.2554797362	0.0210855603
3842.1842871092	0.0224154796
3844.1130944823	0.0215525329
3846.0419018553	0.0229711644
3847.9707092284	0.0227100253
3849.8995166014	0.0227540731
3851.8283239745	0.0207379311
3853.7571313475	0.0164686665
3855.6859387205	0.0188492220
3857.6147460936	0.0227054600
3859.5435534666	0.0221511498
3861.4723608397	0.0220684223
3863.4011682127	0.0216993056
3865.3299755858	0.0203543082
3867.2587829588	0.0222686976
3869.1875903319	0.0207051635
3871.1163977049	0.0195114836
3873.0452050780	0.0222682692
3874.9740124510	0.0208281931
3876.9028198241	0.0220083445
3878.8316271971	0.0223331321
3880.7604345702	0.0199683607
3882.6892419432	0.0222219191
3884.6180493162	0.0210125297
3886.5468566893	0.0196000524
3888.4756640623	0.0221558027
3890.4044714354	0.0212142020
3892.3332788084	0.0202326141
3894.2620861815	0.0216635559
3896.1908935545	0.0219376180
3898.1197009276	0.0211496390
3900.0485083006	0.0201122910
3901.9773156737	0.0200665966
3903.9061230467	0.0199070964
3905.8349304198	0.0201121345
3907.7637377928	0.0215903725
3909.6925451659	0.0214922242
3911.6213525389	0.0213285740
3913.5501599119	0.0215209201
3915.4789672850	0.0210609883
3917.4077746580	0.0206099600
3919.3365820311	0.0204436854
3921.2653894041	0.0211630650
3923.1941967772	0.0210115127
3925.1230041502	0.0206483044
3927.0518115233	0.0209628381
3928.9806188963	0.0210715234
3930.9094262694	0.0207008999
3932.8382336424	0.0202179998
3934.7670410155	0.0207928289
3936.6958483885	0.0208784826
3938.6246557616	0.0208013467
3940.5534631346	0.0209609345
3942.4822705076	0.0203347486
3944.4110778807	0.0205049105
3946.3398852537	0.0207455941
3948.2686926268	0.0202897228
3950.1974999998	0.0203109179
3952.1263073729	0.0205217283
3954.0551147459	0.0206044782
3955.9839221190	0.0205136091
3957.9127294920	0.0203692466
3959.8415368651	0.0205003880
3961.7703442381	0.0202994850
3963.6991516112	0.0201671906
3965.6279589842	0.0204414092
3967.5567663573	0.0203500725
3969.4855737303	0.0202332940
3971.4143811034	0.0201412998
3973.3431884764	0.0201129224
3975.2719958494	0.0200596638
3977.2008032225	0.0199327506
3979.1296105955	0.0200231057
3981.0584179686	0.0199015252
3982.9872253416	0.0198858362
3984.9160327147	0.0199559294
3986.8448400877	0.0199000761
3988.7736474608	0.0198564809
3990.7024548338	0.0197271947
3992.6312622069	0.0197079368
3994.5600695799	0.0197617114
3996.4888769530	0.0197571628
3998.4176843260	0.0195878558
4000.3464916991	0.0195558444
4002.2752990721	0.0196378045
4004.2041064451	0.0195249226
4006.1329138182	0.0194963943
4008.0617211912	0.0193981677
4009.9905285643	0.0192814730
4011.9193359373	0.0193929337
4013.8481433104	0.0193563234
4015.7769506834	0.0192419179
4017.7057580565	0.0192147903
4019.6345654295	0.0191743877
4021.5633728026	0.0191915929
4023.4921801756	0.0191056766
4025.4209875487	0.0190664306
4027.3497949217	0.0190443434
4029.2786022948	0.0189410187
4031.2074096678	0.0189829729
4033.1362170408	0.0189280808
4035.0650244139	0.0188881606
4036.9938317869	0.0189002976
4038.9226391600	0.0187836532
4040.8514465330	0.0187272318
4042.7802539061	0.0187639445
4044.7090612791	0.0186735764
4046.6378686522	0.0185845122
4048.5666760252	0.0186341312
4050.4954833983	0.0185554102
4052.4242907713	0.0185418651
4054.3530981444	0.0185247473
4056.2819055174	0.0185162835
4058.2107128905	0.0185074992
4060.1395202635	0.0183967985
4062.0683276365	0.0184689015
4063.9971350096	0.0183850043
4065.9259423826	0.0183084868
4067.8547497557	0.0182856023
4069.7835571287	0.0182056166
4071.7123645018	0.0182113145
4073.6411718748	0.0181773975
4075.5699792479	0.0181930587
4077.4987866209	0.0180754438
4079.4275939940	0.0180112980
4081.3564013670	0.0180229731
4083.2852087401	0.0180598795
4085.2140161131	0.0180834122
4087.1428234862	0.0178901553
4089.0716308592	0.0178381950
4091.0004382323	0.0178267397
4092.9292456053	0.0177823454
4094.8580529783	0.0177794360
4096.7868603514	0.0177104603
4098.7156677244	0.0176903289
4100.6444750975	0.0177315399
4102.5732824705	0.0176237449
4104.5020898436	0.0174922142
4106.4308972166	0.0175047740
4108.3597045897	0.0174519233
4110.2885119627	0.0174117424
4112.2173193358	0.0174287912
4114.1461267088	0.0174811482
4116.0749340819	0.0173959918
4118.0037414549	0.0173228756
4119.9325488280	0.0173167828
4121.8613562010	0.0171791762
4123.7901635740	0.0172434039
4125.7189709471	0.0172016621
4127.6477783201	0.0170887113
4129.5765856932	0.0171119682
4131.5053930662	0.0170736611
4133.4342004393	0.0170094632
4135.3630078123	0.0169730801
4137.2918151854	0.0169874839
4139.2206225584	0.0169275850
4141.1494299315	0.0169572011
4143.0782373045	0.0168420300
4145.0070446776	0.0168038383
4146.9358520506	0.0169424303
4148.8646594237	0.0167990066
4150.7934667967	0.0167008601
4152.7222741697	0.0166747216
4154.6510815428	0.0166719519
4156.5798889158	0.0166002512
4158.5086962889	0.0165958423
4160.4375036619	0.0166454352
4162.3663110350	0.0165182538
4164.2951184080	0.0164551586
4166.2239257811	0.0164100118
4168.1527331541	0.0163131095
4170.0815405272	0.0162481330
4172.0103479002	0.0163237620
4173.9391552733	0.0162821785
4175.8679626463	0.0162726603
4177.7967700194	0.0162298456
4179.7255773924	0.0161247961
4181.6543847654	0.0162826348
4183.5831921385	0.0162048340
4185.5119995115	0.0161278360
4187.4408068846	0.0160623398
4189.3696142576	0.0160312578
4191.2984216307	0.0161066316
4193.2272290037	0.0159780420
4195.1560363768	0.0159067772
4197.0848437498	0.0159195270
4199.0136511229	0.0159566812
4200.9424584959	0.0157952178
4202.8712658690	0.0158152506
4204.8000732420	0.0157938860
4206.7288806151	0.0156815574
4208.6576879881	0.0157601833
4210.5864953611	0.0156443305
4212.5153027342	0.0157561097
4214.4441101072	0.0156331584
4216.3729174803	0.0155304540
4218.3017248533	0.0156186894
4220.2305322264	0.0155518912
4222.1593395994	0.0155618358
4224.0881469725	0.0153785869
4226.0169543455	0.0154260620
4227.9457617186	0.0153723601
4229.8745690916	0.0154026728
4231.8033764647	0.0154574187
4233.7321838377	0.0152231939
4235.6609912108	0.0153054576
4237.5897985838	0.0152040925
4239.5186059569	0.0151563231
4241.4474133299	0.0152168022
4243.3762207029	0.0152031053
4245.3050280760	0.0151818190
4247.2338354490	0.0150463320
4249.1626428221	0.0150153926
4251.0914501951	0.0149749490
4253.0202575682	0.0149947107
4254.9490649412	0.0149415378
4256.8778723143	0.0149138188
4258.8066796873	0.0150007624
4260.7354870604	0.0149757341
4262.6642944334	0.0148203131
4264.5931018065	0.0147311445
4266.5219091795	0.0147323459
4268.4507165526	0.0146975694
4270.3795239256	0.0147850867
4272.3083312986	0.0147019438
4274.2371386717	0.0146126691
4276.1659460447	0.0146232527
4278.0947534178	0.0146018770
4280.0235607908	0.0146186035
4281.9523681639	0.0145767331
4283.8811755369	0.0145490831
4285.8099829100	0.0144515242
4287.7387902830	0.0144573031
4289.6675976561	0.0143984482
4291.5964050291	0.0143868094
4293.5252124022	0.0143896453
4295.4540197752	0.0142292678
4297.3828271483	0.0142521095
4299.3116345213	0.0142479055
4301.2404418943	0.0142655224
4303.1692492674	0.0141441338
4305.0980566404	0.0141298557
4307.0268640135	0.0141554931
4308.9556713865	0.0140677141
4310.8844787596	0.0141702667
4312.8132861326	0.0140156578
4314.7420935057	0.0140141249
4316.6709008787	0.0139398975
4318.5997082518	0.0137993479
4320.5285156248	0.0139361545
4322.4573229979	0.0138720991
4324.3861303709	0.0138419773
4326.3149377440	0.0137907220
4328.2437451170	0.0138074309
4330.1725524900	0.0138220452
4332.1013598631	0.0137648154
4334.0301672361	0.0137087936
4335.9589746092	0.0135374926
4337.8877819822	0.0135955326
4339.8165893553	0.0137120849
4341.7453967283	0.0136389183
4343.6742041014	0.0135249924
4345.6030114744	0.0134996083
4347.5318188475	0.0134942159
4349.4606262205	0.0134425722
4351.3894335936	0.0133501040
4353.3182409666	0.0133560877
4355.2470483397	0.0133790001
4357.1758557127	0.0133356862
4359.1046630858	0.0133915599
4361.0334704588	0.0133030983
4362.9622778318	0.0132772606
4364.8910852049	0.0132467262
4366.8198925779	0.0131723303
4368.7486999510	0.0131662898
4370.6775073240	0.0130625162
4372.6063146971	0.0131099317
4374.5351220701	0.0130508766
4376.4639294432	0.0130316904
4378.3927368162	0.0130285928
4380.3215441893	0.0129331667
4382.2503515623	0.0129613467
4384.1791589354	0.0129756536
4386.1079663084	0.0129875969
4388.0367736815	0.0128426682
4389.9655810545	0.0128785986
4391.8943884275	0.0128503283
4393.8231958006	0.0127497539
4395.7520031736	0.0128307641
4397.6808105467	0.0126784910
4399.6096179197	0.0126826577
4401.5384252928	0.0126851471
4403.4672326658	0.0126345605
4405.3960400389	0.0126338731
4407.3248474119	0.0125504695
4409.2536547850	0.0125694275
4411.1824621580	0.0125326458
4413.1112695311	0.0124860536
4415.0400769041	0.0124510685
4416.9688842772	0.0124446359
4418.8976916502	0.0124055278
4420.8264990232	0.0123958718
4422.7553063963	0.0123750567
4424.6841137693	0.0123070544
4426.6129211424	0.0123764509
4428.5417285154	0.0123112258
4430.4705358885	0.0122836605
4432.3993432615	0.0122599024
4434.3281506346	0.0121978605
4436.2569580076	0.0122666741
4438.1857653807	0.0122148003
4440.1145727537	0.0121572930
4442.0433801268	0.0121476799
4443.9721874998	0.0121227102
4445.9009948729	0.0119993994
4447.8298022459	0.0119544584
4449.7586096189	0.0120276008
4451.6874169920	0.0119579835
4453.6162243650	0.0119653977
4455.5450317381	0.0119822621
4457.4738391111	0.0119506586
4459.4026464842	0.0119323898
4461.3314538572	0.0118519682
4463.2602612303	0.0119007966
4465.1890686033	0.0119405221
4467.1178759764	0.0117656812
4469.0466833494	0.0116323596
4470.9754907225	0.0116835712
4472.9042980955	0.0116752833
4474.8331054686	0.0115986858
4476.7619128416	0.0115887206
4478.6907202147	0.0115091130
4480.6195275877	0.0115370769
4482.5483349607	0.0115805967
4484.4771423338	0.0114476373
4486.4059497068	0.0115604922
4488.3347570799	0.0116054695
4490.2635644529	0.0114700440
4492.1923718260	0.0115158660
4494.1211791990	0.0114653651
4496.0499865721	0.0114279818
4497.9787939451	0.0113782529
4499.9076013182	0.0113129262
4501.8364086912	0.0113504883
4503.7652160643	0.0112585891
4505.6940234373	0.0112638362
4507.6228308104	0.0113178436
4509.5516381834	0.0112499036
4511.4804455564	0.0111655667
4513.4092529295	0.0111170877
4515.3380603025	0.0110928435
4517.2668676756	0.0110877641
4519.1956750486	0.0111386245
4521.1244824217	0.0110038407
4523.0532897947	0.0109796543
4524.9820971678	0.0110861761
4526.9109045408	0.0109551614
4528.8397119139	0.0109098610
4530.7685192869	0.0108763669
4532.6973266600	0.0108791273
4534.6261340330	0.0108996155
4536.5549414061	0.0108159743
4538.4837487791	0.0108638704
4540.4125561521	0.0108240293
4542.3413635252	0.0107970601
4544.2701708982	0.0108009446
4546.1989782713	0.0107364608
4548.1277856443	0.0107331825
4550.0565930174	0.0106137004
4551.9854003904	0.0105730426
4553.9142077635	0.0106868818
4555.8430151365	0.0106569408
4557.7718225096	0.0105194952
4559.7006298826	0.0105832946
4561.6294372557	0.0106124673
4563.5582446287	0.0104786921
4565.4870520018	0.0104876217
4567.4158593748	0.0104303565
4569.3446667478	0.0103975777
4571.2734741209	0.0103669558
4573.2022814939	0.0103749800
4575.1310888670	0.0104342774
4577.0598962400	0.0102687161
4578.9887036131	0.0102747781
4580.9175109861	0.0103145670
4582.8463183592	0.0102394475
4584.7751257322	0.0101767415
4586.7039331053	0.0102033429
4588.6327404783	0.0102576427
4590.5615478514	0.0101692658
4592.4903552244	0.0101617891
4594.4191625975	0.0100739691
4596.3479699705	0.0101271942
4598.2767773435	0.0101265498
4600.2055847166	0.0100193014
4602.1343920896	0.0101028271
4604.0631994627	0.0099739889
4605.9920068357	0.0100086313
4607.9208142088	0.0100020897
4609.8496215818	0.0099130441
4611.7784289549	0.0099741928
4613.7072363279	0.0099050924
4615.6360437010	0.0099047683
4617.5648510740	0.0098741772
4619.4936584471	0.0098436791
4621.4224658201	0.0097570140
4623.3512731932	0.0097517036
4625.2800805662	0.0097790714
4627.2088879393	0.0097329877
4629.1376953123	0.0097883828
4631.0665026853	0.0096718650
4632.9953100584	0.0097014606
4634.9241174314	0.0097028585
4636.8529248045	0.0095735230
4638.7817321775	0.0096118357
4640.7105395506	0.0095729195
4642.6393469236	0.0095942132
4644.5681542967	0.0096125975
4646.4969616697	0.0095208073
4648.4257690428	0.0094942665
4650.3545764158	0.0095197205
4652.2833837889	0.0094239488
4654.2121911619	0.0093939491
4656.1409985350	0.0094566047
4658.0698059080	0.0093614245
4659.9986132810	0.0093386304
4661.9274206541	0.0093415324
4663.8562280271	0.0093023824
4665.7850354002	0.0092813978
4667.7138427732	0.0091853179
4669.6426501463	0.0091679934
4671.5714575193	0.0092206048
4673.5002648924	0.0091187600
4675.4290722654	0.0091290846
4677.3578796385	0.0092259506
4679.2866870115	0.0090931514
4681.2154943846	0.0091118161
4683.1443017576	0.0091353208
4685.0731091307	0.0090681771
4687.0019165037	0.0090967324
4688.9307238767	0.0090092970
4690.8595312498	0.0090263132
4692.7883386228	0.0090653347
4694.7171459959	0.0089399992
4696.6459533689	0.0089346664
4698.5747607420	0.0089407042
4700.5035681150	0.0088333320
4702.4323754881	0.0089096706
4704.3611828611	0.0088571738
4706.2899902342	0.0088012964
4708.2187976072	0.0089533515
4710.1476049803	0.0088095646
4712.0764123533	0.0087972954
4714.0052197264	0.0088092331
4715.9340270994	0.0087656677
4717.8628344724	0.0088225435
4719.7916418455	0.0087522678
4721.7204492185	0.0087896120
4723.6492565916	0.0086772610
4725.5780639646	0.0086715482
4727.5068713377	0.0087111406
4729.4356787107	0.0086387880
4731.3644860838	0.0086904522
4733.2932934568	0.0085822940
4735.2221008299	0.0085509587
4737.1509082029	0.0085728820
4739.0797155760	0.0085830167
4741.0085229490	0.0085196327
4742.9373303221	0.0084690992
4744.8661376951	0.0085162763
4746.7949450682	0.0084082298
4748.7237524412	0.0084461253
4750.6525598142	0.0084783314
4752.5813671873	0.0083810603
4754.5101745603	0.0084182285
4756.4389819334	0.0084525635
4758.3677893064	0.0083437702
4760.2965966795	0.0083402721
4762.2254040525	0.0083568897
4764.1542114256	0.0082285330
4766.0830187986	0.0082492959
4768.0118261717	0.0082394853
4769.9406335447	0.0082022138
4771.8694409178	0.0082404222
4773.7982482908	0.0082647223
4775.7270556639	0.0082392823
4777.6558630369	0.0081550982
4779.5846704099	0.0081121027
4781.5134777830	0.0081016775
4783.4422851560	0.0080998754
4785.3710925291	0.0080245622
4787.2998999021	0.0081047099
4789.2287072752	0.0080757141
4791.1575146482	0.0079743853
4793.0863220213	0.0080114547
4795.0151293943	0.0079040956
4796.9439367674	0.0080133379
4798.8727441404	0.0080124643
4800.8015515135	0.0079251174
4802.7303588865	0.0079333214
4804.6591662596	0.0078420704
4806.5879736326	0.0078439619
4808.5167810056	0.0077857906
4810.4455883787	0.0078130420
4812.3743957517	0.0077872761
4814.3032031248	0.0078195212
4816.2320104978	0.0078847390
4818.1608178709	0.0077371011
4820.0896252439	0.0077030025
4822.0184326170	0.0077410596
4823.9472399900	0.0077874344
4825.8760473631	0.0076644272
4827.8048547361	0.0076055219
4829.7336621092	0.0076457355
4831.6624694822	0.0076046623
4833.5912768553	0.0076231137
4835.5200842283	0.0076265996
4837.4488916013	0.0076498818
4839.3776989744	0.0075078858
4841.3065063474	0.0074948873
4843.2353137205	0.0075829541
4845.1641210935	0.0075053298
4847.0929284666	0.0074878428
4849.0217358396	0.0074378522
4850.9505432127	0.0075030215
4852.8793505857	0.0074972366
4854.8081579588	0.0073980540
4856.7369653318	0.0074582100
4858.6657727049	0.0074013965
4860.5945800779	0.0073501524
4862.5233874510	0.0074236109
4864.4521948240	0.0073712086
4866.3810021971	0.0072842445
4868.3098095701	0.0072709545
4870.2386169431	0.0072626616
4872.1674243162	0.0072794091
4874.0962316892	0.0072756633
4876.0250390623	0.0072756032
4877.9538464353	0.0072701350
4879.8826538084	0.0072648870
4881.8114611814	0.0071753925
4883.7402685545	0.0070683183
4885.6690759275	0.0071234433
4887.5978833006	0.0071261432
4889.5266906736	0.0071397936
4891.4554980467	0.0070961863
4893.3843054197	0.0070353365
4895.3131127928	0.0070786709
4897.2419201658	0.0070300023
4899.1707275388	0.0070131347
4901.0995349119	0.0070167780
4903.0283422849	0.0070200153
4904.9571496580	0.0070062722
4906.8859570310	0.0069962735
4908.8147644041	0.0069540460
4910.7435717771	0.0069070663
4912.6723791502	0.0069358256
4914.6011865232	0.0068959668
4916.5299938963	0.0069049518
4918.4588012693	0.0068614176
4920.3876086424	0.0068098479
4922.3164160154	0.0067998832
4924.2452233885	0.0067989379
4926.1740307615	0.0068192999
4928.1028381345	0.0067420388
4930.0316455076	0.0067727640
4931.9604528806	0.0067733028
4933.8892602537	0.0067489133
4935.8180676267	0.0067326361
4937.7468749998	0.0066649672
4939.6756823728	0.0067044739
4941.6044897459	0.0066808988
4943.5332971189	0.0066031329
4945.4621044920	0.0066347923
4947.3909118650	0.0066153235
4949.3197192381	0.0064807581
4951.2485266111	0.0065656686
4953.1773339842	0.0065904534
4955.1061413572	0.0065533379
4957.0349487302	0.0065851901
4958.9637561033	0.0064293607
4960.8925634763	0.0064827437
4962.8213708494	0.0065206359
4964.7501782224	0.0064764488
4966.6789855955	0.0064303624
4968.6077929685	0.0063793352
4970.5366003416	0.0064535793
4972.4654077146	0.0064484146
4974.3942150877	0.0065231286
4976.3230224607	0.0063758898
4978.2518298338	0.0063055195
4980.1806372068	0.0064188475
4982.1094445799	0.0063430807
4984.0382519529	0.0062884474
4985.9670593259	0.0061847065
4987.8958666990	0.0062671695
4989.8246740720	0.0062664249
4991.7534814451	0.0062247906
4993.6822888181	0.0062718485
4995.6110961912	0.0062249759
4997.5399035642	0.0062445840
4999.4687109373	0.0061206776
5001.3975183103	0.0061657764
5003.3263256834	0.0061719939
5005.2551330564	0.0060689459
5007.1839404295	0.0061421301
5009.1127478025	0.0060812337
5011.0415551756	0.0060625998
5012.9703625486	0.0060511855
5014.8991699217	0.0060175019
5016.8279772947	0.0060460372
5018.7567846677	0.0060843974
5020.6855920408	0.0060529094
5022.6143994138	0.0059922393
5024.5432067869	0.0060118278
5026.4720141599	0.0059603183
5028.4008215330	0.0059645660
5030.3296289060	0.0059494129
5032.2584362791	0.0059255972
5034.1872436521	0.0059357807
5036.1160510252	0.0058733090
5038.0448583982	0.0059299101
5039.9736657713	0.0058872700
5041.9024731443	0.0058291140
5043.8312805174	0.0059111351
5045.7600878904	0.0058501670
5047.6888952634	0.0058005848
5049.6177026365	0.0057843979
5051.5465100095	0.0057706581
5053.4753173826	0.0058489060
5055.4041247556	0.0057842471
5057.3329321287	0.0057109348
5059.2617395017	0.0057583675
5061.1905468748	0.0057018446
5063.1193542478	0.0056751221
5065.0481616209	0.0057429154
5066.9769689939	0.0057172864
5068.9057763670	0.0056352438
5070.8345837400	0.0056651998
5072.7633911131	0.0056926962
5074.6921984861	0.0056068068
5076.6210058591	0.0056532845
5078.5498132322	0.0056829192
5080.4786206052	0.0055494593
5082.4074279783	0.0056090290
5084.3362353513	0.0056436360
5086.2650427244	0.0055449982
5088.1938500974	0.0055939099
5090.1226574705	0.0055502905
5092.0514648435	0.0055170315
5093.9802722166	0.0055130459
5095.9090795896	0.0054401858
5097.8378869627	0.0054905079
5099.7666943357	0.0054536727
5101.6955017088	0.0054502389
5103.6243090818	0.0054363133
5105.5531164548	0.0053443355
5107.4819238279	0.0054384051
5109.4107312009	0.0054428205
5111.3395385740	0.0053594429
5113.2683459470	0.0053847749
5115.1971533201	0.0053738328
5117.1259606931	0.0052867699
5119.0547680662	0.0053150347
5120.9835754392	0.0053347461
5122.9123828123	0.0052279523
5124.8411901853	0.0052410923
5126.7699975584	0.0053134365
5128.6988049314	0.0052945139
5130.6276123045	0.0052210018
5132.5564196775	0.0052338419
5134.4852270506	0.0052033681
5136.4140344236	0.0052043041
5138.3428417966	0.0053025447
5140.2716491697	0.0051910998
5142.2004565427	0.0051675364
5144.1292639158	0.0052623088
5146.0580712888	0.0052586989
5147.9868786619	0.0051678047
5149.9156860349	0.0051201158
5151.8444934080	0.0051650442
5153.7733007810	0.0050447220
5155.7021081541	0.0050118444
5157.6309155271	0.0050541768
5159.5597229002	0.0050539151
5161.4885302732	0.0051246108
5163.4173376463	0.0050838487
5165.3461450193	0.0050272550
5167.2749523923	0.0050435830
5169.2037597654	0.0050655846
5171.1325671384	0.0050382684
5173.0613745115	0.0049749361
5174.9901818845	0.0049368208
5176.9189892576	0.0049658911
5178.8477966306	0.0049670562
5180.7766040037	0.0049197795
5182.7054113767	0.0049619512
5184.6342187498	0.0048667830
5186.5630261228	0.0047958391
5188.4918334959	0.0049027335
5190.4206408689	0.0048614340
5192.3494482420	0.0048838211
5194.2782556150	0.0048869690
5196.2070629880	0.0047637112
5198.1358703611	0.0048758015
5200.0646777341	0.0048595835
5201.9934851072	0.0047467100
5203.9222924802	0.0048198155
5205.8510998533	0.0047527491
5207.7799072263	0.0047160992
5209.7087145994	0.0047580260
5211.6375219724	0.0048201093
5213.5663293455	0.0048213284
5215.4951367185	0.0047006970
5217.4239440916	0.0047351783
5219.3527514646	0.0047071958
5221.2815588377	0.0046946350
5223.2103662107	0.0047239605
5225.1391735837	0.0046000481
5227.0679809568	0.0046276757
5228.9967883298	0.0046813171
5230.9255957029	0.0046151392
5232.8544030759	0.0046421303
5234.7832104490	0.0046564424
5236.7120178220	0.0045973426
5238.6408251951	0.0046148254
5240.5696325681	0.0046256799
5242.4984399412	0.0046099308
5244.4272473142	0.0045045717
5246.3560546873	0.0044545634
5248.2848620603	0.0044804807
5250.2136694334	0.0044279336
5252.1424768064	0.0045559574
5254.0712841795	0.0044711451
5256.0000915525	0.0043776063
5257.9288989255	0.0045357402
5259.8577062986	0.0044730236
5261.7865136716	0.0043939631
5263.7153210447	0.0043443386
5265.6441284177	0.0044008745
5267.5729357908	0.0044122161
5269.5017431638	0.0043789917
5271.4305505369	0.0044102799
5273.3593579099	0.0043661231
5275.2881652830	0.0044369516
5277.2169726560	0.0044341087
5279.1457800291	0.0044193668
5281.0745874021	0.0044110748
5283.0033947752	0.0043667546
5284.9322021482	0.0042979969
5286.8610095212	0.0042810440
5288.7898168943	0.0043574683
5290.7186242673	0.0042568343
5292.6474316404	0.0042937570
5294.5762390134	0.0043314910
5296.5050463865	0.0042900871
5298.4338537595	0.0042502629
5300.3626611326	0.0042294152
5302.2914685056	0.0043632137
5304.2202758787	0.0042974800
5306.1490832517	0.0041745920
5308.0778906248	0.0041164458
5310.0066979978	0.0041804463
5311.9355053709	0.0041997563
5313.8643127439	0.0041872924
5315.7931201169	0.0042389659
5317.7219274900	0.0041181156
5319.6507348630	0.0041366559
5321.5795422361	0.0041316990
5323.5083496091	0.0041703107
5325.4371569822	0.0041058697
5327.3659643552	0.0039268723
5329.2947717283	0.0041148178
5331.2235791013	0.0041576154
5333.1523864744	0.0040476080
5335.0811938474	0.0040985104
5337.0100012205	0.0041305451
5338.9388085935	0.0039336658
5340.8676159666	0.0039596981
5342.7964233396	0.0040631443
5344.7252307126	0.0038993347
5346.6540380857	0.0039858492
5348.5828454587	0.0039635976
5350.5116528318	0.0039583500
5352.4404602048	0.0039766692
5354.3692675779	0.0038513886
5356.2980749509	0.0039608553
5358.2268823240	0.0039843665
5360.1556896970	0.0039589666
5362.0844970701	0.0039267871
5364.0133044431	0.0039179586
5365.9421118162	0.0039026570
5367.8709191892	0.0038169962
5369.7997265623	0.0038504482
5371.7285339353	0.0038769580
5373.6573413083	0.0038661235
5375.5861486814	0.0037954706
5377.5149560544	0.0037946866
5379.4437634275	0.0038582669
5381.3725708005	0.0038649056
5383.3013781736	0.0038603144
5385.2301855466	0.0038388849
5387.1589929197	0.0038103641
5389.0878002927	0.0037596938
5391.0166076658	0.0037783992
5392.9454150388	0.0037590917
5394.8742224119	0.0036601077
5396.8030297849	0.0036873282
5398.7318371580	0.0037575136
5400.6606445310	0.0037348340
5402.5894519041	0.0037337551
5404.5182592771	0.0037123284
5406.4470666501	0.0037094536
5408.3758740232	0.0037313595
5410.3046813962	0.0036619594
5412.2334887693	0.0036689658
5414.1622961423	0.0036271126
5416.0911035154	0.0036824192
5418.0199108884	0.0036997404
5419.9487182615	0.0035569379
5421.8775256345	0.0036684782
5423.8063330076	0.0036259368
5425.7351403806	0.0035850857
5427.6639477537	0.0036254018
5429.5927551267	0.0034749364
5431.5215624998	0.0035427320
5433.4503698728	0.0035890220
5435.3791772458	0.0034613488
5437.3079846189	0.0035309335
5439.2367919919	0.0036018873
5441.1655993650	0.0034806577
5443.0944067380	0.0034750591
5445.0232141111	0.0034668054
5446.9520214841	0.0034490474
5448.8808288572	0.0034482409
5450.8096362302	0.0034065107
5452.7384436033	0.0035302578
5454.6672509763	0.0034516936
5456.5960583494	0.0034155983
5458.5248657224	0.0035162475
5460.4536730955	0.0034092623
5462.3824804685	0.0034086234
5464.3112878415	0.0034570484
5466.2400952146	0.0034768016
5468.1689025876	0.0034251332
5470.0977099607	0.0033309457
5472.0265173337	0.0033608356
5473.9553247068	0.0033888679
5475.8841320798	0.0033294712
5477.8129394529	0.0033599189
5479.7417468259	0.0033965944
5481.6705541990	0.0033140453
5483.5993615720	0.0033465698
5485.5281689451	0.0033450187
5487.4569763181	0.0033115819
5489.3857836912	0.0032953238
5491.3145910642	0.0033359276
5493.2433984372	0.0033830046
5495.1722058103	0.0032964875
5497.1010131833	0.0033393921
5499.0298205564	0.0032468629
5500.9586279294	0.0032260469
5502.8874353025	0.0033586281
5504.8162426755	0.0032587205
5506.7450500486	0.0032184990
5508.6738574216	0.0032457192
5510.6026647947	0.0032859384
5512.5314721677	0.0033042179
5514.4602795408	0.0032928339
5516.3890869138	0.0032302234
5518.3178942869	0.0032009231
5520.2467016599	0.0032821475
5522.1755090330	0.0032698917
5524.1043164060	0.0032062996
5526.0331237790	0.0031041000
5527.9619311521	0.0031362809
5529.8907385251	0.0032069567
5531.8195458982	0.0031602611
5533.7483532712	0.0031548375
5535.6771606443	0.0031679387
5537.6059680173	0.0031676213
5539.5347753904	0.0031067859
5541.4635827634	0.0030807848
5543.3923901365	0.0030915400
5545.3211975095	0.0031222175
5547.2500048826	0.0031053522
5549.1788122556	0.0030736306
5551.1076196287	0.0030895465
5553.0364270017	0.0030697002
5554.9652343747	0.0031038385
5556.8940417478	0.0030824598
5558.8228491208	0.0030622694
5560.7516564939	0.0030323435
5562.6804638669	0.0030329120
5564.6092712400	0.0030376047
5566.5380786130	0.0029896335
5568.4668859861	0.0030952066
5570.3956933591	0.0030165380
5572.3245007322	0.0029574865
5574.2533081052	0.0030063954
5576.1821154783	0.0029728413
5578.1109228513	0.0030147620
5580.0397302244	0.0029265489
5581.9685375974	0.0029132278
5583.8973449704	0.0029592239
5585.8261523435	0.0029037287
5587.7549597165	0.0029006219
5589.6837670896	0.0029540937
5591.6125744626	0.0029375786
5593.5413818357	0.0028232299
5595.4701892087	0.0028549316
5597.3989965818	0.0029054603
5599.3278039548	0.0029173894
5601.2566113279	0.0029181987
5603.1854187009	0.0028539810
5605.1142260740	0.0028719958
5607.0430334470	0.0028955513
5608.9718408201	0.0028990177
5610.9006481931	0.0029003341
5612.8294555661	0.0028172533
5614.7582629392	0.0027865279
5616.6870703122	0.0028274369
5618.6158776853	0.0028101939
5620.5446850583	0.0028717290
5622.4734924314	0.0028600493
5624.4022998044	0.0027609048
5626.3311071775	0.0027678669
5628.2599145505	0.0027764956
5630.1887219236	0.0028442419
5632.1175292966	0.0027954541
5634.0463366697	0.0027715266
5635.9751440427	0.0028118878
5637.9039514158	0.0027934602
5639.8327587888	0.0028499048
5641.7615661619	0.0027066418
5643.6903735349	0.0026810248
5645.6191809079	0.0027157678
5647.5479882810	0.0026769922
5649.4767956540	0.0027754994
5651.4056030271	0.0026570538
5653.3344104001	0.0026590326
5655.2632177732	0.0027294131
5657.1920251462	0.0026131561
5659.1208325193	0.0026694913
5661.0496398923	0.0027164500
5662.9784472654	0.0025864106
5664.9072546384	0.0026060364
5666.8360620115	0.0026918948
5668.7648693845	0.0025668249
5670.6936767576	0.0026249280
5672.6224841306	0.0026607586
5674.5512915036	0.0025792327
5676.4800988767	0.0026548305
5678.4089062497	0.0025883787
5680.3377136228	0.0026480420
5682.2665209958	0.0026341702
5684.1953283689	0.0024837134
5686.1241357419	0.0025577466
5688.0529431150	0.0025498192
5689.9817504880	0.0025547012
5691.9105578611	0.0025680612
5693.8393652341	0.0025482080
5695.7681726072	0.0025624377
5697.6969799802	0.0025518993
5699.6257873533	0.0025447248
5701.5545947263	0.0025215843
5703.4834020993	0.0025311345
5705.4122094724	0.0025034454
5707.3410168454	0.0025161351
5709.2698242185	0.0024902034
5711.1986315915	0.0024854147
5713.1274389646	0.0025395264
5715.0562463376	0.0024513695
5716.9850537107	0.0024800687
5718.9138610837	0.0024657240
5720.8426684568	0.0024162496
5722.7714758298	0.0024455888
5724.7002832029	0.0024295528
5726.6290905759	0.0024601107
5728.5578979490	0.0024059340
5730.4867053220	0.0024339061
5732.4155126950	0.0024301116
5734.3443200681	0.0023755156
5736.2731274411	0.0024531553
5738.2019348142	0.0024363319
5740.1307421872	0.0024210317
5742.0595495603	0.0024105697
5743.9883569333	0.0024252911
5745.9171643064	0.0023858629
5747.8459716794	0.0023302147
5749.7747790525	0.0023848037
5751.7035864255	0.0023212675
5753.6323937986	0.0023098195
5755.5612011716	0.0023258524
5757.4900085447	0.0022975947
5759.4188159177	0.0023405640
5761.3476232907	0.0023342425
5763.2764306638	0.0022843322
5765.2052380368	0.0022887820
5767.1340454099	0.0023575290
5769.0628527829	0.0023669200
5770.9916601560	0.0023190519
5772.9204675290	0.0022483389
5774.8492749021	0.0022726078
5776.7780822751	0.0023154849
5778.7068896482	0.0022455384
5780.6356970212	0.0022537906
5782.5645043943	0.0022052350
5784.4933117673	0.0022025923
5786.4221191404	0.0022530076
5788.3509265134	0.0021905606
5790.2797338865	0.0022431724
5792.2085412595	0.0022454557
5794.1373486325	0.0022038231
5796.0661560056	0.0022081523
5797.9949633786	0.0021748438
5799.9237707517	0.0021918961
5801.8525781247	0.0022007986
5803.7813854978	0.0022163750
5805.7101928708	0.0021998975
5807.6390002439	0.0021978896
5809.5678076169	0.0021682701
5811.4966149900	0.0020768195
5813.4254223630	0.0021514103
5815.3542297361	0.0021476427
5817.2830371091	0.0020899875
5819.2118444822	0.0021237046
5821.1406518552	0.0021033785
5823.0694592282	0.0021596756
5824.9982666013	0.0021642835
5826.9270739743	0.0021187817
5828.8558813474	0.0021322905
5830.7846887204	0.0021154955
5832.7134960935	0.0021080612
5834.6423034665	0.0020672467
5836.5711108396	0.0020181178
5838.4999182126	0.0020232813
5840.4287255857	0.0020823516
5842.3575329587	0.0021045606
5844.2863403318	0.0020814410
5846.2151477048	0.0020594494
5848.1439550779	0.0020421986
5850.0727624509	0.0020780303
5852.0015698239	0.0020199816
5853.9303771970	0.0019937288
5855.8591845700	0.0020573933
5857.7879919431	0.0020360304
5859.7167993161	0.0020614981
5861.6456066892	0.0020212706
5863.5744140622	0.0019418539
5865.5032214353	0.0020169395
5867.4320288083	0.0019830465
5869.3608361814	0.0019509036
5871.2896435544	0.0020498983
5873.2184509275	0.0019754262
5875.1472583005	0.0019789282
5877.0760656736	0.0020203707
5879.0048730466	0.0019308412
5880.9336804196	0.0019519252
5882.8624877927	0.0019073781
5884.7912951657	0.0019473454
5886.7201025388	0.0019992369
5888.6489099118	0.0019080421
5890.5777172849	0.0019336739
5892.5065246579	0.0019358085
5894.4353320310	0.0019054946
5896.3641394040	0.0018699316
5898.2929467771	0.0018931485
5900.2217541501	0.0019112793
5902.1505615232	0.0018550707
5904.0793688962	0.0018849010
5906.0081762693	0.0018916321
5907.9369836423	0.0018469439
5909.8657910154	0.0018173284
5911.7945983884	0.0018452890
5913.7234057614	0.0018661465
5915.6522131345	0.0018950226
5917.5810205075	0.0018604801
5919.5098278806	0.0018368937
5921.4386352536	0.0018937242
5923.3674426267	0.0018311305
5925.2962499997	0.0018918484
5927.2250573728	0.0018441024
5929.1538647458	0.0017805854
5931.0826721189	0.0018690822
5933.0114794919	0.0017685932
5934.9402868650	0.0017707602
5936.8690942380	0.0017888760
5938.7979016111	0.0017940828
5940.7267089841	0.0017747560
5942.6555163571	0.0017706088
5944.5843237302	0.0018568764
5946.5131311032	0.0017859903
5948.4419384763	0.0018056867
5950.3707458493	0.0017685429
5952.2995532224	0.0017144589
5954.2283605954	0.0017822196
5956.1571679685	0.0017737463
5958.0859753415	0.0017675858
5960.0147827146	0.0017040609
5961.9435900876	0.0016824047
5963.8723974607	0.0017312071
5965.8012048337	0.0017530912
5967.7300122068	0.0016988108
5969.6588195798	0.0016563165
5971.5876269528	0.0016801181
5973.5164343259	0.0016845077
5975.4452416989	0.0017007028
5977.3740490720	0.0017017443
5979.3028564450	0.0017201578
5981.2316638181	0.0016963654
5983.1604711911	0.0016705249
5985.0892785642	0.0016537941
5987.0180859372	0.0016618583
5988.9468933103	0.0016828664
5990.8757006833	0.0016055299
5992.8045080564	0.0016434670
5994.7333154294	0.0016708339
5996.6621228025	0.0016408269
5998.5909301755	0.0016339549
6000.5197375485	0.0015909929
