399.2631262207	0.0013073444
401.1919335938	0.0010358926
403.1207409668	0.0020173602
405.0495483398	0.0015808314
406.9783557129	0.0013692658
408.9071630859	0.0018094355
410.8359704590	0.0017413532
412.7647778320	0.0016170522
414.6935852051	0.0015900154
416.6223925781	0.0018463422
418.5511999512	0.0014076997
420.4800073242	0.0017717992
422.4088146973	0.0019933598
424.3376220703	0.0021381560
426.2664294434	0.0026592561
428.1952368164	0.0020467241
430.1240441895	0.0019464024
432.0528515625	0.0021441490
433.9816589355	0.0022029523
435.9104663086	0.0017789124
437.8392736816	0.0019673612
439.7680810547	0.0021997169
441.6968884277	0.0012545097
443.6256958008	0.0017384089
445.5545031738	0.0019573388
447.4833105469	0.0018660619
449.4121179199	0.0020874152
451.3409252930	0.0018867052
453.2697326660	0.0019174243
455.1985400391	0.0014199050
457.1273474121	0.0013076996
459.0561547852	0.0007671347
460.9849621582	0.0006891120
462.9137695313	0.0013607277
464.8425769043	0.0011215885
466.7713842773	0.0015362647
468.7001916504	0.0013614509
470.6289990234	0.0006771840
472.5578063965	0.0006567281
474.4866137695	0.0006591011
476.4154211426	0.0005124954
478.3442285156	0.0003900203
480.2730358887	0.0006574484
482.2018432617	0.0007350129
484.1306506348	0.0008312639
486.0594580078	0.0004841594
487.9882653809	0.0004626489
489.9170727539	0.0007888667
491.8458801270	0.0002083515
493.7746875000	0.0003747418
495.7034948730	0.0004699680
497.6323022461	0.0001599310
499.5611096191	0.0003363400
501.4899169922	0.0000518449
503.4187243652	0.0001967990
505.3475317383	0.0007309282
507.2763391113	0.0004971946
509.2051464844	0.0004921303
511.1339538574	0.0002720486
513.0627612305	-0.0002134981
514.9915686035	0.0003748976
516.9203759766	0.0002144945
518.8491833496	-0.0001339178
520.7779907227	0.0001726787
522.7067980957	0.0000454917
524.6356054688	0.0002581637
526.5644128418	0.0001394635
528.4932202148	0.0001047933
530.4220275879	0.0003867735
532.3508349609	0.0003700320
534.2796423340	0.0002386200
536.2084497070	0.0002106340
538.1372570801	0.0003596514
540.0660644531	0.0003342964
541.9948718262	0.0004078192
543.9236791992	-0.0000114471
545.8524865723	-0.0002108564
547.7812939453	0.0001633409
549.7101013184	0.0002368820
551.6389086914	0.0001824008
553.5677160645	0.0000593412
555.4965234375	0.0004585016
557.4253308105	0.0003647702
559.3541381836	-0.0001927710
561.2829455566	0.0002655803
563.2117529297	0.0002948534
565.1405603027	0.0000323961
567.0693676758	0.0002551020
568.9981750488	0.0000283533
570.9269824219	0.0002718428
572.8557897949	0.0006731220
574.7845971680	0.0001553889
576.7134045410	0.0000451450
578.6422119141	0.0001351677
580.5710192871	-0.0000328045
582.4998266602	0.0003060844
584.4286340332	0.0003774476
586.3574414063	-0.0000369032
588.2862487793	-0.0001208027
590.2150561523	0.0000288508
592.1438635254	0.0003686261
594.0726708984	0.0000739229
596.0014782715	-0.0001413555
597.9302856445	0.0003916259
599.8590930176	0.0003806071
601.7879003906	0.0004916040
603.7167077637	0.0004124957
605.6455151367	0.0004288750
607.5743225098	0.0001967311
609.5031298828	-0.0001317307
611.4319372559	0.0000942285
613.3607446289	-0.0002425275
615.2895520020	-0.0002709942
617.2183593750	-0.0003044518
619.1471667480	-0.0001558774
621.0759741211	-0.0001491378
623.0047814941	-0.0001691337
624.9335888672	-0.0000101361
626.8623962402	0.0000395669
628.7912036133	-0.0001008429
630.7200109863	0.0003982951
632.6488183594	0.0010205746
634.5776257324	0.0008255854
636.5064331055	0.0012612829
638.4352404785	0.0014394121
640.3640478516	0.0015152999
642.2928552246	0.0019905288
644.2216625977	0.0019811252
646.1504699707	0.0022344252
648.0792773438	0.0022572009
650.0080847168	0.0022191098
651.9368920898	0.0021992463
653.8656994629	0.0020879265
655.7945068359	0.0023712991
657.7233142090	0.0024349752
659.6521215820	0.0027289758
661.5809289551	0.0030960857
663.5097363281	0.0030865571
665.4385437012	0.0030282466
667.3673510742	0.0029422911
669.2961584473	0.0034618508
671.2249658203	0.0039366172
673.1537731934	0.0035705287
675.0825805664	0.0035894946
677.0113879395	0.0041134711
678.9401953125	0.0044142026
680.8690026855	0.0041880962
682.7978100586	0.0039456305
684.7266174316	0.0042956304
686.6554248047	0.0039762440
688.5842321777	0.0038563898
690.5130395508	0.0045721782
692.4418469238	0.0043786950
694.3706542969	0.0044612717
696.2994616699	0.0054597398
698.2282690430	0.0061380332
700.1570764160	0.0063540856
702.0858837891	0.0062485039
704.0146911621	0.0057868012
705.9434985352	0.0050636642
707.8723059082	0.0043495046
709.8011132813	0.0034480193
711.7299206543	0.0025213826
713.6587280273	0.0015467351
715.5875354004	0.0004965498
717.5163427734	0.0003295903
719.4451501465	0.0005724187
721.3739575195	0.0003100340
723.3027648926	0.0000967367
725.2315722656	0.0001250925
727.1603796387	0.0002101758
729.0891870117	0.0002559032
731.0179943848	-0.0000058661
732.9468017578	-0.0000818845
734.8756091309	0.0000826282
736.8044165039	0.0000896768
738.7332238770	0.0002542472
740.6620312500	0.0002683523
742.5908386230	0.0000283651
744.5196459961	-0.0000983851
746.4484533691	0.0000343142
748.3772607422	0.0002532568
750.3060681152	0.0003295960
752.2348754883	0.0002921410
754.1636828613	0.0003272858
756.0924902344	0.0002954029
758.0212976074	-0.0000229609
759.9501049805	0.0001949174
761.8789123535	0.0004977983
763.8077197266	0.0003398113
765.7365270996	0.0002476533
767.6653344727	0.0000876046
769.5941418457	0.0002168324
771.5229492188	0.0002376739
773.4517565918	0.0001698955
775.3805639648	0.0002357902
777.3093713379	0.0004476692
779.2381787109	0.0003984171
781.1669860840	0.0001266702
783.0957934570	0.0004891005
785.0246008301	0.0005182790
786.9534082031	0.0002318965
788.8822155762	0.0004428148
790.8110229492	0.0003850362
792.7398303223	0.0005742150
794.6686376953	0.0008864014
796.5974450684	0.0004321880
798.5262524414	0.0006437498
800.4550598145	0.0009926490
802.3838671875	0.0008040578
804.3126745605	0.0006607587
806.2414819336	0.0002429045
808.1702893066	0.0005386727
810.0990966797	0.0006834907
812.0279040527	0.0004289266
813.9567114258	0.0005749961
815.8855187988	0.0003818349
817.8143261719	0.0004031870
819.7431335449	0.0003215993
821.6719409180	0.0001453519
823.6007482910	0.0002753276
825.5295556641	0.0004008748
827.4583630371	0.0004455293
829.3871704102	0.0005698273
831.3159777832	0.0010361541
833.2447851563	0.0011677186
835.1735925293	0.0013231924
837.1023999023	0.0012488504
839.0312072754	0.0011251767
840.9600146484	0.0015875682
842.8888220215	0.0013857668
844.8176293945	0.0011167177
846.7464367676	0.0009831456
848.6752441406	0.0007399491
850.6040515137	0.0008029411
852.5328588867	0.0007263533
854.4616662598	0.0006859858
856.3904736328	0.0006915194
858.3192810059	0.0008018480
860.2480883789	0.0007122058
862.1768957520	0.0005634162
864.1057031250	0.0006624793
866.0345104980	0.0003891771
867.9633178711	0.0003703005
869.8921252441	0.0005406024
871.8209326172	0.0003993980
873.7497399902	0.0002266677
875.6785473633	0.0002887421
877.6073547363	0.0004738660
879.5361621094	0.0004246231
881.4649694824	0.0004710707
883.3937768555	0.0003904771
885.3225842285	0.0005794482
887.2513916016	0.0006601869
889.1801989746	0.0003720398
891.1090063477	0.0006250546
893.0378137207	0.0003920457
894.9666210938	0.0004425844
896.8954284668	0.0006295923
898.8242358398	0.0002784767
900.7530432129	0.0004719669
902.6818505859	0.0002766597
904.6106579590	0.0004230369
906.5394653320	0.0007868588
908.4682727051	0.0004876893
910.3970800781	0.0007414615
912.3258874512	0.0008731393
914.2546948242	0.0007593018
916.1835021973	0.0008647306
918.1123095703	0.0008960677
920.0411169434	0.0010644159
921.9699243164	0.0013171567
923.8987316895	0.0012870689
925.8275390625	0.0014550886
927.7563464355	0.0016977867
929.6851538086	0.0014141356
931.6139611816	0.0015513406
933.5427685547	0.0015656524
935.4715759277	0.0015563600
937.4003833008	0.0020399957
939.3291906738	0.0019046664
941.2579980469	0.0020365128
943.1868054199	0.0022735209
945.1156127930	0.0020314748
947.0444201660	0.0020312453
948.9732275391	0.0020076472
950.9020349121	0.0018578833
952.8308422852	0.0019373891
954.7596496582	0.0021344759
956.6884570313	0.0021896253
958.6172644043	0.0021808511
960.5460717773	0.0019743803
962.4748791504	0.0018280243
964.4036865234	0.0018771410
966.3324938965	0.0020408647
968.2613012695	0.0021982184
970.1901086426	0.0022891057
972.1189160156	0.0025240202
974.0477233887	0.0026762816
975.9765307617	0.0029368107
977.9053381348	0.0030039062
979.8341455078	0.0031950173
981.7629528809	0.0034712474
983.6917602539	0.0036473973
985.6205676270	0.0045387475
987.5493750000	0.0050028111
989.4781823730	0.0052857241
991.4069897461	0.0058337534
993.3357971191	0.0063099181
995.2646044922	0.0072507877
997.1934118652	0.0079819718
999.1222192383	0.0082681999
1001.0510266113	0.0087736808
1002.9798339844	0.0097805858
1004.9086413574	0.0102739455
1006.8374487305	0.0107044149
1008.7662561035	0.0116968257
1010.6950634766	0.0122369286
1012.6238708496	0.0128928507
1014.5526782227	0.0136441067
1016.4814855957	0.0141779035
1018.4102929688	0.0149198417
1020.3391003418	0.0156029128
1022.2679077148	0.0160565190
1024.1967150879	0.0168110654
1026.1255224609	0.0174641330
1028.0543298340	0.0178058632
1029.9831372070	0.0185676180
1031.9119445801	0.0188911855
1033.8407519531	0.0192258582
1035.7695593262	0.0197336022
1037.6983666992	0.0197791606
1039.6271740723	0.0200699121
1041.5559814453	0.0200032033
1043.4847888184	0.0197518654
1045.4135961914	0.0195103064
1047.3424035645	0.0192101672
1049.2712109375	0.0192192756
1051.2000183105	0.0186834410
1053.1288256836	0.0180909522
1055.0576330566	0.0179962516
1056.9864404297	0.0174344387
1058.9152478027	0.0167664811
1060.8440551758	0.0165675804
1062.7728625488	0.0161499474
1064.7016699219	0.0154847447
1066.6304772949	0.0149317812
1068.5592846680	0.0143944435
1070.4880920410	0.0137849208
1072.4168994141	0.0132099707
1074.3457067871	0.0125128999
1076.2745141602	0.0118914675
1078.2033215332	0.0114663392
1080.1321289062	0.0105751846
1082.0609362793	0.0100648496
1083.9897436523	0.0098906849
1085.9185510254	0.0092938663
1087.8473583984	0.0089493468
1089.7761657715	0.0085505545
1091.7049731445	0.0081661055
1093.6337805176	0.0079240836
1095.5625878906	0.0075911479
1097.4913952637	0.0073348926
1099.4202026367	0.0070778420
1101.3490100098	0.0070142779
1103.2778173828	0.0067966180
1105.2066247559	0.0064936685
1107.1354321289	0.0066982238
1109.0642395019	0.0066405153
1110.9930468750	0.0062907841
1112.9218542480	0.0063035139
1114.8506616211	0.0061900821
1116.7794689941	0.0062507633
1118.7082763672	0.0063372939
1120.6370837402	0.0060849879
1122.5658911133	0.0061398372
1124.4946984863	0.0062457556
1126.4235058594	0.0064137401
1128.3523132324	0.0066764988
1130.2811206055	0.0068272967
1132.2099279785	0.0068916632
1134.1387353516	0.0071415822
1136.0675427246	0.0074336054
1137.9963500977	0.0075404607
1139.9251574707	0.0083329733
1141.8539648437	0.0091417274
1143.7827722168	0.0093894107
1145.7115795898	0.0096418913
1147.6403869629	0.0104088057
1149.5691943359	0.0114196539
1151.4980017090	0.0117235817
1153.4268090820	0.0121128988
1155.3556164551	0.0126473196
1157.2844238281	0.0131360814
1159.2132312012	0.0138235036
1161.1420385742	0.0142813474
1163.0708459473	0.0147199929
1164.9996533203	0.0151494667
1166.9284606934	0.0156508666
1168.8572680664	0.0165126901
1170.7860754394	0.0173249245
1172.7148828125	0.0177084915
1174.6436901855	0.0183182023
1176.5724975586	0.0190193690
1178.5013049316	0.0196855720
1180.4301123047	0.0204284079
1182.3589196777	0.0211272035
1184.2877270508	0.0223874282
1186.2165344238	0.0233901907
1188.1453417969	0.0243520588
1190.0741491699	0.0255489629
1192.0029565430	0.0267002396
1193.9317639160	0.0280558486
1195.8605712891	0.0290248692
1197.7893786621	0.0305780172
1199.7181860351	0.0321632028
1201.6469934082	0.0331595317
1203.5758007812	0.0345451012
1205.5046081543	0.0357345641
1207.4334155273	0.0368918180
1209.3622229004	0.0382027477
1211.2910302734	0.0392731242
1213.2198376465	0.0406400524
1215.1486450195	0.0417615771
1217.0774523926	0.0422032215
1219.0062597656	0.0430922993
1220.9350671387	0.0437568203
1222.8638745117	0.0442625955
1224.7926818848	0.0448713005
1226.7214892578	0.0450394861
1228.6502966308	0.0454261340
1230.5791040039	0.0454442389
1232.5079113769	0.0457536802
1234.4367187500	0.0458274335
1236.3655261230	0.0454131886
1238.2943334961	0.0456525087
1240.2231408691	0.0454356149
1242.1519482422	0.0452044532
1244.0807556152	0.0450090319
1246.0095629883	0.0448866040
1247.9383703613	0.0446877182
1249.8671777344	0.0442310013
1251.7959851074	0.0440529361
1253.7247924805	0.0434881523
1255.6535998535	0.0428461283
1257.5824072266	0.0422355980
1259.5112145996	0.0419051126
1261.4400219726	0.0413117930
1263.3688293457	0.0405259691
1265.2976367187	0.0399656147
1267.2264440918	0.0392092429
1269.1552514648	0.0390419327
1271.0840588379	0.0385157354
1273.0128662109	0.0378021300
1274.9416735840	0.0372805074
1276.8704809570	0.0364296958
1278.7992883301	0.0357637405
1280.7280957031	0.0350147337
1282.6569030762	0.0343321562
1284.5857104492	0.0337019414
1286.5145178223	0.0330425128
1288.4433251953	0.0326311812
1290.3721325683	0.0322746933
1292.3009399414	0.0316696055
1294.2297473144	0.0315043330
1296.1585546875	0.0314457752
1298.0873620605	0.0311441142
1300.0161694336	0.0313956365
1301.9449768066	0.0314393975
1303.8737841797	0.0316061452
1305.8025915527	0.0320695788
1307.7313989258	0.0324953198
1309.6602062988	0.0330551639
1311.5890136719	0.0336177200
1313.5178210449	0.0342768468
1315.4466284180	0.0350464322
1317.3754357910	0.0359827876
1319.3042431640	0.0366202891
1321.2330505371	0.0378643200
1323.1618579101	0.0392516926
1325.0906652832	0.0402527228
1327.0194726562	0.0415494964
1328.9482800293	0.0424682274
1330.8770874023	0.0435036644
1332.8058947754	0.0444489121
1334.7347021484	0.0453130193
1336.6635095215	0.0457661189
1338.5923168945	0.0456481799
1340.5211242676	0.0463342965
1342.4499316406	0.0476703309
1344.3787390137	0.0482218154
1346.3075463867	0.0478427857
1348.2363537597	0.0479155183
1350.1651611328	0.0476651788
1352.0939685058	0.0472923629
1354.0227758789	0.0470323041
1355.9515832519	0.0464949459
1357.8803906250	0.0462842062
1359.8091979980	0.0455640629
1361.7380053711	0.0439805761
1363.6668127441	0.0435379446
1365.5956201172	0.0449671149
1367.5244274902	0.0439434201
1369.4532348633	0.0434931628
1371.3820422363	0.0443068184
1373.3108496094	0.0422873013
1375.2396569824	0.0426037796
1377.1684643555	0.0434263274
1379.0972717285	0.0431996807
1381.0260791015	0.0432369076
1382.9548864746	0.0430095010
1384.8836938476	0.0431405082
1386.8125012207	0.0415641442
1388.7413085937	0.0421834663
1390.6701159668	0.0447287783
1392.5989233398	0.0437922925
1394.5277307129	0.0420159474
1396.4565380859	0.0436517783
1398.3853454590	0.0435326546
1400.3141528320	0.0433632508
1402.2429602051	0.0460988656
1404.1717675781	0.0440927893
1406.1005749512	0.0444274731
1408.0293823242	0.0454329401
1409.9581896972	0.0440682694
1411.8869970703	0.0447798930
1413.8158044433	0.0433003865
1415.7446118164	0.0441300720
1417.6734191894	0.0402669683
1419.6022265625	0.0370693915
1421.5310339355	0.0413471423
1423.4598413086	0.0397796407
1425.3886486816	0.0388973504
1427.3174560547	0.0389002487
1429.2462634277	0.0362506025
1431.1750708008	0.0353358500
1433.1038781738	0.0353870019
1435.0326855469	0.0326955467
1436.9614929199	0.0287724994
1438.8903002929	0.0315137580
1440.8191076660	0.0316911899
1442.7479150390	0.0297729447
1444.6767224121	0.0309502780
1446.6055297851	0.0287982970
1448.5343371582	0.0291049629
1450.4631445312	0.0299048238
1452.3919519043	0.0305186845
1454.3207592773	0.0317749567
1456.2495666504	0.0275785662
1458.1783740234	0.0290988237
1460.1071813965	0.0365015566
1462.0359887695	0.0382231995
1463.9647961426	0.0386931077
1465.8936035156	0.0403709784
1467.8224108886	0.0453805327
1469.7512182617	0.0485707931
1471.6800256347	0.0450600199
1473.6088330078	0.0479080118
1475.5376403808	0.0530429110
1477.4664477539	0.0567667410
1479.3952551269	0.0615985692
1481.3240625000	0.0626359209
1483.2528698730	0.0663859397
1485.1816772461	0.0683050826
1487.1104846191	0.0682064891
1489.0392919922	0.0686644539
1490.9680993652	0.0694181249
1492.8969067383	0.0783045739
1494.8257141113	0.0768432915
1496.7545214843	0.0715463683
1498.6833288574	0.0793280005
1500.6121362304	0.0811751932
1502.5409436035	0.0858816057
1504.4697509765	0.0818875730
1506.3985583496	0.0652173012
1508.3273657226	0.0765634552
1510.2561730957	0.0859161466
1512.1849804687	0.0839770436
1514.1137878418	0.0892446935
1516.0425952148	0.0827825516
1517.9714025879	0.0859368443
1519.9002099609	0.0827803463
1521.8290173340	0.0751770660
1523.7578247070	0.0874159634
1525.6866320801	0.0858795568
1527.6154394531	0.0862528384
1529.5442468261	0.0927189291
1531.4730541992	0.0898502395
1533.4018615722	0.0843115151
1535.3306689453	0.0881966799
1537.2594763183	0.0920478851
1539.1882836914	0.0714976490
1541.1170910644	0.0746787637
1543.0458984375	0.0853411034
1544.9747058105	0.0829617083
1546.9035131836	0.0938128829
1548.8323205566	0.0888948813
1550.7611279297	0.0914953798
1552.6899353027	0.0905645937
1554.6187426758	0.0846897960
1556.5475500488	0.0890326202
1558.4763574218	0.0684906095
1560.4051647949	0.0728881583
1562.3339721679	0.0946363509
1564.2627795410	0.0905573815
1566.1915869140	0.0922942013
1568.1203942871	0.0913703963
1570.0492016601	0.0838435292
1571.9780090332	0.0931804776
1573.9068164062	0.0935107991
1575.8356237793	0.0783713907
1577.7644311523	0.0863028169
1579.6932385254	0.0946833044
1581.6220458984	0.0911980271
1583.5508532715	0.0932839364
1585.4796606445	0.0920181125
1587.4084680175	0.0925775617
1589.3372753906	0.0920935348
1591.2660827636	0.0919398889
1593.1948901367	0.0920358300
1595.1236975097	0.0911713988
1597.0525048828	0.0921289399
1598.9813122558	0.0915333629
1600.9101196289	0.0920073837
1602.8389270019	0.0906523317
1604.7677343750	0.0918666422
1606.6965417480	0.0908946991
1608.6253491211	0.0908028483
1610.5541564941	0.0906669199
1612.4829638672	0.0909503251
1614.4117712402	0.0917664021
1616.3405786132	0.0787033662
1618.2693859863	0.0842148140
1620.1981933593	0.0939761102
1622.1270007324	0.0857281834
1624.0558081054	0.0866870955
1625.9846154785	0.0893320292
1627.9134228515	0.0892810747
1629.8422302246	0.0886311233
1631.7710375976	0.0931222290
1633.6998449707	0.0873904377
1635.6286523437	0.0757225677
1637.5574597168	0.0853995308
1639.4862670898	0.0912910402
1641.4150744629	0.0896959305
1643.3438818359	0.0914315879
1645.2726892090	0.0839727074
1647.2014965820	0.0770725384
1649.1303039550	0.0911057144
1651.0591113281	0.0858598799
1652.9879187011	0.0619632453
1654.9167260742	0.0789749771
1656.8455334472	0.0933017656
1658.7743408203	0.0896931514
1660.7031481933	0.0919359326
1662.6319555664	0.0855744481
1664.5607629394	0.0893987417
1666.4895703125	0.0938339829
1668.4183776855	0.0847314894
1670.3471850586	0.0832837075
1672.2759924316	0.0911583304
1674.2047998047	0.0856226385
1676.1336071777	0.0833937526
1678.0624145507	0.0923655331
1679.9912219238	0.0895381123
1681.9200292968	0.0893936753
1683.8488366699	0.0757711232
1685.7776440429	0.0757222623
1687.7064514160	0.0964804441
1689.6352587890	0.0859923959
1691.5640661621	0.0928749219
1693.4928735351	0.0933426246
1695.4216809082	0.0737687647
1697.3504882812	0.0865622759
1699.2792956543	0.0782710612
1701.2081030273	0.0732656121
1703.1369104004	0.0918234810
1705.0657177734	0.0857092440
1706.9945251464	0.0865255296
1708.9233325195	0.0917420685
1710.8521398925	0.0887792259
1712.7809472656	0.0901255906
1714.7097546386	0.0850106776
1716.6385620117	0.0780952275
1718.5673693847	0.0774092227
1720.4961767578	0.0880155712
1722.4249841308	0.0898250490
1724.3537915039	0.0850561932
1726.2825988769	0.0905008391
1728.2114062500	0.0847913027
1730.1402136230	0.0859047771
1732.0690209961	0.0833561122
1733.9978283691	0.0681666434
1735.9266357421	0.0804938674
1737.8554431152	0.0864170343
1739.7842504882	0.0792902038
1741.7130578613	0.0848416537
1743.6418652343	0.0858266205
1745.5706726074	0.0859533101
1747.4994799804	0.0868074298
1749.4282873535	0.0837617218
1751.3570947265	0.0809380040
1753.2859020996	0.0878549814
1755.2147094726	0.0906872749
1757.1435168457	0.0848408043
1759.0723242187	0.0909551159
1761.0011315918	0.0864989460
1762.9299389648	0.0847845078
1764.8587463379	0.0935136527
1766.7875537109	0.0861689746
1768.7163610839	0.0871382356
1770.6451684570	0.0864323974
1772.5739758300	0.0798429996
1774.5027832031	0.0868754834
1776.4315905761	0.0902499557
1778.3603979492	0.0893013328
1780.2892053222	0.0885361880
1782.2180126953	0.0888576061
1784.1468200683	0.0888320506
1786.0756274414	0.0874688327
1788.0044348144	0.0909153149
1789.9332421875	0.0890568793
1791.8620495605	0.0827731788
1793.7908569336	0.0856104642
1795.7196643066	0.0899526849
1797.6484716796	0.0890327692
1799.5772790527	0.0879391804
1801.5060864257	0.0869208872
1803.4348937988	0.0891408622
1805.3637011718	0.0903240591
1807.2925085449	0.0893392339
1809.2213159179	0.0896402895
1811.1501232910	0.0880351514
1813.0789306640	0.0899042487
1815.0077380371	0.0900577009
1816.9365454101	0.0893810242
1818.8653527832	0.0897961780
1820.7941601562	0.0896028802
1822.7229675293	0.0904116184
1824.6517749023	0.0859875530
1826.5805822753	0.0884856582
1828.5093896484	0.0883257017
1830.4381970214	0.0845007971
1832.3670043945	0.0898765847
1834.2958117675	0.0892890394
1836.2246191406	0.0892717540
1838.1534265136	0.0886904001
1840.0822338867	0.0892488062
1842.0110412597	0.0892401487
1843.9398486328	0.0817200392
1845.8686560058	0.0857240111
1847.7974633789	0.0889570117
1849.7262707519	0.0875345320
1851.6550781250	0.0893237740
1853.5838854980	0.0880035013
1855.5126928710	0.0886136889
1857.4415002441	0.0881756917
1859.3703076171	0.0877505243
1861.2991149902	0.0880814418
1863.2279223632	0.0873480439
1865.1567297363	0.0878668055
1867.0855371093	0.0857309699
1869.0143444824	0.0830645561
1870.9431518554	0.0854246020
1872.8719592285	0.0877883956
1874.8007666015	0.0867118984
1876.7295739746	0.0871425271
1878.6583813476	0.0866080225
1880.5871887207	0.0863008350
1882.5159960937	0.0867296606
1884.4448034667	0.0854832530
1886.3736108398	0.0865162686
1888.3024182128	0.0849346519
1890.2312255859	0.0838670582
1892.1600329589	0.0859707147
1894.0888403320	0.0848830789
1896.0176477050	0.0847821757
1897.9464550781	0.0853679478
1899.8752624511	0.0851419717
1901.8040698242	0.0852129087
1903.7328771972	0.0846434683
1905.6616845703	0.0849431008
1907.5904919433	0.0842017531
1909.5192993164	0.0837704092
1911.4481066894	0.0841426104
1913.3769140625	0.0842879415
1915.3057214355	0.0848007724
1917.2345288085	0.0818100423
1919.1633361816	0.0818659067
1921.0921435546	0.0841709822
1923.0209509277	0.0821442306
1924.9497583007	0.0832850337
1926.8785656738	0.0839703158
1928.8073730468	0.0830372274
1930.7361804199	0.0836050510
1932.6649877929	0.0831111670
1934.5937951660	0.0835150629
1936.5226025390	0.0829659179
1938.4514099121	0.0831297189
1940.3802172851	0.0828883946
1942.3090246582	0.0812918097
1944.2378320312	0.0822668672
1946.1666394042	0.0828573778
1948.0954467773	0.0826998800
1950.0242541503	0.0825353861
1951.9530615234	0.0825648457
1953.8818688964	0.0825492740
1955.8106762695	0.0822294354
1957.7394836425	0.0824834555
1959.6682910156	0.0822297707
1961.5970983886	0.0822044834
1963.5259057617	0.0822123811
1965.4547131347	0.0817202330
1967.3835205078	0.0812843889
1969.3123278808	0.0816113204
1971.2411352539	0.0818663165
1973.1699426269	0.0815492868
1975.0987499999	0.0818261504
1977.0275573730	0.0815983415
1978.9563647460	0.0815170854
1980.8851721191	0.0814249367
1982.8139794921	0.0810918286
1984.7427868652	0.0810862482
1986.6715942382	0.0806791410
1988.6004016113	0.0808353946
1990.5292089843	0.0802135468
1992.4580163574	0.0795258731
1994.3868237304	0.0802265704
1996.3156311035	0.0802280009
1998.2444384765	0.0800403506
2000.1732458496	0.0800063610
2002.1020532226	0.0796612427
2004.0308605956	0.0795596093
2005.9596679687	0.0794181228
2007.8884753417	0.0791305751
2009.8172827148	0.0789598450
2011.7460900878	0.0788771808
2013.6748974609	0.0787067413
2015.6037048339	0.0782325566
2017.5325122070	0.0778200626
2019.4613195800	0.0780582950
2021.3901269531	0.0781012699
2023.3189343261	0.0776876360
2025.2477416992	0.0776493773
2027.1765490722	0.0775038749
2029.1053564453	0.0772441030
2031.0341638183	0.0770925954
2032.9629711914	0.0769494474
2034.8917785644	0.0768622160
2036.8205859374	0.0765429884
2038.7493933105	0.0764615834
2040.6782006835	0.0760935694
2042.6070080566	0.0757064745
2044.5358154296	0.0760020167
2046.4646228027	0.0758013874
2048.3934301757	0.0756341964
2050.3222375488	0.0755323470
2052.2510449218	0.0751234964
2054.1798522949	0.0750916898
2056.1086596679	0.0750197992
2058.0374670410	0.0747801661
2059.9662744140	0.0746496916
2061.8950817871	0.0744879246
2063.8238891601	0.0740881711
2065.7526965331	0.0739482716
2067.6815039062	0.0739847869
2069.6103112792	0.0738372952
2071.5391186523	0.0737185478
2073.4679260253	0.0735290498
2075.3967333984	0.0733915418
2077.3255407714	0.0732031316
2079.2543481445	0.0729937404
2081.1831555175	0.0728452653
2083.1119628906	0.0727868527
2085.0407702636	0.0726744384
2086.9695776367	0.0724327043
2088.8983850097	0.0722312331
2090.8271923828	0.0720543861
2092.7559997558	0.0720496476
2094.6848071288	0.0718607008
2096.6136145019	0.0717367008
2098.5424218749	0.0715875179
2100.4712292480	0.0714253634
2102.4000366210	0.0715260878
2104.3288439941	0.0713099688
2106.2576513671	0.0711282939
2108.1864587402	0.0709838867
2110.1152661132	0.0709425583
2112.0440734863	0.0708010495
2113.9728808593	0.0706233531
2115.9016882324	0.0705732107
2117.8304956054	0.0702160150
2119.7593029785	0.0702312440
2121.6881103515	0.0702558607
2123.6169177245	0.0700935200
2125.5457250976	0.0699112415
2127.4745324706	0.0698261410
2129.4033398437	0.0697976127
2131.3321472167	0.0696022362
2133.2609545898	0.0695706084
2135.1897619628	0.0692788586
2137.1185693359	0.0692670196
2139.0473767089	0.0692500770
2140.9761840820	0.0690449327
2142.9049914550	0.0690627471
2144.8337988281	0.0688371286
2146.7626062011	0.0688312948
2148.6914135742	0.0688181370
2150.6202209472	0.0686981753
2152.5490283203	0.0685338080
2154.4778356933	0.0684358627
2156.4066430663	0.0683954507
2158.3354504394	0.0681973696
2160.2642578124	0.0681409910
2162.1930651855	0.0682253838
2164.1218725585	0.0681935474
2166.0506799316	0.0677996278
2167.9794873046	0.0678108931
2169.9082946777	0.0677145645
2171.8371020507	0.0676101148
2173.7659094238	0.0677967072
2175.6947167968	0.0674451888
2177.6235241699	0.0674108267
2179.5523315429	0.0672813803
2181.4811389160	0.0672502816
2183.4099462890	0.0672912151
2185.3387536620	0.0669666082
2187.2675610351	0.0670252740
2189.1963684081	0.0669088811
2191.1251757812	0.0667558014
2193.0539831542	0.0666608438
2194.9827905273	0.0665101185
2196.9115979003	0.0663981289
2198.8404052734	0.0664182007
2200.7692126464	0.0663513094
2202.6980200195	0.0661398917
2204.6268273925	0.0661473274
2206.5556347656	0.0660311952
2208.4844421386	0.0660011247
2210.4132495117	0.0658070594
2212.3420568847	0.0657948852
2214.2708642577	0.0658004060
2216.1996716308	0.0655341297
2218.1284790038	0.0655299574
2220.0572863769	0.0652311295
2221.9860937499	0.0652603656
2223.9149011230	0.0653158203
2225.8437084960	0.0652026907
2227.7725158691	0.0651654676
2229.7013232421	0.0647642836
2231.6301306152	0.0647035539
2233.5589379882	0.0647974461
2235.4877453613	0.0647383407
2237.4165527343	0.0645809174
2239.3453601074	0.0644176528
2241.2741674804	0.0642886013
2243.2029748534	0.0642401874
2245.1317822265	0.0640615076
2247.0605895995	0.0638730824
2248.9893969726	0.0639539808
2250.9182043456	0.0636887848
2252.8470117187	0.0636816770
2254.7758190917	0.0635921732
2256.7046264648	0.0633525401
2258.6334338378	0.0634503365
2260.5622412109	0.0632403344
2262.4910485839	0.0632013455
2264.4198559570	0.0630875379
2266.3486633300	0.0629584193
2268.2774707031	0.0630002469
2270.2062780761	0.0628465563
2272.1350854491	0.0627197698
2274.0638928222	0.0626377016
2275.9927001952	0.0625923127
2277.9215075683	0.0624881163
2279.8503149413	0.0624519847
2281.7791223144	0.0623448491
2283.7079296874	0.0622934625
2285.6367370605	0.0621948540
2287.5655444335	0.0620381087
2289.4943518066	0.0620297492
2291.4231591796	0.0617580675
2293.3519665527	0.0616408214
2295.2807739257	0.0614892244
2297.2095812988	0.0611939952
2299.1383886718	0.0610373244
2301.0671960449	0.0607884303
2302.9960034179	0.0605443232
2304.9248107909	0.0603028424
2306.8536181640	0.0600062460
2308.7824255370	0.0595592782
2310.7112329101	0.0592033863
2312.6400402831	0.0587163456
2314.5688476562	0.0581809953
2316.4976550292	0.0577539727
2318.4264624023	0.0571115240
2320.3552697753	0.0565929934
2322.2840771484	0.0558762029
2324.2128845214	0.0552910119
2326.1416918945	0.0548432246
2328.0704992675	0.0541024581
2329.9993066406	0.0537531748
2331.9281140136	0.0534672961
2333.8569213866	0.0532024130
2335.7857287597	0.0531018935
2337.7145361327	0.0530317724
2339.6433435058	0.0529843755
2341.5721508788	0.0531100072
2343.5009582519	0.0538151413
2345.4297656249	0.0545465350
2347.3585729980	0.0561229885
2349.2873803710	0.0575035438
2351.2161877441	0.0559756607
2353.1449951171	0.0536702611
2355.0738024902	0.0521703362
2357.0026098632	0.0509311445
2358.9314172363	0.0501167625
2360.8602246093	0.0495826229
2362.7890319823	0.0495111607
2364.7178393554	0.0496405363
2366.6466467284	0.0501181558
2368.5754541015	0.0509077311
2370.5042614745	0.0517961346
2372.4330688476	0.0529304594
2374.3618762206	0.0540390201
2376.2906835937	0.0552385859
2378.2194909667	0.0561064892
2380.1482983398	0.0568243861
2382.0771057128	0.0573788136
2384.0059130859	0.0573764071
2385.9347204589	0.0574994311
2387.8635278320	0.0576763041
2389.7923352050	0.0576018095
2391.7211425780	0.0573934652
2393.6499499511	0.0574203208
2395.5787573241	0.0573500618
2397.5075646972	0.0571828038
2399.4363720702	0.0572603866
2401.3651794433	0.0571124069
2403.2939868163	0.0569754988
2405.2227941894	0.0568575710
2407.1516015624	0.0568990223
2409.0804089355	0.0568971112
2411.0092163085	0.0566804409
2412.9380236816	0.0567169487
2414.8668310546	0.0566325039
2416.7956384277	0.0564637296
2418.7244458007	0.0563025549
2420.6532531738	0.0562219098
2422.5820605468	0.0561329126
2424.5108679198	0.0560669415
2426.4396752929	0.0560287386
2428.3684826659	0.0559109524
2430.2972900390	0.0559991188
2432.2260974120	0.0556917228
2434.1549047851	0.0555522516
2436.0837121581	0.0556881875
2438.0125195312	0.0554807633
2439.9413269042	0.0554297715
2441.8701342773	0.0553441867
2443.7989416503	0.0553652905
2445.7277490234	0.0552115738
2447.6565563964	0.0550613888
2449.5853637695	0.0551518947
2451.5141711425	0.0548458695
2453.4429785155	0.0548228025
2455.3717858886	0.0548658147
2457.3005932616	0.0546762273
2459.2294006347	0.0546773970
2461.1582080077	0.0546393506
2463.0870153808	0.0546103865
2465.0158227538	0.0544344485
2466.9446301269	0.0542526469
2468.8734374999	0.0542228743
2470.8022448730	0.0541660674
2472.7310522460	0.0541153699
2474.6598596191	0.0539114550
2476.5886669921	0.0539088994
2478.5174743652	0.0540017597
2480.4462817382	0.0537469313
2482.3750891112	0.0536011979
2484.3038964843	0.0536352396
2486.2327038573	0.0536128581
2488.1615112304	0.0534748137
2490.0903186034	0.0533554256
2492.0191259765	0.0533084236
2493.9479333495	0.0532542281
2495.8767407226	0.0531136319
2497.8055480956	0.0529076606
2499.7343554687	0.0529924221
2501.6631628417	0.0529427044
2503.5919702148	0.0527642332
2505.5207775878	0.0527039245
2507.4495849609	0.0525251850
2509.3783923339	0.0525138751
2511.3071997069	0.0524527282
2513.2360070800	0.0524459332
2515.1648144530	0.0524495393
2517.0936218261	0.0523361005
2519.0224291991	0.0523313954
2520.9512365722	0.0521780923
2522.8800439452	0.0521323122
2524.8088513183	0.0519861057
2526.7376586913	0.0518002138
2528.6664660644	0.0518702753
2530.5952734374	0.0517851785
2532.5240808105	0.0516578332
2534.4528881835	0.0515893102
2536.3816955566	0.0515555814
2538.3105029296	0.0514517054
2540.2393103027	0.0513963662
2542.1681176757	0.0514571182
2544.0969250487	0.0513722077
2546.0257324218	0.0512548238
2547.9545397948	0.0511353984
2549.8833471679	0.0510855839
2551.8121545409	0.0510516614
2553.7409619140	0.0509447455
2555.6697692870	0.0508725084
2557.5985766601	0.0507154875
2559.5273840331	0.0506651476
2561.4561914062	0.0507109463
2563.3849987792	0.0505830571
2565.3138061523	0.0505009368
2567.2426135253	0.0503950529
2569.1714208984	0.0502141044
2571.1002282714	0.0502222702
2573.0290356444	0.0502555296
2574.9578430175	0.0500824749
2576.8866503905	0.0499514565
2578.8154577636	0.0499192402
2580.7442651366	0.0497741066
2582.6730725097	0.0498285964
2584.6018798827	0.0497810021
2586.5306872558	0.0495939702
2588.4594946288	0.0496276245
2590.3883020019	0.0494217426
2592.3171093749	0.0493102446
2594.2459167480	0.0492528826
2596.1747241210	0.0491714105
2598.1035314941	0.0492227748
2600.0323388671	0.0491281934
2601.9611462401	0.0491672233
2603.8899536132	0.0490138307
2605.8187609862	0.0488237962
2607.7475683593	0.0488855019
2609.6763757323	0.0488243848
2611.6051831054	0.0486452766
2613.5339904784	0.0484933108
2615.4627978515	0.0484689102
2617.3916052245	0.0485051647
2619.3204125976	0.0485020876
2621.2492199706	0.0482396781
2623.1780273437	0.0481828414
2625.1068347167	0.0481968708
2627.0356420898	0.0480158627
2628.9644494628	0.0480391979
2630.8932568358	0.0479710288
2632.8220642089	0.0478533059
2634.7508715819	0.0476843268
2636.6796789550	0.0477520600
2638.6084863280	0.0477502421
2640.5372937011	0.0475363545
2642.4661010741	0.0475811511
2644.3949084472	0.0474682935
2646.3237158202	0.0474234745
2648.2525231933	0.0472436845
2650.1813305663	0.0471635461
2652.1101379394	0.0472132415
2654.0389453124	0.0469835140
2655.9677526855	0.0468986109
2657.8965600585	0.0468504690
2659.8253674315	0.0469187424
2661.7541748046	0.0468367301
2663.6829821776	0.0467635244
2665.6117895507	0.0466444790
2667.5405969237	0.0464467220
2669.4694042968	0.0465098992
2671.3982116698	0.0464492626
2673.3270190429	0.0464377403
2675.2558264159	0.0462602451
2677.1846337890	0.0461507440
2679.1134411620	0.0460917726
2681.0422485351	0.0460250303
2682.9710559081	0.0460799485
2684.8998632812	0.0458338484
2686.8286706542	0.0457820371
2688.7574780273	0.0457519703
2690.6862854003	0.0457076132
2692.6150927733	0.0456567630
2694.5439001464	0.0456242561
2696.4727075194	0.0456130058
2698.4015148925	0.0454332680
2700.3303222655	0.0454439931
2702.2591296386	0.0452902131
2704.1879370116	0.0452372730
2706.1167443847	0.0450422727
2708.0455517577	0.0449267849
2709.9743591308	0.0451226532
2711.9031665038	0.0448420048
2713.8319738769	0.0447959676
2715.7607812499	0.0448330045
2717.6895886230	0.0447606184
2719.6183959960	0.0446813256
2721.5472033690	0.0444980338
2723.4760107421	0.0444808677
2725.4048181151	0.0445046946
2727.3336254882	0.0444720723
2729.2624328612	0.0442528948
2731.1912402343	0.0442245305
2733.1200476073	0.0441135839
2735.0488549804	0.0439392775
2736.9776623534	0.0439951941
2738.9064697265	0.0439116433
2740.8352770995	0.0438324697
2742.7640844726	0.0437246189
2744.6928918456	0.0436890721
2746.6216992187	0.0436038710
2748.5505065917	0.0435384437
2750.4793139647	0.0434956104
2752.4081213378	0.0433037430
2754.3369287108	0.0432779863
2756.2657360839	0.0432242081
2758.1945434569	0.0431453548
2760.1233508300	0.0430841856
2762.0521582030	0.0430585146
2763.9809655761	0.0430073962
2765.9097729491	0.0429153144
2767.8385803222	0.0428562686
2769.7673876952	0.0426596478
2771.6961950683	0.0425770506
2773.6250024413	0.0425137654
2775.5538098144	0.0424605943
2777.4826171874	0.0424851552
2779.4114245604	0.0423197374
2781.3402319335	0.0421763137
2783.2690393065	0.0421579480
2785.1978466796	0.0420228094
2787.1266540526	0.0419497862
2789.0554614257	0.0419842675
2790.9842687987	0.0418577380
2792.9130761718	0.0418062583
2794.8418835448	0.0417206958
2796.7706909179	0.0416554324
2798.6994982909	0.0415843427
2800.6283056640	0.0412875637
2802.5571130370	0.0412560776
2804.4859204101	0.0412782282
2806.4147277831	0.0412806459
2808.3435351562	0.0412424207
2810.2723425292	0.0410865210
2812.2011499022	0.0410306081
2814.1299572753	0.0408705473
2816.0587646483	0.0408251025
2817.9875720214	0.0407204330
2819.9163793944	0.0405961126
2821.8451867675	0.0405545048
2823.7739941405	0.0403854474
2825.7028015136	0.0403924510
2827.6316088866	0.0402813256
2829.5604162597	0.0402386114
2831.4892236327	0.0402385779
2833.4180310058	0.0400441960
2835.3468383788	0.0400355235
2837.2756457519	0.0398362353
2839.2044531249	0.0396990776
2841.1332604979	0.0396604054
2843.0620678710	0.0394873843
2844.9908752440	0.0392915308
2846.9196826171	0.0389234535
2848.8484899901	0.0389089063
2850.7772973632	0.0387516581
2852.7061047362	0.0385524929
2854.6349121093	0.0387543514
2856.5637194823	0.0386223719
2858.4925268554	0.0386051312
2860.4213342284	0.0385083482
2862.3501416015	0.0383303799
2864.2789489745	0.0384042561
2866.2077563476	0.0383091792
2868.1365637206	0.0382683352
2870.0653710936	0.0381841585
2871.9941784667	0.0380972549
2873.9229858397	0.0380048007
2875.8517932128	0.0379902273
2877.7806005858	0.0380018726
2879.7094079589	0.0378730968
2881.6382153319	0.0378669128
2883.5670227050	0.0377365276
2885.4958300780	0.0376499519
2887.4246374511	0.0375600159
2889.3534448241	0.0375587195
2891.2822521972	0.0375210866
2893.2110595702	0.0371720307
2895.1398669433	0.0372308679
2897.0686743163	0.0372348875
2898.9974816893	0.0370203406
2900.9262890624	0.0369849764
2902.8550964354	0.0369473547
2904.7839038085	0.0368839726
2906.7127111815	0.0366334543
2908.6415185546	0.0364409834
2910.5703259276	0.0363407806
2912.4991333007	0.0361163393
2914.4279406737	0.0358801000
2916.3567480468	0.0357625186
2918.2855554198	0.0357851312
2920.2143627929	0.0357614905
2922.1431701659	0.0356627405
2924.0719775390	0.0355958715
2926.0007849120	0.0354658812
2927.9295922851	0.0353367999
2929.8583996581	0.0353740491
2931.7872070311	0.0353817232
2933.7160144042	0.0353082940
2935.6448217772	0.0353160016
2937.5736291503	0.0353795998
2939.5024365233	0.0353514478
2941.4312438964	0.0353472903
2943.3600512694	0.0353446938
2945.2888586425	0.0352237746
2947.2176660155	0.0351886377
2949.1464733886	0.0351965725
2951.0752807616	0.0351732895
2953.0040881347	0.0350007899
2954.9328955077	0.0348873138
2956.8617028808	0.0347955003
2958.7905102538	0.0346481912
2960.7193176268	0.0346214920
2962.6481249999	0.0344481468
2964.5769323729	0.0344799459
2966.5057397460	0.0343979076
2968.4345471190	0.0343544222
2970.3633544921	0.0345634818
2972.2921618651	0.0344316214
2974.2209692382	0.0344706215
2976.1497766112	0.0344920903
2978.0785839843	0.0345441028
2980.0073913573	0.0344827324
2981.9361987304	0.0343396775
2983.8650061034	0.0344549865
2985.7938134765	0.0343030170
2987.7226208495	0.0343024768
2989.6514282225	0.0342529304
2991.5802355956	0.0341839641
2993.5090429686	0.0341261998
2995.4378503417	0.0339988098
2997.3666577147	0.0340858847
2999.2954650878	0.0340155102
3001.2242724608	0.0339834541
3003.1530798339	0.0338157192
3005.0818872069	0.0337899961
3007.0106945800	0.0337693468
3008.9395019530	0.0336089246
3010.8683093261	0.0336753950
3012.7971166991	0.0335085317
3014.7259240722	0.0334247425
3016.6547314452	0.0332829654
3018.5835388182	0.0332572609
3020.5123461913	0.0333186314
3022.4411535643	0.0330957696
3024.3699609374	0.0330791324
3026.2987683104	0.0329725817
3028.2275756835	0.0328573436
3030.1563830565	0.0328728929
3032.0851904296	0.0328078866
3034.0139978026	0.0327045321
3035.9428051757	0.0326315239
3037.8716125487	0.0324510559
3039.8004199218	0.0323601663
3041.7292272948	0.0324941464
3043.6580346679	0.0322932228
3045.5868420409	0.0322362259
3047.5156494139	0.0323073864
3049.4444567870	0.0321137309
3051.3732641600	0.0321354121
3053.3020715331	0.0321099609
3055.2308789061	0.0318513066
3057.1596862792	0.0318089053
3059.0884936522	0.0318361707
3061.0173010253	0.0317125171
3062.9461083983	0.0317183249
3064.8749157714	0.0315979123
3066.8037231444	0.0314653069
3068.7325305175	0.0314815193
3070.6613378905	0.0314248502
3072.5901452636	0.0313603356
3074.5189526366	0.0312942155
3076.4477600097	0.0313385054
3078.3765673827	0.0311417989
3080.3053747557	0.0310206693
3082.2341821288	0.0311149117
3084.1629895018	0.0309805684
3086.0917968749	0.0308955051
3088.0206042479	0.0308247767
3089.9494116210	0.0307858251
3091.8782189940	0.0307159424
3093.8070263671	0.0306286551
3095.7358337401	0.0304751601
3097.6646411132	0.0303125866
3099.5934484862	0.0303545669
3101.5222558593	0.0303859990
3103.4510632323	0.0303528775
3105.3798706054	0.0302035976
3107.3086779784	0.0301698521
3109.2374853514	0.0300019160
3111.1662927245	0.0298794024
3113.0951000975	0.0299803801
3115.0239074706	0.0297942832
3116.9527148436	0.0297056288
3118.8815222167	0.0296354890
3120.8103295897	0.0295658316
3122.7391369628	0.0294974446
3124.6679443358	0.0294479541
3126.5967517089	0.0295120254
3128.5255590819	0.0293108094
3130.4543664550	0.0291772522
3132.3831738280	0.0291706733
3134.3119812011	0.0291247591
3136.2407885741	0.0289711319
3138.1695959471	0.0288693272
3140.0984033202	0.0288061239
3142.0272106932	0.0286623612
3143.9560180663	0.0286991186
3145.8848254393	0.0286234580
3147.8136328124	0.0285374746
3149.7424401854	0.0284363925
3151.6712475585	0.0283729136
3153.6000549315	0.0283791609
3155.5288623046	0.0281729884
3157.4576696776	0.0281602032
3159.3864770507	0.0281168856
3161.3152844237	0.0279752463
3163.2440917968	0.0278425068
3165.1728991698	0.0276457127
3167.1017065428	0.0276951957
3169.0305139159	0.0276541766
3170.9593212889	0.0274961516
3172.8881286620	0.0275312960
3174.8169360350	0.0274688341
3176.7457434081	0.0272901282
3178.6745507811	0.0272432100
3180.6033581542	0.0272292681
3182.5321655272	0.0271468833
3184.4609729003	0.0270280354
3186.3897802733	0.0269805826
3188.3185876464	0.0269232616
3190.2473950194	0.0268072635
3192.1762023925	0.0268090405
3194.1050097655	0.0267495252
3196.0338171386	0.0266810283
3197.9626245116	0.0265826806
3199.8914318846	0.0264413394
3201.8202392577	0.0265165046
3203.7490466307	0.0264176354
3205.6778540038	0.0262724757
3207.6066613768	0.0263410397
3209.5354687499	0.0262150709
3211.4642761229	0.0260750502
3213.3930834960	0.0259999465
3215.3218908690	0.0259065703
3217.2506982421	0.0260092430
3219.1795056151	0.0259948969
3221.1083129882	0.0258626565
3223.0371203612	0.0258433707
3224.9659277343	0.0257597789
3226.8947351073	0.0256597921
3228.8235424803	0.0255943201
3230.7523498534	0.0255825669
3232.6811572264	0.0255364105
3234.6099645995	0.0254829116
3236.5387719725	0.0254523084
3238.4675793456	0.0254122578
3240.3963867186	0.0254280716
3242.3251940917	0.0252820812
3244.2540014647	0.0252262242
3246.1828088378	0.0252787955
3248.1116162108	0.0252353474
3250.0404235839	0.0252151769
3251.9692309569	0.0251021981
3253.8980383300	0.0250396319
3255.8268457030	0.0250006504
3257.7556530760	0.0249767434
3259.6844604491	0.0249385089
3261.6132678221	0.0248375386
3263.5420751952	0.0248871911
3265.4708825682	0.0248912368
3267.3996899413	0.0248819906
3269.3284973143	0.0248747338
3271.2573046874	0.0247280374
3273.1861120604	0.0246855021
3275.1149194335	0.0246888623
3277.0437268065	0.0246235095
3278.9725341796	0.0246444680
3280.9013415526	0.0246414039
3282.8301489257	0.0245800987
3284.7589562987	0.0245198384
3286.6877636717	0.0244967267
3288.6165710448	0.0245324895
3290.5453784178	0.0243874490
3292.4741857909	0.0242906064
3294.4029931639	0.0243557692
3296.3318005370	0.0243282691
3298.2606079100	0.0242764931
3300.1894152831	0.0242413767
3302.1182226561	0.0241546240
3304.0470300292	0.0240288991
3305.9758374022	0.0240495950
3307.9046447753	0.0240409095
3309.8334521483	0.0239947718
3311.7622595214	0.0239553601
3313.6910668944	0.0239181127
3315.6198742675	0.0240133815
3317.5486816405	0.0238831453
3319.4774890135	0.0238517243
3321.4062963866	0.0239434019
3323.3351037596	0.0238240249
3325.2639111327	0.0237641223
3327.1927185057	0.0237486847
3329.1215258788	0.0237576216
3331.0503332518	0.0236329883
3332.9791406249	0.0235607028
3334.9079479979	0.0236490984
3336.8367553710	0.0235194936
3338.7655627440	0.0233744904
3340.6943701171	0.0234954543
3342.6231774901	0.0235086344
3344.5519848632	0.0233763978
3346.4807922362	0.0233472586
3348.4095996092	0.0232807510
3350.3384069823	0.0233435258
3352.2672143553	0.0232225787
3354.1960217284	0.0230440237
3356.1248291014	0.0231482796
3358.0536364745	0.0231099725
3359.9824438475	0.0230751373
3361.9112512206	0.0229691528
3363.8400585936	0.0228948891
3365.7688659667	0.0228575617
3367.6976733397	0.0228144713
3369.6264807128	0.0228563175
3371.5552880858	0.0227306783
3373.4840954589	0.0227094553
3375.4129028319	0.0226897337
3377.3417102049	0.0226376988
3379.2705175780	0.0225866213
3381.1993249510	0.0225611515
3383.1281323241	0.0225407891
3385.0569396971	0.0223812871
3386.9857470702	0.0224158354
3388.9145544432	0.0224621072
3390.8433618163	0.0223735105
3392.7721691893	0.0222381800
3394.7009765624	0.0222366229
3396.6297839354	0.0221150853
3398.5585913085	0.0219569523
3400.4873986815	0.0221133009
3402.4162060546	0.0219884515
3404.3450134276	0.0219255202
3406.2738208006	0.0219452828
3408.2026281737	0.0218350422
3410.1314355467	0.0218345802
3412.0602429198	0.0218092427
3413.9890502928	0.0217894651
3415.9178576659	0.0216607340
3417.8466650389	0.0216499195
3419.7754724120	0.0216225013
3421.7042797850	0.0215712897
3423.6330871581	0.0215556882
3425.5618945311	0.0214668643
3427.4907019042	0.0215481818
3429.4195092772	0.0214568041
3431.3483166503	0.0213127099
3433.2771240233	0.0212845318
3435.2059313963	0.0212221332
3437.1347387694	0.0212265383
3439.0635461424	0.0212082975
3440.9923535155	0.0210468322
3442.9211608885	0.0210502725
3444.8499682616	0.0211142432
3446.7787756346	0.0208573844
3448.7075830077	0.0209016390
3450.6363903807	0.0210332423
3452.5651977538	0.0209551305
3454.4940051268	0.0209054537
3456.4228124999	0.0208352860
3458.3516198729	0.0208976157
3460.2804272460	0.0207444523
3462.2092346190	0.0206992477
3464.1380419921	0.0208100136
3466.0668493651	0.0206992533
3467.9956567381	0.0206811130
3469.9244641112	0.0206431951
3471.8532714842	0.0205869079
3473.7820788573	0.0205342844
3475.7108862303	0.0205241460
3477.6396936034	0.0205933768
3479.5685009764	0.0204839092
3481.4973083495	0.0203487687
3483.4261157225	0.0203769282
3485.3549230956	0.0203715116
3487.2837304686	0.0203251764
3489.2125378417	0.0203441847
3491.1413452147	0.0204045288
3493.0701525878	0.0203631464
3494.9989599608	0.0201979149
3496.9277673338	0.0202182382
3498.8565747069	0.0203308873
3500.7853820799	0.0202701725
3502.7141894530	0.0199161340
3504.6429968260	0.0199521147
3506.5718041991	0.0203218386
3508.5006115721	0.0200560689
3510.4294189452	0.0200311411
3512.3582263182	0.0202304441
3514.2870336913	0.0202067941
3516.2158410643	0.0201428626
3518.1446484374	0.0199807025
3520.0734558104	0.0201358330
3522.0022631835	0.0199996121
3523.9310705565	0.0198350362
3525.8598779295	0.0199177414
3527.7886853026	0.0198357068
3529.7174926756	0.0199230351
3531.6463000487	0.0200488437
3533.5751074217	0.0201416761
3535.5039147948	0.0199434347
3537.4327221678	0.0198368616
3539.3615295409	0.0200120993
3541.2903369139	0.0199520998
3543.2191442870	0.0198219903
3545.1479516600	0.0194326118
3547.0767590331	0.0193061512
3549.0055664061	0.0198746957
3550.9343737792	0.0198446289
3552.8631811522	0.0195030347
3554.7919885252	0.0198802575
3556.7207958983	0.0199220665
3558.6496032713	0.0197190139
3560.5784106444	0.0196085759
3562.5072180174	0.0195310358
3564.4360253905	0.0196489692
3566.3648327635	0.0187309533
3568.2936401366	0.0184135586
3570.2224475096	0.0195323974
3572.1512548827	0.0197327547
3574.0800622557	0.0195615180
3576.0088696288	0.0195762888
3577.9376770018	0.0195399951
3579.8664843749	0.0196723156
3581.7952917479	0.0195646007
3583.7240991210	0.0197087787
3585.6529064940	0.0192377176
3587.5817138670	0.0180596113
3589.5105212401	0.0186191909
3591.4393286131	0.0195798501
3593.3681359862	0.0192701388
3595.2969433592	0.0189962573
3597.2257507323	0.0192086548
3599.1545581053	0.0194050632
3601.0833654784	0.0191953331
3603.0121728514	0.0193597190
3604.9409802245	0.0196632259
3606.8697875975	0.0191010740
3608.7985949706	0.0182450693
3610.7274023436	0.0186164528
3612.6562097167	0.0188504644
3614.5850170897	0.0185113139
3616.5138244627	0.0194186363
3618.4426318358	0.0183385946
3620.3714392088	0.0180438682
3622.3002465819	0.0194354504
3624.2290539549	0.0190380439
3626.1578613280	0.0196151435
3628.0866687010	0.0173517428
3630.0154760741	0.0163569711
3631.9442834471	0.0192244221
3633.8730908202	0.0189363882
3635.8018981932	0.0190381929
3637.7307055663	0.0193552654
3639.6595129393	0.0191381127
3641.5883203124	0.0192213617
3643.5171276854	0.0191229545
3645.4459350584	0.0192312971
3647.3747424315	0.0177652575
3649.3035498045	0.0165947992
3651.2323571776	0.0169200972
3653.1611645506	0.0191743337
3655.0899719237	0.0188335218
3657.0187792967	0.0174660906
3658.9475866698	0.0192702524
3660.8763940428	0.0189526603
3662.8052014159	0.0191106610
3664.7340087889	0.0190203749
3666.6628161620	0.0189025328
3668.5916235350	0.0184448622
3670.5204309081	0.0159799289
3672.4492382811	0.0183204487
3674.3780456541	0.0176187903
3676.3068530272	0.0155107602
3678.2356604002	0.0183237344
3680.1644677733	0.0185080674
3682.0932751463	0.0185238533
3684.0220825194	0.0189283602
3685.9508898924	0.0185916144
3687.8796972655	0.0171502270
3689.8085046385	0.0162220486
3691.7373120116	0.0179438964
3693.6661193846	0.0181138925
3695.5949267577	0.0184681080
3697.5237341307	0.0185217783
3699.4525415038	0.0182065144
3701.3813488768	0.0179675333
3703.3101562499	0.0175616629
3705.2389636229	0.0187535621
3707.1677709959	0.0179763492
3709.0965783690	0.0176300779
3711.0253857420	0.0168108661
3712.9541931151	0.0160513334
3714.8830004881	0.0181246884
3716.8118078612	0.0179283340
3718.7406152342	0.0179607719
3720.6694226073	0.0176991262
3722.5982299803	0.0173708219
3724.5270373534	0.0176512673
3726.4558447264	0.0167189371
3728.3846520995	0.0177134387
3730.3134594725	0.0174056906
3732.2422668456	0.0166298933
3734.1710742186	0.0162409618
3736.0998815916	0.0156455711
3738.0286889647	0.0163361952
3739.9574963377	0.0172636658
3741.8863037108	0.0179717354
3743.8151110838	0.0146338809
3745.7439184569	0.0141697321
3747.6727258299	0.0172000565
3749.6015332030	0.0152025931
3751.5303405760	0.0145161757
3753.4591479491	0.0159877315
3755.3879553221	0.0168641284
3757.3167626952	0.0173110720
3759.2455700682	0.0162993502
3761.1743774413	0.0168283284
3763.1031848143	0.0175171755
3765.0319921873	0.0166722517
3766.9607995604	0.0168652534
3768.8896069334	0.0166511014
3770.8184143065	0.0161366425
3772.7472216795	0.0170891732
3774.6760290526	0.0171311200
3776.6048364256	0.0170432143
3778.5336437987	0.0167257525
3780.4624511717	0.0162610989
3782.3912585448	0.0169761628
3784.3200659178	0.0167418085
3786.2488732909	0.0165751614
3788.1776806639	0.0168590173
3790.1064880370	0.0167652443
3792.0352954100	0.0166299809
3793.9641027830	0.0169324763
3795.8929101561	0.0160872377
3797.8217175291	0.0159999803
3799.7505249022	0.0164877698
3801.6793322752	0.0138982162
3803.6081396483	0.0158125032
3805.5369470213	0.0166174211
3807.4657543944	0.0144111738
3809.3945617674	0.0165468697
3811.3233691405	0.0162033234
3813.2521765135	0.0166559033
3815.1809838866	0.0152787957
3817.1097912596	0.0139872693
3819.0385986327	0.0165965594
3820.9674060057	0.0142863430
3822.8962133787	0.0148599651
3824.8250207518	0.0164338201
3826.7538281248	0.0152990520
3828.6826354979	0.0161617249
3830.6114428709	0.0156310797
3832.5402502440	0.0153287705
3834.4690576170	0.0155288558
3836.3978649901	0.0147664491
3838.3266723631	0.0137935001
3840.2554797362	0.0146663524
3842.1842871092	0.0154398903
3844.1130944823	0.0150095485
3846.0419018553	0.0157920718
3847.9707092284	0.0155733749
3849.8995166014	0.0156345293
3851.8283239745	0.0142792873
3853.7571313475	0.0115285441
3855.6859387205	0.0131842745
3857.6147460936	0.0156628117
3859.5435534666	0.0152480323
3861.4723608397	0.0151376296
3863.4011682127	0.0148168998
3865.3299755858	0.0141239222
3867.2587829588	0.0153368097
3869.1875903319	0.0142087769
3871.1163977049	0.0134748863
3873.0452050780	0.0152025381
3874.9740124510	0.0143903736
3876.9028198241	0.0151904300
3878.8316271971	0.0152659286
3880.7604345702	0.0137347840
3882.6892419432	0.0151191708
3884.6180493162	0.0143338554
3886.5468566893	0.0136272516
3888.4756640623	0.0151791349
3890.4044714354	0.0143300537
3892.3332788084	0.0138738565
3894.2620861815	0.0148836123
3896.1908935545	0.0148936957
3898.1197009276	0.0144707682
3900.0485083006	0.0138088912
3901.9773156737	0.0136974771
3903.9061230467	0.0137085058
3905.8349304198	0.0137955416
3907.7637377928	0.0147001948
3909.6925451659	0.0146505050
3911.6213525389	0.0145718921
3913.5501599119	0.0147674493
3915.4789672850	0.0143087190
3917.4077746580	0.0140372952
3919.3365820311	0.0140146501
3921.2653894041	0.0143359639
3923.1941967772	0.0142910304
3925.1230041502	0.0140902027
3927.0518115233	0.0142105054
3928.9806188963	0.0143348677
3930.9094262694	0.0141838640
3932.8382336424	0.0138237998
3934.7670410155	0.0141453166
3936.6958483885	0.0142095815
3938.6246557616	0.0140631385
3940.5534631346	0.0141813513
3942.4822705076	0.0138730407
3944.4110778807	0.0138831045
3946.3398852537	0.0140345003
3948.2686926268	0.0138106626
3950.1974999998	0.0137737552
3952.1263073729	0.0139878187
3954.0551147459	0.0139857493
3955.9839221190	0.0138508063
3957.9127294920	0.0138267102
3959.8415368651	0.0137754250
3961.7703442381	0.0137871150
3963.6991516112	0.0137547534
3965.6279589842	0.0136499368
3967.5567663573	0.0136583215
3969.4855737303	0.0136425886
3971.4143811034	0.0136208665
3973.3431884764	0.0135857183
3975.2719958494	0.0134702958
3977.2008032225	0.0135308001
3979.1296105955	0.0135642122
3981.0584179686	0.0135132531
3982.9872253416	0.0135320183
3984.9160327147	0.0134755168
3986.8448400877	0.0134578422
3988.7736474608	0.0133178160
3990.7024548338	0.0132886413
3992.6312622069	0.0133296028
3994.5600695799	0.0132247340
3996.4888769530	0.0132602323
3998.4176843260	0.0132012367
4000.3464916991	0.0132047925
4002.2752990721	0.0131717771
4004.2041064451	0.0131085645
4006.1329138182	0.0131097706
4008.0617211912	0.0129808821
4009.9905285643	0.0130338836
4011.9193359373	0.0129937809
4013.8481433104	0.0129167922
4015.7769506834	0.0129762981
4017.7057580565	0.0129624568
4019.6345654295	0.0128655564
4021.5633728026	0.0128416233
4023.4921801756	0.0128813069
4025.4209875487	0.0127946846
4027.3497949217	0.0129104052
4029.2786022948	0.0127662942
4031.2074096678	0.0125797717
4033.1362170408	0.0127932578
4035.0650244139	0.0126944873
4036.9938317869	0.0126435021
4038.9226391600	0.0126420455
4040.8514465330	0.0125754159
4042.7802539061	0.0125247054
4044.7090612791	0.0124146584
4046.6378686522	0.0125262905
4048.5666760252	0.0124773532
4050.4954833983	0.0124161718
4052.4242907713	0.0123990588
4054.3530981444	0.0123188067
4056.2819055174	0.0123865120
4058.2107128905	0.0123381466
4060.1395202635	0.0122873560
4062.0683276365	0.0122806411
4063.9971350096	0.0122840935
4065.9259423826	0.0122170653
4067.8547497557	0.0121909343
4069.7835571287	0.0122152623
4071.7123645018	0.0120725781
4073.6411718748	0.0121374521
4075.5699792479	0.0121269431
4077.4987866209	0.0120130293
4079.4275939940	0.0120108183
4081.3564013670	0.0119612608
4083.2852087401	0.0119452365
4085.2140161131	0.0118826889
4087.1428234862	0.0119287856
4089.0716308592	0.0118545294
4091.0004382323	0.0118119093
4092.9292456053	0.0119084092
4094.8580529783	0.0117993522
4096.7868603514	0.0117614726
4098.7156677244	0.0117432661
4100.6444750975	0.0117371827
4102.5732824705	0.0116869435
4104.5020898436	0.0116357617
4106.4308972166	0.0115853939
4108.3597045897	0.0115193827
4110.2885119627	0.0115705486
4112.2173193358	0.0115252603
4114.1461267088	0.0115697160
4116.0749340819	0.0115429899
4118.0037414549	0.0114680054
4119.9325488280	0.0114187310
4121.8613562010	0.0113891400
4123.7901635740	0.0114494972
4125.7189709471	0.0112953065
4127.6477783201	0.0112905521
4129.5765856932	0.0112658814
4131.5053930662	0.0111948876
4133.4342004393	0.0113007054
4135.3630078123	0.0112650460
4137.2918151854	0.0111500937
4139.2206225584	0.0111064892
4141.1494299315	0.0110956337
4143.0782373045	0.0110568702
4145.0070446776	0.0111795375
4146.9358520506	0.0110862590
4148.8646594237	0.0110454904
4150.7934667967	0.0111091500
4152.7222741697	0.0109573361
4154.6510815428	0.0110127237
4156.5798889158	0.0109017976
4158.5086962889	0.0109076109
4160.4375036619	0.0108894520
4162.3663110350	0.0108752232
4164.2951184080	0.0109777926
4166.2239257811	0.0107427016
4168.1527331541	0.0107942894
4170.0815405272	0.0107481815
4172.0103479002	0.0106976321
4173.9391552733	0.0107133221
4175.8679626463	0.0106780576
4177.7967700194	0.0107402895
4179.7255773924	0.0105597787
4181.6543847654	0.0106830150
4183.5831921385	0.0106518902
4185.5119995115	0.0104813948
4187.4408068846	0.0105060805
4189.3696142576	0.0104724839
4191.2984216307	0.0105299829
4193.2272290037	0.0104058608
4195.1560363768	0.0103631113
4197.0848437498	0.0103822127
4199.0136511229	0.0103370566
4200.9424584959	0.0103412550
4202.8712658690	0.0103034507
4204.8000732420	0.0103115924
4206.7288806151	0.0103931231
4208.6576879881	0.0103719682
4210.5864953611	0.0102175614
4212.5153027342	0.0101973936
4214.4441101072	0.0101814959
4216.3729174803	0.0101993876
4218.3017248533	0.0101416670
4220.2305322264	0.0100412732
4222.1593395994	0.0101275314
4224.0881469725	0.0100824963
4226.0169543455	0.0099728564
4227.9457617186	0.0099921627
4229.8745690916	0.0100040575
4231.8033764647	0.0099053532
4233.7321838377	0.0099246874
4235.6609912108	0.0099077011
4237.5897985838	0.0098801963
4239.5186059569	0.0098816380
4241.4474133299	0.0097769182
4243.3762207029	0.0098277135
4245.3050280760	0.0097843762
4247.2338354490	0.0097847432
4249.1626428221	0.0097453641
4251.0914501951	0.0096794777
4253.0202575682	0.0097043235
4254.9490649412	0.0096754692
4256.8778723143	0.0097073289
4258.8066796873	0.0095797945
4260.7354870604	0.0096481349
4262.6642944334	0.0095872078
4264.5931018065	0.0095421951
4266.5219091795	0.0095848404
4268.4507165526	0.0094020292
4270.3795239256	0.0095720999
4272.3083312986	0.0094847716
4274.2371386717	0.0094486717
4276.1659460447	0.0095058177
4278.0947534178	0.0093688611
4280.0235607908	0.0094160438
4281.9523681639	0.0093373545
4283.8811755369	0.0093281362
4285.8099829100	0.0093268156
4287.7387902830	0.0093601188
4289.6675976561	0.0092759132
4291.5964050291	0.0092058964
4293.5252124022	0.0092882793
4295.4540197752	0.0092486991
4297.3828271483	0.0092145130
4299.3116345213	0.0090749096
4301.2404418943	0.0091305450
4303.1692492674	0.0091453400
4305.0980566404	0.0090639032
4307.0268640135	0.0090614762
4308.9556713865	0.0089947842
4310.8844787596	0.0089902095
4312.8132861326	0.0090296287
4314.7420935057	0.0090530422
4316.6709008787	0.0089159478
4318.5997082518	0.0089924335
4320.5285156248	0.0089784758
4322.4573229979	0.0088796578
4324.3861303709	0.0088475049
4326.3149377440	0.0086765364
4328.2437451170	0.0088189058
4330.1725524900	0.0088523692
4332.1013598631	0.0087937787
4334.0301672361	0.0087166149
4335.9589746092	0.0087194797
4337.8877819822	0.0087542580
4339.8165893553	0.0086265560
4341.7453967283	0.0087576676
4343.6742041014	0.0086825490
4345.6030114744	0.0085849967
4347.5318188475	0.0086191865
4349.4606262205	0.0086556487
4351.3894335936	0.0086016878
4353.3182409666	0.0084958132
4355.2470483397	0.0086202975
4357.1758557127	0.0085135568
4359.1046630858	0.0084700026
4361.0334704588	0.0084023047
4362.9622778318	0.0083447555
4364.8910852049	0.0084840134
4366.8198925779	0.0084285978
4368.7486999510	0.0084009524
4370.6775073240	0.0083518438
4372.6063146971	0.0083424151
4374.5351220701	0.0083047599
4376.4639294432	0.0082958909
4378.3927368162	0.0083811656
4380.3215441893	0.0082953693
4382.2503515623	0.0081979204
4384.1791589354	0.0082049165
4386.1079663084	0.0081682652
4388.0367736815	0.0080998912
4389.9655810545	0.0081835147
4391.8943884275	0.0081248358
4393.8231958006	0.0080643389
4395.7520031736	0.0081008244
4397.6808105467	0.0080808252
4399.6096179197	0.0081224367
4401.5384252928	0.0080863144
4403.4672326658	0.0080260197
4405.3960400389	0.0079542529
4407.3248474119	0.0079622669
4409.2536547850	0.0079387724
4411.1824621580	0.0079466794
4413.1112695311	0.0079400446
4415.0400769041	0.0078921113
4416.9688842772	0.0079709897
4418.8976916502	0.0078427875
4420.8264990232	0.0078358240
4422.7553063963	0.0077819941
4424.6841137693	0.0077377162
4426.6129211424	0.0078482917
4428.5417285154	0.0077855224
4430.4705358885	0.0077980394
4432.3993432615	0.0076911729
4434.3281506346	0.0076818676
4436.2569580076	0.0076521812
4438.1857653807	0.0076193619
4440.1145727537	0.0076892227
4442.0433801268	0.0076015657
4443.9721874998	0.0076764645
4445.9009948729	0.0076692328
4447.8298022459	0.0076069864
4449.7586096189	0.0075602075
4451.6874169920	0.0075340997
4453.6162243650	0.0074815047
4455.5450317381	0.0074528758
4457.4738391111	0.0075467164
4459.4026464842	0.0074231597
4461.3314538572	0.0074233338
4463.2602612303	0.0074511450
4465.1890686033	0.0074302796
4467.1178759764	0.0073746387
4469.0466833494	0.0072923168
4470.9754907225	0.0073575713
4472.9042980955	0.0073591433
4474.8331054686	0.0074341283
4476.7619128416	0.0072870762
4478.6907202147	0.0071900291
4480.6195275877	0.0072582327
4482.5483349607	0.0071426104
4484.4771423338	0.0071949735
4486.4059497068	0.0072571915
4488.3347570799	0.0072050579
4490.2635644529	0.0071070148
4492.1923718260	0.0071075317
4494.1211791990	0.0071230265
4496.0499865721	0.0071118851
4497.9787939451	0.0071542552
4499.9076013182	0.0070759458
4501.8364086912	0.0070945751
4503.7652160643	0.0071109775
4505.6940234373	0.0070226081
4507.6228308104	0.0070155198
4509.5516381834	0.0070244502
4511.4804455564	0.0069561345
4513.4092529295	0.0069214283
4515.3380603025	0.0068738768
4517.2668676756	0.0067998432
4519.1956750486	0.0068338397
4521.1244824217	0.0068332935
4523.0532897947	0.0068756486
4524.9820971678	0.0067811608
4526.9109045408	0.0067422371
4528.8397119139	0.0068755103
4530.7685192869	0.0067667989
4532.6973266600	0.0067396192
4534.6261340330	0.0067106779
4536.5549414061	0.0066868924
4538.4837487791	0.0067193788
4540.4125561521	0.0066866977
4542.3413635252	0.0067392979
4544.2701708982	0.0066587226
4546.1989782713	0.0066281185
4548.1277856443	0.0066738967
4550.0565930174	0.0066647148
4551.9854003904	0.0065641389
4553.9142077635	0.0065069860
4555.8430151365	0.0066264523
4557.7718225096	0.0065062065
4559.7006298826	0.0065052561
4561.6294372557	0.0065519186
4563.5582446287	0.0063851699
4565.4870520018	0.0064776004
4567.4158593748	0.0064832037
4569.3446667478	0.0064222547
4571.2734741209	0.0064276624
4573.2022814939	0.0063946545
4575.1310888670	0.0064562252
4577.0598962400	0.0063466411
4578.9887036131	0.0062881145
4580.9175109861	0.0063041132
4582.8463183592	0.0062675443
4584.7751257322	0.0063550542
4586.7039331053	0.0062903203
4588.6327404783	0.0062096026
4590.5615478514	0.0062759714
4592.4903552244	0.0062648440
4594.4191625975	0.0061749378
4596.3479699705	0.0061991280
4598.2767773435	0.0062285401
4600.2055847166	0.0061582075
4602.1343920896	0.0062225582
4604.0631994627	0.0061617452
4605.9920068357	0.0060521467
4607.9208142088	0.0061354907
4609.8496215818	0.0061284946
4611.7784289549	0.0060964604
4613.7072363279	0.0060824435
4615.6360437010	0.0060143992
4617.5648510740	0.0059618377
4619.4936584471	0.0059513850
4621.4224658201	0.0059483210
4623.3512731932	0.0059999209
4625.2800805662	0.0060195178
4627.2088879393	0.0059250174
4629.1376953123	0.0059242239
4631.0665026853	0.0059171217
4632.9953100584	0.0058200546
4634.9241174314	0.0058018067
4636.8529248045	0.0058223242
4638.7817321775	0.0058104857
4640.7105395506	0.0058287149
4642.6393469236	0.0058153714
4644.5681542967	0.0057734726
4646.4969616697	0.0057677007
4648.4257690428	0.0057737646
4650.3545764158	0.0058249375
4652.2833837889	0.0057266559
4654.2121911619	0.0056505702
4656.1409985350	0.0057660439
4658.0698059080	0.0057939840
4659.9986132810	0.0057154866
4661.9274206541	0.0056382921
4663.8562280271	0.0056703947
4665.7850354002	0.0057029934
4667.7138427732	0.0057117119
4669.6426501463	0.0056295274
4671.5714575193	0.0055385176
4673.5002648924	0.0055837380
4675.4290722654	0.0055524353
4677.3578796385	0.0055533862
4679.2866870115	0.0055334782
4681.2154943846	0.0055340198
4683.1443017576	0.0055213231
4685.0731091307	0.0054743090
4687.0019165037	0.0055184448
4688.9307238767	0.0054603205
4690.8595312498	0.0055157794
4692.7883386228	0.0054646945
4694.7171459959	0.0053683911
4696.6459533689	0.0054315422
4698.5747607420	0.0053370977
4700.5035681150	0.0053563286
4702.4323754881	0.0053654113
4704.3611828611	0.0053229621
4706.2899902342	0.0053684078
4708.2187976072	0.0053133955
4710.1476049803	0.0052900491
4712.0764123533	0.0053043561
4714.0052197264	0.0053196084
4715.9340270994	0.0053379931
4717.8628344724	0.0052585611
4719.7916418455	0.0051799649
4721.7204492185	0.0051933215
4723.6492565916	0.0051718755
4725.5780639646	0.0051856395
4727.5068713377	0.0052564712
4729.4356787107	0.0052145831
4731.3644860838	0.0051916330
4733.2932934568	0.0051978361
4735.2221008299	0.0051330151
4737.1509082029	0.0051655038
4739.0797155760	0.0051827123
4741.0085229490	0.0051209326
4742.9373303221	0.0051261503
4744.8661376951	0.0050245086
4746.7949450682	0.0050076712
4748.7237524412	0.0051094359
4750.6525598142	0.0050688474
4752.5813671873	0.0050579533
4754.5101745603	0.0050638616
4756.4389819334	0.0049719722
4758.3677893064	0.0049274573
4760.2965966795	0.0050248168
4762.2254040525	0.0049062483
4764.1542114256	0.0048578260
4766.0830187986	0.0050095054
4768.0118261717	0.0049105193
4769.9406335447	0.0049353782
4771.8694409178	0.0049144933
4773.7982482908	0.0048576696
4775.7270556639	0.0048605995
4777.6558630369	0.0048002461
4779.5846704099	0.0048621702
4781.5134777830	0.0047883531
4783.4422851560	0.0048093107
4785.3710925291	0.0048024608
4787.2998999021	0.0047492962
4789.2287072752	0.0047911545
4791.1575146482	0.0047636768
4793.0863220213	0.0047856914
4795.0151293943	0.0047253608
4796.9439367674	0.0047324430
4798.8727441404	0.0046933875
4800.8015515135	0.0046819197
4802.7303588865	0.0047220094
4804.6591662596	0.0046916008
4806.5879736326	0.0046873735
4808.5167810056	0.0046084309
4810.4455883787	0.0046732589
4812.3743957517	0.0046478761
4814.3032031248	0.0046229148
4816.2320104978	0.0045999112
4818.1608178709	0.0045924289
4820.0896252439	0.0046713245
4822.0184326170	0.0045197615
4823.9472399900	0.0045578675
4825.8760473631	0.0045279358
4827.8048547361	0.0045364178
4829.7336621092	0.0045893798
4831.6624694822	0.0044148397
4833.5912768553	0.0044800085
4835.5200842283	0.0044580391
4837.4488916013	0.0043841409
4839.3776989744	0.0043903776
4841.3065063474	0.0044359341
4843.2353137205	0.0044159424
4845.1641210935	0.0043451553
4847.0929284666	0.0044257315
4849.0217358396	0.0043205367
4850.9505432127	0.0043046665
4852.8793505857	0.0044142441
4854.8081579588	0.0043567149
4856.7369653318	0.0043247128
4858.6657727049	0.0043889126
4860.5945800779	0.0043750349
4862.5233874510	0.0042804452
4864.4521948240	0.0042885519
4866.3810021971	0.0042497250
4868.3098095701	0.0041685738
4870.2386169431	0.0042008366
4872.1674243162	0.0042820917
4874.0962316892	0.0042659519
4876.0250390623	0.0042752009
4877.9538464353	0.0042606434
4879.8826538084	0.0042127403
4881.8114611814	0.0042558825
4883.7402685545	0.0041637514
4885.6690759275	0.0041356212
4887.5978833006	0.0041511739
4889.5266906736	0.0042005582
4891.4554980467	0.0041609439
4893.3843054197	0.0040391264
4895.3131127928	0.0041671712
4897.2419201658	0.0040792348
4899.1707275388	0.0040483163
4901.0995349119	0.0041340170
4903.0283422849	0.0040691998
4904.9571496580	0.0040825894
4906.8859570310	0.0040614111
4908.8147644041	0.0040477002
4910.7435717771	0.0040111509
4912.6723791502	0.0040769503
4914.6011865232	0.0040469943
4916.5299938963	0.0039561745
4918.4588012693	0.0040567284
4920.3876086424	0.0040121172
4922.3164160154	0.0039599203
4924.2452233885	0.0040106382
4926.1740307615	0.0040307404
4928.1028381345	0.0039362581
4930.0316455076	0.0038801753
4931.9604528806	0.0039136210
4933.8892602537	0.0038678367
4935.8180676267	0.0038279584
4937.7468749998	0.0038833567
4939.6756823728	0.0039794883
4941.6044897459	0.0039129881
4943.5332971189	0.0038637540
4945.4621044920	0.0038344208
4947.3909118650	0.0037875483
4949.3197192381	0.0038257770
4951.2485266111	0.0037502844
4953.1773339842	0.0037365034
4955.1061413572	0.0037874840
4957.0349487302	0.0037635113
4958.9637561033	0.0037269681
4960.8925634763	0.0037777724
4962.8213708494	0.0038054923
4964.7501782224	0.0037518246
4966.6789855955	0.0038027500
4968.6077929685	0.0037415393
4970.5366003416	0.0036850311
4972.4654077146	0.0037190146
4974.3942150877	0.0036579794
4976.3230224607	0.0036578125
4978.2518298338	0.0036975197
4980.1806372068	0.0036971462
4982.1094445799	0.0036571999
4984.0382519529	0.0036609094
4985.9670593259	0.0037094881
4987.8958666990	0.0036708082
4989.8246740720	0.0036084317
4991.7534814451	0.0036229845
4993.6822888181	0.0035947603
4995.6110961912	0.0035048232
4997.5399035642	0.0035102749
4999.4687109373	0.0035278816
5001.3975183103	0.0035260753
5003.3263256834	0.0035683038
5005.2551330564	0.0035710712
5007.1839404295	0.0035357499
5009.1127478025	0.0034760470
5011.0415551756	0.0034110106
5012.9703625486	0.0035015978
5014.8991699217	0.0035734770
5016.8279772947	0.0034609386
5018.7567846677	0.0033943471
5020.6855920408	0.0033965064
5022.6143994138	0.0034489916
5024.5432067869	0.0034356890
5026.4720141599	0.0033951364
5028.4008215330	0.0034265080
5030.3296289060	0.0033882672
5032.2584362791	0.0034118281
5034.1872436521	0.0033882554
5036.1160510252	0.0033406867
5038.0448583982	0.0033839021
5039.9736657713	0.0033842844
5041.9024731443	0.0033980962
5043.8312805174	0.0033512795
5045.7600878904	0.0033395949
5047.6888952634	0.0033383723
5049.6177026365	0.0032308176
5051.5465100095	0.0032473574
5053.4753173826	0.0032899077
5055.4041247556	0.0032295398
5057.3329321287	0.0032870742
5059.2617395017	0.0033041779
5061.1905468748	0.0031832857
5063.1193542478	0.0032375362
5065.0481616209	0.0032743996
5066.9769689939	0.0031928206
5068.9057763670	0.0031709434
5070.8345837400	0.0032089073
5072.7633911131	0.0031833509
5074.6921984861	0.0031055752
5076.6210058591	0.0032473861
5078.5498132322	0.0031943631
5080.4786206052	0.0030168123
5082.4074279783	0.0031189555
5084.3362353513	0.0031435043
5086.2650427244	0.0031756707
5088.1938500974	0.0031323784
5090.1226574705	0.0030398024
5092.0514648435	0.0031084728
5093.9802722166	0.0031313659
5095.9090795896	0.0031708069
5097.8378869627	0.0031528929
5099.7666943357	0.0030847536
5101.6955017088	0.0030386571
5103.6243090818	0.0030265453
5105.5531164548	0.0030868398
5107.4819238279	0.0030487706
5109.4107312009	0.0030602459
5111.3395385740	0.0031036055
5113.2683459470	0.0030093878
5115.1971533201	0.0029907697
5117.1259606931	0.0030084681
5119.0547680662	0.0029440727
5120.9835754392	0.0029701260
5122.9123828123	0.0030232994
5124.8411901853	0.0029611150
5126.7699975584	0.0029196278
5128.6988049314	0.0029463503
5130.6276123045	0.0029827177
5132.5564196775	0.0029719975
5134.4852270506	0.0029335786
5136.4140344236	0.0028797225
5138.3428417966	0.0028858806
5140.2716491697	0.0029424634
5142.2004565427	0.0028677820
5144.1292639158	0.0029204129
5146.0580712888	0.0029326137
5147.9868786619	0.0028008576
5149.9156860349	0.0028512673
5151.8444934080	0.0027952059
5153.7733007810	0.0027954488
5155.7021081541	0.0028804378
5157.6309155271	0.0028255964
5159.5597229002	0.0028220196
5161.4885302732	0.0028287612
5163.4173376463	0.0027960977
5165.3461450193	0.0027505853
5167.2749523923	0.0027933666
5169.2037597654	0.0027551777
5171.1325671384	0.0027261130
5173.0613745115	0.0027258531
5174.9901818845	0.0026497920
5176.9189892576	0.0027987808
5178.8477966306	0.0028519928
5180.7766040037	0.0028347236
5182.7054113767	0.0027918653
5184.6342187498	0.0026581711
5186.5630261228	0.0026710115
5188.4918334959	0.0026548624
5190.4206408689	0.0026697086
5192.3494482420	0.0026685307
5194.2782556150	0.0027133971
5196.2070629880	0.0026958766
5198.1358703611	0.0026217869
5200.0646777341	0.0027227737
5201.9934851072	0.0026486639
5203.9222924802	0.0025882463
5205.8510998533	0.0025942782
5207.7799072263	0.0025938419
5209.7087145994	0.0026335400
5211.6375219724	0.0025632947
5213.5663293455	0.0026185047
5215.4951367185	0.0026581341
5217.4239440916	0.0025607187
5219.3527514646	0.0025799926
5221.2815588377	0.0025889329
5223.2103662107	0.0025104284
5225.1391735837	0.0025146094
5227.0679809568	0.0025321769
5228.9967883298	0.0025760597
5230.9255957029	0.0025747132
5232.8544030759	0.0025202069
5234.7832104490	0.0025655138
5236.7120178220	0.0025445418
5238.6408251951	0.0025210425
5240.5696325681	0.0024784948
5242.4984399412	0.0024234683
5244.4272473142	0.0024018423
5246.3560546873	0.0024598623
5248.2848620603	0.0024852552
5250.2136694334	0.0023869609
5252.1424768064	0.0024581347
5254.0712841795	0.0023608557
5256.0000915525	0.0024205954
5257.9288989255	0.0025030114
5259.8577062986	0.0023332110
5261.7865136716	0.0024545088
5263.7153210447	0.0023253635
5265.6441284177	0.0023115578
5267.5729357908	0.0024213167
5269.5017431638	0.0023277476
5271.4305505369	0.0023605595
5273.3593579099	0.0023271879
5275.2881652830	0.0024200804
5277.2169726560	0.0024109767
5279.1457800291	0.0023605493
5281.0745874021	0.0023924129
5283.0033947752	0.0024173683
5284.9322021482	0.0023804139
5286.8610095212	0.0023048273
5288.7898168943	0.0023944944
5290.7186242673	0.0022397935
5292.6474316404	0.0022837520
5294.5762390134	0.0023735922
5296.5050463865	0.0022310209
5298.4338537595	0.0023621086
5300.3626611326	0.0023174461
5302.2914685056	0.0022105863
5304.2202758787	0.0022631681
5306.1490832517	0.0022782246
5308.0778906248	0.0022887355
5310.0066979978	0.0022799477
5311.9355053709	0.0021975634
5313.8643127439	0.0022046287
5315.7931201169	0.0022595963
5317.7219274900	0.0022426220
5319.6507348630	0.0023124809
5321.5795422361	0.0022361777
5323.5083496091	0.0022409582
5325.4371569822	0.0022800379
5327.3659643552	0.0021744776
5329.2947717283	0.0021561796
5331.2235791013	0.0020932383
5333.1523864744	0.0021655299
5335.0811938474	0.0022124685
5337.0100012205	0.0021647681
5338.9388085935	0.0021247270
5340.8676159666	0.0021311762
5342.7964233396	0.0021940735
5344.7252307126	0.0020602001
5346.6540380857	0.0020117315
5348.5828454587	0.0021174280
5350.5116528318	0.0021765602
5352.4404602048	0.0021012332
5354.3692675779	0.0020587621
5356.2980749509	0.0020895803
5358.2268823240	0.0020593992
5360.1556896970	0.0021041313
5362.0844970701	0.0020684118
5364.0133044431	0.0020971193
5365.9421118162	0.0021401471
5367.8709191892	0.0020407429
5369.7997265623	0.0020691990
5371.7285339353	0.0020660812
5373.6573413083	0.0020006346
5375.5861486814	0.0020572303
5377.5149560544	0.0020511425
5379.4437634275	0.0019610084
5381.3725708005	0.0019975002
5383.3013781736	0.0020067918
5385.2301855466	0.0020033307
5387.1589929197	0.0020172745
5389.0878002927	0.0020047412
5391.0166076658	0.0020583733
5392.9454150388	0.0020136437
5394.8742224119	0.0019636138
5396.8030297849	0.0020090593
5398.7318371580	0.0020730738
5400.6606445310	0.0020353929
5402.5894519041	0.0019685584
5404.5182592771	0.0019581942
5406.4470666501	0.0018919832
5408.3758740232	0.0019139992
5410.3046813962	0.0019480389
5412.2334887693	0.0019177827
5414.1622961423	0.0018589057
5416.0911035154	0.0018988893
5418.0199108884	0.0019496763
5419.9487182615	0.0019083093
5421.8775256345	0.0019906140
5423.8063330076	0.0019185832
5425.7351403806	0.0018528725
5427.6639477537	0.0018921387
5429.5927551267	0.0018218817
5431.5215624998	0.0018547165
5433.4503698728	0.0018406280
5435.3791772458	0.0018028303
5437.3079846189	0.0018923676
5439.2367919919	0.0018888203
5441.1655993650	0.0017968828
5443.0944067380	0.0018291502
5445.0232141111	0.0018232858
5446.9520214841	0.0018019545
5448.8808288572	0.0018544035
5450.8096362302	0.0018038482
5452.7384436033	0.0018440505
5454.6672509763	0.0018760832
5456.5960583494	0.0018280137
5458.5248657224	0.0017954545
5460.4536730955	0.0017684951
5462.3824804685	0.0018303184
5464.3112878415	0.0017416065
5466.2400952146	0.0016941188
5468.1689025876	0.0017954259
5470.0977099607	0.0017455405
5472.0265173337	0.0017843328
5473.9553247068	0.0018056089
5475.8841320798	0.0017186924
5477.8129394529	0.0018249366
5479.7417468259	0.0017986859
5481.6705541990	0.0017079344
5483.5993615720	0.0017379252
5485.5281689451	0.0016862060
5487.4569763181	0.0017104903
5489.3857836912	0.0016984277
5491.3145910642	0.0017080950
5493.2433984372	0.0017141518
5495.1722058103	0.0016309598
5497.1010131833	0.0016786766
5499.0298205564	0.0017432885
5500.9586279294	0.0017274769
5502.8874353025	0.0016213527
5504.8162426755	0.0017005093
5506.7450500486	0.0017129681
5508.6738574216	0.0015944481
5510.6026647947	0.0016862536
5512.5314721677	0.0016398027
5514.4602795408	0.0016029275
5516.3890869138	0.0016075046
5518.3178942869	0.0016499753
5520.2467016599	0.0017012362
5522.1755090330	0.0016465157
5524.1043164060	0.0016622648
5526.0331237790	0.0016048406
5527.9619311521	0.0016714925
5529.8907385251	0.0016948658
5531.8195458982	0.0016206766
5533.7483532712	0.0016182205
5535.6771606443	0.0016147066
5537.6059680173	0.0016637031
5539.5347753904	0.0015672855
5541.4635827634	0.0016181176
5543.3923901365	0.0016729438
5545.3211975095	0.0016137486
5547.2500048826	0.0016608331
5549.1788122556	0.0015422071
5551.1076196287	0.0014984363
5553.0364270017	0.0015238943
5554.9652343747	0.0015221250
5556.8940417478	0.0015833636
5558.8228491208	0.0015558002
5560.7516564939	0.0015081179
5562.6804638669	0.0015542340
5564.6092712400	0.0016183986
5566.5380786130	0.0015430688
5568.4668859861	0.0015112797
5570.3956933591	0.0015523712
5572.3245007322	0.0014647446
5574.2533081052	0.0014530838
5576.1821154783	0.0015740774
5578.1109228513	0.0015277863
5580.0397302244	0.0014503564
5581.9685375974	0.0014943547
5583.8973449704	0.0014325047
5585.8261523435	0.0014553594
5587.7549597165	0.0014550390
5589.6837670896	0.0013723455
5591.6125744626	0.0014637529
5593.5413818357	0.0014225050
5595.4701892087	0.0014450032
5597.3989965818	0.0015126762
5599.3278039548	0.0014731212
5601.2566113279	0.0015816560
5603.1854187009	0.0014622677
5605.1142260740	0.0013885943
5607.0430334470	0.0015023460
5608.9718408201	0.0014419465
5610.9006481931	0.0014534013
5612.8294555661	0.0014438303
5614.7582629392	0.0014690487
5616.6870703122	0.0014780369
5618.6158776853	0.0013707676
5620.5446850583	0.0014400538
5622.4734924314	0.0014573138
5624.4022998044	0.0013821678
5626.3311071775	0.0014114364
5628.2599145505	0.0013772602
5630.1887219236	0.0012754670
5632.1175292966	0.0013534599
5634.0463366697	0.0013905592
5635.9751440427	0.0013398756
5637.9039514158	0.0013843983
5639.8327587888	0.0013509390
5641.7615661619	0.0014072766
5643.6903735349	0.0013561996
5645.6191809079	0.0012960683
5647.5479882810	0.0014279371
5649.4767956540	0.0013928507
5651.4056030271	0.0013767290
5653.3344104001	0.0013224246
5655.2632177732	0.0013294367
5657.1920251462	0.0013624979
5659.1208325193	0.0013027061
5661.0496398923	0.0013763267
5662.9784472654	0.0013147300
5664.9072546384	0.0012550273
5666.8360620115	0.0013008895
5668.7648693845	0.0013507272
5670.6936767576	0.0013544296
5672.6224841306	0.0013410649
5674.5512915036	0.0013535002
5676.4800988767	0.0012770614
5678.4089062497	0.0013145756
5680.3377136228	0.0012584920
5682.2665209958	0.0012184291
5684.1953283689	0.0013001413
5686.1241357419	0.0012357024
5688.0529431150	0.0012918499
5689.9817504880	0.0013253484
5691.9105578611	0.0012905091
5693.8393652341	0.0012604443
5695.7681726072	0.0012128488
5697.6969799802	0.0012808640
5699.6257873533	0.0012563763
5701.5545947263	0.0012096519
5703.4834020993	0.0012472491
5705.4122094724	0.0012445794
5707.3410168454	0.0012200158
5709.2698242185	0.0011860356
5711.1986315915	0.0012204819
5713.1274389646	0.0012709918
5715.0562463376	0.0012460477
5716.9850537107	0.0012348939
5718.9138610837	0.0012365167
5720.8426684568	0.0012293374
5722.7714758298	0.0011800365
5724.7002832029	0.0011756690
5726.6290905759	0.0012018459
5728.5578979490	0.0011214117
5730.4867053220	0.0011661388
5732.4155126950	0.0012165455
5734.3443200681	0.0011583159
5736.2731274411	0.0011356268
5738.2019348142	0.0011144151
5740.1307421872	0.0012135808
5742.0595495603	0.0012083800
5743.9883569333	0.0011416330
5745.9171643064	0.0011757012
5747.8459716794	0.0010681485
5749.7747790525	0.0010978524
5751.7035864255	0.0012064006
5753.6323937986	0.0011326997
5755.5612011716	0.0011304519
5757.4900085447	0.0011312750
5759.4188159177	0.0011492567
5761.3476232907	0.0012060022
5763.2764306638	0.0011356166
5765.2052380368	0.0011208104
5767.1340454099	0.0011404096
5769.0628527829	0.0011264239
5770.9916601560	0.0010959728
5772.9204675290	0.0011077677
5774.8492749021	0.0011522104
5776.7780822751	0.0010938054
5778.7068896482	0.0011267571
5780.6356970212	0.0011030650
5782.5645043943	0.0010576486
5784.4933117673	0.0010682472
5786.4221191404	0.0010219254
5788.3509265134	0.0010952675
5790.2797338865	0.0010653841
5792.2085412595	0.0010455888
5794.1373486325	0.0010562480
5796.0661560056	0.0010459707
5797.9949633786	0.0010758176
5799.9237707517	0.0010210844
5801.8525781247	0.0011060253
5803.7813854978	0.0011032000
5805.7101928708	0.0010448778
5807.6390002439	0.0010642564
5809.5678076169	0.0010420091
5811.4966149900	0.0010516257
5813.4254223630	0.0010554886
5815.3542297361	0.0010642887
5817.2830371091	0.0010336570
5819.2118444822	0.0010798542
5821.1406518552	0.0010038315
5823.0694592282	0.0009611355
5824.9982666013	0.0010651302
5826.9270739743	0.0009738319
5828.8558813474	0.0009994125
5830.7846887204	0.0010690864
5832.7134960935	0.0010577207
5834.6423034665	0.0010023513
5836.5711108396	0.0010096821
5838.4999182126	0.0010815298
5840.4287255857	0.0010007946
5842.3575329587	0.0009762843
5844.2863403318	0.0009615341
5846.2151477048	0.0009642794
5848.1439550779	0.0009713807
5850.0727624509	0.0009611352
5852.0015698239	0.0009490985
5853.9303771970	0.0009209011
5855.8591845700	0.0009835130
5857.7879919431	0.0009529049
5859.7167993161	0.0009402886
5861.6456066892	0.0009455257
5863.5744140622	0.0009116225
5865.5032214353	0.0009382870
5867.4320288083	0.0009572180
5869.3608361814	0.0009255952
5871.2896435544	0.0008808975
5873.2184509275	0.0009445790
5875.1472583005	0.0009616379
5877.0760656736	0.0009500365
5879.0048730466	0.0009738008
5880.9336804196	0.0009783191
5882.8624877927	0.0009574728
5884.7912951657	0.0009784077
5886.7201025388	0.0009907550
5888.6489099118	0.0008674681
5890.5777172849	0.0009153774
5892.5065246579	0.0009372589
5894.4353320310	0.0008830987
5896.3641394040	0.0008871737
5898.2929467771	0.0008361440
5900.2217541501	0.0009486866
5902.1505615232	0.0009339731
5904.0793688962	0.0008309301
5906.0081762693	0.0009529330
5907.9369836423	0.0010127927
5909.8657910154	0.0009226704
5911.7945983884	0.0009075564
5913.7234057614	0.0008710489
5915.6522131345	0.0008538031
5917.5810205075	0.0009717509
5919.5098278806	0.0008739816
5921.4386352536	0.0008270490
5923.3674426267	0.0008656704
5925.2962499997	0.0007945793
5927.2250573728	0.0008375790
5929.1538647458	0.0008371152
5931.0826721189	0.0008532916
5933.0114794919	0.0009115627
5934.9402868650	0.0008564338
5936.8690942380	0.0007555924
5938.7979016111	0.0008322005
5940.7267089841	0.0008639093
5942.6555163571	0.0007514574
5944.5843237302	0.0008380786
5946.5131311032	0.0008504762
5948.4419384763	0.0008015420
5950.3707458493	0.0007943688
5952.2995532224	0.0007697992
5954.2283605954	0.0007864011
5956.1571679685	0.0008097680
5958.0859753415	0.0008780495
5960.0147827146	0.0008029660
5961.9435900876	0.0007589811
5963.8723974607	0.0008203232
5965.8012048337	0.0008126683
5967.7300122068	0.0008120203
5969.6588195798	0.0007996071
5971.5876269528	0.0007721619
5973.5164343259	0.0007599418
5975.4452416989	0.0007769314
5977.3740490720	0.0007444177
5979.3028564450	0.0007720729
5981.2316638181	0.0008347264
5983.1604711911	0.0008281196
5985.0892785642	0.0007880978
5987.0180859372	0.0007116509
5988.9468933103	0.0007498163
5990.8757006833	0.0007449321
5992.8045080564	0.0007513962
5994.7333154294	0.0008159690
5996.6621228025	0.0007414328
5998.5909301755	0.0007615098
6000.5197375485	0.0007744299
