399.2631262207	-0.0000921668
401.1919335938	0.0003203381
403.1207409668	0.0001704093
405.0495483398	-0.0001454810
406.9783557129	0.0002179783
408.9071630859	0.0002279425
410.8359704590	0.0003498060
412.7647778320	0.0002039515
414.6935852051	0.0001714336
416.6223925781	0.0002104855
418.5511999512	-0.0000456456
420.4800073242	0.0000017070
422.4088146973	0.0000496902
424.3376220703	-0.0000065459
426.2664294434	0.0003729428
428.1952368164	0.0005484537
430.1240441895	0.0000171447
432.0528515625	0.0003741175
433.9816589355	0.0004904392
435.9104663086	0.0000453844
437.8392736816	0.0002693661
439.7680810547	0.0000519167
441.6968884277	0.0002345647
443.6256958008	0.0002849031
445.5545031738	0.0000465758
447.4833105469	0.0004764897
449.4121179199	0.0001018585
451.3409252930	0.0000670529
453.2697326660	0.0005082319
455.1985400391	0.0001136969
457.1273474121	0.0000443948
459.0561547852	0.0001842523
460.9849621582	-0.0000636826
462.9137695313	0.0000331095
464.8425769043	0.0003610487
466.7713842773	0.0001411343
468.7001916504	-0.0000520886
470.6289990234	0.0000846764
472.5578063965	0.0003829818
474.4866137695	0.0005304430
476.4154211426	0.0002519835
478.3442285156	0.0003382677
480.2730358887	0.0004533815
482.2018432617	0.0003013138
484.1306506348	0.0002443100
486.0594580078	0.0000904024
487.9882653809	-0.0000393333
489.9170727539	0.0000769905
491.8458801270	0.0003553924
493.7746875000	0.0003298791
495.7034948730	0.0000748903
497.6323022461	-0.0000045844
499.5611096191	0.0001387656
501.4899169922	0.0002603485
503.4187243652	0.0002393711
505.3475317383	-0.0000494794
507.2763391113	0.0000166375
509.2051464844	0.0005294319
511.1339538574	0.0004991678
513.0627612305	0.0003047173
514.9915686035	0.0003181320
516.9203759766	0.0002288926
518.8491833496	0.0001291812
520.7779907227	0.0000918256
522.7067980957	0.0002570833
524.6356054688	0.0001414949
526.5644128418	0.0002429370
528.4932202148	0.0004591146
530.4220275879	0.0000140041
532.3508349609	0.0001410409
534.2796423340	0.0003440825
536.2084497070	0.0002497016
538.1372570801	0.0004324431
540.0660644531	0.0003099252
541.9948718262	0.0000219568
543.9236791992	0.0000541251
545.8524865723	0.0001434321
547.7812939453	-0.0000505954
549.7101013184	0.0001339532
551.6389086914	0.0003697345
553.5677160645	0.0002084659
555.4965234375	0.0001873510
557.4253308105	0.0003005282
559.3541381836	0.0004946049
561.2829455566	0.0004188337
563.2117529297	0.0001595325
565.1405603027	0.0001010270
567.0693676758	0.0000533741
568.9981750488	0.0000964158
570.9269824219	0.0002128797
572.8557897949	0.0002856862
574.7845971680	0.0002615297
576.7134045410	0.0003160220
578.6422119141	0.0004921851
580.5710192871	0.0002715283
582.4998266602	0.0002511789
584.4286340332	0.0002541629
586.3574414063	-0.0000269033
588.2862487793	0.0001076412
590.2150561523	0.0000915222
592.1438635254	0.0002956274
594.0726708984	0.0004432576
596.0014782715	0.0001413713
597.9302856445	0.0003455692
599.8590930176	0.0001135821
601.7879003906	0.0001244575
603.7167077637	0.0003462909
605.6455151367	0.0000667669
607.5743225098	0.0001339776
609.5031298828	0.0002462380
611.4319372559	0.0005908400
613.3607446289	0.0000978902
615.2895520020	0.0000539815
617.2183593750	0.0005438514
619.1471667480	0.0001814137
621.0759741211	0.0005944853
623.0047814941	0.0002658748
624.9335888672	0.0002245795
626.8623962402	0.0005543194
628.7912036133	0.0001728457
630.7200109863	0.0003574184
632.6488183594	-0.0000434712
634.5776257324	0.0001831428
636.5064331055	0.0006279653
638.4352404785	0.0003955454
640.3640478516	0.0003611225
642.2928552246	0.0003099599
644.2216625977	0.0005984081
646.1504699707	0.0005164805
648.0792773438	0.0004015547
650.0080847168	0.0006226049
651.9368920898	0.0005425656
653.8656994629	0.0002877486
655.7945068359	0.0003315423
657.7233142090	0.0006287661
659.6521215820	0.0005634337
661.5809289551	0.0004346414
663.5097363281	0.0005113001
665.4385437012	0.0004695011
667.3673510742	0.0002839371
669.2961584473	0.0003114736
671.2249658203	0.0004274248
673.1537731934	0.0006227363
675.0825805664	0.0006271403
677.0113879395	0.0004788155
678.9401953125	0.0006639341
680.8690026855	0.0005977823
682.7978100586	0.0006400116
684.7266174316	0.0006847864
686.6554248047	0.0006429342
688.5842321777	0.0006550285
690.5130395508	0.0004688098
692.4418469238	0.0008183087
694.3706542969	0.0006254084
696.2994616699	0.0002742102
698.2282690430	0.0007551120
700.1570764160	0.0009091335
702.0858837891	0.0008237388
704.0146911621	0.0007555973
705.9434985352	0.0007480542
707.8723059082	0.0008129011
709.8011132813	0.0006686600
711.7299206543	0.0004332933
713.6587280273	0.0004021220
715.5875354004	0.0002558622
717.5163427734	0.0003138857
719.4451501465	0.0005346158
721.3739575195	0.0002307805
723.3027648926	0.0002222393
725.2315722656	0.0002558004
727.1603796387	0.0002871370
729.0891870117	0.0004638924
731.0179943848	0.0004831580
732.9468017578	0.0004647759
734.8756091309	0.0001289889
736.8044165039	0.0003587989
738.7332238770	0.0005201841
740.6620312500	0.0004393643
742.5908386230	0.0005854485
744.5196459961	0.0001944899
746.4484533691	0.0003136313
748.3772607422	0.0004102190
750.3060681152	0.0002222917
752.2348754883	0.0004408927
754.1636828613	0.0002785824
756.0924902344	0.0003497349
758.0212976074	0.0005651860
759.9501049805	0.0003112596
761.8789123535	0.0002771741
763.8077197266	0.0004523972
765.7365270996	0.0004045548
767.6653344727	0.0005346176
769.5941418457	0.0007054037
771.5229492188	0.0003093852
773.4517565918	0.0003140825
775.3805639648	0.0005397198
777.3093713379	0.0002137642
779.2381787109	0.0002235290
781.1669860840	0.0004202421
783.0957934570	0.0005524019
785.0246008301	0.0004462499
786.9534082031	0.0002137477
788.8822155762	0.0003553115
790.8110229492	0.0004125650
792.7398303223	0.0005759539
794.6686376953	0.0004226016
796.5974450684	0.0002709691
798.5262524414	0.0006135019
800.4550598145	0.0004984334
802.3838671875	0.0005239501
804.3126745605	0.0005879453
806.2414819336	0.0005508164
808.1702893066	0.0005174747
810.0990966797	0.0003999945
812.0279040527	0.0006306192
813.9567114258	0.0004732218
815.8855187988	0.0004907660
817.8143261719	0.0006725318
819.7431335449	0.0005124459
821.6719409180	0.0006682349
823.6007482910	0.0005673127
825.5295556641	0.0003295992
827.4583630371	0.0005110997
829.3871704102	0.0006816597
831.3159777832	0.0006451407
833.2447851563	0.0006823404
835.1735925293	0.0005847702
837.1023999023	0.0005241678
839.0312072754	0.0006711785
840.9600146484	0.0007611415
842.8888220215	0.0008102480
844.8176293945	0.0004565488
846.7464367676	0.0004220103
848.6752441406	0.0006407002
850.6040515137	0.0005114051
852.5328588867	0.0004865372
854.4616662598	0.0005022777
856.3904736328	0.0006413532
858.3192810059	0.0006550751
860.2480883789	0.0007815216
862.1768957520	0.0008204511
864.1057031250	0.0006613851
866.0345104980	0.0007368329
867.9633178711	0.0004993836
869.8921252441	0.0005580168
871.8209326172	0.0007125473
873.7497399902	0.0006395972
875.6785473633	0.0008119310
877.6073547363	0.0008024725
879.5361621094	0.0007760173
881.4649694824	0.0006478422
883.3937768555	0.0005624206
885.3225842285	0.0009194891
887.2513916016	0.0010747038
889.1801989746	0.0009009741
891.1090063477	0.0010654973
893.0378137207	0.0013148556
894.9666210938	0.0012310068
896.8954284668	0.0012694919
898.8242358398	0.0013862005
900.7530432129	0.0012671424
902.6818505859	0.0013343687
904.6106579590	0.0014375095
906.5394653320	0.0011094641
908.4682727051	0.0012029435
910.3970800781	0.0014251035
912.3258874512	0.0011223722
914.2546948242	0.0011085434
916.1835021973	0.0012807024
918.1123095703	0.0011452977
920.0411169434	0.0010307683
921.9699243164	0.0012798549
923.8987316895	0.0012035437
925.8275390625	0.0012490355
927.7563464355	0.0015900707
929.6851538086	0.0012760845
931.6139611816	0.0014279468
933.5427685547	0.0017112794
935.4715759277	0.0016220093
937.4003833008	0.0018457184
939.3291906738	0.0017450710
941.2579980469	0.0015992208
943.1868054199	0.0016558859
945.1156127930	0.0015052237
947.0444201660	0.0013027077
948.9732275391	0.0011382541
950.9020349121	0.0010825167
952.8308422852	0.0011305341
954.7596496582	0.0011643177
956.6884570313	0.0013236958
958.6172644043	0.0011621624
960.5460717773	0.0010047865
962.4748791504	0.0013445709
964.4036865234	0.0012874777
966.3324938965	0.0011830281
968.2613012695	0.0010329685
970.1901086426	0.0010828357
972.1189160156	0.0013430458
974.0477233887	0.0010167658
975.9765307617	0.0012113699
977.9053381348	0.0012244316
979.8341455078	0.0010638803
981.7629528809	0.0012296722
983.6917602539	0.0009706605
985.6205676270	0.0012088354
987.5493750000	0.0012968193
989.4781823730	0.0011243601
991.4069897461	0.0012938471
993.3357971191	0.0013053587
995.2646044922	0.0011854935
997.1934118652	0.0010928068
999.1222192383	0.0012850761
1001.0510266113	0.0013822146
1002.9798339844	0.0014482348
1004.9086413574	0.0014229899
1006.8374487305	0.0014319525
1008.7662561035	0.0016022853
1010.6950634766	0.0014907736
1012.6238708496	0.0017383351
1014.5526782227	0.0017417800
1016.4814855957	0.0014374977
1018.4102929688	0.0017851695
1020.3391003418	0.0019681929
1022.2679077148	0.0017440019
1024.1967150879	0.0018029751
1026.1255224609	0.0020871330
1028.0543298340	0.0020655752
1029.9831372070	0.0019030084
1031.9119445801	0.0021378854
1033.8407519531	0.0023304052
1035.7695593262	0.0020880275
1037.6983666992	0.0021235659
1039.6271740723	0.0022247331
1041.5559814453	0.0022019395
1043.4847888184	0.0023348192
1045.4135961914	0.0021520555
1047.3424035645	0.0021945592
1049.2712109375	0.0022937977
1051.2000183105	0.0022676345
1053.1288256836	0.0022076122
1055.0576330566	0.0019129924
1056.9864404297	0.0021111118
1058.9152478027	0.0020170179
1060.8440551758	0.0020173443
1062.7728625488	0.0022416362
1064.7016699219	0.0018479335
1066.6304772949	0.0018795413
1068.5592846680	0.0018373448
1070.4880920410	0.0018070743
1072.4168994141	0.0018375940
1074.3457067871	0.0016357724
1076.2745141602	0.0017126888
1078.2033215332	0.0015386199
1080.1321289062	0.0016113142
1082.0609362793	0.0016074223
1083.9897436523	0.0016447144
1085.9185510254	0.0017430495
1087.8473583984	0.0013592297
1089.7761657715	0.0015867668
1091.7049731445	0.0016436006
1093.6337805176	0.0016164221
1095.5625878906	0.0016805467
1097.4913952637	0.0015912235
1099.4202026367	0.0017573007
1101.3490100098	0.0014935350
1103.2778173828	0.0016417599
1105.2066247559	0.0017764580
1107.1354321289	0.0016155192
1109.0642395019	0.0016360451
1110.9930468750	0.0014937139
1112.9218542480	0.0015881681
1114.8506616211	0.0015068274
1116.7794689941	0.0014414727
1118.7082763672	0.0013695884
1120.6370837402	0.0015158588
1122.5658911133	0.0015729642
1124.4946984863	0.0013321710
1126.4235058594	0.0015723896
1128.3523132324	0.0012698036
1130.2811206055	0.0013331507
1132.2099279785	0.0016055868
1134.1387353516	0.0013120688
1136.0675427246	0.0013983338
1137.9963500977	0.0012839242
1139.9251574707	0.0012937902
1141.8539648437	0.0014335932
1143.7827722168	0.0015214891
1145.7115795898	0.0014998122
1147.6403869629	0.0014242530
1149.5691943359	0.0015370699
1151.4980017090	0.0014612495
1153.4268090820	0.0016507284
1155.3556164551	0.0017031953
1157.2844238281	0.0016818763
1159.2132312012	0.0017685280
1161.1420385742	0.0017431080
1163.0708459473	0.0018560656
1164.9996533203	0.0018452352
1166.9284606934	0.0019618247
1168.8572680664	0.0020234208
1170.7860754394	0.0020930427
1172.7148828125	0.0022009462
1174.6436901855	0.0022129184
1176.5724975586	0.0022561536
1178.5013049316	0.0022479463
1180.4301123047	0.0025240160
1182.3589196777	0.0026121149
1184.2877270508	0.0027282825
1186.2165344238	0.0028840355
1188.1453417969	0.0028304358
1190.0741491699	0.0031006206
1192.0029565430	0.0030353563
1193.9317639160	0.0030325097
1195.8605712891	0.0034540920
1197.7893786621	0.0036065271
1199.7181860351	0.0035637228
1201.6469934082	0.0036998561
1203.5758007812	0.0040455712
1205.5046081543	0.0039944826
1207.4334155273	0.0041052587
1209.3622229004	0.0044500874
1211.2910302734	0.0043776846
1213.2198376465	0.0045367097
1215.1486450195	0.0047021369
1217.0774523926	0.0046970043
1219.0062597656	0.0047695525
1220.9350671387	0.0049620396
1222.8638745117	0.0051465575
1224.7926818848	0.0049260883
1226.7214892578	0.0050205993
1228.6502966308	0.0051905764
1230.5791040039	0.0050238967
1232.5079113769	0.0050327214
1234.4367187500	0.0050560748
1236.3655261230	0.0050986214
1238.2943334961	0.0050798794
1240.2231408691	0.0051214583
1242.1519482422	0.0050484887
1244.0807556152	0.0050531346
1246.0095629883	0.0052284724
1247.9383703613	0.0049739173
1249.8671777344	0.0049815616
1251.7959851074	0.0049589006
1253.7247924805	0.0048036855
1255.6535998535	0.0049268659
1257.5824072266	0.0048853215
1259.5112145996	0.0048838709
1261.4400219726	0.0047641080
1263.3688293457	0.0046347780
1265.2976367187	0.0046221479
1267.2264440918	0.0046057338
1269.1552514648	0.0044612223
1271.0840588379	0.0042734658
1273.0128662109	0.0043056272
1274.9416735840	0.0042294776
1276.8704809570	0.0042158756
1278.7992883301	0.0041079978
1280.7280957031	0.0040506814
1282.6569030762	0.0042189118
1284.5857104492	0.0041415710
1286.5145178223	0.0039892001
1288.4433251953	0.0039048358
1290.3721325683	0.0038421713
1292.3009399414	0.0036481905
1294.2297473144	0.0036097015
1296.1585546875	0.0036150785
1298.0873620605	0.0035914285
1300.0161694336	0.0037289176
1301.9449768066	0.0037367414
1303.8737841797	0.0038037477
1305.8025915527	0.0038299975
1307.7313989258	0.0038781033
1309.6602062988	0.0038810528
1311.5890136719	0.0039995434
1313.5178210449	0.0042159627
1315.4466284180	0.0040672710
1317.3754357910	0.0041203806
1319.3042431640	0.0042550536
1321.2330505371	0.0044660755
1323.1618579101	0.0046802536
1325.0906652832	0.0047430145
1327.0194726562	0.0048159873
1328.9482800293	0.0047362568
1330.8770874023	0.0050507640
1332.8058947754	0.0052258214
1334.7347021484	0.0051716175
1336.6635095215	0.0054089716
1338.5923168945	0.0053287931
1340.5211242676	0.0053565805
1342.4499316406	0.0055927322
1344.3787390137	0.0056065661
1346.3075463867	0.0056894645
1348.2363537597	0.0054684179
1350.1651611328	0.0053702788
1352.0939685058	0.0056968653
1354.0227758789	0.0053820452
1355.9515832519	0.0051792450
1357.8803906250	0.0052278629
1359.8091979980	0.0050597508
1361.7380053711	0.0050916597
1363.6668127441	0.0050081676
1365.5956201172	0.0052370359
1367.5244274902	0.0052371426
1369.4532348633	0.0051173167
1371.3820422363	0.0051910412
1373.3108496094	0.0047378861
1375.2396569824	0.0048646750
1377.1684643555	0.0051701339
1379.0972717285	0.0050185146
1381.0260791015	0.0049401503
1382.9548864746	0.0049198139
1384.8836938476	0.0048818844
1386.8125012207	0.0047531538
1388.7413085937	0.0049450314
1390.6701159668	0.0052219611
1392.5989233398	0.0051792236
1394.5277307129	0.0049606133
1396.4565380859	0.0050455416
1398.3853454590	0.0051174648
1400.3141528320	0.0051302137
1402.2429602051	0.0053754365
1404.1717675781	0.0050884713
1406.1005749512	0.0051549487
1408.0293823242	0.0053407196
1409.9581896972	0.0051325643
1411.8869970703	0.0052844090
1413.8158044433	0.0050822697
1415.7446118164	0.0049875490
1417.6734191894	0.0048524141
1419.6022265625	0.0045061563
1421.5310339355	0.0047485786
1423.4598413086	0.0047015045
1425.3886486816	0.0045482581
1427.3174560547	0.0047270986
1429.2462634277	0.0045238580
1431.1750708008	0.0042491639
1433.1038781738	0.0043575130
1435.0326855469	0.0040983642
1436.9614929199	0.0036191090
1438.8903002929	0.0039512957
1440.8191076660	0.0041602096
1442.7479150390	0.0038569542
1444.6767224121	0.0038817411
1446.6055297851	0.0037535294
1448.5343371582	0.0037527638
1450.4631445312	0.0038614408
1452.3919519043	0.0037728162
1454.3207592773	0.0040184162
1456.2495666504	0.0035870173
1458.1783740234	0.0035599656
1460.1071813965	0.0045519751
1462.0359887695	0.0046035871
1463.9647961426	0.0046565840
1465.8936035156	0.0048765000
1467.8224108886	0.0051314700
1469.7512182617	0.0056268061
1471.6800256347	0.0054176785
1473.6088330078	0.0056372564
1475.5376403808	0.0060913423
1477.4664477539	0.0064207977
1479.3952551269	0.0070082098
1481.3240625000	0.0071988367
1483.2528698730	0.0074873525
1485.1816772461	0.0075811255
1487.1104846191	0.0076394225
1489.0392919922	0.0077834101
1490.9680993652	0.0078358054
1492.8969067383	0.0086817686
1494.8257141113	0.0084881913
1496.7545214843	0.0079379324
1498.6833288574	0.0088236537
1500.6121362304	0.0090427268
1502.5409436035	0.0094892308
1504.4697509765	0.0090071894
1506.3985583496	0.0072864564
1508.3273657226	0.0083840787
1510.2561730957	0.0092165899
1512.1849804687	0.0092777126
1514.1137878418	0.0098467786
1516.0425952148	0.0091243908
1517.9714025879	0.0096455691
1519.9002099609	0.0091617927
1521.8290173340	0.0083126258
1523.7578247070	0.0094918013
1525.6866320801	0.0092218444
1527.6154394531	0.0094894748
1529.5442468261	0.0103245415
1531.4730541992	0.0100155538
1533.4018615722	0.0093041211
1535.3306689453	0.0097964760
1537.2594763183	0.0102242529
1539.1882836914	0.0077902065
1541.1170910644	0.0081844078
1543.0458984375	0.0094801821
1544.9747058105	0.0092615727
1546.9035131836	0.0103876386
1548.8323205566	0.0096824002
1550.7611279297	0.0100379232
1552.6899353027	0.0101405270
1554.6187426758	0.0093263211
1556.5475500488	0.0096476767
1558.4763574218	0.0076263566
1560.4051647949	0.0082322378
1562.3339721679	0.0104326718
1564.2627795410	0.0099613518
1566.1915869140	0.0103318216
1568.1203942871	0.0102383997
1570.0492016601	0.0093101356
1571.9780090332	0.0103150681
1573.9068164062	0.0103941169
1575.8356237793	0.0085875895
1577.7644311523	0.0094525144
1579.6932385254	0.0105224447
1581.6220458984	0.0100957993
1583.5508532715	0.0104659423
1585.4796606445	0.0103390422
1587.4084680175	0.0102826534
1589.3372753906	0.0103486106
1591.2660827636	0.0103403283
1593.1948901367	0.0102304025
1595.1236975097	0.0101829674
1597.0525048828	0.0103258006
1598.9813122558	0.0100387102
1600.9101196289	0.0102234222
1602.8389270019	0.0102309091
1604.7677343750	0.0101179611
1606.6965417480	0.0100785438
1608.6253491211	0.0102582481
1610.5541564941	0.0101773962
1612.4829638672	0.0101526361
1614.4117712402	0.0103694405
1616.3405786132	0.0088409465
1618.2693859863	0.0093330611
1620.1981933593	0.0105467364
1622.1270007324	0.0095870579
1624.0558081054	0.0097590704
1625.9846154785	0.0101310275
1627.9134228515	0.0099566597
1629.8422302246	0.0098913396
1631.7710375976	0.0104911271
1633.6998449707	0.0098265316
1635.6286523437	0.0084735081
1637.5574597168	0.0094712554
1639.4862670898	0.0101475101
1641.4150744629	0.0100572752
1643.3438818359	0.0102185756
1645.2726892090	0.0095131658
1647.2014965820	0.0086339898
1649.1303039550	0.0100756055
1651.0591113281	0.0097196996
1652.9879187011	0.0070119640
1654.9167260742	0.0089715980
1656.8455334472	0.0104429945
1658.7743408203	0.0099544143
1660.7031481933	0.0105127133
1662.6319555664	0.0095934765
1664.5607629394	0.0099058179
1666.4895703125	0.0105180107
1668.4183776855	0.0095480671
1670.3471850586	0.0095228646
1672.2759924316	0.0103323907
1674.2047998047	0.0096160509
1676.1336071777	0.0094519984
1678.0624145507	0.0105617419
1679.9912219238	0.0101832766
1681.9200292968	0.0101381205
1683.8488366699	0.0086025968
1685.7776440429	0.0084762704
1687.7064514160	0.0107467081
1689.6352587890	0.0097143445
1691.5640661621	0.0105880080
1693.4928735351	0.0104994699
1695.4216809082	0.0084147211
1697.3504882812	0.0098878611
1699.2792956543	0.0088821929
1701.2081030273	0.0084268516
1703.1369104004	0.0103219524
1705.0657177734	0.0095957424
1706.9945251464	0.0098342765
1708.9233325195	0.0104115400
1710.8521398925	0.0100141857
1712.7809472656	0.0100484081
1714.7097546386	0.0094911121
1716.6385620117	0.0087970002
1718.5673693847	0.0087969331
1720.4961767578	0.0100428648
1722.4249841308	0.0102770589
1724.3537915039	0.0097289607
1726.2825988769	0.0103051551
1728.2114062500	0.0096908296
1730.1402136230	0.0097863898
1732.0690209961	0.0094228648
1733.9978283691	0.0076994789
1735.9266357421	0.0091504036
1737.8554431152	0.0099054761
1739.7842504882	0.0092160339
1741.7130578613	0.0096860174
1743.6418652343	0.0096663944
1745.5706726074	0.0099034961
1747.4994799804	0.0099562462
1749.4282873535	0.0095981099
1751.3570947265	0.0092894342
1753.2859020996	0.0099800210
1755.2147094726	0.0104607400
1757.1435168457	0.0097859204
1759.0723242187	0.0103780022
1761.0011315918	0.0096928952
1762.9299389648	0.0095362701
1764.8587463379	0.0107779326
1766.7875537109	0.0097400956
1768.7163610839	0.0098156165
1770.6451684570	0.0097964006
1772.5739758300	0.0090633892
1774.5027832031	0.0100955088
1776.4315905761	0.0103628598
1778.3603979492	0.0101496261
1780.2892053222	0.0102122994
1782.2180126953	0.0102297105
1784.1468200683	0.0101894401
1786.0756274414	0.0101039223
1788.0044348144	0.0104626473
1789.9332421875	0.0102239437
1791.8620495605	0.0096185971
1793.7908569336	0.0098563610
1795.7196643066	0.0102423839
1797.6484716796	0.0101543395
1799.5772790527	0.0100237653
1801.5060864257	0.0099859750
1803.4348937988	0.0102095483
1805.3637011718	0.0102764564
1807.2925085449	0.0101685598
1809.2213159179	0.0102855824
1811.1501232910	0.0102024432
1813.0789306640	0.0102779418
1815.0077380371	0.0103044473
1816.9365454101	0.0102975192
1818.8653527832	0.0103021767
1820.7941601562	0.0103468839
1822.7229675293	0.0103934966
1824.6517749023	0.0099210320
1826.5805822753	0.0101772398
1828.5093896484	0.0100886906
1830.4381970214	0.0097063538
1832.3670043945	0.0101381475
1834.2958117675	0.0102041643
1836.2246191406	0.0103731733
1838.1534265136	0.0101714246
1840.0822338867	0.0103908610
1842.0110412597	0.0102906236
1843.9398486328	0.0092481896
1845.8686560058	0.0098423362
1847.7974633789	0.0101956837
1849.7262707519	0.0100603458
1851.6550781250	0.0102718268
1853.5838854980	0.0100842370
1855.5126928710	0.0102851689
1857.4415002441	0.0101888049
1859.3703076171	0.0100043304
1861.2991149902	0.0101111056
1863.2279223632	0.0101016257
1865.1567297363	0.0100484863
1867.0855371093	0.0098405834
1869.0143444824	0.0096970191
1870.9431518554	0.0097680595
1872.8719592285	0.0100475922
1874.8007666015	0.0101177879
1876.7295739746	0.0099220593
1878.6583813476	0.0098981746
1880.5871887207	0.0100670122
1882.5159960937	0.0099844271
1884.4448034667	0.0098219141
1886.3736108398	0.0099196769
1888.3024182128	0.0097148558
1890.2312255859	0.0096476972
1892.1600329589	0.0097935488
1894.0888403320	0.0097476551
1896.0176477050	0.0098656490
1897.9464550781	0.0097927619
1899.8752624511	0.0097880764
1901.8040698242	0.0098021645
1903.7328771972	0.0096070748
1905.6616845703	0.0096845441
1907.5904919433	0.0096807200
1909.5192993164	0.0098208571
1911.4481066894	0.0098235141
1913.3769140625	0.0097105466
1915.3057214355	0.0098673198
1917.2345288085	0.0094497651
1919.1633361816	0.0095502222
1921.0921435546	0.0098898411
1923.0209509277	0.0095681958
1924.9497583007	0.0096352883
1926.8785656738	0.0096356310
1928.8073730468	0.0097127948
1930.7361804199	0.0097184312
1932.6649877929	0.0095507503
1934.5937951660	0.0097117200
1936.5226025390	0.0096042631
1938.4514099121	0.0096631683
1940.3802172851	0.0096233226
1942.3090246582	0.0093149636
1944.2378320312	0.0094134118
1946.1666394042	0.0095700752
1948.0954467773	0.0096372440
1950.0242541503	0.0096370261
1951.9530615234	0.0094830943
1953.8818688964	0.0095075238
1955.8106762695	0.0096911192
1957.7394836425	0.0095296921
1959.6682910156	0.0094858138
1961.5970983886	0.0094555896
1963.5259057617	0.0094364360
1965.4547131347	0.0096312193
1967.3835205078	0.0094221104
1969.3123278808	0.0095581617
1971.2411352539	0.0095921541
1973.1699426269	0.0094217928
1975.0987499999	0.0095536504
1977.0275573730	0.0093841944
1978.9563647460	0.0094877835
1980.8851721191	0.0094406912
1982.8139794921	0.0093582869
1984.7427868652	0.0094569288
1986.6715942382	0.0093316846
1988.6004016113	0.0093557052
1990.5292089843	0.0091863275
1992.4580163574	0.0091715185
1994.3868237304	0.0092658233
1996.3156311035	0.0093127256
1998.2444384765	0.0093700811
2000.1732458496	0.0092757568
2002.1020532226	0.0093054203
2004.0308605956	0.0092024710
2005.9596679687	0.0091921594
2007.8884753417	0.0091980267
2009.8172827148	0.0091542816
2011.7460900878	0.0092200954
2013.6748974609	0.0092825079
2015.6037048339	0.0092525855
2017.5325122070	0.0090177748
2019.4613195800	0.0091155125
2021.3901269531	0.0091166180
2023.3189343261	0.0090832133
2025.2477416992	0.0090591088
2027.1765490722	0.0087661259
2029.1053564453	0.0090422276
2031.0341638183	0.0091238432
2032.9629711914	0.0088952351
2034.8917785644	0.0088267457
2036.8205859374	0.0088949865
2038.7493933105	0.0090666311
2040.6782006835	0.0088866213
2042.6070080566	0.0089706592
2044.5358154296	0.0088667106
2046.4646228027	0.0087303519
2048.3934301757	0.0089777727
2050.3222375488	0.0088637406
2052.2510449218	0.0088681318
2054.1798522949	0.0087895319
2056.1086596679	0.0088228006
2058.0374670410	0.0087818820
2059.9662744140	0.0085284412
2061.8950817871	0.0088049099
2063.8238891601	0.0087233027
2065.7526965331	0.0087058432
2067.6815039062	0.0087569458
2069.6103112792	0.0085385405
2071.5391186523	0.0087731201
2073.4679260253	0.0086779846
2075.3967333984	0.0085153915
2077.3255407714	0.0085457712
2079.2543481445	0.0084776971
2081.1831555175	0.0086685456
2083.1119628906	0.0087563135
2085.0407702636	0.0086799646
2086.9695776367	0.0085036997
2088.8983850097	0.0084619150
2090.8271923828	0.0086337691
2092.7559997558	0.0085740071
2094.6848071288	0.0085294638
2096.6136145019	0.0085523874
2098.5424218749	0.0084757702
2100.4712292480	0.0084673632
2102.4000366210	0.0084452797
2104.3288439941	0.0083983131
2106.2576513671	0.0083888993
2108.1864587402	0.0083697895
2110.1152661132	0.0083325887
2112.0440734863	0.0082736006
2113.9728808593	0.0083003920
2115.9016882324	0.0083643999
2117.8304956054	0.0084085613
2119.7593029785	0.0084156524
2121.6881103515	0.0082950182
2123.6169177245	0.0082001258
2125.5457250976	0.0081789698
2127.4745324706	0.0082801916
2129.4033398437	0.0083902488
2131.3321472167	0.0082715666
2133.2609545898	0.0081794616
2135.1897619628	0.0082020452
2137.1185693359	0.0081663728
2139.0473767089	0.0082096718
2140.9761840820	0.0082968799
2142.9049914550	0.0081668003
2144.8337988281	0.0080762748
2146.7626062011	0.0081241028
2148.6914135742	0.0081788339
2150.6202209472	0.0081783384
2152.5490283203	0.0080481991
2154.4778356933	0.0081081344
2156.4066430663	0.0081397872
2158.3354504394	0.0081204679
2160.2642578124	0.0082344925
2162.1930651855	0.0081454776
2164.1218725585	0.0080330875
2166.0506799316	0.0080526853
2167.9794873046	0.0081280041
2169.9082946777	0.0079852566
2171.8371020507	0.0079449099
2173.7659094238	0.0082639270
2175.6947167968	0.0082418695
2177.6235241699	0.0080601694
2179.5523315429	0.0080167977
2181.4811389160	0.0080441656
2183.4099462890	0.0080590285
2185.3387536620	0.0079812892
2187.2675610351	0.0080316290
2189.1963684081	0.0080002993
2191.1251757812	0.0078691281
2193.0539831542	0.0079813041
2194.9827905273	0.0080844434
2196.9115979003	0.0078982040
2198.8404052734	0.0078314450
2200.7692126464	0.0079413289
2202.6980200195	0.0079896189
2204.6268273925	0.0079548080
2206.5556347656	0.0078700837
2208.4844421386	0.0078673176
2210.4132495117	0.0077678440
2212.3420568847	0.0078237318
2214.2708642577	0.0078878123
2216.1996716308	0.0076484201
2218.1284790038	0.0076882723
2220.0572863769	0.0078990236
2221.9860937499	0.0079478500
2223.9149011230	0.0078265797
2225.8437084960	0.0077689700
2227.7725158691	0.0078462772
2229.7013232421	0.0078298412
2231.6301306152	0.0078219734
2233.5589379882	0.0078066257
2235.4877453613	0.0077282917
2237.4165527343	0.0076044947
2239.3453601074	0.0076761153
2241.2741674804	0.0077840579
2243.2029748534	0.0076606264
2245.1317822265	0.0076291477
2247.0605895995	0.0077296398
2248.9893969726	0.0077641346
2250.9182043456	0.0076223286
2252.8470117187	0.0075899605
2254.7758190917	0.0075991740
2256.7046264648	0.0075166388
2258.6334338378	0.0076087350
2260.5622412109	0.0076225428
2262.4910485839	0.0075554866
2264.4198559570	0.0075525045
2266.3486633300	0.0075161057
2268.2774707031	0.0074748714
2270.2062780761	0.0075282510
2272.1350854491	0.0075341514
2274.0638928222	0.0074876379
2275.9927001952	0.0075569861
2277.9215075683	0.0075198612
2279.8503149413	0.0075499453
2281.7791223144	0.0075643314
2283.7079296874	0.0074704150
2285.6367370605	0.0075563528
2287.5655444335	0.0075407224
2289.4943518066	0.0074936212
2291.4231591796	0.0074877599
2293.3519665527	0.0074138679
2295.2807739257	0.0073992228
2297.2095812988	0.0073767398
2299.1383886718	0.0072873291
2301.0671960449	0.0072011827
2302.9960034179	0.0071967873
2304.9248107909	0.0071561891
2306.8536181640	0.0070571108
2308.7824255370	0.0070695644
2310.7112329101	0.0071470793
2312.6400402831	0.0070736790
2314.5688476562	0.0069707232
2316.4976550292	0.0069201658
2318.4264624023	0.0067624692
2320.3552697753	0.0066471752
2322.2840771484	0.0065390617
2324.2128845214	0.0064462023
2326.1416918945	0.0064529721
2328.0704992675	0.0064586848
2329.9993066406	0.0064135096
2331.9281140136	0.0062251603
2333.8569213866	0.0061684512
2335.7857287597	0.0061952267
2337.7145361327	0.0061064563
2339.6433435058	0.0061084190
2341.5721508788	0.0061611393
2343.5009582519	0.0063507296
2345.4297656249	0.0065118074
2347.3585729980	0.0066290405
2349.2873803710	0.0069003329
2351.2161877441	0.0067110383
2353.1449951171	0.0062856260
2355.0738024902	0.0060857371
2357.0026098632	0.0058518937
2358.9314172363	0.0059108334
2360.8602246093	0.0058895955
2362.7890319823	0.0056343041
2364.7178393554	0.0058029168
2366.6466467284	0.0058770790
2368.5754541015	0.0058421134
2370.5042614745	0.0061450540
2372.4330688476	0.0063241092
2374.3618762206	0.0063773994
2376.2906835937	0.0066064997
2378.2194909667	0.0067844605
2380.1482983398	0.0068472694
2382.0771057128	0.0069973879
2384.0059130859	0.0070121484
2385.9347204589	0.0069356817
2387.8635278320	0.0069400785
2389.7923352050	0.0068756356
2391.7211425780	0.0069646994
2393.6499499511	0.0069903154
2395.5787573241	0.0068323361
2397.5075646972	0.0069157528
2399.4363720702	0.0070087425
2401.3651794433	0.0069460403
2403.2939868163	0.0069208350
2405.2227941894	0.0069741593
2407.1516015624	0.0070093488
2409.0804089355	0.0069680111
2411.0092163085	0.0069186967
2412.9380236816	0.0068768347
2414.8668310546	0.0068545900
2416.7956384277	0.0068292571
2418.7244458007	0.0068703704
2420.6532531738	0.0068250513
2422.5820605468	0.0067247008
2424.5108679198	0.0067863544
2426.4396752929	0.0067515802
2428.3684826659	0.0067774826
2430.2972900390	0.0068308599
2432.2260974120	0.0068380865
2434.1549047851	0.0068197707
2436.0837121581	0.0066503901
2438.0125195312	0.0067692436
2439.9413269042	0.0067718858
2441.8701342773	0.0067364937
2443.7989416503	0.0068372921
2445.7277490234	0.0066610388
2447.6565563964	0.0067959698
2449.5853637695	0.0067683700
2451.5141711425	0.0066057965
2453.4429785155	0.0067145694
2455.3717858886	0.0065934081
2457.3005932616	0.0066593597
2459.2294006347	0.0068133688
2461.1582080077	0.0067489482
2463.0870153808	0.0066099884
2465.0158227538	0.0066449875
2466.9446301269	0.0066764159
2468.8734374999	0.0065237856
2470.8022448730	0.0066706883
2472.7310522460	0.0067041740
2474.6598596191	0.0065752575
2476.5886669921	0.0065272972
2478.5174743652	0.0064602303
2480.4462817382	0.0065232697
2482.3750891112	0.0064553302
2484.3038964843	0.0064599710
2486.2327038573	0.0066510946
2488.1615112304	0.0066261496
2490.0903186034	0.0065038987
2492.0191259765	0.0065306472
2493.9479333495	0.0065238904
2495.8767407226	0.0064897779
2497.8055480956	0.0064483071
2499.7343554687	0.0063642142
2501.6631628417	0.0064839036
2503.5919702148	0.0064475853
2505.5207775878	0.0064302702
2507.4495849609	0.0065471223
2509.3783923339	0.0063749054
2511.3071997069	0.0063863345
2513.2360070800	0.0064566061
2515.1648144530	0.0063713230
2517.0936218261	0.0063855303
2519.0224291991	0.0064234631
2520.9512365722	0.0064118071
2522.8800439452	0.0064217197
2524.8088513183	0.0064060786
2526.7376586913	0.0062530204
2528.6664660644	0.0062770173
2530.5952734374	0.0063327244
2532.5240808105	0.0063575888
2534.4528881835	0.0064113918
2536.3816955566	0.0063346364
2538.3105029296	0.0063891197
2540.2393103027	0.0063727112
2542.1681176757	0.0063591306
2544.0969250487	0.0063569616
2546.0257324218	0.0062045688
2547.9545397948	0.0062225573
2549.8833471679	0.0062414827
2551.8121545409	0.0062408000
2553.7409619140	0.0062811160
2555.6697692870	0.0062421029
2557.5985766601	0.0061682649
2559.5273840331	0.0061867624
2561.4561914062	0.0062067546
2563.3849987792	0.0061947736
2565.3138061523	0.0063187322
2567.2426135253	0.0062128338
2569.1714208984	0.0060326857
2571.1002282714	0.0060868664
2573.0290356444	0.0061852336
2574.9578430175	0.0062153023
2576.8866503905	0.0060982844
2578.8154577636	0.0061052153
2580.7442651366	0.0060421373
2582.6730725097	0.0059525836
2584.6018798827	0.0060850093
2586.5306872558	0.0060236938
2588.4594946288	0.0060260799
2590.3883020019	0.0061275661
2592.3171093749	0.0060230009
2594.2459167480	0.0060118269
2596.1747241210	0.0060692178
2598.1035314941	0.0060858857
2600.0323388671	0.0060743149
2601.9611462401	0.0059321248
2603.8899536132	0.0058981362
2605.8187609862	0.0059933132
2607.7475683593	0.0060282815
2609.6763757323	0.0060363612
2611.6051831054	0.0059466753
2613.5339904784	0.0059197834
2615.4627978515	0.0059053712
2617.3916052245	0.0059325919
2619.3204125976	0.0060650045
2621.2492199706	0.0058803512
2623.1780273437	0.0058051250
2625.1068347167	0.0059834505
2627.0356420898	0.0059183352
2628.9644494628	0.0057997005
2630.8932568358	0.0059060799
2632.8220642089	0.0059724064
2634.7508715819	0.0057905400
2636.6796789550	0.0058489423
2638.6084863280	0.0058810641
2640.5372937011	0.0057421084
2642.4661010741	0.0058497041
2644.3949084472	0.0058541195
2646.3237158202	0.0058529498
2648.2525231933	0.0058683874
2650.1813305663	0.0058098137
2652.1101379394	0.0057869251
2654.0389453124	0.0058022151
2655.9677526855	0.0058933990
2657.8965600585	0.0057566166
2659.8253674315	0.0057181045
2661.7541748046	0.0058378270
2663.6829821776	0.0057294313
2665.6117895507	0.0057293046
2667.5405969237	0.0058223438
2669.4694042968	0.0057253195
2671.3982116698	0.0056691775
2673.3270190429	0.0057923384
2675.2558264159	0.0057055852
2677.1846337890	0.0055951048
2679.1134411620	0.0057752971
2681.0422485351	0.0057288497
2682.9710559081	0.0055528143
2684.8998632812	0.0056330143
2686.8286706542	0.0056213154
2688.7574780273	0.0055678748
2690.6862854003	0.0056668893
2692.6150927733	0.0057028690
2694.5439001464	0.0057338700
2696.4727075194	0.0056394283
2698.4015148925	0.0055621248
2700.3303222655	0.0056105219
2702.2591296386	0.0055191051
2704.1879370116	0.0055703856
2706.1167443847	0.0055537350
2708.0455517577	0.0054629138
2709.9743591308	0.0055419751
2711.9031665038	0.0055978107
2713.8319738769	0.0056531141
2715.7607812499	0.0055527054
2717.6895886230	0.0055136774
2719.6183959960	0.0055261264
2721.5472033690	0.0054828194
2723.4760107421	0.0055413833
2725.4048181151	0.0054730698
2727.3336254882	0.0054053338
2729.2624328612	0.0054677650
2731.1912402343	0.0055402601
2733.1200476073	0.0054722279
2735.0488549804	0.0054690558
2736.9776623534	0.0055989884
2738.9064697265	0.0055341069
2740.8352770995	0.0053930329
2742.7640844726	0.0053574429
2744.6928918456	0.0054573538
2746.6216992187	0.0053822901
2748.5505065917	0.0053011151
2750.4793139647	0.0054010865
2752.4081213378	0.0053618778
2754.3369287108	0.0054026330
2756.2657360839	0.0053733131
2758.1945434569	0.0053079659
2760.1233508300	0.0053519942
2762.0521582030	0.0052688601
2763.9809655761	0.0052573453
2765.9097729491	0.0053086625
2767.8385803222	0.0053213458
2769.7673876952	0.0052845674
2771.6961950683	0.0052950187
2773.6250024413	0.0052760243
2775.5538098144	0.0051832236
2777.4826171874	0.0053112255
2779.4114245604	0.0053028753
2781.3402319335	0.0051879697
2783.2690393065	0.0052204710
2785.1978466796	0.0051786457
2787.1266540526	0.0053159706
2789.0554614257	0.0053154826
2790.9842687987	0.0051330719
2792.9130761718	0.0052549047
2794.8418835448	0.0052025225
2796.7706909179	0.0051310230
2798.6994982909	0.0052117389
2800.6283056640	0.0051082801
2802.5571130370	0.0051491708
2804.4859204101	0.0052119764
2806.4147277831	0.0051612109
2808.3435351562	0.0051307445
2810.2723425292	0.0050733001
2812.2011499022	0.0051731388
2814.1299572753	0.0051925080
2816.0587646483	0.0049826866
2817.9875720214	0.0050277626
2819.9163793944	0.0051372480
2821.8451867675	0.0050651766
2823.7739941405	0.0051225768
2825.7028015136	0.0050700428
2827.6316088866	0.0049852789
2829.5604162597	0.0050211838
2831.4892236327	0.0049932203
2833.4180310058	0.0051008770
2835.3468383788	0.0051377481
2837.2756457519	0.0050335345
2839.2044531249	0.0049494049
2841.1332604979	0.0049029300
2843.0620678710	0.0049135620
2844.9908752440	0.0049082860
2846.9196826171	0.0048724767
2848.8484899901	0.0047851447
2850.7772973632	0.0048082685
2852.7061047362	0.0048080236
2854.6349121093	0.0048746262
2856.5637194823	0.0049225562
2858.4925268554	0.0047510052
2860.4213342284	0.0048575862
2862.3501416015	0.0048709479
2864.2789489745	0.0047668633
2866.2077563476	0.0048297602
2868.1365637206	0.0047949497
2870.0653710936	0.0048009567
2871.9941784667	0.0047836052
2873.9229858397	0.0048298789
2875.8517932128	0.0048451559
2877.7806005858	0.0046998290
2879.7094079589	0.0047020605
2881.6382153319	0.0047813188
2883.5670227050	0.0047269287
2885.4958300780	0.0046927729
2887.4246374511	0.0047421209
2889.3534448241	0.0046797590
2891.2822521972	0.0046920595
2893.2110595702	0.0046740854
2895.1398669433	0.0045997873
2897.0686743163	0.0046270918
2898.9974816893	0.0045582550
2900.9262890624	0.0046060728
2902.8550964354	0.0046661468
2904.7839038085	0.0046020709
2906.7127111815	0.0045864778
2908.6415185546	0.0045809010
2910.5703259276	0.0045561818
2912.4991333007	0.0045364010
2914.4279406737	0.0044897418
2916.3567480468	0.0044063423
2918.2855554198	0.0045218663
2920.2143627929	0.0044897031
2922.1431701659	0.0043350635
2924.0719775390	0.0044279387
2926.0007849120	0.0043868138
2927.9295922851	0.0043819165
2929.8583996581	0.0044077621
2931.7872070311	0.0043835659
2933.7160144042	0.0044975383
2935.6448217772	0.0044713537
2937.5736291503	0.0043819728
2939.5024365233	0.0043807263
2941.4312438964	0.0044378950
2943.3600512694	0.0044273641
2945.2888586425	0.0044088699
2947.2176660155	0.0044310461
2949.1464733886	0.0043048654
2951.0752807616	0.0043438915
2953.0040881347	0.0044298689
2954.9328955077	0.0043325066
2956.8617028808	0.0043142959
2958.7905102538	0.0042768363
2960.7193176268	0.0043186862
2962.6481249999	0.0044302000
2964.5769323729	0.0043507842
2966.5057397460	0.0042717196
2968.4345471190	0.0043162792
2970.3633544921	0.0043296912
2972.2921618651	0.0042748968
2974.2209692382	0.0042758770
2976.1497766112	0.0043174680
2978.0785839843	0.0043736650
2980.0073913573	0.0043290914
2981.9361987304	0.0041975840
2983.8650061034	0.0042382968
2985.7938134765	0.0042202231
2987.7226208495	0.0042034234
2989.6514282225	0.0042956555
2991.5802355956	0.0042370930
2993.5090429686	0.0042322073
2995.4378503417	0.0042762188
2997.3666577147	0.0043147313
2999.2954650878	0.0042912643
3001.2242724608	0.0041959644
3003.1530798339	0.0042149127
3005.0818872069	0.0041435687
3007.0106945800	0.0041300631
3008.9395019530	0.0041861413
3010.8683093261	0.0041438402
3012.7971166991	0.0041673095
3014.7259240722	0.0041661225
3016.6547314452	0.0041850624
3018.5835388182	0.0042166868
3020.5123461913	0.0042248629
3022.4411535643	0.0041218670
3024.3699609374	0.0040153000
3026.2987683104	0.0041814297
3028.2275756835	0.0041618068
3030.1563830565	0.0040511042
3032.0851904296	0.0040866714
3034.0139978026	0.0041031390
3035.9428051757	0.0041796872
3037.8716125487	0.0040743509
3039.8004199218	0.0040554926
3041.7292272948	0.0041318885
3043.6580346679	0.0040814886
3045.5868420409	0.0041241394
3047.5156494139	0.0040286230
3049.4444567870	0.0039945254
3051.3732641600	0.0040179337
3053.3020715331	0.0040138289
3055.2308789061	0.0040791398
3057.1596862792	0.0039856425
3059.0884936522	0.0040295674
3061.0173010253	0.0040101074
3062.9461083983	0.0038831655
3064.8749157714	0.0039610644
3066.8037231444	0.0039840871
3068.7325305175	0.0039986456
3070.6613378905	0.0039782901
3072.5901452636	0.0039454857
3074.5189526366	0.0039573177
3076.4477600097	0.0039118063
3078.3765673827	0.0039284788
3080.3053747557	0.0039893920
3082.2341821288	0.0039508878
3084.1629895018	0.0039266543
3086.0917968749	0.0039855354
3088.0206042479	0.0039071729
3089.9494116210	0.0039211111
3091.8782189940	0.0039700638
3093.8070263671	0.0038559483
3095.7358337401	0.0038706718
3097.6646411132	0.0038561481
3099.5934484862	0.0038666697
3101.5222558593	0.0038719592
3103.4510632323	0.0038270690
3105.3798706054	0.0038999179
3107.3086779784	0.0038026702
3109.2374853514	0.0037728953
3111.1662927245	0.0038187471
3113.0951000975	0.0036846953
3115.0239074706	0.0036840707
3116.9527148436	0.0037469405
3118.8815222167	0.0037225969
3120.8103295897	0.0037217727
3122.7391369628	0.0037312778
3124.6679443358	0.0036945487
3126.5967517089	0.0037044096
3128.5255590819	0.0037140371
3130.4543664550	0.0036071064
3132.3831738280	0.0036301080
3134.3119812011	0.0037675202
3136.2407885741	0.0037596286
3138.1695959471	0.0036363117
3140.0984033202	0.0035555882
3142.0272106932	0.0036111255
3143.9560180663	0.0036765255
3145.8848254393	0.0036326982
3147.8136328124	0.0035640877
3149.7424401854	0.0036165845
3151.6712475585	0.0036274190
3153.6000549315	0.0035604378
3155.5288623046	0.0035970560
3157.4576696776	0.0034856931
3159.3864770507	0.0034704534
3161.3152844237	0.0035781013
3163.2440917968	0.0034468162
3165.1728991698	0.0034528554
3167.1017065428	0.0034432909
3169.0305139159	0.0034384839
3170.9593212889	0.0035614832
3172.8881286620	0.0034897649
3174.8169360350	0.0034786253
3176.7457434081	0.0034491092
3178.6745507811	0.0034403196
3180.6033581542	0.0034794500
3182.5321655272	0.0033535135
3184.4609729003	0.0033776197
3186.3897802733	0.0034312345
3188.3185876464	0.0033911378
3190.2473950194	0.0033425991
3192.1762023925	0.0032918532
3194.1050097655	0.0033341954
3196.0338171386	0.0033656368
3197.9626245116	0.0033861473
3199.8914318846	0.0033732229
3201.8202392577	0.0033650163
3203.7490466307	0.0033482811
3205.6778540038	0.0032642970
3207.6066613768	0.0033176593
3209.5354687499	0.0033145312
3211.4642761229	0.0032516776
3213.3930834960	0.0032976307
3215.3218908690	0.0032144547
3217.2506982421	0.0031736712
3219.1795056151	0.0032139472
3221.1083129882	0.0032019778
3223.0371203612	0.0032633883
3224.9659277343	0.0032359948
3226.8947351073	0.0031668749
3228.8235424803	0.0032558609
3230.7523498534	0.0032660002
3232.6811572264	0.0031734488
3234.6099645995	0.0032543039
3236.5387719725	0.0032462706
3238.4675793456	0.0031482109
3240.3963867186	0.0032339348
3242.3251940917	0.0032003818
3244.2540014647	0.0031713173
3246.1828088378	0.0031848168
3248.1116162108	0.0031441827
3250.0404235839	0.0032052435
3251.9692309569	0.0031827458
3253.8980383300	0.0032190699
3255.8268457030	0.0032158189
3257.7556530760	0.0031407182
3259.6844604491	0.0032184767
3261.6132678221	0.0031667440
3263.5420751952	0.0031385790
3265.4708825682	0.0031797383
3267.3996899413	0.0031318658
3269.3284973143	0.0031578927
3271.2573046874	0.0031772482
3273.1861120604	0.0031830454
3275.1149194335	0.0031717010
3277.0437268065	0.0031276569
3278.9725341796	0.0031599337
3280.9013415526	0.0031554117
3282.8301489257	0.0031104311
3284.7589562987	0.0031245882
3286.6877636717	0.0031486615
3288.6165710448	0.0031192657
3290.5453784178	0.0031076765
3292.4741857909	0.0031481506
3294.4029931639	0.0031020646
3296.3318005370	0.0031033359
3298.2606079100	0.0031135273
3300.1894152831	0.0031120307
3302.1182226561	0.0031932970
3304.0470300292	0.0030802817
3305.9758374022	0.0030610887
3307.9046447753	0.0032210164
3309.8334521483	0.0031675643
3311.7622595214	0.0030792020
3313.6910668944	0.0031782156
3315.6198742675	0.0031408018
3317.5486816405	0.0030179918
3319.4774890135	0.0031503530
3321.4062963866	0.0030447706
3323.3351037596	0.0029772073
3325.2639111327	0.0031026269
3327.1927185057	0.0030883756
3329.1215258788	0.0030881283
3331.0503332518	0.0029157838
3332.9791406249	0.0030726260
3334.9079479979	0.0031456822
3336.8367553710	0.0029362398
3338.7655627440	0.0030134236
3340.6943701171	0.0030065966
3342.6231774901	0.0030710651
3344.5519848632	0.0029695374
3346.4807922362	0.0029817391
3348.4095996092	0.0031287274
3350.3384069823	0.0029878840
3352.2672143553	0.0029985653
3354.1960217284	0.0030200791
3356.1248291014	0.0030625970
3358.0536364745	0.0030103948
3359.9824438475	0.0030379277
3361.9112512206	0.0030098413
3363.8400585936	0.0028779460
3365.7688659667	0.0030011167
3367.6976733397	0.0029417528
3369.6264807128	0.0030313493
3371.5552880858	0.0029702822
3373.4840954589	0.0028874266
3375.4129028319	0.0031118430
3377.3417102049	0.0029964535
3379.2705175780	0.0029433505
3381.1993249510	0.0029436185
3383.1281323241	0.0029433582
3385.0569396971	0.0029273792
3386.9857470702	0.0029061334
3388.9145544432	0.0029717139
3390.8433618163	0.0028447062
3392.7721691893	0.0029272838
3394.7009765624	0.0030028508
3396.6297839354	0.0028435457
3398.5585913085	0.0028741774
3400.4873986815	0.0029759528
3402.4162060546	0.0028597370
3404.3450134276	0.0027744030
3406.2738208006	0.0028712165
3408.2026281737	0.0028333953
3410.1314355467	0.0028538087
3412.0602429198	0.0029363008
3413.9890502928	0.0029241263
3415.9178576659	0.0029373518
3417.8466650389	0.0028237300
3419.7754724120	0.0027604173
3421.7042797850	0.0029007499
3423.6330871581	0.0028638353
3425.5618945311	0.0027458847
3427.4907019042	0.0027739396
3429.4195092772	0.0027840342
3431.3483166503	0.0028821961
3433.2771240233	0.0028488471
3435.2059313963	0.0027375007
3437.1347387694	0.0028457209
3439.0635461424	0.0028265771
3440.9923535155	0.0027724621
3442.9211608885	0.0028101685
3444.8499682616	0.0027999524
3446.7787756346	0.0027552554
3448.7075830077	0.0027609442
3450.6363903807	0.0028241333
3452.5651977538	0.0027716784
3454.4940051268	0.0027444833
3456.4228124999	0.0028909859
3458.3516198729	0.0028627056
3460.2804272460	0.0027084951
3462.2092346190	0.0027918350
3464.1380419921	0.0027491921
3466.0668493651	0.0027542114
3467.9956567381	0.0028639885
3469.9244641112	0.0027175522
3471.8532714842	0.0028200331
3473.7820788573	0.0028403495
3475.7108862303	0.0026490791
3477.6396936034	0.0027181476
3479.5685009764	0.0027459757
3481.4973083495	0.0026411621
3483.4261157225	0.0026296100
3485.3549230956	0.0027185623
3487.2837304686	0.0026999274
3489.2125378417	0.0027424637
3491.1413452147	0.0027397207
3493.0701525878	0.0026022843
3494.9989599608	0.0026309872
3496.9277673338	0.0026371263
3498.8565747069	0.0026580032
3500.7853820799	0.0026964084
3502.7141894530	0.0025972230
3504.6429968260	0.0025899955
3506.5718041991	0.0027724011
3508.5006115721	0.0027788477
3510.4294189452	0.0026489189
3512.3582263182	0.0027072367
3514.2870336913	0.0027508980
3516.2158410643	0.0027355866
3518.1446484374	0.0026872226
3520.0734558104	0.0027015805
3522.0022631835	0.0027389578
3523.9310705565	0.0026935628
3525.8598779295	0.0026428509
3527.7886853026	0.0025450848
3529.7174926756	0.0026250633
3531.6463000487	0.0026677451
3533.5751074217	0.0025870807
3535.5039147948	0.0025955504
3537.4327221678	0.0025860725
3539.3615295409	0.0026466446
3541.2903369139	0.0027005812
3543.2191442870	0.0026677647
3545.1479516600	0.0025740447
3547.0767590331	0.0026250309
3549.0055664061	0.0026759170
3550.9343737792	0.0025254132
3552.8631811522	0.0026020976
3554.7919885252	0.0026951840
3556.7207958983	0.0026472884
3558.6496032713	0.0026842514
3560.5784106444	0.0026614126
3562.5072180174	0.0026086124
3564.4360253905	0.0026111952
3566.3648327635	0.0025870169
3568.2936401366	0.0025333876
3570.2224475096	0.0025784504
3572.1512548827	0.0026621392
3574.0800622557	0.0026869047
3576.0088696288	0.0026434939
3577.9376770018	0.0026294319
3579.8664843749	0.0027148225
3581.7952917479	0.0026316177
3583.7240991210	0.0025726492
3585.6529064940	0.0025443947
3587.5817138670	0.0023679207
3589.5105212401	0.0025430468
3591.4393286131	0.0027701824
3593.3681359862	0.0026550435
3595.2969433592	0.0024928718
3597.2257507323	0.0025547652
3599.1545581053	0.0027214622
3601.0833654784	0.0026206761
3603.0121728514	0.0026356359
3604.9409802245	0.0026266980
3606.8697875975	0.0024579731
3608.7985949706	0.0025174064
3610.7274023436	0.0025685448
3612.6562097167	0.0025665052
3614.5850170897	0.0025259457
3616.5138244627	0.0026198123
3618.4426318358	0.0025415458
3620.3714392088	0.0024121001
3622.3002465819	0.0026097912
3624.2290539549	0.0026304221
3626.1578613280	0.0025963155
3628.0866687010	0.0022635602
3630.0154760741	0.0022458895
3631.9442834471	0.0026702301
3633.8730908202	0.0025891596
3635.8018981932	0.0026105125
3637.7307055663	0.0026415486
3639.6595129393	0.0025968114
3641.5883203124	0.0025627138
3643.5171276854	0.0025808671
3645.4459350584	0.0026570468
3647.3747424315	0.0024062344
3649.3035498045	0.0022744113
3651.2323571776	0.0023840289
3653.1611645506	0.0026640396
3655.0899719237	0.0025025662
3657.0187792967	0.0023924340
3658.9475866698	0.0027288271
3660.8763940428	0.0025468576
3662.8052014159	0.0025520995
3664.7340087889	0.0026081544
3666.6628161620	0.0026021530
3668.5916235350	0.0024925331
3670.5204309081	0.0021865065
3672.4492382811	0.0025176911
3674.3780456541	0.0023946136
3676.3068530272	0.0021116270
3678.2356604002	0.0024516578
3680.1644677733	0.0025809482
3682.0932751463	0.0025926013
3684.0220825194	0.0026659709
3685.9508898924	0.0026128178
3687.8796972655	0.0023134337
3689.8085046385	0.0022930587
3691.7373120116	0.0024546799
3693.6661193846	0.0024647010
3695.5949267577	0.0025763223
3697.5237341307	0.0025450492
3699.4525415038	0.0025596996
3701.3813488768	0.0025485125
3703.3101562499	0.0024879004
3705.2389636229	0.0025574910
3707.1677709959	0.0025403986
3709.0965783690	0.0025389143
3711.0253857420	0.0023313467
3712.9541931151	0.0022890065
3714.8830004881	0.0025049797
3716.8118078612	0.0025015222
3718.7406152342	0.0025497356
3720.6694226073	0.0024507735
3722.5982299803	0.0024005098
3724.5270373534	0.0024466100
3726.4558447264	0.0023815576
3728.3846520995	0.0025114694
3730.3134594725	0.0024382470
3732.2422668456	0.0022990056
3734.1710742186	0.0022189647
3736.0998815916	0.0021439968
3738.0286889647	0.0022984366
3739.9574963377	0.0024351515
3741.8863037108	0.0024276422
3743.8151110838	0.0020353473
3745.7439184569	0.0020012655
3747.6727258299	0.0024099532
3749.6015332030	0.0021980125
3751.5303405760	0.0020903782
3753.4591479491	0.0023144870
3755.3879553221	0.0023835357
3757.3167626952	0.0024497590
3759.2455700682	0.0023354911
3761.1743774413	0.0023411633
3763.1031848143	0.0024434887
3765.0319921873	0.0022969022
3766.9607995604	0.0023378844
3768.8896069334	0.0023613400
3770.8184143065	0.0022933898
3772.7472216795	0.0024310492
3774.6760290526	0.0024265463
3776.6048364256	0.0024271414
3778.5336437987	0.0024294173
3780.4624511717	0.0023439697
3782.3912585448	0.0023827413
3784.3200659178	0.0023849148
3786.2488732909	0.0023157350
3788.1776806639	0.0023603714
3790.1064880370	0.0024279498
3792.0352954100	0.0023348732
3793.9641027830	0.0023847360
3795.8929101561	0.0022546267
3797.8217175291	0.0021979210
3799.7505249022	0.0023141643
3801.6793322752	0.0019881940
3803.6081396483	0.0022469051
3805.5369470213	0.0023423447
3807.4657543944	0.0020208173
3809.3945617674	0.0022700867
3811.3233691405	0.0023321633
3813.2521765135	0.0023900317
3815.1809838866	0.0021505211
3817.1097912596	0.0020745327
3819.0385986327	0.0023577514
3820.9674060057	0.0020375317
3822.8962133787	0.0021183277
3824.8250207518	0.0023319223
3826.7538281248	0.0022001727
3828.6826354979	0.0022455733
3830.6114428709	0.0022298079
3832.5402502440	0.0021845947
3834.4690576170	0.0021337988
3836.3978649901	0.0019954224
3838.3266723631	0.0019455840
3840.2554797362	0.0021312155
3842.1842871092	0.0022217352
3844.1130944823	0.0021694582
3846.0419018553	0.0021930244
3847.9707092284	0.0021888921
3849.8995166014	0.0021850024
3851.8283239745	0.0019885125
3853.7571313475	0.0017115554
3855.6859387205	0.0018954587
3857.6147460936	0.0021974747
3859.5435534666	0.0021894537
3861.4723608397	0.0021643466
3863.4011682127	0.0020504757
3865.3299755858	0.0020209383
3867.2587829588	0.0021718377
3869.1875903319	0.0020471876
3871.1163977049	0.0020746603
3873.0452050780	0.0021730992
3874.9740124510	0.0020160326
3876.9028198241	0.0022298163
3878.8316271971	0.0022589508
3880.7604345702	0.0019383570
3882.6892419432	0.0022046855
3884.6180493162	0.0021851235
3886.5468566893	0.0019067368
3888.4756640623	0.0021494427
3890.4044714354	0.0020470684
3892.3332788084	0.0019900661
3894.2620861815	0.0021433732
3896.1908935545	0.0020646453
3898.1197009276	0.0020834575
3900.0485083006	0.0020134193
3901.9773156737	0.0019410846
3903.9061230467	0.0019117075
3905.8349304198	0.0019846451
3907.7637377928	0.0020700323
3909.6925451659	0.0020179134
3911.6213525389	0.0020998451
3913.5501599119	0.0021185828
3915.4789672850	0.0020784456
3917.4077746580	0.0020447946
3919.3365820311	0.0020168237
3921.2653894041	0.0020458759
3923.1941967772	0.0020570629
3925.1230041502	0.0020532310
3927.0518115233	0.0020527712
3928.9806188963	0.0020630835
3930.9094262694	0.0019649675
3932.8382336424	0.0019812742
3934.7670410155	0.0020870327
3936.6958483885	0.0020551612
3938.6246557616	0.0020625885
3940.5534631346	0.0020324350
3942.4822705076	0.0019711999
3944.4110778807	0.0020298902
3946.3398852537	0.0019684727
3948.2686926268	0.0018663525
3950.1974999998	0.0019961544
3952.1263073729	0.0019860605
3954.0551147459	0.0019250780
3955.9839221190	0.0020139993
3957.9127294920	0.0020051831
3959.8415368651	0.0020200964
3961.7703442381	0.0020331251
3963.6991516112	0.0019910960
3965.6279589842	0.0019652464
3967.5567663573	0.0019623870
3969.4855737303	0.0019725955
3971.4143811034	0.0020223553
3973.3431884764	0.0019783503
3975.2719958494	0.0019435450
3977.2008032225	0.0020570382
3979.1296105955	0.0019505362
3981.0584179686	0.0019963831
3982.9872253416	0.0020713888
3984.9160327147	0.0019352770
3986.8448400877	0.0020022823
3988.7736474608	0.0019593197
3990.7024548338	0.0019937954
3992.6312622069	0.0020339321
3994.5600695799	0.0018878824
3996.4888769530	0.0018921176
3998.4176843260	0.0019007006
4000.3464916991	0.0019227619
4002.2752990721	0.0019423452
4004.2041064451	0.0018989347
4006.1329138182	0.0018721652
4008.0617211912	0.0019006002
4009.9905285643	0.0019134129
4011.9193359373	0.0019301658
4013.8481433104	0.0019553450
4015.7769506834	0.0018752521
4017.7057580565	0.0018686529
4019.6345654295	0.0018772114
4021.5633728026	0.0018531349
4023.4921801756	0.0018932968
4025.4209875487	0.0019045663
4027.3497949217	0.0018592712
4029.2786022948	0.0018210665
4031.2074096678	0.0018376247
4033.1362170408	0.0018456181
4035.0650244139	0.0018644006
4036.9938317869	0.0018783306
4038.9226391600	0.0018722832
4040.8514465330	0.0018500502
4042.7802539061	0.0018043215
4044.7090612791	0.0018071041
4046.6378686522	0.0018303921
4048.5666760252	0.0018638972
4050.4954833983	0.0018359353
4052.4242907713	0.0017901632
4054.3530981444	0.0018812797
4056.2819055174	0.0018337639
4058.2107128905	0.0017623527
4060.1395202635	0.0019436162
4062.0683276365	0.0018393123
4063.9971350096	0.0017252110
4065.9259423826	0.0018836902
4067.8547497557	0.0018351082
4069.7835571287	0.0018489254
4071.7123645018	0.0018508615
4073.6411718748	0.0017647895
4075.5699792479	0.0017712549
4077.4987866209	0.0017249582
4079.4275939940	0.0017054586
4081.3564013670	0.0017850131
4083.2852087401	0.0018298986
4085.2140161131	0.0017904019
4087.1428234862	0.0018476206
4089.0716308592	0.0017603161
4091.0004382323	0.0017706007
4092.9292456053	0.0018386322
4094.8580529783	0.0016742728
4096.7868603514	0.0017735900
4098.7156677244	0.0017894092
4100.6444750975	0.0017771807
4102.5732824705	0.0017299191
4104.5020898436	0.0016572443
4106.4308972166	0.0017890946
4108.3597045897	0.0017248131
4110.2885119627	0.0017662863
4112.2173193358	0.0017421849
4114.1461267088	0.0017139812
4116.0749340819	0.0016999044
4118.0037414549	0.0016448210
4119.9325488280	0.0017828660
4121.8613562010	0.0017282511
4123.7901635740	0.0017682310
4125.7189709471	0.0017382677
4127.6477783201	0.0016792814
4129.5765856932	0.0017376544
4131.5053930662	0.0017169191
4133.4342004393	0.0017606069
4135.3630078123	0.0016733502
4137.2918151854	0.0016748129
4139.2206225584	0.0016565272
4141.1494299315	0.0016803518
4143.0782373045	0.0017053268
4145.0070446776	0.0016303661
4146.9358520506	0.0017555470
4148.8646594237	0.0016862457
4150.7934667967	0.0016215834
4152.7222741697	0.0016820652
4154.6510815428	0.0016430697
4156.5798889158	0.0016412917
4158.5086962889	0.0016867715
4160.4375036619	0.0016737243
4162.3663110350	0.0016284566
4164.2951184080	0.0016088989
4166.2239257811	0.0015363130
4168.1527331541	0.0015868449
4170.0815405272	0.0016524207
4172.0103479002	0.0016670460
4173.9391552733	0.0016369657
4175.8679626463	0.0016286286
4177.7967700194	0.0016679594
4179.7255773924	0.0016166840
4181.6543847654	0.0016254543
4183.5831921385	0.0015661258
4185.5119995115	0.0016316139
4187.4408068846	0.0016099140
4189.3696142576	0.0015268764
4191.2984216307	0.0016469669
4193.2272290037	0.0015383422
4195.1560363768	0.0015589033
4197.0848437498	0.0015971425
4199.0136511229	0.0015431447
4200.9424584959	0.0015402730
4202.8712658690	0.0014959883
4204.8000732420	0.0015511296
4206.7288806151	0.0015726670
4208.6576879881	0.0016110295
4210.5864953611	0.0015327024
4212.5153027342	0.0014992799
4214.4441101072	0.0015656492
4216.3729174803	0.0015426092
4218.3017248533	0.0014859505
4220.2305322264	0.0014266012
4222.1593395994	0.0015739511
4224.0881469725	0.0016196663
4226.0169543455	0.0015330184
4227.9457617186	0.0015161342
4229.8745690916	0.0015071325
4231.8033764647	0.0015284142
4233.7321838377	0.0015499780
4235.6609912108	0.0014929003
4237.5897985838	0.0014523303
4239.5186059569	0.0015506217
4241.4474133299	0.0014886844
4243.3762207029	0.0015177481
4245.3050280760	0.0015619777
4247.2338354490	0.0014509206
4249.1626428221	0.0014818955
4251.0914501951	0.0014462390
4253.0202575682	0.0014898027
4254.9490649412	0.0015430360
4256.8778723143	0.0015411493
4258.8066796873	0.0014859600
4260.7354870604	0.0014302169
4262.6642944334	0.0015410953
4264.5931018065	0.0015022192
4266.5219091795	0.0014770862
4268.4507165526	0.0014944421
4270.3795239256	0.0014921873
4272.3083312986	0.0015061640
4274.2371386717	0.0014617741
4276.1659460447	0.0014654102
4278.0947534178	0.0014833580
4280.0235607908	0.0014479468
4281.9523681639	0.0013929345
4283.8811755369	0.0014704801
4285.8099829100	0.0014866928
4287.7387902830	0.0014514329
4289.6675976561	0.0014188674
4291.5964050291	0.0014165167
4293.5252124022	0.0014994511
4295.4540197752	0.0014322896
4297.3828271483	0.0014433756
4299.3116345213	0.0013883719
4301.2404418943	0.0013433199
4303.1692492674	0.0014201715
4305.0980566404	0.0013473185
4307.0268640135	0.0013632480
4308.9556713865	0.0013951594
4310.8844787596	0.0014366889
4312.8132861326	0.0014251869
4314.7420935057	0.0014162123
4316.6709008787	0.0014810676
4318.5997082518	0.0013981774
4320.5285156248	0.0013778287
4322.4573229979	0.0014060605
4324.3861303709	0.0013929540
4326.3149377440	0.0013616341
4328.2437451170	0.0013580215
4330.1725524900	0.0014105651
4332.1013598631	0.0013928364
4334.0301672361	0.0013317403
4335.9589746092	0.0013404009
4337.8877819822	0.0013551484
4339.8165893553	0.0013503635
4341.7453967283	0.0013999911
4343.6742041014	0.0013166532
4345.6030114744	0.0012827117
4347.5318188475	0.0013886469
4349.4606262205	0.0013789941
4351.3894335936	0.0013041744
4353.3182409666	0.0012835509
4355.2470483397	0.0013388922
4357.1758557127	0.0013463250
4359.1046630858	0.0014240395
4361.0334704588	0.0013627517
4362.9622778318	0.0012243305
4364.8910852049	0.0013504240
4366.8198925779	0.0013822552
4368.7486999510	0.0013238685
4370.6775073240	0.0012681908
4372.6063146971	0.0013170328
4374.5351220701	0.0013844678
4376.4639294432	0.0012832149
4378.3927368162	0.0012307365
4380.3215441893	0.0012631121
4382.2503515623	0.0013588136
4384.1791589354	0.0013720645
4386.1079663084	0.0013475518
4388.0367736815	0.0012495229
4389.9655810545	0.0012382123
4391.8943884275	0.0013481468
4393.8231958006	0.0012419133
4395.7520031736	0.0013081814
4397.6808105467	0.0012960813
4399.6096179197	0.0012032003
4401.5384252928	0.0013426509
4403.4672326658	0.0012691088
4405.3960400389	0.0013091338
4407.3248474119	0.0013706818
4409.2536547850	0.0012062078
4411.1824621580	0.0012525970
4413.1112695311	0.0012940825
4415.0400769041	0.0012485324
4416.9688842772	0.0012457611
4418.8976916502	0.0011578393
4420.8264990232	0.0012052448
4422.7553063963	0.0013115780
4424.6841137693	0.0012344047
4426.6129211424	0.0012111880
4428.5417285154	0.0012414288
4430.4705358885	0.0011734674
4432.3993432615	0.0011449277
4434.3281506346	0.0012189075
4436.2569580076	0.0012240901
4438.1857653807	0.0012050471
4440.1145727537	0.0012547516
4442.0433801268	0.0012515436
4443.9721874998	0.0012127437
4445.9009948729	0.0011676621
4447.8298022459	0.0012261644
4449.7586096189	0.0012916247
4451.6874169920	0.0012236155
4453.6162243650	0.0012029507
4455.5450317381	0.0011620284
4457.4738391111	0.0011526487
4459.4026464842	0.0012188836
4461.3314538572	0.0011899087
4463.2602612303	0.0011620508
4465.1890686033	0.0011195247
4467.1178759764	0.0010610058
4469.0466833494	0.0011390196
4470.9754907225	0.0011611400
4472.9042980955	0.0011314343
4474.8331054686	0.0011714681
4476.7619128416	0.0011326968
4478.6907202147	0.0011950673
4480.6195275877	0.0012135323
4482.5483349607	0.0011003296
4484.4771423338	0.0011719475
4486.4059497068	0.0012148153
4488.3347570799	0.0011453892
4490.2635644529	0.0010945984
4492.1923718260	0.0011583301
4494.1211791990	0.0011681931
4496.0499865721	0.0010465552
4497.9787939451	0.0011188433
4499.9076013182	0.0012171004
4501.8364086912	0.0012503995
4503.7652160643	0.0011858360
4505.6940234373	0.0010774778
4507.6228308104	0.0011548095
4509.5516381834	0.0011188064
4511.4804455564	0.0010876220
4513.4092529295	0.0011805592
4515.3380603025	0.0011381190
4517.2668676756	0.0011168823
4519.1956750486	0.0010977304
4521.1244824217	0.0010746181
4523.0532897947	0.0011271248
4524.9820971678	0.0010938710
4526.9109045408	0.0010761926
4528.8397119139	0.0011278330
4530.7685192869	0.0011589520
4532.6973266600	0.0011528688
4534.6261340330	0.0011110608
4536.5549414061	0.0011186919
4538.4837487791	0.0011133971
4540.4125561521	0.0010874462
4542.3413635252	0.0011027587
4544.2701708982	0.0011281542
4546.1989782713	0.0010974375
4548.1277856443	0.0010518008
4550.0565930174	0.0010630582
4551.9854003904	0.0010138364
4553.9142077635	0.0010517468
4555.8430151365	0.0010975391
4557.7718225096	0.0010293347
4559.7006298826	0.0010819586
4561.6294372557	0.0011052937
4563.5582446287	0.0010863130
4565.4870520018	0.0010585081
4567.4158593748	0.0010059220
4569.3446667478	0.0010252695
4571.2734741209	0.0010509461
4573.2022814939	0.0011042468
4575.1310888670	0.0010673245
4577.0598962400	0.0009975726
4578.9887036131	0.0010555603
4580.9175109861	0.0010350714
4582.8463183592	0.0009604370
4584.7751257322	0.0010217242
4586.7039331053	0.0010427837
4588.6327404783	0.0009997506
4590.5615478514	0.0010463964
4592.4903552244	0.0010173602
4594.4191625975	0.0010166350
4596.3479699705	0.0010584668
4598.2767773435	0.0009764589
4600.2055847166	0.0010212826
4602.1343920896	0.0010819763
4604.0631994627	0.0009893400
4605.9920068357	0.0009717471
4607.9208142088	0.0010391701
4609.8496215818	0.0010314069
4611.7784289549	0.0009835882
4613.7072363279	0.0010273315
4615.6360437010	0.0010434010
4617.5648510740	0.0010017032
4619.4936584471	0.0009970678
4621.4224658201	0.0009456213
4623.3512731932	0.0009817840
4625.2800805662	0.0010857554
4627.2088879393	0.0010447002
4629.1376953123	0.0009959632
4631.0665026853	0.0009655879
4632.9953100584	0.0009468457
4634.9241174314	0.0009539407
4636.8529248045	0.0009527692
4638.7817321775	0.0010180192
4640.7105395506	0.0010114782
4642.6393469236	0.0009390353
4644.5681542967	0.0009555669
4646.4969616697	0.0009834256
4648.4257690428	0.0009586806
4650.3545764158	0.0009788289
4652.2833837889	0.0010035059
4654.2121911619	0.0009239910
4656.1409985350	0.0009327268
4658.0698059080	0.0009652579
4659.9986132810	0.0009264375
4661.9274206541	0.0009886000
4663.8562280271	0.0009939849
4665.7850354002	0.0009310746
4667.7138427732	0.0009538709
4669.6426501463	0.0009409745
4671.5714575193	0.0009321746
4673.5002648924	0.0009430548
4675.4290722654	0.0008839123
4677.3578796385	0.0008985136
4679.2866870115	0.0009131060
4681.2154943846	0.0009405330
4683.1443017576	0.0009655949
4685.0731091307	0.0008884306
4687.0019165037	0.0009690720
4688.9307238767	0.0009747674
4690.8595312498	0.0008882004
4692.7883386228	0.0008997375
4694.7171459959	0.0008983676
4696.6459533689	0.0009569259
4698.5747607420	0.0009129745
4700.5035681150	0.0008875756
4702.4323754881	0.0009521629
4704.3611828611	0.0009383076
4706.2899902342	0.0008726699
4708.2187976072	0.0008473543
4710.1476049803	0.0008951776
4712.0764123533	0.0008751481
4714.0052197264	0.0008564214
4715.9340270994	0.0008376092
4717.8628344724	0.0008626973
4719.7916418455	0.0008482765
4721.7204492185	0.0008779303
4723.6492565916	0.0009817577
4725.5780639646	0.0008542193
4727.5068713377	0.0008972440
4729.4356787107	0.0009287386
4731.3644860838	0.0008316142
4733.2932934568	0.0008987377
4735.2221008299	0.0009330085
4737.1509082029	0.0009786962
4739.0797155760	0.0009098855
4741.0085229490	0.0008748319
4742.9373303221	0.0009315722
4744.8661376951	0.0008942814
4746.7949450682	0.0008257715
4748.7237524412	0.0008386656
4750.6525598142	0.0008575166
4752.5813671873	0.0007906066
4754.5101745603	0.0008966865
4756.4389819334	0.0009228219
4758.3677893064	0.0008860445
4760.2965966795	0.0008006241
4762.2254040525	0.0007443176
4764.1542114256	0.0009015019
4766.0830187986	0.0008189887
4768.0118261717	0.0008490055
4769.9406335447	0.0008461924
4771.8694409178	0.0007562399
4773.7982482908	0.0008334721
4775.7270556639	0.0007849715
4777.6558630369	0.0008702340
4779.5846704099	0.0008233000
4781.5134777830	0.0007562414
4783.4422851560	0.0008311069
4785.3710925291	0.0008165657
4787.2998999021	0.0008031398
4789.2287072752	0.0007573388
4791.1575146482	0.0008141171
4793.0863220213	0.0008385718
4795.0151293943	0.0008615898
4796.9439367674	0.0008186137
4798.8727441404	0.0008222570
4800.8015515135	0.0008836176
4802.7303588865	0.0007605051
4804.6591662596	0.0008601061
4806.5879736326	0.0008473016
4808.5167810056	0.0007741508
4810.4455883787	0.0008258108
4812.3743957517	0.0007417565
4814.3032031248	0.0008442386
4816.2320104978	0.0008433367
4818.1608178709	0.0007599137
4820.0896252439	0.0008510624
4822.0184326170	0.0008317168
4823.9472399900	0.0007924770
4825.8760473631	0.0008385255
4827.8048547361	0.0008189532
4829.7336621092	0.0007995654
4831.6624694822	0.0008123581
4833.5912768553	0.0007385120
4835.5200842283	0.0007708513
4837.4488916013	0.0008165200
4839.3776989744	0.0007768428
4841.3065063474	0.0007996024
4843.2353137205	0.0007752941
4845.1641210935	0.0007838642
4847.0929284666	0.0007886789
4849.0217358396	0.0007720493
4850.9505432127	0.0007685639
4852.8793505857	0.0007087323
4854.8081579588	0.0007663918
4856.7369653318	0.0007952815
4858.6657727049	0.0007837952
4860.5945800779	0.0007876030
4862.5233874510	0.0006924303
4864.4521948240	0.0008146418
4866.3810021971	0.0008547200
4868.3098095701	0.0007105209
4870.2386169431	0.0007824399
4872.1674243162	0.0007807353
4874.0962316892	0.0007785361
4876.0250390623	0.0007707821
4877.9538464353	0.0006885505
4879.8826538084	0.0006997511
4881.8114611814	0.0006892919
4883.7402685545	0.0007762493
4885.6690759275	0.0007708543
4887.5978833006	0.0006730354
4889.5266906736	0.0006897519
4891.4554980467	0.0006933825
4893.3843054197	0.0006947517
4895.3131127928	0.0007123906
4897.2419201658	0.0007479269
4899.1707275388	0.0006868355
4901.0995349119	0.0006939045
4903.0283422849	0.0007333878
4904.9571496580	0.0006788125
4906.8859570310	0.0007499489
4908.8147644041	0.0007601540
4910.7435717771	0.0006941446
4912.6723791502	0.0006660920
4914.6011865232	0.0006911071
4916.5299938963	0.0007250988
4918.4588012693	0.0007189797
4920.3876086424	0.0007117358
4922.3164160154	0.0006927872
4924.2452233885	0.0007226806
4926.1740307615	0.0006894501
4928.1028381345	0.0007206440
4930.0316455076	0.0007538316
4931.9604528806	0.0007145142
4933.8892602537	0.0007055533
4935.8180676267	0.0006327193
4937.7468749998	0.0007229540
4939.6756823728	0.0007460536
4941.6044897459	0.0006976705
4943.5332971189	0.0007145460
4945.4621044920	0.0006606246
4947.3909118650	0.0006938047
4949.3197192381	0.0006617156
4951.2485266111	0.0007076269
4953.1773339842	0.0007364540
4955.1061413572	0.0006876650
4957.0349487302	0.0007537723
4958.9637561033	0.0006915640
4960.8925634763	0.0006749467
4962.8213708494	0.0006542250
4964.7501782224	0.0005953794
4966.6789855955	0.0006471358
4968.6077929685	0.0006569121
4970.5366003416	0.0006482927
4972.4654077146	0.0006789532
4974.3942150877	0.0007214472
4976.3230224607	0.0006833841
4978.2518298338	0.0006907757
4980.1806372068	0.0006856113
4982.1094445799	0.0006148486
4984.0382519529	0.0006491072
4985.9670593259	0.0006772640
4987.8958666990	0.0006588177
4989.8246740720	0.0006380443
4991.7534814451	0.0007046976
4993.6822888181	0.0006466652
4995.6110961912	0.0005827101
4997.5399035642	0.0007014660
4999.4687109373	0.0006217674
5001.3975183103	0.0006467210
5003.3263256834	0.0007310084
5005.2551330564	0.0006821727
5007.1839404295	0.0006706994
5009.1127478025	0.0005943457
5011.0415551756	0.0006538434
5012.9703625486	0.0006350678
5014.8991699217	0.0005878670
5016.8279772947	0.0006714343
5018.7567846677	0.0006326972
5020.6855920408	0.0006411002
5022.6143994138	0.0005965881
5024.5432067869	0.0005457919
5026.4720141599	0.0006197948
5028.4008215330	0.0006083923
5030.3296289060	0.0005644038
5032.2584362791	0.0005831615
5034.1872436521	0.0005540777
5036.1160510252	0.0005749351
5038.0448583982	0.0006338393
5039.9736657713	0.0005408721
5041.9024731443	0.0006498903
5043.8312805174	0.0007284929
5045.7600878904	0.0006218235
5047.6888952634	0.0006416931
5049.6177026365	0.0006055960
5051.5465100095	0.0006438486
5053.4753173826	0.0006233271
5055.4041247556	0.0006415544
5057.3329321287	0.0006728009
5059.2617395017	0.0005698589
5061.1905468748	0.0006458389
5063.1193542478	0.0005939831
5065.0481616209	0.0006007778
5066.9769689939	0.0005911039
5068.9057763670	0.0005250507
5070.8345837400	0.0006313284
5072.7633911131	0.0005420141
5074.6921984861	0.0005740738
5076.6210058591	0.0006655334
5078.5498132322	0.0006501417
5080.4786206052	0.0006225896
5082.4074279783	0.0006135219
5084.3362353513	0.0006175751
5086.2650427244	0.0005055122
5088.1938500974	0.0005587608
5090.1226574705	0.0005814991
5092.0514648435	0.0005762859
5093.9802722166	0.0005873659
5095.9090795896	0.0005779170
5097.8378869627	0.0006775975
5099.7666943357	0.0006497107
5101.6955017088	0.0006584531
5103.6243090818	0.0005875907
5105.5531164548	0.0005268797
5107.4819238279	0.0006450844
5109.4107312009	0.0006445202
5111.3395385740	0.0005545199
5113.2683459470	0.0004940037
5115.1971533201	0.0005151827
5117.1259606931	0.0005463575
5119.0547680662	0.0006569999
5120.9835754392	0.0006042833
5122.9123828123	0.0004694876
5124.8411901853	0.0005085738
5126.7699975584	0.0005521355
5128.6988049314	0.0006062881
5130.6276123045	0.0005556586
5132.5564196775	0.0006104610
5134.4852270506	0.0005958485
5136.4140344236	0.0005421503
5138.3428417966	0.0005758596
5140.2716491697	0.0005232710
5142.2004565427	0.0006116930
5144.1292639158	0.0004967174
5146.0580712888	0.0005226104
5147.9868786619	0.0005671497
5149.9156860349	0.0004279991
5151.8444934080	0.0005740388
5153.7733007810	0.0005579942
5155.7021081541	0.0005912083
5157.6309155271	0.0005390376
5159.5597229002	0.0004749928
5161.4885302732	0.0005905925
5163.4173376463	0.0005230833
5165.3461450193	0.0005455442
5167.2749523923	0.0004646371
5169.2037597654	0.0005358709
5171.1325671384	0.0005847634
5173.0613745115	0.0004927650
5174.9901818845	0.0006041967
5176.9189892576	0.0005033457
5178.8477966306	0.0005136646
5180.7766040037	0.0004668820
5182.7054113767	0.0004258989
5184.6342187498	0.0005770621
5186.5630261228	0.0004872958
5188.4918334959	0.0005048283
5190.4206408689	0.0004641652
5192.3494482420	0.0004996025
5194.2782556150	0.0005941592
5196.2070629880	0.0004264689
5198.1358703611	0.0004797768
5200.0646777341	0.0004934423
5201.9934851072	0.0004662654
5203.9222924802	0.0005190593
5205.8510998533	0.0004586105
5207.7799072263	0.0005153802
5209.7087145994	0.0004948076
5211.6375219724	0.0004721599
5213.5663293455	0.0005009127
5215.4951367185	0.0004701277
5217.4239440916	0.0005445918
5219.3527514646	0.0005225255
5221.2815588377	0.0005220437
5223.2103662107	0.0005493808
5225.1391735837	0.0004797978
5227.0679809568	0.0005242213
5228.9967883298	0.0005364927
5230.9255957029	0.0005056644
5232.8544030759	0.0004662364
5234.7832104490	0.0004424090
5236.7120178220	0.0004806268
5238.6408251951	0.0004086471
5240.5696325681	0.0003858735
5242.4984399412	0.0004844751
5244.4272473142	0.0005398474
5246.3560546873	0.0005133318
5248.2848620603	0.0004711529
5250.2136694334	0.0004869101
5252.1424768064	0.0004791278
5254.0712841795	0.0004364032
5256.0000915525	0.0004404144
5257.9288989255	0.0004280720
5259.8577062986	0.0003967519
5261.7865136716	0.0004681359
5263.7153210447	0.0004304125
5265.6441284177	0.0003830550
5267.5729357908	0.0005242784
5269.5017431638	0.0004645005
5271.4305505369	0.0004295429
5273.3593579099	0.0005040182
5275.2881652830	0.0004135781
5277.2169726560	0.0004307094
5279.1457800291	0.0004641068
5281.0745874021	0.0004979933
5283.0033947752	0.0005323552
5284.9322021482	0.0004462351
5286.8610095212	0.0004513371
5288.7898168943	0.0004326297
5290.7186242673	0.0004443472
5292.6474316404	0.0005061012
5294.5762390134	0.0004369701
5296.5050463865	0.0004369295
5298.4338537595	0.0004658230
5300.3626611326	0.0004250862
5302.2914685056	0.0004352201
5304.2202758787	0.0004823899
5306.1490832517	0.0004540334
5308.0778906248	0.0004521503
5310.0066979978	0.0004960856
5311.9355053709	0.0004165241
5313.8643127439	0.0004224498
5315.7931201169	0.0004898767
5317.7219274900	0.0004273126
5319.6507348630	0.0004361020
5321.5795422361	0.0005222077
5323.5083496091	0.0004723627
5325.4371569822	0.0003961601
5327.3659643552	0.0004478637
5329.2947717283	0.0003912707
5331.2235791013	0.0003794171
5333.1523864744	0.0004807856
5335.0811938474	0.0004343241
5337.0100012205	0.0004728012
5338.9388085935	0.0004763263
5340.8676159666	0.0003947735
5342.7964233396	0.0003718484
5344.7252307126	0.0003420969
5346.6540380857	0.0004383339
5348.5828454587	0.0004554163
5350.5116528318	0.0004220722
5352.4404602048	0.0004423698
5354.3692675779	0.0003827796
5356.2980749509	0.0003633480
5358.2268823240	0.0003985244
5360.1556896970	0.0004696230
5362.0844970701	0.0004373363
5364.0133044431	0.0003827345
5365.9421118162	0.0004057287
5367.8709191892	0.0004067461
5369.7997265623	0.0004126065
5371.7285339353	0.0003217486
5373.6573413083	0.0003496706
5375.5861486814	0.0004218854
5377.5149560544	0.0003693497
5379.4437634275	0.0004294200
5381.3725708005	0.0004320358
5383.3013781736	0.0003960807
5385.2301855466	0.0003851725
5387.1589929197	0.0003933533
5389.0878002927	0.0004438170
5391.0166076658	0.0003845569
5392.9454150388	0.0004026589
5394.8742224119	0.0004368980
5396.8030297849	0.0003948555
5398.7318371580	0.0004061410
5400.6606445310	0.0003855852
5402.5894519041	0.0003907175
5404.5182592771	0.0003985318
5406.4470666501	0.0003914524
5408.3758740232	0.0004005860
5410.3046813962	0.0003765746
5412.2334887693	0.0003644807
5414.1622961423	0.0003594211
5416.0911035154	0.0004070417
5418.0199108884	0.0003931398
5419.9487182615	0.0003499306
5421.8775256345	0.0004108402
5423.8063330076	0.0003641075
5425.7351403806	0.0003770505
5427.6639477537	0.0004006666
5429.5927551267	0.0003167974
5431.5215624998	0.0004230039
5433.4503698728	0.0004046259
5435.3791772458	0.0003037902
5437.3079846189	0.0003826258
5439.2367919919	0.0003976180
5441.1655993650	0.0003895302
5443.0944067380	0.0003988068
5445.0232141111	0.0004366080
5446.9520214841	0.0004022506
5448.8808288572	0.0003418635
5450.8096362302	0.0003698809
5452.7384436033	0.0003816084
5454.6672509763	0.0004533720
5456.5960583494	0.0004322275
5458.5248657224	0.0003916492
5460.4536730955	0.0003947236
5462.3824804685	0.0003741298
5464.3112878415	0.0004163550
5466.2400952146	0.0003988058
5468.1689025876	0.0004401901
5470.0977099607	0.0004010805
5472.0265173337	0.0003153085
5473.9553247068	0.0003043976
5475.8841320798	0.0002769543
5477.8129394529	0.0003840151
5479.7417468259	0.0004042812
5481.6705541990	0.0003707645
5483.5993615720	0.0003407820
5485.5281689451	0.0003298470
5487.4569763181	0.0003811823
5489.3857836912	0.0003302057
5491.3145910642	0.0003417588
5493.2433984372	0.0004057576
5495.1722058103	0.0004193345
5497.1010131833	0.0003443820
5499.0298205564	0.0003430597
5500.9586279294	0.0003443853
5502.8874353025	0.0002907839
5504.8162426755	0.0003403771
5506.7450500486	0.0002988570
5508.6738574216	0.0003535235
5510.6026647947	0.0003693766
5512.5314721677	0.0003124521
5514.4602795408	0.0003299282
5516.3890869138	0.0003080617
5518.3178942869	0.0003586158
5520.2467016599	0.0003383947
5522.1755090330	0.0003767620
5524.1043164060	0.0003584924
5526.0331237790	0.0003314173
5527.9619311521	0.0003879599
5529.8907385251	0.0003217870
5531.8195458982	0.0003369658
5533.7483532712	0.0002647613
5535.6771606443	0.0002521182
5537.6059680173	0.0002963296
5539.5347753904	0.0002888698
5541.4635827634	0.0003228901
5543.3923901365	0.0002861211
5545.3211975095	0.0003154292
5547.2500048826	0.0002849344
5549.1788122556	0.0003157790
5551.1076196287	0.0003358285
5553.0364270017	0.0003159393
5554.9652343747	0.0003356473
5556.8940417478	0.0003161160
5558.8228491208	0.0004241108
5560.7516564939	0.0003546169
5562.6804638669	0.0003210019
5564.6092712400	0.0003144052
5566.5380786130	0.0002653355
5568.4668859861	0.0003603348
5570.3956933591	0.0002875821
5572.3245007322	0.0002816032
5574.2533081052	0.0002833512
5576.1821154783	0.0003258036
5578.1109228513	0.0003796557
5580.0397302244	0.0003242498
5581.9685375974	0.0003677769
5583.8973449704	0.0002873648
5585.8261523435	0.0002512389
5587.7549597165	0.0003038322
5589.6837670896	0.0003436223
5591.6125744626	0.0002800158
5593.5413818357	0.0002452718
5595.4701892087	0.0003350397
5597.3989965818	0.0002612490
5599.3278039548	0.0003424356
5601.2566113279	0.0003281780
5603.1854187009	0.0002094870
5605.1142260740	0.0003204498
5607.0430334470	0.0002891819
5608.9718408201	0.0002832842
5610.9006481931	0.0003493437
5612.8294555661	0.0002975480
5614.7582629392	0.0002657289
5616.6870703122	0.0003202917
5618.6158776853	0.0003025230
5620.5446850583	0.0002503136
5622.4734924314	0.0002714042
5624.4022998044	0.0002621900
5626.3311071775	0.0002865289
5628.2599145505	0.0002365121
5630.1887219236	0.0001983162
5632.1175292966	0.0002806016
5634.0463366697	0.0003120696
5635.9751440427	0.0003031450
5637.9039514158	0.0002681731
5639.8327587888	0.0003137950
5641.7615661619	0.0003418311
5643.6903735349	0.0002948046
5645.6191809079	0.0002941467
5647.5479882810	0.0002951201
5649.4767956540	0.0003195430
5651.4056030271	0.0003226296
5653.3344104001	0.0003005382
5655.2632177732	0.0002892653
5657.1920251462	0.0003216061
5659.1208325193	0.0003628354
5661.0496398923	0.0002840077
5662.9784472654	0.0002505368
5664.9072546384	0.0003010983
5666.8360620115	0.0002969308
5668.7648693845	0.0003072190
5670.6936767576	0.0003063292
5672.6224841306	0.0002879582
5674.5512915036	0.0002644691
5676.4800988767	0.0002311543
5678.4089062497	0.0003264789
5680.3377136228	0.0003914785
5682.2665209958	0.0002939852
5684.1953283689	0.0002623417
5686.1241357419	0.0003100508
5688.0529431150	0.0003055111
5689.9817504880	0.0003142622
5691.9105578611	0.0003024364
5693.8393652341	0.0002222904
5695.7681726072	0.0002782822
5697.6969799802	0.0003287837
5699.6257873533	0.0002720899
5701.5545947263	0.0002816900
5703.4834020993	0.0002854949
5705.4122094724	0.0002811732
5707.3410168454	0.0002385548
5709.2698242185	0.0002642253
5711.1986315915	0.0003366955
5713.1274389646	0.0003028064
5715.0562463376	0.0002945535
5716.9850537107	0.0002529907
5718.9138610837	0.0002566626
5720.8426684568	0.0002834639
5722.7714758298	0.0002844762
5724.7002832029	0.0003209792
5726.6290905759	0.0002590246
5728.5578979490	0.0002710359
5730.4867053220	0.0002729030
5732.4155126950	0.0002109667
5734.3443200681	0.0002669206
5736.2731274411	0.0002655964
5738.2019348142	0.0002292573
5740.1307421872	0.0002736685
5742.0595495603	0.0003092162
5743.9883569333	0.0002621799
5745.9171643064	0.0002625750
5747.8459716794	0.0002730231
5749.7747790525	0.0002301938
5751.7035864255	0.0002674422
5753.6323937986	0.0002235188
5755.5612011716	0.0001858216
5757.4900085447	0.0002088129
5759.4188159177	0.0001804418
5761.3476232907	0.0002432072
5763.2764306638	0.0002623662
5765.2052380368	0.0002448783
5767.1340454099	0.0002577945
5769.0628527829	0.0002719196
5770.9916601560	0.0003150773
5772.9204675290	0.0002509677
5774.8492749021	0.0002203465
5776.7780822751	0.0002732368
5778.7068896482	0.0002748342
5780.6356970212	0.0002642172
5782.5645043943	0.0002480159
5784.4933117673	0.0002511400
5786.4221191404	0.0002546614
5788.3509265134	0.0002745072
5790.2797338865	0.0002959635
5792.2085412595	0.0002386136
5794.1373486325	0.0002055918
5796.0661560056	0.0002834410
5797.9949633786	0.0003005401
5799.9237707517	0.0002244554
5801.8525781247	0.0002321620
5803.7813854978	0.0002493601
5805.7101928708	0.0002422958
5807.6390002439	0.0002131394
5809.5678076169	0.0002047619
5811.4966149900	0.0002431764
5813.4254223630	0.0002089724
5815.3542297361	0.0002668403
5817.2830371091	0.0002695094
5819.2118444822	0.0001788662
5821.1406518552	0.0002659594
5823.0694592282	0.0002984949
5824.9982666013	0.0002750417
5826.9270739743	0.0003232049
5828.8558813474	0.0002619277
5830.7846887204	0.0001734364
5832.7134960935	0.0002582342
5834.6423034665	0.0002628625
5836.5711108396	0.0002035611
5838.4999182126	0.0002629821
5840.4287255857	0.0002084971
5842.3575329587	0.0002216893
5844.2863403318	0.0002497556
5846.2151477048	0.0001714285
5848.1439550779	0.0002029111
5850.0727624509	0.0002321384
5852.0015698239	0.0002441338
5853.9303771970	0.0002072636
5855.8591845700	0.0002234446
5857.7879919431	0.0002336243
5859.7167993161	0.0001587919
5861.6456066892	0.0002400079
5863.5744140622	0.0002504281
5865.5032214353	0.0001954961
5867.4320288083	0.0002427857
5869.3608361814	0.0002592937
5871.2896435544	0.0002189962
5873.2184509275	0.0001892658
5875.1472583005	0.0002568546
5877.0760656736	0.0002966228
5879.0048730466	0.0002561983
5880.9336804196	0.0002260744
5882.8624877927	0.0001931518
5884.7912951657	0.0001548745
5886.7201025388	0.0001912539
5888.6489099118	0.0002360674
5890.5777172849	0.0001826128
5892.5065246579	0.0002153065
5894.4353320310	0.0002738718
5896.3641394040	0.0001959408
5898.2929467771	0.0002011928
5900.2217541501	0.0002486417
5902.1505615232	0.0001816842
5904.0793688962	0.0002294416
5906.0081762693	0.0002805170
5907.9369836423	0.0001871828
5909.8657910154	0.0002091262
5911.7945983884	0.0002209015
5913.7234057614	0.0001776800
5915.6522131345	0.0002222125
5917.5810205075	0.0002288827
5919.5098278806	0.0002148811
5921.4386352536	0.0002706370
5923.3674426267	0.0002746922
5925.2962499997	0.0001884128
5927.2250573728	0.0002052373
5929.1538647458	0.0002226005
5931.0826721189	0.0002036659
5933.0114794919	0.0002230268
5934.9402868650	0.0001974744
5936.8690942380	0.0002308952
5938.7979016111	0.0002289750
5940.7267089841	0.0002120709
5942.6555163571	0.0002713012
5944.5843237302	0.0002941994
5946.5131311032	0.0002802905
5948.4419384763	0.0002529768
5950.3707458493	0.0002466660
5952.2995532224	0.0001966370
5954.2283605954	0.0001945638
5956.1571679685	0.0002085652
5958.0859753415	0.0002145027
5960.0147827146	0.0002577093
5961.9435900876	0.0001368457
5963.8723974607	0.0001607004
5965.8012048337	0.0002974550
5967.7300122068	0.0002759983
5969.6588195798	0.0002536328
5971.5876269528	0.0001821300
5973.5164343259	0.0002334273
5975.4452416989	0.0002689075
5977.3740490720	0.0001645911
5979.3028564450	0.0002000530
5981.2316638181	0.0001964498
5983.1604711911	0.0001615041
5985.0892785642	0.0001645983
5987.0180859372	0.0001735579
5988.9468933103	0.0002209357
5990.8757006833	0.0002083424
5992.8045080564	0.0002236085
5994.7333154294	0.0001813642
5996.6621228025	0.0001477396
5998.5909301755	0.0002314059
6000.5197375485	0.0002322718
