399.2631262207	0.0015109084
401.1919335938	0.0025001112
403.1207409668	0.0027384888
405.0495483398	0.0021386836
406.9783557129	0.0029403395
408.9071630859	0.0027148081
410.8359704590	0.0030788747
412.7647778320	0.0027230172
414.6935852051	0.0026372839
416.6223925781	0.0028236064
418.5511999512	0.0022617560
420.4800073242	0.0036349935
422.4088146973	0.0033550945
424.3376220703	0.0026131910
426.2664294434	0.0031132805
428.1952368164	0.0033178553
430.1240441895	0.0034917914
432.0528515625	0.0030922582
433.9816589355	0.0030716863
435.9104663086	0.0030243360
437.8392736816	0.0032222567
439.7680810547	0.0030863346
441.6968884277	0.0026443913
443.6256958008	0.0028214632
445.5545031738	0.0024887021
447.4833105469	0.0024638828
449.4121179199	0.0024923300
451.3409252930	0.0026563713
453.2697326660	0.0028333641
455.1985400391	0.0021444531
457.1273474121	0.0020412798
459.0561547852	0.0021711516
460.9849621582	0.0019078346
462.9137695313	0.0018897720
464.8425769043	0.0016964129
466.7713842773	0.0014942570
468.7001916504	0.0014900704
470.6289990234	0.0013297631
472.5578063965	0.0015229613
474.4866137695	0.0016024682
476.4154211426	0.0013390738
478.3442285156	0.0009307467
480.2730358887	0.0005205510
482.2018432617	0.0008474975
484.1306506348	0.0008781145
486.0594580078	0.0006770907
487.9882653809	0.0007644807
489.9170727539	0.0005980263
491.8458801270	0.0005263785
493.7746875000	0.0007260718
495.7034948730	0.0008073989
497.6323022461	0.0005554795
499.5611096191	0.0008680055
501.4899169922	0.0007175017
503.4187243652	0.0003910077
505.3475317383	0.0004616790
507.2763391113	0.0005718441
509.2051464844	0.0011781550
511.1339538574	0.0002586755
513.0627612305	0.0004126985
514.9915686035	0.0012230494
516.9203759766	0.0003326994
518.8491833496	0.0005945766
520.7779907227	0.0004855493
522.7067980957	0.0005091948
524.6356054688	0.0008084207
526.5644128418	0.0000383764
528.4932202148	0.0002624125
530.4220275879	0.0005794438
532.3508349609	0.0004040165
534.2796423340	0.0005466408
536.2084497070	0.0005749926
538.1372570801	0.0002727414
540.0660644531	0.0003874186
541.9948718262	0.0006109425
543.9236791992	0.0006640163
545.8524865723	0.0008018258
547.7812939453	0.0004193477
549.7101013184	0.0004323745
551.6389086914	0.0005354919
553.5677160645	0.0003288004
555.4965234375	0.0006999829
557.4253308105	0.0008027268
559.3541381836	0.0004899474
561.2829455566	0.0005418611
563.2117529297	0.0004445994
565.1405603027	0.0004057797
567.0693676758	0.0006712934
568.9981750488	0.0003964878
570.9269824219	0.0003608617
572.8557897949	0.0003594510
574.7845971680	0.0003355249
576.7134045410	0.0005918375
578.6422119141	0.0002958285
580.5710192871	0.0003596475
582.4998266602	0.0003215156
584.4286340332	0.0002048992
586.3574414063	0.0003716394
588.2862487793	0.0003997032
590.2150561523	0.0006009653
592.1438635254	0.0006039205
594.0726708984	0.0006906462
596.0014782715	0.0003084081
597.9302856445	0.0002236483
599.8590930176	0.0004814897
601.7879003906	0.0002195028
603.7167077637	0.0003291371
605.6455151367	0.0002384110
607.5743225098	0.0001822680
609.5031298828	0.0001428151
611.4319372559	0.0002422334
613.3607446289	0.0003964462
615.2895520020	0.0003794736
617.2183593750	0.0000046525
619.1471667480	0.0001693561
621.0759741211	0.0004832255
623.0047814941	0.0003035041
624.9335888672	0.0001893687
626.8623962402	0.0000501504
628.7912036133	0.0002076791
630.7200109863	0.0006848571
632.6488183594	0.0013865512
634.5776257324	0.0016096509
636.5064331055	0.0015610990
638.4352404785	0.0021026724
640.3640478516	0.0027710954
642.2928552246	0.0026097763
644.2216625977	0.0026833261
646.1504699707	0.0033253874
648.0792773438	0.0036616973
650.0080847168	0.0037176893
651.9368920898	0.0035542888
653.8656994629	0.0039844126
655.7945068359	0.0043296749
657.7233142090	0.0043913750
659.6521215820	0.0046853404
661.5809289551	0.0044664103
663.5097363281	0.0050577987
665.4385437012	0.0052173203
667.3673510742	0.0043009473
669.2961584473	0.0051282560
671.2249658203	0.0057261167
673.1537731934	0.0057416321
675.0825805664	0.0063228728
677.0113879395	0.0062505808
678.9401953125	0.0063806185
680.8690026855	0.0060701557
682.7978100586	0.0061838860
684.7266174316	0.0066342703
686.6554248047	0.0061588436
688.5842321777	0.0062953006
690.5130395508	0.0063480646
692.4418469238	0.0066717807
694.3706542969	0.0071859979
696.2994616699	0.0081748683
698.2282690430	0.0093185455
700.1570764160	0.0094861826
702.0858837891	0.0098208655
704.0146911621	0.0088744955
705.9434985352	0.0078190397
707.8723059082	0.0071316259
709.8011132813	0.0058309278
711.7299206543	0.0040576030
713.6587280273	0.0020051517
715.5875354004	0.0014498543
717.5163427734	0.0008951485
719.4451501465	0.0005075156
721.3739575195	0.0003855569
723.3027648926	0.0003649730
725.2315722656	0.0005286199
727.1603796387	0.0001022159
729.0891870117	0.0004274643
731.0179943848	0.0001402243
732.9468017578	0.0002230362
734.8756091309	0.0002805438
736.8044165039	-0.0001720094
738.7332238770	0.0004375132
740.6620312500	-0.0000457006
742.5908386230	-0.0001450910
744.5196459961	0.0001839337
746.4484533691	-0.0000300808
748.3772607422	0.0004070050
750.3060681152	0.0003555072
752.2348754883	0.0000869278
754.1636828613	0.0004541670
756.0924902344	0.0006218524
758.0212976074	0.0006204330
759.9501049805	0.0006414426
761.8789123535	0.0003145530
763.8077197266	0.0002133845
765.7365270996	0.0003271819
767.6653344727	0.0003706533
769.5941418457	0.0004119893
771.5229492188	0.0004655328
773.4517565918	0.0006187953
775.3805639648	0.0003751648
777.3093713379	0.0006130166
779.2381787109	0.0007349380
781.1669860840	0.0003899942
783.0957934570	0.0008612700
785.0246008301	0.0003822764
786.9534082031	0.0004265341
788.8822155762	0.0008106492
790.8110229492	0.0006597593
792.7398303223	0.0008578143
794.6686376953	0.0006267605
796.5974450684	0.0009180785
798.5262524414	0.0012637231
800.4550598145	0.0011850984
802.3838671875	0.0011362475
804.3126745605	0.0009102584
806.2414819336	0.0008674617
808.1702893066	0.0008205251
810.0990966797	0.0005977523
812.0279040527	0.0007155965
813.9567114258	0.0006307420
815.8855187988	0.0003646558
817.8143261719	0.0006264100
819.7431335449	0.0005661949
821.6719409180	0.0004985285
823.6007482910	0.0006550238
825.5295556641	0.0009298044
827.4583630371	0.0009999769
829.3871704102	0.0009874485
831.3159777832	0.0016867712
833.2447851563	0.0020287291
835.1735925293	0.0020579670
837.1023999023	0.0018701090
839.0312072754	0.0020631801
840.9600146484	0.0022065316
842.8888220215	0.0016838470
844.8176293945	0.0016613798
846.7464367676	0.0014935717
848.6752441406	0.0015488653
850.6040515137	0.0014665008
852.5328588867	0.0014316697
854.4616662598	0.0013954935
856.3904736328	0.0010382863
858.3192810059	0.0013045939
860.2480883789	0.0007190017
862.1768957520	0.0005513253
864.1057031250	0.0009070700
866.0345104980	0.0005358242
867.9633178711	0.0005746549
869.8921252441	0.0005206457
871.8209326172	0.0003979726
873.7497399902	0.0004050331
875.6785473633	0.0003974049
877.6073547363	0.0004888246
879.5361621094	0.0004533321
881.4649694824	0.0003569595
883.3937768555	0.0004268000
885.3225842285	0.0003987498
887.2513916016	0.0004948572
889.1801989746	0.0006052572
891.1090063477	0.0003132774
893.0378137207	0.0004924427
894.9666210938	0.0004385271
896.8954284668	0.0004303628
898.8242358398	0.0006941725
900.7530432129	0.0005102459
902.6818505859	0.0006686453
904.6106579590	0.0005017781
906.5394653320	0.0005614070
908.4682727051	0.0007437253
910.3970800781	0.0005578763
912.3258874512	0.0009319761
914.2546948242	0.0011094381
916.1835021973	0.0013493211
918.1123095703	0.0016687345
920.0411169434	0.0015477377
921.9699243164	0.0013884520
923.8987316895	0.0017457157
925.8275390625	0.0020926606
927.7563464355	0.0019561248
929.6851538086	0.0024563093
931.6139611816	0.0026773182
933.5427685547	0.0024458703
935.4715759277	0.0028690672
937.4003833008	0.0030399798
939.3291906738	0.0031119899
941.2579980469	0.0032238716
943.1868054199	0.0030100734
945.1156127930	0.0031519514
947.0444201660	0.0033156127
948.9732275391	0.0032139425
950.9020349121	0.0030977619
952.8308422852	0.0031528100
954.7596496582	0.0034770791
956.6884570313	0.0031004194
958.6172644043	0.0026746925
960.5460717773	0.0031518457
962.4748791504	0.0032112072
964.4036865234	0.0029477011
966.3324938965	0.0031864108
968.2613012695	0.0032805968
970.1901086426	0.0034140907
972.1189160156	0.0037550922
974.0477233887	0.0040061623
975.9765307617	0.0045135235
977.9053381348	0.0045776791
979.8341455078	0.0047729956
981.7629528809	0.0055105267
983.6917602539	0.0059332722
985.6205676270	0.0067303064
987.5493750000	0.0074786032
989.4781823730	0.0083615184
991.4069897461	0.0093336785
993.3357971191	0.0098275784
995.2646044922	0.0107534220
997.1934118652	0.0117038963
999.1222192383	0.0126037840
1001.0510266113	0.0136809573
1002.9798339844	0.0148322750
1004.9086413574	0.0156728327
1006.8374487305	0.0164109766
1008.7662561035	0.0175116658
1010.6950634766	0.0183838643
1012.6238708496	0.0195272081
1014.5526782227	0.0205278099
1016.4814855957	0.0213819742
1018.4102929688	0.0226533301
1020.3391003418	0.0236761756
1022.2679077148	0.0247064382
1024.1967150879	0.0256530251
1026.1255224609	0.0265735872
1028.0543298340	0.0276723392
1029.9831372070	0.0283996556
1031.9119445801	0.0288687237
1033.8407519531	0.0296008456
1035.7695593262	0.0301573500
1037.6983666992	0.0303888731
1039.6271740723	0.0306011532
1041.5559814453	0.0302317701
1043.4847888184	0.0300302953
1045.4135961914	0.0300669782
1047.3424035645	0.0295400135
1049.2712109375	0.0291243047
1051.2000183105	0.0284744464
1053.1288256836	0.0278729293
1055.0576330566	0.0276014842
1056.9864404297	0.0267881025
1058.9152478027	0.0261597671
1060.8440551758	0.0255028754
1062.7728625488	0.0245522968
1064.7016699219	0.0238431543
1066.6304772949	0.0229278691
1068.5592846680	0.0221885294
1070.4880920410	0.0211384967
1072.4168994141	0.0198677368
1074.3457067871	0.0192201361
1076.2745141602	0.0183925778
1078.2033215332	0.0174029768
1080.1321289062	0.0165721215
1082.0609362793	0.0158572420
1083.9897436523	0.0149853760
1085.9185510254	0.0144735426
1087.8473583984	0.0140766604
1089.7761657715	0.0131465085
1091.7049731445	0.0127780037
1093.6337805176	0.0120882783
1095.5625878906	0.0114177223
1097.4913952637	0.0113799190
1099.4202026367	0.0108226016
1101.3490100098	0.0107667595
1103.2778173828	0.0107689798
1105.2066247559	0.0101803541
1107.1354321289	0.0099806339
1109.0642395019	0.0100253560
1110.9930468750	0.0098724868
1112.9218542480	0.0096171191
1114.8506616211	0.0096979961
1116.7794689941	0.0096173678
1118.7082763672	0.0092550647
1120.6370837402	0.0094655380
1122.5658911133	0.0096585574
1124.4946984863	0.0096281096
1126.4235058594	0.0098401736
1128.3523132324	0.0100388639
1130.2811206055	0.0102821663
1132.2099279785	0.0104739936
1134.1387353516	0.0109178144
1136.0675427246	0.0113298194
1137.9963500977	0.0117671378
1139.9251574707	0.0128838383
1141.8539648437	0.0135511672
1143.7827722168	0.0142554753
1145.7115795898	0.0154390233
1147.6403869629	0.0162533410
1149.5691943359	0.0170979854
1151.4980017090	0.0180573389
1153.4268090820	0.0188872404
1155.3556164551	0.0196339563
1157.2844238281	0.0204520915
1159.2132312012	0.0212452523
1161.1420385742	0.0220724959
1163.0708459473	0.0227365158
1164.9996533203	0.0235362984
1166.9284606934	0.0244358350
1168.8572680664	0.0252132416
1170.7860754394	0.0264977962
1172.7148828125	0.0273513403
1174.6436901855	0.0282618292
1176.5724975586	0.0294769146
1178.5013049316	0.0303326696
1180.4301123047	0.0315990746
1182.3589196777	0.0330830514
1184.2877270508	0.0345192328
1186.2165344238	0.0359169394
1188.1453417969	0.0377243385
1190.0741491699	0.0393747389
1192.0029565430	0.0409860909
1193.9317639160	0.0430328026
1195.8605712891	0.0449283421
1197.7893786621	0.0471724570
1199.7181860351	0.0492076725
1201.6469934082	0.0511471629
1203.5758007812	0.0532618314
1205.5046081543	0.0553056002
1207.4334155273	0.0573428832
1209.3622229004	0.0592959747
1211.2910302734	0.0611722171
1213.2198376465	0.0628299490
1215.1486450195	0.0645678267
1217.0774523926	0.0657249019
1219.0062597656	0.0668737888
1220.9350671387	0.0679204911
1222.8638745117	0.0685515478
1224.7926818848	0.0695216134
1226.7214892578	0.0699921623
1228.6502966308	0.0703877956
1230.5791040039	0.0706666186
1232.5079113769	0.0706148073
1234.4367187500	0.0706747323
1236.3655261230	0.0709457397
1238.2943334961	0.0706692934
1240.2231408691	0.0700783283
1242.1519482422	0.0701658651
1244.0807556152	0.0697745979
1246.0095629883	0.0694052279
1247.9383703613	0.0689756945
1249.8671777344	0.0685842335
1251.7959851074	0.0682785660
1253.7247924805	0.0673966110
1255.6535998535	0.0667331517
1257.5824072266	0.0656972528
1259.5112145996	0.0646460652
1261.4400219726	0.0635524094
1263.3688293457	0.0627461225
1265.2976367187	0.0619889237
1267.2264440918	0.0609661527
1269.1552514648	0.0602764674
1271.0840588379	0.0590839908
1273.0128662109	0.0583420917
1274.9416735840	0.0574670434
1276.8704809570	0.0562710762
1278.7992883301	0.0550821498
1280.7280957031	0.0539168157
1282.6569030762	0.0532011390
1284.5857104492	0.0520457402
1286.5145178223	0.0510126650
1288.4433251953	0.0501312688
1290.3721325683	0.0496169999
1292.3009399414	0.0489081778
1294.2297473144	0.0484824255
1296.1585546875	0.0484304205
1298.0873620605	0.0479645021
1300.0161694336	0.0484246016
1301.9449768066	0.0485564619
1303.8737841797	0.0487751253
1305.8025915527	0.0494490899
1307.7313989258	0.0500777066
1309.6602062988	0.0508763194
1311.5890136719	0.0516882539
1313.5178210449	0.0528202802
1315.4466284180	0.0536845848
1317.3754357910	0.0551300943
1319.3042431640	0.0565318614
1321.2330505371	0.0581709892
1323.1618579101	0.0601515099
1325.0906652832	0.0617840141
1327.0194726562	0.0637605563
1328.9482800293	0.0652801841
1330.8770874023	0.0670674592
1332.8058947754	0.0686226264
1334.7347021484	0.0698597580
1336.6635095215	0.0706873834
1338.5923168945	0.0703916699
1340.5211242676	0.0713481233
1342.4499316406	0.0735114887
1344.3787390137	0.0741547793
1346.3075463867	0.0738667399
1348.2363537597	0.0738330185
1350.1651611328	0.0733841062
1352.0939685058	0.0733678788
1354.0227758789	0.0725674778
1355.9515832519	0.0718040466
1357.8803906250	0.0715533644
1359.8091979980	0.0703035668
1361.7380053711	0.0681774467
1363.6668127441	0.0670386106
1365.5956201172	0.0695030615
1367.5244274902	0.0684243590
1369.4532348633	0.0672660172
1371.3820422363	0.0683070123
1373.3108496094	0.0652994365
1375.2396569824	0.0658050627
1377.1684643555	0.0669207424
1379.0972717285	0.0666931421
1381.0260791015	0.0668562874
1382.9548864746	0.0664971173
1384.8836938476	0.0666750968
1386.8125012207	0.0640931129
1388.7413085937	0.0651183501
1390.6701159668	0.0692310706
1392.5989233398	0.0680252016
1394.5277307129	0.0647849441
1396.4565380859	0.0671902746
1398.3853454590	0.0676032230
1400.3141528320	0.0668705106
1402.2429602051	0.0711483508
1404.1717675781	0.0682277232
1406.1005749512	0.0685577244
1408.0293823242	0.0705841184
1409.9581896972	0.0682064444
1411.8869970703	0.0694466531
1413.8158044433	0.0673194155
1415.7446118164	0.0681998506
1417.6734191894	0.0626032799
1419.6022265625	0.0571105182
1421.5310339355	0.0635963082
1423.4598413086	0.0617153645
1425.3886486816	0.0599045977
1427.3174560547	0.0601890422
1429.2462634277	0.0562188476
1431.1750708008	0.0545568243
1433.1038781738	0.0548278391
1435.0326855469	0.0504925512
1436.9614929199	0.0441476554
1438.8903002929	0.0484221503
1440.8191076660	0.0491280183
1442.7479150390	0.0460322574
1444.6767224121	0.0477720350
1446.6055297851	0.0446622819
1448.5343371582	0.0448755920
1450.4631445312	0.0463677049
1452.3919519043	0.0471810587
1454.3207592773	0.0490090027
1456.2495666504	0.0425401628
1458.1783740234	0.0441641212
1460.1071813965	0.0562652871
1462.0359887695	0.0594897643
1463.9647961426	0.0599809289
1465.8936035156	0.0627302080
1467.8224108886	0.0700477958
1469.7512182617	0.0753998607
1471.6800256347	0.0697365180
1473.6088330078	0.0732559711
1475.5376403808	0.0821065158
1477.4664477539	0.0879318491
1479.3952551269	0.0955491513
1481.3240625000	0.0975422785
1483.2528698730	0.1029550284
1485.1816772461	0.1066062227
1487.1104846191	0.1063653827
1489.0392919922	0.1068978459
1490.9680993652	0.1080240235
1492.8969067383	0.1217983514
1494.8257141113	0.1203801334
1496.7545214843	0.1112215519
1498.6833288574	0.1233448684
1500.6121362304	0.1268329173
1502.5409436035	0.1343558729
1504.4697509765	0.1292700171
1506.3985583496	0.1011847109
1508.3273657226	0.1184796989
1510.2561730957	0.1348034292
1512.1849804687	0.1311799884
1514.1137878418	0.1401591003
1516.0425952148	0.1293376982
1517.9714025879	0.1341917217
1519.9002099609	0.1301754415
1521.8290173340	0.1165127531
1523.7578247070	0.1365840137
1525.6866320801	0.1348905861
1527.6154394531	0.1346258968
1529.5442468261	0.1454782188
1531.4730541992	0.1413550973
1533.4018615722	0.1319678724
1535.3306689453	0.1378694177
1537.2594763183	0.1455460191
1539.1882836914	0.1118102744
1541.1170910644	0.1156592369
1543.0458984375	0.1339404285
1544.9747058105	0.1295942068
1546.9035131836	0.1477657259
1548.8323205566	0.1400038600
1550.7611279297	0.1435318887
1552.6899353027	0.1426974237
1554.6187426758	0.1322534084
1556.5475500488	0.1399269402
1558.4763574218	0.1066032350
1560.4051647949	0.1123346984
1562.3339721679	0.1485174000
1564.2627795410	0.1421627998
1566.1915869140	0.1452898979
1568.1203942871	0.1441002488
1570.0492016601	0.1309845299
1571.9780090332	0.1464264989
1573.9068164062	0.1479420215
1575.8356237793	0.1225609481
1577.7644311523	0.1349387765
1579.6932385254	0.1494372189
1581.6220458984	0.1437628269
1583.5508532715	0.1470708847
1585.4796606445	0.1449330449
1587.4084680175	0.1458244622
1589.3372753906	0.1450440586
1591.2660827636	0.1447686255
1593.1948901367	0.1451856792
1595.1236975097	0.1434543282
1597.0525048828	0.1453073323
1598.9813122558	0.1444032490
1600.9101196289	0.1449834406
1602.8389270019	0.1430120617
1604.7677343750	0.1448509246
1606.6965417480	0.1432036161
1608.6253491211	0.1428816020
1610.5541564941	0.1427275240
1612.4829638672	0.1432829052
1614.4117712402	0.1451297998
1616.3405786132	0.1233047843
1618.2693859863	0.1313984692
1620.1981933593	0.1487359107
1622.1270007324	0.1353276968
1624.0558081054	0.1359071732
1625.9846154785	0.1405248046
1627.9134228515	0.1407508552
1629.8422302246	0.1395984292
1631.7710375976	0.1470735967
1633.6998449707	0.1383062005
1635.6286523437	0.1186282933
1637.5574597168	0.1339251399
1639.4862670898	0.1441048086
1641.4150744629	0.1414751410
1643.3438818359	0.1445637494
1645.2726892090	0.1330165267
1647.2014965820	0.1205069125
1649.1303039550	0.1431277543
1651.0591113281	0.1365807354
1652.9879187011	0.0962997824
1654.9167260742	0.1228381395
1656.8455334472	0.1474271119
1658.7743408203	0.1416125000
1660.7031481933	0.1455039084
1662.6319555664	0.1345387995
1664.5607629394	0.1404689848
1666.4895703125	0.1485337019
1668.4183776855	0.1335968971
1670.3471850586	0.1308726072
1672.2759924316	0.1441489458
1674.2047998047	0.1353141665
1676.1336071777	0.1308224052
1678.0624145507	0.1463152021
1679.9912219238	0.1418046653
1681.9200292968	0.1413517594
1683.8488366699	0.1197819859
1685.7776440429	0.1177750602
1687.7064514160	0.1524815261
1689.6352587890	0.1359387934
1691.5640661621	0.1462232471
1693.4928735351	0.1488061249
1695.4216809082	0.1153686643
1697.3504882812	0.1362299621
1699.2792956543	0.1238306835
1701.2081030273	0.1135958284
1703.1369104004	0.1450416148
1705.0657177734	0.1354861259
1706.9945251464	0.1359609365
1708.9233325195	0.1453134716
1710.8521398925	0.1402995139
1712.7809472656	0.1426556110
1714.7097546386	0.1344190538
1716.6385620117	0.1227214485
1718.5673693847	0.1210946590
1720.4961767578	0.1387098432
1722.4249841308	0.1426223665
1724.3537915039	0.1343553066
1726.2825988769	0.1434084773
1728.2114062500	0.1342421323
1730.1402136230	0.1356103122
1732.0690209961	0.1320777833
1733.9978283691	0.1066533029
1735.9266357421	0.1262387037
1737.8554431152	0.1368629932
1739.7842504882	0.1251656413
1741.7130578613	0.1337400079
1743.6418652343	0.1355522275
1745.5706726074	0.1358681023
1747.4994799804	0.1372518539
1749.4282873535	0.1327039301
1751.3570947265	0.1278115809
1753.2859020996	0.1386370212
1755.2147094726	0.1438110471
1757.1435168457	0.1339778602
1759.0723242187	0.1441072077
1761.0011315918	0.1373047531
1762.9299389648	0.1336047351
1764.8587463379	0.1483234763
1766.7875537109	0.1366341263
1768.7163610839	0.1378233731
1770.6451684570	0.1372423768
1772.5739758300	0.1257184744
1774.5027832031	0.1370123029
1776.4315905761	0.1432510018
1778.3603979492	0.1413063407
1780.2892053222	0.1403843760
1782.2180126953	0.1411031783
1784.1468200683	0.1407289803
1786.0756274414	0.1385851502
1788.0044348144	0.1440838873
1789.9332421875	0.1414325088
1791.8620495605	0.1308798790
1793.7908569336	0.1349442303
1795.7196643066	0.1426770538
1797.6484716796	0.1412446499
1799.5772790527	0.1396205127
1801.5060864257	0.1378184855
1803.4348937988	0.1409544647
1805.3637011718	0.1433657408
1807.2925085449	0.1418574154
1809.2213159179	0.1424280703
1811.1501232910	0.1395145655
1813.0789306640	0.1425715089
1815.0077380371	0.1429804564
1816.9365454101	0.1415506452
1818.8653527832	0.1428380907
1820.7941601562	0.1422427595
1822.7229675293	0.1436412334
1824.6517749023	0.1365981698
1826.5805822753	0.1402649879
1828.5093896484	0.1404991150
1830.4381970214	0.1337356567
1832.3670043945	0.1426122487
1834.2958117675	0.1418236941
1836.2246191406	0.1416669935
1838.1534265136	0.1411406696
1840.0822338867	0.1417085230
1842.0110412597	0.1420907378
1843.9398486328	0.1295022368
1845.8686560058	0.1357032359
1847.7974633789	0.1414736062
1849.7262707519	0.1391049325
1851.6550781250	0.1423375607
1853.5838854980	0.1400016546
1855.5126928710	0.1409213543
1857.4415002441	0.1403705478
1859.3703076171	0.1396488249
1861.2991149902	0.1400935650
1863.2279223632	0.1388943493
1865.1567297363	0.1401748508
1867.0855371093	0.1364513189
1869.0143444824	0.1320006251
1870.9431518554	0.1358816177
1872.8719592285	0.1396884769
1874.8007666015	0.1378901303
1876.7295739746	0.1385105550
1878.6583813476	0.1381326020
1880.5871887207	0.1374130547
1882.5159960937	0.1382631361
1884.4448034667	0.1365775764
1886.3736108398	0.1379894018
1888.3024182128	0.1355022639
1890.2312255859	0.1333724409
1892.1600329589	0.1371943057
1894.0888403320	0.1357377470
1896.0176477050	0.1351385117
1897.9464550781	0.1364247650
1899.8752624511	0.1357877702
1901.8040698242	0.1358707398
1903.7328771972	0.1351681650
1905.6616845703	0.1353833377
1907.5904919433	0.1343907118
1909.5192993164	0.1337438971
1911.4481066894	0.1343782544
1913.3769140625	0.1345422566
1915.3057214355	0.1353160441
1917.2345288085	0.1306091249
1919.1633361816	0.1305859536
1921.0921435546	0.1344036758
1923.0209509277	0.1311798245
1924.9497583007	0.1330812126
1926.8785656738	0.1340156794
1928.8073730468	0.1327131093
1930.7361804199	0.1338477731
1932.6649877929	0.1324259341
1934.5937951660	0.1334911585
1936.5226025390	0.1327561140
1938.4514099121	0.1329504848
1940.3802172851	0.1329427958
1942.3090246582	0.1297323704
1944.2378320312	0.1314013153
1946.1666394042	0.1323566139
1948.0954467773	0.1320747733
1950.0242541503	0.1324216723
1951.9530615234	0.1321041882
1953.8818688964	0.1321764588
1955.8106762695	0.1317676604
1957.7394836425	0.1320490539
1959.6682910156	0.1318278015
1961.5970983886	0.1315265596
1963.5259057617	0.1317664534
1965.4547131347	0.1311147809
1967.3835205078	0.1302348822
1969.3123278808	0.1309679151
1971.2411352539	0.1313866079
1973.1699426269	0.1306889951
1975.0987499999	0.1311474741
1977.0275573730	0.1307525635
1978.9563647460	0.1304898858
1980.8851721191	0.1305328608
1982.8139794921	0.1301081479
1984.7427868652	0.1302191615
1986.6715942382	0.1295161843
1988.6004016113	0.1294888109
1990.5292089843	0.1285859644
1992.4580163574	0.1273493469
1994.3868237304	0.1288029999
1996.3156311035	0.1290577650
1998.2444384765	0.1283001900
2000.1732458496	0.1283624172
2002.1020532226	0.1279305667
2004.0308605956	0.1277977526
2005.9596679687	0.1275628656
2007.8884753417	0.1273055077
2009.8172827148	0.1271973848
2011.7460900878	0.1266921610
2013.6748974609	0.1266175508
2015.6037048339	0.1259040534
2017.5325122070	0.1251653284
2019.4613195800	0.1255558729
2021.3901269531	0.1255173087
2023.3189343261	0.1250910163
2025.2477416992	0.1247913241
2027.1765490722	0.1245685518
2029.1053564453	0.1243307665
2031.0341638183	0.1240546107
2032.9629711914	0.1239402443
2034.8917785644	0.1236017346
2036.8205859374	0.1232438609
2038.7493933105	0.1231395528
2040.6782006835	0.1225799397
2042.6070080566	0.1223350018
2044.5358154296	0.1225586012
2046.4646228027	0.1221391857
2048.3934301757	0.1218218058
2050.3222375488	0.1214582548
2052.2510449218	0.1211624146
2054.1798522949	0.1210937053
2056.1086596679	0.1207353547
2058.0374670410	0.1204694808
2059.9662744140	0.1202460527
2061.8950817871	0.1202487126
2063.8238891601	0.1196433604
2065.7526965331	0.1192044318
2067.6815039062	0.1194393709
2069.6103112792	0.1190618575
2071.5391186523	0.1187738404
2073.4679260253	0.1185147241
2075.3967333984	0.1184082106
2077.3255407714	0.1182865277
2079.2543481445	0.1178670079
2081.1831555175	0.1178346723
2083.1119628906	0.1176730692
2085.0407702636	0.1172487438
2086.9695776367	0.1171180308
2088.8983850097	0.1169103086
2090.8271923828	0.1164986789
2092.7559997558	0.1165177897
2094.6848071288	0.1162887588
2096.6136145019	0.1160677373
2098.5424218749	0.1159954965
2100.4712292480	0.1156755611
2102.4000366210	0.1155373603
2104.3288439941	0.1151654273
2106.2576513671	0.1150689274
2108.1864587402	0.1149127632
2110.1152661132	0.1146619171
2112.0440734863	0.1145680323
2113.9728808593	0.1142157093
2115.9016882324	0.1140677035
2117.8304956054	0.1138560623
2119.7593029785	0.1137656420
2121.6881103515	0.1136182398
2123.6169177245	0.1133453995
2125.5457250976	0.1132412404
2127.4745324706	0.1131176800
2129.4033398437	0.1128276065
2131.3321472167	0.1127435714
2133.2609545898	0.1127924994
2135.1897619628	0.1123178005
2137.1185693359	0.1122588664
2139.0473767089	0.1121162325
2140.9761840820	0.1118434370
2142.9049914550	0.1118015274
2144.8337988281	0.1115833819
2146.7626062011	0.1115658060
2148.6914135742	0.1112826467
2150.6202209472	0.1112763882
2152.5490283203	0.1111669391
2154.4778356933	0.1108817309
2156.4066430663	0.1108078957
2158.3354504394	0.1106773615
2160.2642578124	0.1106268317
2162.1930651855	0.1103137285
2164.1218725585	0.1102460623
2166.0506799316	0.1100760996
2167.9794873046	0.1099059582
2169.9082946777	0.1098066419
2171.8371020507	0.1097090393
2173.7659094238	0.1096385270
2175.6947167968	0.1093229279
2177.6235241699	0.1092838347
2179.5523315429	0.1090291739
2181.4811389160	0.1090333387
2183.4099462890	0.1089049727
2185.3387536620	0.1086867154
2187.2675610351	0.1086783484
2189.1963684081	0.1083537936
2191.1251757812	0.1083928198
2193.0539831542	0.1081197709
2194.9827905273	0.1079871804
2196.9115979003	0.1079284549
2198.8404052734	0.1076954603
2200.7692126464	0.1075837612
2202.6980200195	0.1074602604
2204.6268273925	0.1074553132
2206.5556347656	0.1071058959
2208.4844421386	0.1070731580
2210.4132495117	0.1068949923
2212.3420568847	0.1068466306
2214.2708642577	0.1067603230
2216.1996716308	0.1063471437
2218.1284790038	0.1063917130
2220.0572863769	0.1061213091
2221.9860937499	0.1060986519
2223.9149011230	0.1059312820
2225.8437084960	0.1058042347
2227.7725158691	0.1057363451
2229.7013232421	0.1053683907
2231.6301306152	0.1053570062
2233.5589379882	0.1050148904
2235.4877453613	0.1049406230
2237.4165527343	0.1048362181
2239.3453601074	0.1045816317
2241.2741674804	0.1045008302
2243.2029748534	0.1043510437
2245.1317822265	0.1042616218
2247.0605895995	0.1039186120
2248.9893969726	0.1037546545
2250.9182043456	0.1036356091
2252.8470117187	0.1034991890
2254.7758190917	0.1033320576
2256.7046264648	0.1031349748
2258.6334338378	0.1029404476
2260.5622412109	0.1028419361
2262.4910485839	0.1027632579
2264.4198559570	0.1024803445
2266.3486633300	0.1025245041
2268.2774707031	0.1023003086
2270.2062780761	0.1021304280
2272.1350854491	0.1020104736
2274.0638928222	0.1016999632
2275.9927001952	0.1017870009
2277.9215075683	0.1017532796
2279.8503149413	0.1015345529
2281.7791223144	0.1013181061
2283.7079296874	0.1013109237
2285.6367370605	0.1010852009
2287.5655444335	0.1010110527
2289.4943518066	0.1008542106
2291.4231591796	0.1003529429
2293.3519665527	0.1002315953
2295.2807739257	0.0998210460
2297.2095812988	0.0995932147
2299.1383886718	0.0992359370
2301.0671960449	0.0988024399
2302.9960034179	0.0984323844
2304.9248107909	0.0977748781
2306.8536181640	0.0972585082
2308.7824255370	0.0963951796
2310.7112329101	0.0958313495
2312.6400402831	0.0949538127
2314.5688476562	0.0939572304
2316.4976550292	0.0931254774
2318.4264624023	0.0917325094
2320.3552697753	0.0906369090
2322.2840771484	0.0894089639
2324.2128845214	0.0884270594
2326.1416918945	0.0875248462
2328.0704992675	0.0864241719
2329.9993066406	0.0854304209
2331.9281140136	0.0845977962
2333.8569213866	0.0843698978
2335.7857287597	0.0838385746
2337.7145361327	0.0838127136
2339.6433435058	0.0839332491
2341.5721508788	0.0840123594
2343.5009582519	0.0853185132
2345.4297656249	0.0867417380
2347.3585729980	0.0900775865
2349.2873803710	0.0929169878
2351.2161877441	0.0899452269
2353.1449951171	0.0854795724
2355.0738024902	0.0825211704
2357.0026098632	0.0799836293
2358.9314172363	0.0786118954
2360.8602246093	0.0778010786
2362.7890319823	0.0776546150
2364.7178393554	0.0780774951
2366.6466467284	0.0790083408
2368.5754541015	0.0805676281
2370.5042614745	0.0822878778
2372.4330688476	0.0846307278
2374.3618762206	0.0867542028
2376.2906835937	0.0887922943
2378.2194909667	0.0908083171
2380.1482983398	0.0921228826
2382.0771057128	0.0931724459
2384.0059130859	0.0938047618
2385.9347204589	0.0940844268
2387.8635278320	0.0939848870
2389.7923352050	0.0939286947
2391.7211425780	0.0939922482
2393.6499499511	0.0938283801
2395.5787573241	0.0936468616
2397.5075646972	0.0934784114
2399.4363720702	0.0933394134
2401.3651794433	0.0932198316
2403.2939868163	0.0932128429
2405.2227941894	0.0929012597
2407.1516015624	0.0928072035
2409.0804089355	0.0929606259
2411.0092163085	0.0927631110
2412.9380236816	0.0925751925
2414.8668310546	0.0923171192
2416.7956384277	0.0922915488
2418.7244458007	0.0921817124
2420.6532531738	0.0919462070
2422.5820605468	0.0918449908
2424.5108679198	0.0916489512
2426.4396752929	0.0915710256
2428.3684826659	0.0914600343
2430.2972900390	0.0913425088
2432.2260974120	0.0912304521
2434.1549047851	0.0911879987
2436.0837121581	0.0910885334
2438.0125195312	0.0908256322
2439.9413269042	0.0905923992
2441.8701342773	0.0905136988
2443.7989416503	0.0904969871
2445.7277490234	0.0903652385
2447.6565563964	0.0902514905
2449.5853637695	0.0900804996
2451.5141711425	0.0900754035
2453.4429785155	0.0898828059
2455.3717858886	0.0896591544
2457.3005932616	0.0895989537
2459.2294006347	0.0893635452
2461.1582080077	0.0894342065
2463.0870153808	0.0893429518
2465.0158227538	0.0891794264
2466.9446301269	0.0890145302
2468.8734374999	0.0888226032
2470.8022448730	0.0888464972
2472.7310522460	0.0886519849
2474.6598596191	0.0884348080
2476.5886669921	0.0883188248
2478.5174743652	0.0883081779
2480.4462817382	0.0881189033
2482.3750891112	0.0880025476
2484.3038964843	0.0878683478
2486.2327038573	0.0877058208
2488.1615112304	0.0876881927
2490.0903186034	0.0874051526
2492.0191259765	0.0874881595
2493.9479333495	0.0873684883
2495.8767407226	0.0871375799
2497.8055480956	0.0870245919
2499.7343554687	0.0868356526
2501.6631628417	0.0869679600
2503.5919702148	0.0866836384
2505.5207775878	0.0865138695
2507.4495849609	0.0865013450
2509.3783923339	0.0863822848
2511.3071997069	0.0862718374
2513.2360070800	0.0861562043
2515.1648144530	0.0861686468
2517.0936218261	0.0858615339
2519.0224291991	0.0857315511
2520.9512365722	0.0856578574
2522.8800439452	0.0855494291
2524.8088513183	0.0854791924
2526.7376586913	0.0853522420
2528.6664660644	0.0853126049
2530.5952734374	0.0851287618
2532.5240808105	0.0850883573
2534.4528881835	0.0849367082
2536.3816955566	0.0847876668
2538.3105029296	0.0847153664
2540.2393103027	0.0845228285
2542.1681176757	0.0844067186
2544.0969250487	0.0842349678
2546.0257324218	0.0841010064
2547.9545397948	0.0840302259
2549.8833471679	0.0839595795
2551.8121545409	0.0838015378
2553.7409619140	0.0837168917
2555.6697692870	0.0835719407
2557.5985766601	0.0834919065
2559.5273840331	0.0833817050
2561.4561914062	0.0831596702
2563.3849987792	0.0832356885
2565.3138061523	0.0829713196
2567.2426135253	0.0829547495
2569.1714208984	0.0829800740
2571.1002282714	0.0826146007
2573.0290356444	0.0826696754
2574.9578430175	0.0824424922
2576.8866503905	0.0822234005
2578.8154577636	0.0821878910
2580.7442651366	0.0820503384
2582.6730725097	0.0820340961
2584.6018798827	0.0817930773
2586.5306872558	0.0816595033
2588.4594946288	0.0816253126
2590.3883020019	0.0814410150
2592.3171093749	0.0813769996
2594.2459167480	0.0812746137
2596.1747241210	0.0810984671
2598.1035314941	0.0809684917
2600.0323388671	0.0808678791
2601.9611462401	0.0809012502
2603.8899536132	0.0807283223
2605.8187609862	0.0805292726
2607.7475683593	0.0805024877
2609.6763757323	0.0803167373
2611.6051831054	0.0802828968
2613.5339904784	0.0802069157
2615.4627978515	0.0800226778
2617.3916052245	0.0798983276
2619.3204125976	0.0797704309
2621.2492199706	0.0796961784
2623.1780273437	0.0795592517
2625.1068347167	0.0794086307
2627.0356420898	0.0792874694
2628.9644494628	0.0792429522
2630.8932568358	0.0790566206
2632.8220642089	0.0789477974
2634.7508715819	0.0788375363
2636.6796789550	0.0786244124
2638.6084863280	0.0786255896
2640.5372937011	0.0784666985
2642.4661010741	0.0784477666
2644.3949084472	0.0783345401
2646.3237158202	0.0781486779
2648.2525231933	0.0781663358
2650.1813305663	0.0779767931
2652.1101379394	0.0779661983
2654.0389453124	0.0778347030
2655.9677526855	0.0776453316
2657.8965600585	0.0775696561
2659.8253674315	0.0773015991
2661.7541748046	0.0772855356
2663.6829821776	0.0773019791
2665.6117895507	0.0770093054
2667.5405969237	0.0768850595
2669.4694042968	0.0768884271
2671.3982116698	0.0767590702
2673.3270190429	0.0767229050
2675.2558264159	0.0765326768
2677.1846337890	0.0763419569
2679.1134411620	0.0762688667
2681.0422485351	0.0761057958
2682.9710559081	0.0759553164
2684.8998632812	0.0758413523
2686.8286706542	0.0758636594
2688.7574780273	0.0756167248
2690.6862854003	0.0755156428
2692.6150927733	0.0755640566
2694.5439001464	0.0753403604
2696.4727075194	0.0752746463
2698.4015148925	0.0750635117
2700.3303222655	0.0749174207
2702.2591296386	0.0749548078
2704.1879370116	0.0749911219
2706.1167443847	0.0748272389
2708.0455517577	0.0746025890
2709.9743591308	0.0746560395
2711.9031665038	0.0743817836
2713.8319738769	0.0741737559
2715.7607812499	0.0741323158
2717.6895886230	0.0739563107
2719.6183959960	0.0738816261
2721.5472033690	0.0737641752
2723.4760107421	0.0736384243
2725.4048181151	0.0735239163
2727.3336254882	0.0735173225
2729.2624328612	0.0733560547
2731.1912402343	0.0731435120
2733.1200476073	0.0731261373
2735.0488549804	0.0729440600
2736.9776623534	0.0728133246
2738.9064697265	0.0726768970
2740.8352770995	0.0724947304
2742.7640844726	0.0725231022
2744.6928918456	0.0724253431
2746.6216992187	0.0723019093
2748.5505065917	0.0721942782
2750.4793139647	0.0719873384
2752.4081213378	0.0719683915
2754.3369287108	0.0718080401
2756.2657360839	0.0716673955
2758.1945434569	0.0716424584
2760.1233508300	0.0714365691
2762.0521582030	0.0713609308
2763.9809655761	0.0712343454
2765.9097729491	0.0711242780
2767.8385803222	0.0709874704
2769.7673876952	0.0708444268
2771.6961950683	0.0707600117
2773.6250024413	0.0705318004
2775.5538098144	0.0705011338
2777.4826171874	0.0703063384
2779.4114245604	0.0701976418
2781.3402319335	0.0702202171
2783.2690393065	0.0699774101
2785.1978466796	0.0699224174
2787.1266540526	0.0696912110
2789.0554614257	0.0695191547
2790.9842687987	0.0695649683
2792.9130761718	0.0693534911
2794.8418835448	0.0692679882
2796.7706909179	0.0692297369
2798.6994982909	0.0690181553
2800.6283056640	0.0688355044
2802.5571130370	0.0686811507
2804.4859204101	0.0685549825
2806.4147277831	0.0684212148
2808.3435351562	0.0683943927
2810.2723425292	0.0683335513
2812.2011499022	0.0680001825
2814.1299572753	0.0679019988
2816.0587646483	0.0678552836
2817.9875720214	0.0676684529
2819.9163793944	0.0675584376
2821.8451867675	0.0673459172
2823.7739941405	0.0672532693
2825.7028015136	0.0671330243
2827.6316088866	0.0669422597
2829.5604162597	0.0668043643
2831.4892236327	0.0667589009
2833.4180310058	0.0666511506
2835.3468383788	0.0663400218
2837.2756457519	0.0662881434
2839.2044531249	0.0661679804
2841.1332604979	0.0658862293
2843.0620678710	0.0655878484
2844.9908752440	0.0652699172
2846.9196826171	0.0650441498
2848.8484899901	0.0647304282
2850.7772973632	0.0645633191
2852.7061047362	0.0644512698
2854.6349121093	0.0642700046
2856.5637194823	0.0641553253
2858.4925268554	0.0641347766
2860.4213342284	0.0640332103
2862.3501416015	0.0638885498
2864.2789489745	0.0638385266
2866.2077563476	0.0637246817
2868.1365637206	0.0636326671
2870.0653710936	0.0635212511
2871.9941784667	0.0635106713
2873.9229858397	0.0633722842
2875.8517932128	0.0632320940
2877.7806005858	0.0632305518
2879.7094079589	0.0630955324
2881.6382153319	0.0630582944
2883.5670227050	0.0628969520
2885.4958300780	0.0628361404
2887.4246374511	0.0626881495
2889.3534448241	0.0625690669
2891.2822521972	0.0625819117
2893.2110595702	0.0623296276
2895.1398669433	0.0622254051
2897.0686743163	0.0618670247
2898.9974816893	0.0617649928
2900.9262890624	0.0617471486
2902.8550964354	0.0614305176
2904.7839038085	0.0614140853
2906.7127111815	0.0611982532
2908.6415185546	0.0610227808
2910.5703259276	0.0607248843
2912.4991333007	0.0603326038
2914.4279406737	0.0601228029
2916.3567480468	0.0598957874
2918.2855554198	0.0597392544
2920.2143627929	0.0595838539
2922.1431701659	0.0595196746
2924.0719775390	0.0593200736
2926.0007849120	0.0593223348
2927.9295922851	0.0593545884
2929.8583996581	0.0591627024
2931.7872070311	0.0591018125
2933.7160144042	0.0590595156
2935.6448217772	0.0590803996
2937.5736291503	0.0589699075
2939.5024365233	0.0590635091
2941.4312438964	0.0591286346
2943.3600512694	0.0588912517
2945.2888586425	0.0589440465
2947.2176660155	0.0589550212
2949.1464733886	0.0587651953
2951.0752807616	0.0586156100
2953.0040881347	0.0584740117
2954.9328955077	0.0582856610
2956.8617028808	0.0581061989
2958.7905102538	0.0579180457
2960.7193176268	0.0578027889
2962.6481249999	0.0577447750
2964.5769323729	0.0576547086
2966.5057397460	0.0575844422
2968.4345471190	0.0575182065
2970.3633544921	0.0575927459
2972.2921618651	0.0575570315
2974.2209692382	0.0575838313
2976.1497766112	0.0576752052
2978.0785839843	0.0575882643
2980.0073913573	0.0576305166
2981.9361987304	0.0575370863
2983.8650061034	0.0574901216
2985.7938134765	0.0574623607
2987.7226208495	0.0573246107
2989.6514282225	0.0573680177
2991.5802355956	0.0572396517
2993.5090429686	0.0571098104
2995.4378503417	0.0570677146
2997.3666577147	0.0569182858
2999.2954650878	0.0568886250
3001.2242724608	0.0567990243
3003.1530798339	0.0566705242
3005.0818872069	0.0566478111
3007.0106945800	0.0564612001
3008.9395019530	0.0563288145
3010.8683093261	0.0561801940
3012.7971166991	0.0559500307
3014.7259240722	0.0559631437
3016.6547314452	0.0558782071
3018.5835388182	0.0558399521
3020.5123461913	0.0558368191
3022.4411535643	0.0555220991
3024.3699609374	0.0553377643
3026.2987683104	0.0553722754
3028.2275756835	0.0552748367
3030.1563830565	0.0550773442
3032.0851904296	0.0548874065
3034.0139978026	0.0547374003
3035.9428051757	0.0547546670
3037.8716125487	0.0546312556
3039.8004199218	0.0544701628
3041.7292272948	0.0544074401
3043.6580346679	0.0542942770
3045.5868420409	0.0543084517
3047.5156494139	0.0541485995
3049.4444567870	0.0539641231
3051.3732641600	0.0538436882
3053.3020715331	0.0538101643
3055.2308789061	0.0537643805
3057.1596862792	0.0534056574
3059.0884936522	0.0533431247
3061.0173010253	0.0532978810
3062.9461083983	0.0531406999
3064.8749157714	0.0530846864
3066.8037231444	0.0528900847
3068.7325305175	0.0529646203
3070.6613378905	0.0529565737
3072.5901452636	0.0526146591
3074.5189526366	0.0525438264
3076.4477600097	0.0524825081
3078.3765673827	0.0523297638
3080.3053747557	0.0523490459
3082.2341821288	0.0521622747
3084.1629895018	0.0520460978
3086.0917968749	0.0519750193
3088.0206042479	0.0517884418
3089.9494116210	0.0518321097
3091.8782189940	0.0517197140
3093.8070263671	0.0515423566
3095.7358337401	0.0514112413
3097.6646411132	0.0513387918
3099.5934484862	0.0512482971
3101.5222558593	0.0511021316
3103.4510632323	0.0510551594
3105.3798706054	0.0508049652
3107.3086779784	0.0506750830
3109.2374853514	0.0506407954
3111.1662927245	0.0505932197
3113.0951000975	0.0504167937
3115.0239074706	0.0502164215
3116.9527148436	0.0501611829
3118.8815222167	0.0498649776
3120.8103295897	0.0498084463
3122.7391369628	0.0497319885
3124.6679443358	0.0496530719
3126.5967517089	0.0496097878
3128.5255590819	0.0493738204
3130.4543664550	0.0493533611
3132.3831738280	0.0491204411
3134.3119812011	0.0489706174
3136.2407885741	0.0489508659
3138.1695959471	0.0489224941
3140.0984033202	0.0487609804
3142.0272106932	0.0484835953
3143.9560180663	0.0484872982
3145.8848254393	0.0482532941
3147.8136328124	0.0482240170
3149.7424401854	0.0481438041
3151.6712475585	0.0478031710
3153.6000549315	0.0477231368
3155.5288623046	0.0475862212
3157.4576696776	0.0475449786
3159.3864770507	0.0473045297
3161.3152844237	0.0471870713
3163.2440917968	0.0472792462
3165.1728991698	0.0470185131
3167.1017065428	0.0468906537
3169.0305139159	0.0468340255
3170.9593212889	0.0466602147
3172.8881286620	0.0465200990
3174.8169360350	0.0464124158
3176.7457434081	0.0462863073
3178.6745507811	0.0461382717
3180.6033581542	0.0460200235
3182.5321655272	0.0458658002
3184.4609729003	0.0457894877
3186.3897802733	0.0457046479
3188.3185876464	0.0455435738
3190.2473950194	0.0454908572
3192.1762023925	0.0453588776
3194.1050097655	0.0452290997
3196.0338171386	0.0451769382
3197.9626245116	0.0449936911
3199.8914318846	0.0449454896
3201.8202392577	0.0448934212
3203.7490466307	0.0447012186
3205.6778540038	0.0446406715
3207.6066613768	0.0445988141
3209.5354687499	0.0445000753
3211.4642761229	0.0443963259
3213.3930834960	0.0442095101
3215.3218908690	0.0439996496
3217.2506982421	0.0440173373
3219.1795056151	0.0439851880
3221.1083129882	0.0438388400
3223.0371203612	0.0437690206
3224.9659277343	0.0436958969
3226.8947351073	0.0436530709
3228.8235424803	0.0434965491
3230.7523498534	0.0434773788
3232.6811572264	0.0434423536
3234.6099645995	0.0432472229
3236.5387719725	0.0431442261
3238.4675793456	0.0430483446
3240.3963867186	0.0430868752
3242.3251940917	0.0430234075
3244.2540014647	0.0428918526
3246.1828088378	0.0427936018
3248.1116162108	0.0428252742
3250.0404235839	0.0428769328
3251.9692309569	0.0427306406
3253.8980383300	0.0427317880
3255.8268457030	0.0425517000
3257.7556530760	0.0424333476
3259.6844604491	0.0424508117
3261.6132678221	0.0423948020
3263.5420751952	0.0424104184
3265.4708825682	0.0421707183
3267.3996899413	0.0421779156
3269.3284973143	0.0422154367
3271.2573046874	0.0419733152
3273.1861120604	0.0420263782
3275.1149194335	0.0420305990
3277.0437268065	0.0418669283
3278.9725341796	0.0418785736
3280.9013415526	0.0418424159
3282.8301489257	0.0417179093
3284.7589562987	0.0417438000
3286.6877636717	0.0417312980
3288.6165710448	0.0416402481
3290.5453784178	0.0415165760
3292.4741857909	0.0413480029
3294.4029931639	0.0412900522
3296.3318005370	0.0413398035
3298.2606079100	0.0412762426
3300.1894152831	0.0411392897
3302.1182226561	0.0411012769
3304.0470300292	0.0409673154
3305.9758374022	0.0408877060
3307.9046447753	0.0408579782
3309.8334521483	0.0408010036
3311.7622595214	0.0408032872
3313.6910668944	0.0407710075
3315.6198742675	0.0407480523
3317.5486816405	0.0406312048
3319.4774890135	0.0405511633
3321.4062963866	0.0405066311
3323.3351037596	0.0404655039
3325.2639111327	0.0403295457
3327.1927185057	0.0402555019
3329.1215258788	0.0403129756
3331.0503332518	0.0401039422
3332.9791406249	0.0400979854
3334.9079479979	0.0400628969
3336.8367553710	0.0399045944
3338.7655627440	0.0399203226
3340.6943701171	0.0398197323
3342.6231774901	0.0397225432
3344.5519848632	0.0397271737
3346.4807922362	0.0398191176
3348.4095996092	0.0395940728
3350.3384069823	0.0394639000
3352.2672143553	0.0395179912
3354.1960217284	0.0393324047
3356.1248291014	0.0393110588
3358.0536364745	0.0392513350
3359.9824438475	0.0391430408
3361.9112512206	0.0390743837
3363.8400585936	0.0389438830
3365.7688659667	0.0388170406
3367.6976733397	0.0388143659
3369.6264807128	0.0387330726
3371.5552880858	0.0386293642
3373.4840954589	0.0387239233
3375.4129028319	0.0386094376
3377.3417102049	0.0385177620
3379.2705175780	0.0384141430
3381.1993249510	0.0383497700
3383.1281323241	0.0382963344
3385.0569396971	0.0380833372
3386.9857470702	0.0380592756
3388.9145544432	0.0380203687
3390.8433618163	0.0378725827
3392.7721691893	0.0377263092
3394.7009765624	0.0378215760
3396.6297839354	0.0376276001
3398.5585913085	0.0375007354
3400.4873986815	0.0376510471
3402.4162060546	0.0373687074
3404.3450134276	0.0373792052
3406.2738208006	0.0372799784
3408.2026281737	0.0371420309
3410.1314355467	0.0371971130
3412.0602429198	0.0371424407
3413.9890502928	0.0371101797
3415.9178576659	0.0369275324
3417.8466650389	0.0369405299
3419.7754724120	0.0367402025
3421.7042797850	0.0366109014
3423.6330871581	0.0366487429
3425.5618945311	0.0365729518
3427.4907019042	0.0365879536
3429.4195092772	0.0365295634
3431.3483166503	0.0364602432
3433.2771240233	0.0362780765
3435.2059313963	0.0363175496
3437.1347387694	0.0361688957
3439.0635461424	0.0360753275
3440.9923535155	0.0360144712
3442.9211608885	0.0357537493
3444.8499682616	0.0358977541
3446.7787756346	0.0355928317
3448.7075830077	0.0355583131
3450.6363903807	0.0357945338
3452.5651977538	0.0356855989
3454.4940051268	0.0357148200
3456.4228124999	0.0355104022
3458.3516198729	0.0354560576
3460.2804272460	0.0354676954
3462.2092346190	0.0353944562
3464.1380419921	0.0354027413
3466.0668493651	0.0353130847
3467.9956567381	0.0352732539
3469.9244641112	0.0352931321
3471.8532714842	0.0351241082
3473.7820788573	0.0350795053
3475.7108862303	0.0351150110
3477.6396936034	0.0350382775
3479.5685009764	0.0350478664
3481.4973083495	0.0346424580
3483.4261157225	0.0347559154
3485.3549230956	0.0350090414
3487.2837304686	0.0346572250
3489.2125378417	0.0347874537
3491.1413452147	0.0349090323
3493.0701525878	0.0348554403
3494.9989599608	0.0346881524
3496.9277673338	0.0346325524
3498.8565747069	0.0346983373
3500.7853820799	0.0346173421
3502.7141894530	0.0342254713
3504.6429968260	0.0341214836
3506.5718041991	0.0347132124
3508.5006115721	0.0344078839
3510.4294189452	0.0343223959
3512.3582263182	0.0345348455
3514.2870336913	0.0344443992
3516.2158410643	0.0345838368
3518.1446484374	0.0342789665
3520.0734558104	0.0344301984
3522.0022631835	0.0342118964
3523.9310705565	0.0338808745
3525.8598779295	0.0340688303
3527.7886853026	0.0338963009
3529.7174926756	0.0340174288
3531.6463000487	0.0341928825
3533.5751074217	0.0343351513
3535.5039147948	0.0341249704
3537.4327221678	0.0339877084
3539.3615295409	0.0343014374
3541.2903369139	0.0341604650
3543.2191442870	0.0339484364
3545.1479516600	0.0334567837
3547.0767590331	0.0330411680
3549.0055664061	0.0338736176
3550.9343737792	0.0340409167
3552.8631811522	0.0333474837
3554.7919885252	0.0337650925
3556.7207958983	0.0339102969
3558.6496032713	0.0338569060
3560.5784106444	0.0336806327
3562.5072180174	0.0334956571
3564.4360253905	0.0336930454
3566.3648327635	0.0320478231
3568.2936401366	0.0315308087
3570.2224475096	0.0333436579
3572.1512548827	0.0338644609
3574.0800622557	0.0335814022
3576.0088696288	0.0336582586
3577.9376770018	0.0336092860
3579.8664843749	0.0334947929
3581.7952917479	0.0334955305
3583.7240991210	0.0336270928
3585.6529064940	0.0329557210
3587.5817138670	0.0309247673
3589.5105212401	0.0316142440
3591.4393286131	0.0337297246
3593.3681359862	0.0330303572
3595.2969433592	0.0325429589
3597.2257507323	0.0329928622
3599.1545581053	0.0331032574
3601.0833654784	0.0328550488
3603.0121728514	0.0330606438
3604.9409802245	0.0334690511
3606.8697875975	0.0326222852
3608.7985949706	0.0311674643
3610.7274023436	0.0316382870
3612.6562097167	0.0322955474
3614.5850170897	0.0316315331
3616.5138244627	0.0332155004
3618.4426318358	0.0313566923
3620.3714392088	0.0304030534
3622.3002465819	0.0331953913
3624.2290539549	0.0325875804
3626.1578613280	0.0337551609
3628.0866687010	0.0297331978
3630.0154760741	0.0276845098
3631.9442834471	0.0329815820
3633.8730908202	0.0323171914
3635.8018981932	0.0327893272
3637.7307055663	0.0332918465
3639.6595129393	0.0328365713
3641.5883203124	0.0331085436
3643.5171276854	0.0326417685
3645.4459350584	0.0329808667
3647.3747424315	0.0303009823
3649.3035498045	0.0284102261
3651.2323571776	0.0288538001
3653.1611645506	0.0327054560
3655.0899719237	0.0322849043
3657.0187792967	0.0297241881
3658.9475866698	0.0332602561
3660.8763940428	0.0325990804
3662.8052014159	0.0328404009
3664.7340087889	0.0327428728
3666.6628161620	0.0325167477
3668.5916235350	0.0318244919
3670.5204309081	0.0270357579
3672.4492382811	0.0313828550
3674.3780456541	0.0302664153
3676.3068530272	0.0261138193
3678.2356604002	0.0312439539
3680.1644677733	0.0317891277
3682.0932751463	0.0317231640
3684.0220825194	0.0324400254
3685.9508898924	0.0320165791
3687.8796972655	0.0294117015
3689.8085046385	0.0275220163
3691.7373120116	0.0305982828
3693.6661193846	0.0312056597
3695.5949267577	0.0317342207
3697.5237341307	0.0317537598
3699.4525415038	0.0315047354
3701.3813488768	0.0309852920
3703.3101562499	0.0300196335
3705.2389636229	0.0321674757
3707.1677709959	0.0308881514
3709.0965783690	0.0303814597
3711.0253857420	0.0289903637
3712.9541931151	0.0275119655
3714.8830004881	0.0310734268
3716.8118078612	0.0306581259
3718.7406152342	0.0308815092
3720.6694226073	0.0304110404
3722.5982299803	0.0296963640
3724.5270373534	0.0305359289
3726.4558447264	0.0286316834
3728.3846520995	0.0305148102
3730.3134594725	0.0302059129
3732.2422668456	0.0283168033
3734.1710742186	0.0278174877
3736.0998815916	0.0266785678
3738.0286889647	0.0278649703
3739.9574963377	0.0295472331
3741.8863037108	0.0306703523
3743.8151110838	0.0250803456
3745.7439184569	0.0239586234
3747.6727258299	0.0294691920
3749.6015332030	0.0261384957
3751.5303405760	0.0245561823
3753.4591479491	0.0272655971
3755.3879553221	0.0288573988
3757.3167626952	0.0297891144
3759.2455700682	0.0280466378
3761.1743774413	0.0288885273
3763.1031848143	0.0301634334
3765.0319921873	0.0286290385
3766.9607995604	0.0290574059
3768.8896069334	0.0286035053
3770.8184143065	0.0276464000
3772.7472216795	0.0293683745
3774.6760290526	0.0294091105
3776.6048364256	0.0294395648
3778.5336437987	0.0287430920
3780.4624511717	0.0279268511
3782.3912585448	0.0294081829
3784.3200659178	0.0288536809
3786.2488732909	0.0285835564
3788.1776806639	0.0289947912
3790.1064880370	0.0289610699
3792.0352954100	0.0288155340
3793.9641027830	0.0291411988
3795.8929101561	0.0277200751
3797.8217175291	0.0274425261
3799.7505249022	0.0285144951
3801.6793322752	0.0238251854
3803.6081396483	0.0269703344
3805.5369470213	0.0286814831
3807.4657543944	0.0245558955
3809.3945617674	0.0284660961
3811.3233691405	0.0279296357
3813.2521765135	0.0286583621
3815.1809838866	0.0263665579
3817.1097912596	0.0238816831
3819.0385986327	0.0286771785
3820.9674060057	0.0244552139
3822.8962133787	0.0253154077
3824.8250207518	0.0284363851
3826.7538281248	0.0262816176
3828.6826354979	0.0277646445
3830.6114428709	0.0269803219
3832.5402502440	0.0261921342
3834.4690576170	0.0266587846
3836.3978649901	0.0256411042
3838.3266723631	0.0235748701
3840.2554797362	0.0251364596
3842.1842871092	0.0267056245
3844.1130944823	0.0256737433
3846.0419018553	0.0272515919
3847.9707092284	0.0269446094
3849.8995166014	0.0270001963
3851.8283239745	0.0249764882
3853.7571313475	0.0199043714
3855.6859387205	0.0224755108
3857.6147460936	0.0270815343
3859.5435534666	0.0262620486
3861.4723608397	0.0261084270
3863.4011682127	0.0257890504
3865.3299755858	0.0242826566
3867.2587829588	0.0264340118
3869.1875903319	0.0245373100
3871.1163977049	0.0232643504
3873.0452050780	0.0264244415
3874.9740124510	0.0246853493
3876.9028198241	0.0261384565
3878.8316271971	0.0265070684
3880.7604345702	0.0237138160
3882.6892419432	0.0262865722
3884.6180493162	0.0249084625
3886.5468566893	0.0233549178
3888.4756640623	0.0262900107
3890.4044714354	0.0251237061
3892.3332788084	0.0239647701
3894.2620861815	0.0256570317
3896.1908935545	0.0258677397
3898.1197009276	0.0249739978
3900.0485083006	0.0239666477
3901.9773156737	0.0237274952
3903.9061230467	0.0235594474
3905.8349304198	0.0239372291
3907.7637377928	0.0254465081
3909.6925451659	0.0253606960
3911.6213525389	0.0252526402
3913.5501599119	0.0254845638
3915.4789672850	0.0249266438
3917.4077746580	0.0243506674
3919.3365820311	0.0241960026
3921.2653894041	0.0249440316
3923.1941967772	0.0247797184
3925.1230041502	0.0244311243
3927.0518115233	0.0247015543
3928.9806188963	0.0248263106
3930.9094262694	0.0245295428
3932.8382336424	0.0239134487
3934.7670410155	0.0245104320
3936.6958483885	0.0247365534
3938.6246557616	0.0245019123
3940.5534631346	0.0245923027
3942.4822705076	0.0239626691
3944.4110778807	0.0240743682
3946.3398852537	0.0243839547
3948.2686926268	0.0238469802
3950.1974999998	0.0239006206
3952.1263073729	0.0242437515
3954.0551147459	0.0242027696
3955.9839221190	0.0241036788
3957.9127294920	0.0239699297
3959.8415368651	0.0240108781
3961.7703442381	0.0238580741
3963.6991516112	0.0237925239
3965.6279589842	0.0239559747
3967.5567663573	0.0237355176
3969.4855737303	0.0236732177
3971.4143811034	0.0236766897
3973.3431884764	0.0236758925
3975.2719958494	0.0235803574
3977.2008032225	0.0234103762
3979.1296105955	0.0234991498
3981.0584179686	0.0234784875
3982.9872253416	0.0234274715
3984.9160327147	0.0233804025
3986.8448400877	0.0234010965
3988.7736474608	0.0232358258
3990.7024548338	0.0231031086
3992.6312622069	0.0231387466
3994.5600695799	0.0229908917
3996.4888769530	0.0230900794
3998.4176843260	0.0231142491
4000.3464916991	0.0230220929
4002.2752990721	0.0229539555
4004.2041064451	0.0228098072
4006.1329138182	0.0227829218
4008.0617211912	0.0227100216
4009.9905285643	0.0226461217
4011.9193359373	0.0227033831
4013.8481433104	0.0226686988
4015.7769506834	0.0225619003
4017.7057580565	0.0225850344
4019.6345654295	0.0225015208
4021.5633728026	0.0224812180
4023.4921801756	0.0224331357
4025.4209875487	0.0222747438
4027.3497949217	0.0223224293
4029.2786022948	0.0222505108
4031.2074096678	0.0221513305
4033.1362170408	0.0221045278
4035.0650244139	0.0221153572
4036.9938317869	0.0221021716
4038.9226391600	0.0220433138
4040.8514465330	0.0219694097
4042.7802539061	0.0218271650
4044.7090612791	0.0218241550
4046.6378686522	0.0217332020
4048.5666760252	0.0217524618
4050.4954833983	0.0217480138
4052.4242907713	0.0216671340
4054.3530981444	0.0217196904
4056.2819055174	0.0216529202
4058.2107128905	0.0215808265
4060.1395202635	0.0214718953
4062.0683276365	0.0214815158
4063.9971350096	0.0214591809
4065.9259423826	0.0213909764
4067.8547497557	0.0212913007
4069.7835571287	0.0211794339
4071.7123645018	0.0212236419
4073.6411718748	0.0210747290
4075.5699792479	0.0211395454
4077.4987866209	0.0211737398
4079.4275939940	0.0210164618
4081.3564013670	0.0210503750
4083.2852087401	0.0209698640
4085.2140161131	0.0209350754
4087.1428234862	0.0208775885
4089.0716308592	0.0207934845
4091.0004382323	0.0208166670
4092.9292456053	0.0206903983
4094.8580529783	0.0205830373
4096.7868603514	0.0206421353
4098.7156677244	0.0205566995
4100.6444750975	0.0204876922
4102.5732824705	0.0205378700
4104.5020898436	0.0204046369
4106.4308972166	0.0203214958
4108.3597045897	0.0203373730
4110.2885119627	0.0202878825
4112.2173193358	0.0202684961
4114.1461267088	0.0202518348
4116.0749340819	0.0201404803
4118.0037414549	0.0201592743
4119.9325488280	0.0201608762
4121.8613562010	0.0200217329
4123.7901635740	0.0200076345
4125.7189709471	0.0199363455
4127.6477783201	0.0198947508
4129.5765856932	0.0198135488
4131.5053930662	0.0198215600
4133.4342004393	0.0197926126
4135.3630078123	0.0196388550
4137.2918151854	0.0197761208
4139.2206225584	0.0196713973
4141.1494299315	0.0196159296
4143.0782373045	0.0196269788
4145.0070446776	0.0194582399
4146.9358520506	0.0194380116
4148.8646594237	0.0193654150
4150.7934667967	0.0193636306
4152.7222741697	0.0193198193
4154.6510815428	0.0192107540
4156.5798889158	0.0192095339
4158.5086962889	0.0192570426
4160.4375036619	0.0190797225
4162.3663110350	0.0190420449
4164.2951184080	0.0191326141
4166.2239257811	0.0189331025
4168.1527331541	0.0189670734
4170.0815405272	0.0188994762
4172.0103479002	0.0188751519
4173.9391552733	0.0189110618
4175.8679626463	0.0187934618
4177.7967700194	0.0187783279
4179.7255773924	0.0186954923
4181.6543847654	0.0187588483
4183.5831921385	0.0186604895
4185.5119995115	0.0186084397
4187.4408068846	0.0185474735
4189.3696142576	0.0184023567
4191.2984216307	0.0184090771
4193.2272290037	0.0183765125
4195.1560363768	0.0184484534
4197.0848437498	0.0183283538
4199.0136511229	0.0183579549
4200.9424584959	0.0182956345
4202.8712658690	0.0181805901
4204.8000732420	0.0182363726
4206.7288806151	0.0180593319
4208.6576879881	0.0181027856
4210.5864953611	0.0180411786
4212.5153027342	0.0179685317
4214.4441101072	0.0179302655
4216.3729174803	0.0178108476
4218.3017248533	0.0178429335
4220.2305322264	0.0178449955
4222.1593395994	0.0177586917
4224.0881469725	0.0176931284
4226.0169543455	0.0177458525
4227.9457617186	0.0175495446
4229.8745690916	0.0176115409
4231.8033764647	0.0176362172
4233.7321838377	0.0174189731
4235.6609912108	0.0175292641
4237.5897985838	0.0174525473
4239.5186059569	0.0174039006
4241.4474133299	0.0174038112
4243.3762207029	0.0174357258
4245.3050280760	0.0173959695
4247.2338354490	0.0173109695
4249.1626428221	0.0172895081
4251.0914501951	0.0171263143
4253.0202575682	0.0171894077
4254.9490649412	0.0171711240
4256.8778723143	0.0171159357
4258.8066796873	0.0170574654
4260.7354870604	0.0170091204
4262.6642944334	0.0169845633
4264.5931018065	0.0168889873
4266.5219091795	0.0169141367
4268.4507165526	0.0167972278
4270.3795239256	0.0168156791
4272.3083312986	0.0167435445
4274.2371386717	0.0167100057
4276.1659460447	0.0168273076
4278.0947534178	0.0166336317
4280.0235607908	0.0165060535
4281.9523681639	0.0165252220
4283.8811755369	0.0165384971
4285.8099829100	0.0164388753
4287.7387902830	0.0164521709
4289.6675976561	0.0164066460
4291.5964050291	0.0163416788
4293.5252124022	0.0163451955
4295.4540197752	0.0162776299
4297.3828271483	0.0163245834
4299.3116345213	0.0161673836
4301.2404418943	0.0161902159
4303.1692492674	0.0161571689
4305.0980566404	0.0160151012
4307.0268640135	0.0161382444
4308.9556713865	0.0160683654
4310.8844787596	0.0160164125
4312.8132861326	0.0159674864
4314.7420935057	0.0159243774
4316.6709008787	0.0158762075
4318.5997082518	0.0158601310
4320.5285156248	0.0158957243
4322.4573229979	0.0158154443
4324.3861303709	0.0157696009
4326.3149377440	0.0157478675
4328.2437451170	0.0157007985
4330.1725524900	0.0155920498
4332.1013598631	0.0156237222
4334.0301672361	0.0155437551
4335.9589746092	0.0154867321
4337.8877819822	0.0155430511
4339.8165893553	0.0154390866
4341.7453967283	0.0154482704
4343.6742041014	0.0153855011
4345.6030114744	0.0153528899
4347.5318188475	0.0153022110
4349.4606262205	0.0152911087
4351.3894335936	0.0152865928
4353.3182409666	0.0151907299
4355.2470483397	0.0152583169
4357.1758557127	0.0151835466
4359.1046630858	0.0151460851
4361.0334704588	0.0150647648
4362.9622778318	0.0150278630
4364.8910852049	0.0150744710
4366.8198925779	0.0149222445
4368.7486999510	0.0148574691
4370.6775073240	0.0148306219
4372.6063146971	0.0148322172
4374.5351220701	0.0148312356
4376.4639294432	0.0148105007
4378.3927368162	0.0146768000
4380.3215441893	0.0146538848
4382.2503515623	0.0147151556
4384.1791589354	0.0146055808
4386.1079663084	0.0146065969
4388.0367736815	0.0145605318
4389.9655810545	0.0145175308
4391.8943884275	0.0144735295
4393.8231958006	0.0144728720
4395.7520031736	0.0144287432
4397.6808105467	0.0143426303
4399.6096179197	0.0143667748
4401.5384252928	0.0142434668
4403.4672326658	0.0142392274
4405.3960400389	0.0142417997
4407.3248474119	0.0142405760
4409.2536547850	0.0141887804
4411.1824621580	0.0141602848
4413.1112695311	0.0142214540
4415.0400769041	0.0141020771
4416.9688842772	0.0141363516
4418.8976916502	0.0140415709
4420.8264990232	0.0140033867
4422.7553063963	0.0139839035
4424.6841137693	0.0138514517
4426.6129211424	0.0139339324
4428.5417285154	0.0138369687
4430.4705358885	0.0137759261
4432.3993432615	0.0137687381
4434.3281506346	0.0137761924
4436.2569580076	0.0137441009
4438.1857653807	0.0136783505
4440.1145727537	0.0137334550
4442.0433801268	0.0136098647
4443.9721874998	0.0135693057
4445.9009948729	0.0135831051
4447.8298022459	0.0134573970
4449.7586096189	0.0134330085
4451.6874169920	0.0135132475
4453.6162243650	0.0134344334
4455.5450317381	0.0133998357
4457.4738391111	0.0134586282
4459.4026464842	0.0133405924
4461.3314538572	0.0132413721
4463.2602612303	0.0132367797
4465.1890686033	0.0133487005
4467.1178759764	0.0132256141
4469.0466833494	0.0131166130
4470.9754907225	0.0131742340
4472.9042980955	0.0131023359
4474.8331054686	0.0131435962
4476.7619128416	0.0130110709
4478.6907202147	0.0130083319
4480.6195275877	0.0130033651
4482.5483349607	0.0128917526
4484.4771423338	0.0129883112
4486.4059497068	0.0128628090
4488.3347570799	0.0128744170
4490.2635644529	0.0129019432
4492.1923718260	0.0127984583
4494.1211791990	0.0127620529
4496.0499865721	0.0126993945
4497.9787939451	0.0127217341
4499.9076013182	0.0126603758
4501.8364086912	0.0125884563
4503.7652160643	0.0125853308
4505.6940234373	0.0125456881
4507.6228308104	0.0124852825
4509.5516381834	0.0125233112
4511.4804455564	0.0124665368
4513.4092529295	0.0124177802
4515.3380603025	0.0124723930
4517.2668676756	0.0123047624
4519.1956750486	0.0123187546
4521.1244824217	0.0122894961
4523.0532897947	0.0122095160
4524.9820971678	0.0123075470
4526.9109045408	0.0122129582
4528.8397119139	0.0122456793
4530.7685192869	0.0121724289
4532.6973266600	0.0120873759
4534.6261340330	0.0121899080
4536.5549414061	0.0120705245
4538.4837487791	0.0120198727
4540.4125561521	0.0120217633
4542.3413635252	0.0119809201
4544.2701708982	0.0119526982
4546.1989782713	0.0119312797
4548.1277856443	0.0119092977
4550.0565930174	0.0118370727
4551.9854003904	0.0118359560
4553.9142077635	0.0117504112
4555.8430151365	0.0117391041
4557.7718225096	0.0117805451
4559.7006298826	0.0116654560
4561.6294372557	0.0116805593
4563.5582446287	0.0117168548
4565.4870520018	0.0116699878
4567.4158593748	0.0116057554
4569.3446667478	0.0116134696
4571.2734741209	0.0116118910
4573.2022814939	0.0115102427
4575.1310888670	0.0114994384
4577.0598962400	0.0114352573
4578.9887036131	0.0114254327
4580.9175109861	0.0114201009
4582.8463183592	0.0113191837
4584.7751257322	0.0113153681
4586.7039331053	0.0112227881
4588.6327404783	0.0112381959
4590.5615478514	0.0112980846
4592.4903552244	0.0111900456
4594.4191625975	0.0112304259
4596.3479699705	0.0112372721
4598.2767773435	0.0110811908
4600.2055847166	0.0110402117
4602.1343920896	0.0110822432
4604.0631994627	0.0111254659
4605.9920068357	0.0111168418
4607.9208142088	0.0110195503
4609.8496215818	0.0109997727
4611.7784289549	0.0110124573
4613.7072363279	0.0109555684
4615.6360437010	0.0108768232
4617.5648510740	0.0108536258
4619.4936584471	0.0108544435
4621.4224658201	0.0108168190
4623.3512731932	0.0107932324
4625.2800805662	0.0107669188
4627.2088879393	0.0107873809
4629.1376953123	0.0107322130
4631.0665026853	0.0106891366
4632.9953100584	0.0106957089
4634.9241174314	0.0106237661
4636.8529248045	0.0106256334
4638.7817321775	0.0105725732
4640.7105395506	0.0105810249
4642.6393469236	0.0106119588
4644.5681542967	0.0105430819
4646.4969616697	0.0104943840
4648.4257690428	0.0104694292
4650.3545764158	0.0104427245
4652.2833837889	0.0103724394
4654.2121911619	0.0104232430
4656.1409985350	0.0103498437
4658.0698059080	0.0103118885
4659.9986132810	0.0103317127
4661.9274206541	0.0102501297
4663.8562280271	0.0102799311
4665.7850354002	0.0102093965
4667.7138427732	0.0102382973
4669.6426501463	0.0101599842
4671.5714575193	0.0101417247
4673.5002648924	0.0102188904
4675.4290722654	0.0100650433
4677.3578796385	0.0100901108
4679.2866870115	0.0100499056
4681.2154943846	0.0100294743
4683.1443017576	0.0100253988
4685.0731091307	0.0100422110
4687.0019165037	0.0100000389
4688.9307238767	0.0098557984
4690.8595312498	0.0099602202
4692.7883386228	0.0098833721
4694.7171459959	0.0098083960
4696.6459533689	0.0097892322
4698.5747607420	0.0097871609
4700.5035681150	0.0097518805
4702.4323754881	0.0096791917
4704.3611828611	0.0097330939
4706.2899902342	0.0095921373
4708.2187976072	0.0096376520
4710.1476049803	0.0096468516
4712.0764123533	0.0095900018
4714.0052197264	0.0096464269
4715.9340270994	0.0096422099
4717.8628344724	0.0096338084
4719.7916418455	0.0094926124
4721.7204492185	0.0095448336
4723.6492565916	0.0095136780
4725.5780639646	0.0094537344
4727.5068713377	0.0094342232
4729.4356787107	0.0093354434
4731.3644860838	0.0094028041
4733.2932934568	0.0093477974
4735.2221008299	0.0093262130
4737.1509082029	0.0093253301
4739.0797155760	0.0093058059
4741.0085229490	0.0092491414
4742.9373303221	0.0092287976
4744.8661376951	0.0092629045
4746.7949450682	0.0091523677
4748.7237524412	0.0092226481
4750.6525598142	0.0092274882
4752.5813671873	0.0090562422
4754.5101745603	0.0090157930
4756.4389819334	0.0091070514
4758.3677893064	0.0091186818
4760.2965966795	0.0090411426
4762.2254040525	0.0089992778
4764.1542114256	0.0089840852
4766.0830187986	0.0089455508
4768.0118261717	0.0088659665
4769.9406335447	0.0089356983
4771.8694409178	0.0088763414
4773.7982482908	0.0089080418
4775.7270556639	0.0089594033
4777.6558630369	0.0088181086
4779.5846704099	0.0088284416
4781.5134777830	0.0087466855
4783.4422851560	0.0088137500
4785.3710925291	0.0088174222
4787.2998999021	0.0087776948
4789.2287072752	0.0087760948
4791.1575146482	0.0086436849
4793.0863220213	0.0086827613
4795.0151293943	0.0086481124
4796.9439367674	0.0087254997
4798.8727441404	0.0086916536
4800.8015515135	0.0085738236
4802.7303588865	0.0085454276
4804.6591662596	0.0085132774
4806.5879736326	0.0085805366
4808.5167810056	0.0084854504
4810.4455883787	0.0085126236
4812.3743957517	0.0084559359
4814.3032031248	0.0084212292
4816.2320104978	0.0084436107
4818.1608178709	0.0083246250
4820.0896252439	0.0083785579
4822.0184326170	0.0083502643
4823.9472399900	0.0083269486
4825.8760473631	0.0083172387
4827.8048547361	0.0083041294
4829.7336621092	0.0082283411
4831.6624694822	0.0081487652
4833.5912768553	0.0082055451
4835.5200842283	0.0082255993
4837.4488916013	0.0081643052
4839.3776989744	0.0080939429
4841.3065063474	0.0081788879
4843.2353137205	0.0080805188
4845.1641210935	0.0080939932
4847.0929284666	0.0081201140
4849.0217358396	0.0079514859
4850.9505432127	0.0079974933
4852.8793505857	0.0080270851
4854.8081579588	0.0080567654
4856.7369653318	0.0079092886
4858.6657727049	0.0078862244
4860.5945800779	0.0078827795
4862.5233874510	0.0078241033
4864.4521948240	0.0079590632
4866.3810021971	0.0078730620
4868.3098095701	0.0078988392
4870.2386169431	0.0077999998
4872.1674243162	0.0077161370
4874.0962316892	0.0078065367
4876.0250390623	0.0077575673
4877.9538464353	0.0077395784
4879.8826538084	0.0076901633
4881.8114611814	0.0076790918
4883.7402685545	0.0076155206
4885.6690759275	0.0077047101
4887.5978833006	0.0076795747
4889.5266906736	0.0075447196
4891.4554980467	0.0075772237
4893.3843054197	0.0075143846
4895.3131127928	0.0075483322
4897.2419201658	0.0075326888
4899.1707275388	0.0074967435
4901.0995349119	0.0074983761
4903.0283422849	0.0074839075
4904.9571496580	0.0074304678
4906.8859570310	0.0074927015
4908.8147644041	0.0074991994
4910.7435717771	0.0073233866
4912.6723791502	0.0074118357
4914.6011865232	0.0073273317
4916.5299938963	0.0073669883
4918.4588012693	0.0074170977
4920.3876086424	0.0072650071
4922.3164160154	0.0073555205
4924.2452233885	0.0072696903
4926.1740307615	0.0072349566
4928.1028381345	0.0071925311
4930.0316455076	0.0071926592
4931.9604528806	0.0071837627
4933.8892602537	0.0070952713
4935.8180676267	0.0072343815
4937.7468749998	0.0072034975
4939.6756823728	0.0071648890
4941.6044897459	0.0071218810
4943.5332971189	0.0070690871
4945.4621044920	0.0071255551
4947.3909118650	0.0071267029
4949.3197192381	0.0070333229
4951.2485266111	0.0069558597
4953.1773339842	0.0069545624
4955.1061413572	0.0069497488
4957.0349487302	0.0070116669
4958.9637561033	0.0068396991
4960.8925634763	0.0068026967
4962.8213708494	0.0068894029
4964.7501782224	0.0068365238
4966.6789855955	0.0069014728
4968.6077929685	0.0068282764
4970.5366003416	0.0068940865
4972.4654077146	0.0068402956
4974.3942150877	0.0066930228
4976.3230224607	0.0067765373
4978.2518298338	0.0067636771
4980.1806372068	0.0067345127
4982.1094445799	0.0067390511
4984.0382519529	0.0067918450
4985.9670593259	0.0066325422
4987.8958666990	0.0066213496
4989.8246740720	0.0067479573
4991.7534814451	0.0066206483
4993.6822888181	0.0066476436
4995.6110961912	0.0066186697
4997.5399035642	0.0066146748
4999.4687109373	0.0066431677
5001.3975183103	0.0065371199
5003.3263256834	0.0065685082
5005.2551330564	0.0065625925
5007.1839404295	0.0065191980
5009.1127478025	0.0065088514
5011.0415551756	0.0064265355
5012.9703625486	0.0064530205
5014.8991699217	0.0065301452
5016.8279772947	0.0064312476
5018.7567846677	0.0064174552
5020.6855920408	0.0064102081
5022.6143994138	0.0062863659
5024.5432067869	0.0062794313
5026.4720141599	0.0062921452
5028.4008215330	0.0063167722
5030.3296289060	0.0062888702
5032.2584362791	0.0062184623
5034.1872436521	0.0062252562
5036.1160510252	0.0062340335
5038.0448583982	0.0062088240
5039.9736657713	0.0061931983
5041.9024731443	0.0061922744
5043.8312805174	0.0061052493
5045.7600878904	0.0061452561
5047.6888952634	0.0062172180
5049.6177026365	0.0061017061
5051.5465100095	0.0061147218
5053.4753173826	0.0060940762
5055.4041247556	0.0059647141
5057.3329321287	0.0060278624
5059.2617395017	0.0060541667
5061.1905468748	0.0060017798
5063.1193542478	0.0059633469
5065.0481616209	0.0058990954
5066.9769689939	0.0059419214
5068.9057763670	0.0059247138
5070.8345837400	0.0059477407
5072.7633911131	0.0060063936
5074.6921984861	0.0059123728
5076.6210058591	0.0059387283
5078.5498132322	0.0058835139
5080.4786206052	0.0058298092
5082.4074279783	0.0058783353
5084.3362353513	0.0057888329
5086.2650427244	0.0058091599
5088.1938500974	0.0058101192
5090.1226574705	0.0058131684
5092.0514648435	0.0058202166
5093.9802722166	0.0056914845
5095.9090795896	0.0057260338
5097.8378869627	0.0057266303
5099.7666943357	0.0056759259
5101.6955017088	0.0057068327
5103.6243090818	0.0056862244
5105.5531164548	0.0057097133
5107.4819238279	0.0056733848
5109.4107312009	0.0056080231
5111.3395385740	0.0055981842
5113.2683459470	0.0055923327
5115.1971533201	0.0055728778
5117.1259606931	0.0055367318
5119.0547680662	0.0055699949
5120.9835754392	0.0055343723
5122.9123828123	0.0055151144
5124.8411901853	0.0055477768
5126.7699975584	0.0055177910
5128.6988049314	0.0054950500
5130.6276123045	0.0053915125
5132.5564196775	0.0053805644
5134.4852270506	0.0054556131
5136.4140344236	0.0054333685
5138.3428417966	0.0054038581
5140.2716491697	0.0053822640
5142.2004565427	0.0053664045
5144.1292639158	0.0053536445
5146.0580712888	0.0053606750
5147.9868786619	0.0053823041
5149.9156860349	0.0053502684
5151.8444934080	0.0052847066
5153.7733007810	0.0053110765
5155.7021081541	0.0052844388
5157.6309155271	0.0052702939
5159.5597229002	0.0053036027
5161.4885302732	0.0051699872
5163.4173376463	0.0051461495
5165.3461450193	0.0052005122
5167.2749523923	0.0052589350
5169.2037597654	0.0052073817
5171.1325671384	0.0051035536
5173.0613745115	0.0051714908
5174.9901818845	0.0051397183
5176.9189892576	0.0051234481
5178.8477966306	0.0050560385
5180.7766040037	0.0050544078
5182.7054113767	0.0051038144
5184.6342187498	0.0050457353
5186.5630261228	0.0050389962
5188.4918334959	0.0049417312
5190.4206408689	0.0050227898
5192.3494482420	0.0050505185
5194.2782556150	0.0050029363
5196.2070629880	0.0049903626
5198.1358703611	0.0048787538
5200.0646777341	0.0049084146
5201.9934851072	0.0049509308
5203.9222924802	0.0049659475
5205.8510998533	0.0047738235
5207.7799072263	0.0047918009
5209.7087145994	0.0049356055
5211.6375219724	0.0048822593
5213.5663293455	0.0049394621
5215.4951367185	0.0048343651
5217.4239440916	0.0048798136
5219.3527514646	0.0048921881
5221.2815588377	0.0048471517
5223.2103662107	0.0048636226
5225.1391735837	0.0047023403
5227.0679809568	0.0047561140
5228.9967883298	0.0047677672
5230.9255957029	0.0047716806
5232.8544030759	0.0047778869
5234.7832104490	0.0046981527
5236.7120178220	0.0047004814
5238.6408251951	0.0046916241
5240.5696325681	0.0046903915
5242.4984399412	0.0046310234
5244.4272473142	0.0046343715
5246.3560546873	0.0046275035
5248.2848620603	0.0045839408
5250.2136694334	0.0046199295
5252.1424768064	0.0047059599
5254.0712841795	0.0045959530
5256.0000915525	0.0044681635
5257.9288989255	0.0045951968
5259.8577062986	0.0045629130
5261.7865136716	0.0045508072
5263.7153210447	0.0045257062
5265.6441284177	0.0045181294
5267.5729357908	0.0045989547
5269.5017431638	0.0044965059
5271.4305505369	0.0045132637
5273.3593579099	0.0044972720
5275.2881652830	0.0044467752
5277.2169726560	0.0044934675
5279.1457800291	0.0045039058
5281.0745874021	0.0044661337
5283.0033947752	0.0044088466
5284.9322021482	0.0043757819
5286.8610095212	0.0043527875
5288.7898168943	0.0043881545
5290.7186242673	0.0043404028
5292.6474316404	0.0043506855
5294.5762390134	0.0044243955
5296.5050463865	0.0044036987
5298.4338537595	0.0043800240
5300.3626611326	0.0043353578
5302.2914685056	0.0042551784
5304.2202758787	0.0042836838
5306.1490832517	0.0043516932
5308.0778906248	0.0042104321
5310.0066979978	0.0043080430
5311.9355053709	0.0043858816
5313.8643127439	0.0042262538
5315.7931201169	0.0042418167
5317.7219274900	0.0041913120
5319.6507348630	0.0042262869
5321.5795422361	0.0042151939
5323.5083496091	0.0041556610
5325.4371569822	0.0041776472
5327.3659643552	0.0041114334
5329.2947717283	0.0041202279
5331.2235791013	0.0041517410
5333.1523864744	0.0041128835
5335.0811938474	0.0040623723
5337.0100012205	0.0041095451
5338.9388085935	0.0039602742
5340.8676159666	0.0039939005
5342.7964233396	0.0041501876
5344.7252307126	0.0039053662
5346.6540380857	0.0039596274
5348.5828454587	0.0040718112
5350.5116528318	0.0040306277
5352.4404602048	0.0039552730
5354.3692675779	0.0038914080
5356.2980749509	0.0040417504
5358.2268823240	0.0040413495
5360.1556896970	0.0040218104
5362.0844970701	0.0039915293
5364.0133044431	0.0039888769
5365.9421118162	0.0039912038
5367.8709191892	0.0039083012
5369.7997265623	0.0039432850
5371.7285339353	0.0039473749
5373.6573413083	0.0039515914
5375.5861486814	0.0038396963
5377.5149560544	0.0037987884
5379.4437634275	0.0039266804
5381.3725708005	0.0038923887
5383.3013781736	0.0038604445
5385.2301855466	0.0038119191
5387.1589929197	0.0037422935
5389.0878002927	0.0038025384
5391.0166076658	0.0038673051
5392.9454150388	0.0037865057
5394.8742224119	0.0037069847
5396.8030297849	0.0037787398
5398.7318371580	0.0037702799
5400.6606445310	0.0037581646
5402.5894519041	0.0038200140
5404.5182592771	0.0037283751
5406.4470666501	0.0037220889
5408.3758740232	0.0037547024
5410.3046813962	0.0036369814
5412.2334887693	0.0035991399
5414.1622961423	0.0036046905
5416.0911035154	0.0036585950
5418.0199108884	0.0036563347
5419.9487182615	0.0035970146
5421.8775256345	0.0036427539
5423.8063330076	0.0036352624
5425.7351403806	0.0036340905
5427.6639477537	0.0036150659
5429.5927551267	0.0034892338
5431.5215624998	0.0035393776
5433.4503698728	0.0036231843
5435.3791772458	0.0034471673
5437.3079846189	0.0035369080
5439.2367919919	0.0035967384
5441.1655993650	0.0034216542
5443.0944067380	0.0035754857
5445.0232141111	0.0034822843
5446.9520214841	0.0034518428
5448.8808288572	0.0035670181
5450.8096362302	0.0034460167
5452.7384436033	0.0035117967
5454.6672509763	0.0034330708
5456.5960583494	0.0034504510
5458.5248657224	0.0034858147
5460.4536730955	0.0033570193
5462.3824804685	0.0034116805
5464.3112878415	0.0033931360
5466.2400952146	0.0033651672
5468.1689025876	0.0033770376
5470.0977099607	0.0033647460
5472.0265173337	0.0033494001
5473.9553247068	0.0033903175
5475.8841320798	0.0033330894
5477.8129394529	0.0032949434
5479.7417468259	0.0033815112
5481.6705541990	0.0033446010
5483.5993615720	0.0033698911
5485.5281689451	0.0033369740
5487.4569763181	0.0033143018
5489.3857836912	0.0032611026
5491.3145910642	0.0032013671
5493.2433984372	0.0032672551
5495.1722058103	0.0032279603
5497.1010131833	0.0032816492
5499.0298205564	0.0032391984
5500.9586279294	0.0032380319
5502.8874353025	0.0032630004
5504.8162426755	0.0032008151
5506.7450500486	0.0032741772
5508.6738574216	0.0031632958
5510.6026647947	0.0031838415
5512.5314721677	0.0032659466
5514.4602795408	0.0031887137
5516.3890869138	0.0031996877
5518.3178942869	0.0031702155
5520.2467016599	0.0031623431
5522.1755090330	0.0031478284
5524.1043164060	0.0031172084
5526.0331237790	0.0031466261
5527.9619311521	0.0031244173
5529.8907385251	0.0030881609
5531.8195458982	0.0031124121
5533.7483532712	0.0030697747
5535.6771606443	0.0030707843
5537.6059680173	0.0030863686
5539.5347753904	0.0029887557
5541.4635827634	0.0030138325
5543.3923901365	0.0030301339
5545.3211975095	0.0030277036
5547.2500048826	0.0030066040
5549.1788122556	0.0029724236
5551.1076196287	0.0030681379
5553.0364270017	0.0030654944
5554.9652343747	0.0030795448
5556.8940417478	0.0030583842
5558.8228491208	0.0029572763
5560.7516564939	0.0029609799
5562.6804638669	0.0029048992
5564.6092712400	0.0029145870
5566.5380786130	0.0029881350
5568.4668859861	0.0029833312
5570.3956933591	0.0029856421
5572.3245007322	0.0029331595
5574.2533081052	0.0028782710
5576.1821154783	0.0028711776
5578.1109228513	0.0028951778
5580.0397302244	0.0029162101
5581.9685375974	0.0028945196
5583.8973449704	0.0028883070
5585.8261523435	0.0028372756
5587.7549597165	0.0028798901
5589.6837670896	0.0029074186
5591.6125744626	0.0028570374
5593.5413818357	0.0028981564
5595.4701892087	0.0027939500
5597.3989965818	0.0027919728
5599.3278039548	0.0028199721
5601.2566113279	0.0027479162
5603.1854187009	0.0028369464
5605.1142260740	0.0028515698
5607.0430334470	0.0028143660
5608.9718408201	0.0027487245
5610.9006481931	0.0027485644
5612.8294555661	0.0027700122
5614.7582629392	0.0027504161
5616.6870703122	0.0028074663
5618.6158776853	0.0027551632
5620.5446850583	0.0027063694
5622.4734924314	0.0027271989
5624.4022998044	0.0027458970
5626.3311071775	0.0026598538
5628.2599145505	0.0026651258
5630.1887219236	0.0027171699
5632.1175292966	0.0026098010
5634.0463366697	0.0026483228
5635.9751440427	0.0026632515
5637.9039514158	0.0026698157
5639.8327587888	0.0026673081
5641.7615661619	0.0026474586
5643.6903735349	0.0026893960
5645.6191809079	0.0026483510
5647.5479882810	0.0026507664
5649.4767956540	0.0025955979
5651.4056030271	0.0025921941
5653.3344104001	0.0025612409
5655.2632177732	0.0025510031
5657.1920251462	0.0026233895
5659.1208325193	0.0025234583
5661.0496398923	0.0025371963
5662.9784472654	0.0025680931
5664.9072546384	0.0025750273
5666.8360620115	0.0025739153
5668.7648693845	0.0025398282
5670.6936767576	0.0025582197
5672.6224841306	0.0025130026
5674.5512915036	0.0025258153
5676.4800988767	0.0025146597
5678.4089062497	0.0024934071
5680.3377136228	0.0025084843
5682.2665209958	0.0024857817
5684.1953283689	0.0024509463
5686.1241357419	0.0024557086
5688.0529431150	0.0024772645
5689.9817504880	0.0024514992
5691.9105578611	0.0024690952
5693.8393652341	0.0024164603
5695.7681726072	0.0024017133
5697.6969799802	0.0024004253
5699.6257873533	0.0023714274
5701.5545947263	0.0024554813
5703.4834020993	0.0023850761
5705.4122094724	0.0023469497
5707.3410168454	0.0024274648
5709.2698242185	0.0023981594
5711.1986315915	0.0024244022
5713.1274389646	0.0024257840
5715.0562463376	0.0023036778
5716.9850537107	0.0023127289
5718.9138610837	0.0023485264
5720.8426684568	0.0023342296
5722.7714758298	0.0023831399
5724.7002832029	0.0023220461
5726.6290905759	0.0022998257
5728.5578979490	0.0023650839
5730.4867053220	0.0023602101
5732.4155126950	0.0023128800
5734.3443200681	0.0023687291
5736.2731274411	0.0024265861
5738.2019348142	0.0022528304
5740.1307421872	0.0022402278
5742.0595495603	0.0022325518
5743.9883569333	0.0022018407
5745.9171643064	0.0023250419
5747.8459716794	0.0021936467
5749.7747790525	0.0022010114
5751.7035864255	0.0022896496
5753.6323937986	0.0022404199
5755.5612011716	0.0022669386
5757.4900085447	0.0022283846
5759.4188159177	0.0022608570
5761.3476232907	0.0022050934
5763.2764306638	0.0021294702
5765.2052380368	0.0021575331
5767.1340454099	0.0020840303
5769.0628527829	0.0021242318
5770.9916601560	0.0021430491
5772.9204675290	0.0021188788
5774.8492749021	0.0021393748
5776.7780822751	0.0021366100
5778.7068896482	0.0021980149
5780.6356970212	0.0021150424
5782.5645043943	0.0020615777
5784.4933117673	0.0021104570
5786.4221191404	0.0020525190
5788.3509265134	0.0020327240
5790.2797338865	0.0020855463
5792.2085412595	0.0021229663
5794.1373486325	0.0020414270
5796.0661560056	0.0020432882
5797.9949633786	0.0021088894
5799.9237707517	0.0021257987
5801.8525781247	0.0021367390
5803.7813854978	0.0020295789
5805.7101928708	0.0020128712
5807.6390002439	0.0020295321
5809.5678076169	0.0020263896
5811.4966149900	0.0020489474
5813.4254223630	0.0020441432
5815.3542297361	0.0020146160
5817.2830371091	0.0019708951
5819.2118444822	0.0020227800
5821.1406518552	0.0019879965
5823.0694592282	0.0019935363
5824.9982666013	0.0019864095
5826.9270739743	0.0019487592
5828.8558813474	0.0020155292
5830.7846887204	0.0019684758
5832.7134960935	0.0019610999
5834.6423034665	0.0019234626
5836.5711108396	0.0019693482
5838.4999182126	0.0019563292
5840.4287255857	0.0018810586
5842.3575329587	0.0020113282
5844.2863403318	0.0019093914
5846.2151477048	0.0018971919
5848.1439550779	0.0019665188
5850.0727624509	0.0018987202
5852.0015698239	0.0019357792
5853.9303771970	0.0019046557
5855.8591845700	0.0018878847
5857.7879919431	0.0019222358
5859.7167993161	0.0019094804
5861.6456066892	0.0018932531
5863.5744140622	0.0018912174
5865.5032214353	0.0018727009
5867.4320288083	0.0018912860
5869.3608361814	0.0018386103
5871.2896435544	0.0018184069
5873.2184509275	0.0018977469
5875.1472583005	0.0018278618
5877.0760656736	0.0018130708
5879.0048730466	0.0017942714
5880.9336804196	0.0018131365
5882.8624877927	0.0018379479
5884.7912951657	0.0017761728
5886.7201025388	0.0018424240
5888.6489099118	0.0018228928
5890.5777172849	0.0017926572
5892.5065246579	0.0017827631
5894.4353320310	0.0017854065
5896.3641394040	0.0018129400
5898.2929467771	0.0017817683
5900.2217541501	0.0017378188
5902.1505615232	0.0017212022
5904.0793688962	0.0017764589
5906.0081762693	0.0017182052
5907.9369836423	0.0017048994
5909.8657910154	0.0016774980
5911.7945983884	0.0016754032
5913.7234057614	0.0017504545
5915.6522131345	0.0016820087
5917.5810205075	0.0017281410
5919.5098278806	0.0016899789
5921.4386352536	0.0016590194
5923.3674426267	0.0017242646
5925.2962499997	0.0016733177
5927.2250573728	0.0016364470
5929.1538647458	0.0016635433
5931.0826721189	0.0017443077
5933.0114794919	0.0016480198
5934.9402868650	0.0016434372
5936.8690942380	0.0017391997
5938.7979016111	0.0016627638
5940.7267089841	0.0016269634
5942.6555163571	0.0016256251
5944.5843237302	0.0016495758
5946.5131311032	0.0016727105
5948.4419384763	0.0016520799
5950.3707458493	0.0015982364
5952.2995532224	0.0016382949
5954.2283605954	0.0016593765
5956.1571679685	0.0016185974
5958.0859753415	0.0016764659
5960.0147827146	0.0015648827
5961.9435900876	0.0014836257
5963.8723974607	0.0015731957
5965.8012048337	0.0015909602
5967.7300122068	0.0016289189
5969.6588195798	0.0016478293
5971.5876269528	0.0016115615
5973.5164343259	0.0015776460
5975.4452416989	0.0015538768
5977.3740490720	0.0015982115
5979.3028564450	0.0015822169
5981.2316638181	0.0015500756
5983.1604711911	0.0015816099
5985.0892785642	0.0014975372
5987.0180859372	0.0015328404
5988.9468933103	0.0015986062
5990.8757006833	0.0015271941
5992.8045080564	0.0015036706
5994.7333154294	0.0014655181
5996.6621228025	0.0014855580
5998.5909301755	0.0014208376
6000.5197375485	0.0013760517
