399.2631262207	0.0018419779
401.1919335938	0.0021789938
403.1207409668	0.0021320253
405.0495483398	0.0025780906
406.9783557129	0.0027079033
408.9071630859	0.0024425602
410.8359704590	0.0029309960
412.7647778320	0.0031852645
414.6935852051	0.0027188016
416.6223925781	0.0027760477
418.5511999512	0.0032336516
420.4800073242	0.0027659964
422.4088146973	0.0028196834
424.3376220703	0.0034147261
426.2664294434	0.0033619918
428.1952368164	0.0029307096
430.1240441895	0.0026126830
432.0528515625	0.0030512302
433.9816589355	0.0027349293
435.9104663086	0.0026142583
437.8392736816	0.0031840215
439.7680810547	0.0026623944
441.6968884277	0.0024160645
443.6256958008	0.0028070461
445.5545031738	0.0027565414
447.4833105469	0.0023476686
449.4121179199	0.0023852505
451.3409252930	0.0022057379
453.2697326660	0.0019266410
455.1985400391	0.0020710193
457.1273474121	0.0016035631
459.0561547852	0.0014857773
460.9849621582	0.0017630087
462.9137695313	0.0017661949
464.8425769043	0.0018894201
466.7713842773	0.0018644023
468.7001916504	0.0012864403
470.6289990234	0.0010499209
472.5578063965	0.0012533858
474.4866137695	0.0009817143
476.4154211426	0.0013529577
478.3442285156	0.0012841771
480.2730358887	0.0006132419
482.2018432617	0.0005047062
484.1306506348	0.0002802285
486.0594580078	0.0003896277
487.9882653809	0.0005734078
489.9170727539	0.0008876295
491.8458801270	0.0005724599
493.7746875000	0.0004086092
495.7034948730	0.0007871491
497.6323022461	0.0003622066
499.5611096191	0.0008203238
501.4899169922	0.0008327659
503.4187243652	0.0002251222
505.3475317383	0.0004768883
507.2763391113	0.0003364672
509.2051464844	0.0002650794
511.1339538574	0.0006505515
513.0627612305	0.0006807738
514.9915686035	0.0001229940
516.9203759766	0.0003025502
518.8491833496	0.0004061080
520.7779907227	0.0000967922
522.7067980957	0.0004544624
524.6356054688	0.0003143812
526.5644128418	0.0004345504
528.4932202148	0.0005151547
530.4220275879	0.0004754395
532.3508349609	0.0004901617
534.2796423340	-0.0001056703
536.2084497070	0.0002136677
538.1372570801	0.0003572276
540.0660644531	0.0002608815
541.9948718262	0.0003453610
543.9236791992	0.0002198137
545.8524865723	0.0005110332
547.7812939453	0.0001483550
549.7101013184	0.0000753605
551.6389086914	0.0005079925
553.5677160645	0.0002777093
555.4965234375	0.0004114785
557.4253308105	0.0002524912
559.3541381836	0.0002071628
561.2829455566	0.0006813119
563.2117529297	0.0002208687
565.1405603027	0.0002696592
567.0693676758	0.0001068676
568.9981750488	-0.0001440836
570.9269824219	0.0004953785
572.8557897949	0.0000464874
574.7845971680	0.0000363338
576.7134045410	0.0003599609
578.6422119141	0.0002338543
580.5710192871	0.0004242252
582.4998266602	0.0001734770
584.4286340332	0.0001986502
586.3574414063	0.0002909376
588.2862487793	0.0001069322
590.2150561523	0.0001617436
592.1438635254	0.0001895031
594.0726708984	0.0000493300
596.0014782715	0.0002483347
597.9302856445	0.0002770185
599.8590930176	0.0001016818
601.7879003906	0.0002730381
603.7167077637	0.0000965925
605.6455151367	0.0001593783
607.5743225098	-0.0000132387
609.5031298828	-0.0001201865
611.4319372559	0.0001976677
613.3607446289	0.0003492222
615.2895520020	0.0002987349
617.2183593750	0.0000333130
619.1471667480	0.0000340315
621.0759741211	0.0003478072
623.0047814941	0.0003156238
624.9335888672	0.0000464532
626.8623962402	-0.0000994650
628.7912036133	0.0001501790
630.7200109863	0.0010153735
632.6488183594	0.0011157917
634.5776257324	0.0015720576
636.5064331055	0.0021910635
638.4352404785	0.0018786845
640.3640478516	0.0023670134
642.2928552246	0.0025919373
644.2216625977	0.0028918637
646.1504699707	0.0032322956
648.0792773438	0.0029339734
650.0080847168	0.0032314966
651.9368920898	0.0033885522
653.8656994629	0.0036755665
655.7945068359	0.0039142747
657.7233142090	0.0040148273
659.6521215820	0.0041335691
661.5809289551	0.0038547842
663.5097363281	0.0043899543
665.4385437012	0.0046369182
667.3673510742	0.0043500420
669.2961584473	0.0048834225
671.2249658203	0.0053009391
673.1537731934	0.0055578817
675.0825805664	0.0057171746
677.0113879395	0.0056017758
678.9401953125	0.0055039949
680.8690026855	0.0056189038
682.7978100586	0.0059899902
684.7266174316	0.0056122546
686.6554248047	0.0056340294
688.5842321777	0.0061024316
690.5130395508	0.0060433317
692.4418469238	0.0067131156
694.3706542969	0.0067121899
696.2994616699	0.0069469903
698.2282690430	0.0084567722
700.1570764160	0.0091648335
702.0858837891	0.0091346567
704.0146911621	0.0082813539
705.9434985352	0.0074552754
707.8723059082	0.0066497377
709.8011132813	0.0052289451
711.7299206543	0.0037318305
713.6587280273	0.0022243527
715.5875354004	0.0013592630
717.5163427734	0.0009029651
719.4451501465	0.0007791339
721.3739575195	0.0007472831
723.3027648926	0.0003792703
725.2315722656	0.0002614257
727.1603796387	0.0004341721
729.0891870117	0.0001379864
731.0179943848	-0.0000914197
732.9468017578	0.0001180825
734.8756091309	-0.0002564586
736.8044165039	0.0000351150
738.7332238770	0.0001223859
740.6620312500	-0.0003893358
742.5908386230	0.0001488106
744.5196459961	0.0002180368
746.4484533691	-0.0000682641
748.3772607422	-0.0001075092
750.3060681152	0.0004090967
752.2348754883	0.0004808524
754.1636828613	0.0000331577
756.0924902344	0.0003477104
758.0212976074	0.0002264240
759.9501049805	0.0000397916
761.8789123535	0.0001722110
763.8077197266	0.0005245999
765.7365270996	0.0004016319
767.6653344727	0.0002529258
769.5941418457	0.0007709312
771.5229492188	0.0004946630
773.4517565918	0.0001926747
775.3805639648	0.0004099604
777.3093713379	0.0004207821
779.2381787109	0.0005326649
781.1669860840	0.0006884165
783.0957934570	0.0005764859
785.0246008301	0.0005471264
786.9534082031	0.0005356489
788.8822155762	0.0006198398
790.8110229492	0.0009995841
792.7398303223	0.0008330707
794.6686376953	0.0006224273
796.5974450684	0.0009534354
798.5262524414	0.0012275297
800.4550598145	0.0011364931
802.3838671875	0.0011066963
804.3126745605	0.0011206334
806.2414819336	0.0008856854
808.1702893066	0.0007749120
810.0990966797	0.0006016195
812.0279040527	0.0005149306
813.9567114258	0.0003914941
815.8855187988	0.0005811971
817.8143261719	0.0007003900
819.7431335449	0.0003370969
821.6719409180	0.0005858542
823.6007482910	0.0007490928
825.5295556641	0.0009322475
827.4583630371	0.0008750547
829.3871704102	0.0007727137
831.3159777832	0.0013653532
833.2447851563	0.0016661069
835.1735925293	0.0017115949
837.1023999023	0.0015732683
839.0312072754	0.0018846262
840.9600146484	0.0019300862
842.8888220215	0.0016661891
844.8176293945	0.0016820440
846.7464367676	0.0012151385
848.6752441406	0.0012356553
850.6040515137	0.0014224793
852.5328588867	0.0013995918
854.4616662598	0.0012700398
856.3904736328	0.0011663514
858.3192810059	0.0009877254
860.2480883789	0.0005977196
862.1768957520	0.0007669867
864.1057031250	0.0006288441
866.0345104980	0.0004205039
867.9633178711	0.0005683807
869.8921252441	0.0006279715
871.8209326172	0.0005122801
873.7497399902	0.0004326378
875.6785473633	0.0006311135
877.6073547363	0.0005400821
879.5361621094	0.0003290562
881.4649694824	0.0004446360
883.3937768555	0.0006032471
885.3225842285	0.0001848257
887.2513916016	0.0000939636
889.1801989746	0.0003233590
891.1090063477	0.0003253248
893.0378137207	0.0005424012
894.9666210938	0.0004849641
896.8954284668	0.0005234298
898.8242358398	0.0006009192
900.7530432129	0.0006338364
902.6818505859	0.0005634607
904.6106579590	0.0004034484
906.5394653320	0.0006947758
908.4682727051	0.0007273877
910.3970800781	0.0006926038
912.3258874512	0.0006593159
914.2546948242	0.0006924397
916.1835021973	0.0010642183
918.1123095703	0.0010972020
920.0411169434	0.0012552558
921.9699243164	0.0015194926
923.8987316895	0.0015960141
925.8275390625	0.0019958853
927.7563464355	0.0020601945
929.6851538086	0.0018444892
931.6139611816	0.0022610629
933.5427685547	0.0024122023
935.4715759277	0.0022892035
937.4003833008	0.0025029157
939.3291906738	0.0027276839
941.2579980469	0.0030181007
943.1868054199	0.0029342161
945.1156127930	0.0027233972
947.0444201660	0.0028483812
948.9732275391	0.0030777049
950.9020349121	0.0029907008
952.8308422852	0.0027368411
954.7596496582	0.0027647829
956.6884570313	0.0028509912
958.6172644043	0.0030599437
960.5460717773	0.0028552001
962.4748791504	0.0028895759
964.4036865234	0.0032689129
966.3324938965	0.0030117892
968.2613012695	0.0031802468
970.1901086426	0.0034080120
972.1189160156	0.0032783314
974.0477233887	0.0035363385
975.9765307617	0.0039173281
977.9053381348	0.0041851769
979.8341455078	0.0047096657
981.7629528809	0.0052336617
983.6917602539	0.0055519328
985.6205676270	0.0063088248
987.5493750000	0.0067332173
989.4781823730	0.0072268927
991.4069897461	0.0084451260
993.3357971191	0.0091225468
995.2646044922	0.0098652812
997.1934118652	0.0110216672
999.1222192383	0.0118124867
1001.0510266113	0.0124758137
1002.9798339844	0.0131258937
1004.9086413574	0.0141557232
1006.8374487305	0.0152456090
1008.7662561035	0.0158090238
1010.6950634766	0.0169144906
1012.6238708496	0.0182371251
1014.5526782227	0.0191930737
1016.4814855957	0.0200081822
1018.4102929688	0.0208074450
1020.3391003418	0.0219539553
1022.2679077148	0.0227560513
1024.1967150879	0.0237575322
1026.1255224609	0.0246684588
1028.0543298340	0.0251640044
1029.9831372070	0.0261272043
1031.9119445801	0.0267534219
1033.8407519531	0.0273330994
1035.7695593262	0.0276899617
1037.6983666992	0.0277730878
1039.6271740723	0.0280821994
1041.5559814453	0.0281671062
1043.4847888184	0.0279635079
1045.4135961914	0.0275855586
1047.3424035645	0.0273528062
1049.2712109375	0.0267423056
1051.2000183105	0.0261379555
1053.1288256836	0.0257472694
1055.0576330566	0.0252766833
1056.9864404297	0.0248180740
1058.9152478027	0.0240155365
1060.8440551758	0.0233491436
1062.7728625488	0.0226052664
1064.7016699219	0.0218106657
1066.6304772949	0.0210643299
1068.5592846680	0.0202293508
1070.4880920410	0.0194666442
1072.4168994141	0.0184903704
1074.3457067871	0.0175392572
1076.2745141602	0.0168321971
1078.2033215332	0.0160353202
1080.1321289062	0.0149840163
1082.0609362793	0.0145508647
1083.9897436523	0.0142373974
1085.9185510254	0.0134154409
1087.8473583984	0.0127236964
1089.7761657715	0.0122329360
1091.7049731445	0.0116882166
1093.6337805176	0.0108677000
1095.5625878906	0.0106036840
1097.4913952637	0.0103821941
1099.4202026367	0.0100312214
1101.3490100098	0.0099842902
1103.2778173828	0.0096313274
1105.2066247559	0.0093156416
1107.1354321289	0.0090955896
1109.0642395019	0.0091057615
1110.9930468750	0.0088893976
1112.9218542480	0.0088078603
1114.8506616211	0.0090765040
1116.7794689941	0.0089113228
1118.7082763672	0.0088038221
1120.6370837402	0.0088000372
1122.5658911133	0.0089812092
1124.4946984863	0.0090198815
1126.4235058594	0.0091005396
1128.3523132324	0.0093447119
1130.2811206055	0.0094562117
1132.2099279785	0.0097843017
1134.1387353516	0.0100788921
1136.0675427246	0.0104702776
1137.9963500977	0.0109204873
1139.9251574707	0.0116082607
1141.8539648437	0.0124124400
1143.7827722168	0.0133155901
1145.7115795898	0.0142757129
1147.6403869629	0.0147605147
1149.5691943359	0.0155567061
1151.4980017090	0.0166001599
1153.4268090820	0.0173127986
1155.3556164551	0.0180072933
1157.2844238281	0.0188745838
1159.2132312012	0.0194876138
1161.1420385742	0.0200870335
1163.0708459473	0.0210098904
1164.9996533203	0.0219621733
1166.9284606934	0.0228055455
1168.8572680664	0.0234873034
1170.7860754394	0.0244054273
1172.7148828125	0.0250387602
1174.6436901855	0.0260319971
1176.5724975586	0.0273742341
1178.5013049316	0.0280192327
1180.4301123047	0.0290863588
1182.3589196777	0.0304051619
1184.2877270508	0.0317645594
1186.2165344238	0.0332228020
1188.1453417969	0.0347123370
1190.0741491699	0.0364884585
1192.0029565430	0.0380799025
1193.9317639160	0.0396562293
1195.8605712891	0.0415309519
1197.7893786621	0.0435123779
1199.7181860351	0.0454060063
1201.6469934082	0.0473173037
1203.5758007812	0.0491686091
1205.5046081543	0.0512082577
1207.4334155273	0.0530897453
1209.3622229004	0.0547063015
1211.2910302734	0.0563845783
1213.2198376465	0.0579371639
1215.1486450195	0.0594433844
1217.0774523926	0.0605785623
1219.0062597656	0.0618911609
1220.9350671387	0.0627546832
1222.8638745117	0.0634069592
1224.7926818848	0.0642988235
1226.7214892578	0.0644249544
1228.6502966308	0.0647358745
1230.5791040039	0.0651148111
1232.5079113769	0.0654196441
1234.4367187500	0.0651724339
1236.3655261230	0.0651055574
1238.2943334961	0.0654174015
1240.2231408691	0.0648717061
1242.1519482422	0.0647107065
1244.0807556152	0.0642794222
1246.0095629883	0.0640516058
1247.9383703613	0.0640154406
1249.8671777344	0.0633110180
1251.7959851074	0.0627272576
1253.7247924805	0.0619952641
1255.6535998535	0.0613167882
1257.5824072266	0.0604332052
1259.5112145996	0.0595354624
1261.4400219726	0.0586057790
1263.3688293457	0.0578282475
1265.2976367187	0.0570428446
1267.2264440918	0.0562247187
1269.1552514648	0.0556978583
1271.0840588379	0.0546579994
1273.0128662109	0.0538351089
1274.9416735840	0.0529729873
1276.8704809570	0.0518647023
1278.7992883301	0.0507442094
1280.7280957031	0.0499102883
1282.6569030762	0.0489679053
1284.5857104492	0.0477347970
1286.5145178223	0.0470763370
1288.4433251953	0.0461423472
1290.3721325683	0.0456988961
1292.3009399414	0.0452263169
1294.2297473144	0.0447170846
1296.1585546875	0.0444434434
1298.0873620605	0.0442369767
1300.0161694336	0.0447737798
1301.9449768066	0.0446772650
1303.8737841797	0.0451786555
1305.8025915527	0.0456198677
1307.7313989258	0.0459388793
1309.6602062988	0.0470079109
1311.5890136719	0.0476509668
1313.5178210449	0.0487189665
1315.4466284180	0.0499257743
1317.3754357910	0.0510514677
1319.3042431640	0.0521095395
1321.2330505371	0.0539905205
1323.1618579101	0.0556150079
1325.0906652832	0.0569655448
1327.0194726562	0.0589666888
1328.9482800293	0.0601578653
1330.8770874023	0.0619120598
1332.8058947754	0.0632875711
1334.7347021484	0.0644310564
1336.6635095215	0.0654428154
1338.5923168945	0.0651046634
1340.5211242676	0.0658793896
1342.4499316406	0.0678204224
1344.3787390137	0.0684796721
1346.3075463867	0.0683138520
1348.2363537597	0.0685919225
1350.1651611328	0.0678813010
1352.0939685058	0.0675954819
1354.0227758789	0.0672542378
1355.9515832519	0.0663045943
1357.8803906250	0.0661729276
1359.8091979980	0.0651291311
1361.7380053711	0.0629235655
1363.6668127441	0.0619310588
1365.5956201172	0.0638950914
1367.5244274902	0.0630312264
1369.4532348633	0.0622221418
1371.3820422363	0.0631467998
1373.3108496094	0.0605539978
1375.2396569824	0.0608296394
1377.1684643555	0.0616978370
1379.0972717285	0.0617089719
1381.0260791015	0.0617593564
1382.9548864746	0.0611334629
1384.8836938476	0.0615728721
1386.8125012207	0.0594269857
1388.7413085937	0.0601082072
1390.6701159668	0.0639581233
1392.5989233398	0.0628810823
1394.5277307129	0.0598369315
1396.4565380859	0.0622236282
1398.3853454590	0.0624882914
1400.3141528320	0.0618565455
1402.2429602051	0.0658523440
1404.1717675781	0.0628631562
1406.1005749512	0.0632289648
1408.0293823242	0.0652953237
1409.9581896972	0.0631229877
1411.8869970703	0.0642196089
1413.8158044433	0.0621845424
1415.7446118164	0.0630651116
1417.6734191894	0.0580239110
1419.6022265625	0.0528518707
1421.5310339355	0.0588671826
1423.4598413086	0.0573706254
1425.3886486816	0.0554266497
1427.3174560547	0.0556174293
1429.2462634277	0.0521177240
1431.1750708008	0.0504224971
1433.1038781738	0.0508859754
1435.0326855469	0.0469854400
1436.9614929199	0.0408630446
1438.8903002929	0.0446909145
1440.8191076660	0.0455310866
1442.7479150390	0.0426748544
1444.6767224121	0.0439583473
1446.6055297851	0.0412992463
1448.5343371582	0.0415203013
1450.4631445312	0.0427314639
1452.3919519043	0.0436830930
1454.3207592773	0.0453075580
1456.2495666504	0.0393430293
1458.1783740234	0.0408146717
1460.1071813965	0.0518805720
1462.0359887695	0.0549166240
1463.9647961426	0.0553568974
1465.8936035156	0.0580124147
1467.8224108886	0.0647989810
1469.7512182617	0.0696106926
1471.6800256347	0.0642884374
1473.6088330078	0.0676352233
1475.5376403808	0.0759402663
1477.4664477539	0.0811551511
1479.3952551269	0.0881877542
1481.3240625000	0.0901492387
1483.2528698730	0.0952520072
1485.1816772461	0.0986467451
1487.1104846191	0.0982111618
1489.0392919922	0.0987387598
1490.9680993652	0.0999466851
1492.8969067383	0.1127424911
1494.8257141113	0.1113338321
1496.7545214843	0.1027243435
1498.6833288574	0.1140027791
1500.6121362304	0.1172376797
1502.5409436035	0.1240514070
1504.4697509765	0.1194196343
1506.3985583496	0.0937322676
1508.3273657226	0.1095385849
1510.2561730957	0.1245534271
1512.1849804687	0.1213012189
1514.1137878418	0.1294190586
1516.0425952148	0.1197087020
1517.9714025879	0.1242561340
1519.9002099609	0.1204549298
1521.8290173340	0.1079306155
1523.7578247070	0.1262928247
1525.6866320801	0.1248115152
1527.6154394531	0.1246663183
1529.5442468261	0.1345683634
1531.4730541992	0.1307240129
1533.4018615722	0.1221735775
1535.3306689453	0.1275156289
1537.2594763183	0.1345621645
1539.1882836914	0.1034952849
1541.1170910644	0.1069267541
1543.0458984375	0.1239738017
1544.9747058105	0.1198045015
1546.9035131836	0.1365143657
1548.8323205566	0.1295824349
1550.7611279297	0.1329171956
1552.6899353027	0.1322734952
1554.6187426758	0.1223533824
1556.5475500488	0.1296039224
1558.4763574218	0.0989490002
1560.4051647949	0.1038161963
1562.3339721679	0.1373514086
1564.2627795410	0.1315976679
1566.1915869140	0.1343744099
1568.1203942871	0.1335108876
1570.0492016601	0.1215807348
1571.9780090332	0.1354500949
1573.9068164062	0.1368430257
1575.8356237793	0.1135991365
1577.7644311523	0.1247757673
1579.6932385254	0.1381190717
1581.6220458984	0.1329234540
1583.5508532715	0.1361502260
1585.4796606445	0.1342720240
1587.4084680175	0.1350200176
1589.3372753906	0.1342877150
1591.2660827636	0.1340389848
1593.1948901367	0.1345585138
1595.1236975097	0.1330272853
1597.0525048828	0.1345882863
1598.9813122558	0.1336188018
1600.9101196289	0.1342654824
1602.8389270019	0.1324592978
1604.7677343750	0.1341874599
1606.6965417480	0.1326170266
1608.6253491211	0.1324598193
1610.5541564941	0.1324952543
1612.4829638672	0.1327563375
1614.4117712402	0.1346983016
1616.3405786132	0.1141593605
1618.2693859863	0.1214706227
1620.1981933593	0.1378993690
1622.1270007324	0.1250526011
1624.0558081054	0.1259954274
1625.9846154785	0.1304919571
1627.9134228515	0.1303907484
1629.8422302246	0.1294165254
1631.7710375976	0.1361676753
1633.6998449707	0.1281701028
1635.6286523437	0.1099589616
1637.5574597168	0.1241322681
1639.4862670898	0.1336241364
1641.4150744629	0.1310659349
1643.3438818359	0.1339398772
1645.2726892090	0.1233951896
1647.2014965820	0.1116922200
1649.1303039550	0.1323141009
1651.0591113281	0.1267284155
1652.9879187011	0.0893090218
1654.9167260742	0.1133780703
1656.8455334472	0.1366155744
1658.7743408203	0.1312900484
1660.7031481933	0.1348351091
1662.6319555664	0.1247770414
1664.5607629394	0.1301665902
1666.4895703125	0.1377981603
1668.4183776855	0.1239517778
1670.3471850586	0.1211693287
1672.2759924316	0.1337282807
1674.2047998047	0.1257410347
1676.1336071777	0.1212791950
1678.0624145507	0.1357997954
1679.9912219238	0.1316223145
1681.9200292968	0.1309319735
1683.8488366699	0.1110689491
1685.7776440429	0.1091237068
1687.7064514160	0.1413396746
1689.6352587890	0.1260890961
1691.5640661621	0.1355075985
1693.4928735351	0.1382149756
1695.4216809082	0.1071316749
1697.3504882812	0.1262728870
1699.2792956543	0.1151411533
1701.2081030273	0.1053886861
1703.1369104004	0.1346706450
1705.0657177734	0.1261529028
1706.9945251464	0.1260255277
1708.9233325195	0.1349015087
1710.8521398925	0.1302696466
1712.7809472656	0.1321471632
1714.7097546386	0.1249204576
1716.6385620117	0.1140340567
1718.5673693847	0.1122894883
1720.4961767578	0.1285601407
1722.4249841308	0.1323266327
1724.3537915039	0.1246247888
1726.2825988769	0.1331751049
1728.2114062500	0.1247532368
1730.1402136230	0.1255802810
1732.0690209961	0.1228422076
1733.9978283691	0.0991031229
1735.9266357421	0.1169146374
1737.8554431152	0.1273592561
1739.7842504882	0.1161207929
1741.7130578613	0.1241645515
1743.6418652343	0.1261770427
1745.5706726074	0.1261589229
1747.4994799804	0.1274077594
1749.4282873535	0.1232264116
1751.3570947265	0.1186974794
1753.2859020996	0.1286059022
1755.2147094726	0.1335482299
1757.1435168457	0.1244898587
1759.0723242187	0.1339209080
1761.0011315918	0.1275567412
1762.9299389648	0.1238011271
1764.8587463379	0.1378792822
1766.7875537109	0.1270247102
1768.7163610839	0.1277801394
1770.6451684570	0.1274772882
1772.5739758300	0.1168756858
1774.5027832031	0.1274752617
1776.4315905761	0.1332093775
1778.3603979492	0.1313770711
1780.2892053222	0.1305118203
1782.2180126953	0.1309995055
1784.1468200683	0.1308615804
1786.0756274414	0.1288910955
1788.0044348144	0.1338789910
1789.9332421875	0.1314297915
1791.8620495605	0.1214732006
1793.7908569336	0.1252759099
1795.7196643066	0.1325539052
1797.6484716796	0.1311831772
1799.5772790527	0.1296691895
1801.5060864257	0.1280494928
1803.4348937988	0.1309906840
1805.3637011718	0.1333343685
1807.2925085449	0.1318766475
1809.2213159179	0.1321679056
1811.1501232910	0.1297285259
1813.0789306640	0.1325641870
1815.0077380371	0.1328330338
1816.9365454101	0.1318163872
1818.8653527832	0.1326331794
1820.7941601562	0.1321026087
1822.7229675293	0.1337813586
1824.6517749023	0.1268809140
1826.5805822753	0.1302444041
1828.5093896484	0.1305120438
1830.4381970214	0.1241576970
1832.3670043945	0.1325815022
1834.2958117675	0.1318571568
1836.2246191406	0.1317156553
1838.1534265136	0.1313851774
1840.0822338867	0.1317878067
1842.0110412597	0.1320274472
1843.9398486328	0.1202799082
1845.8686560058	0.1259588152
1847.7974633789	0.1316784024
1849.7262707519	0.1294000894
1851.6550781250	0.1321501732
1853.5838854980	0.1301787645
1855.5126928710	0.1310096085
1857.4415002441	0.1304814219
1859.3703076171	0.1298294365
1861.2991149902	0.1304194331
1863.2279223632	0.1292098761
1865.1567297363	0.1302372217
1867.0855371093	0.1271102130
1869.0143444824	0.1228519976
1870.9431518554	0.1264276206
1872.8719592285	0.1302052736
1874.8007666015	0.1283727586
1876.7295739746	0.1287373602
1878.6583813476	0.1283823997
1880.5871887207	0.1277719736
1882.5159960937	0.1284875423
1884.4448034667	0.1269499511
1886.3736108398	0.1283323169
1888.3024182128	0.1260778308
1890.2312255859	0.1240837201
1892.1600329589	0.1275172532
1894.0888403320	0.1262339056
1896.0176477050	0.1257067323
1897.9464550781	0.1268300414
1899.8752624511	0.1263900697
1901.8040698242	0.1265121102
1903.7328771972	0.1257265359
1905.6616845703	0.1262183487
1907.5904919433	0.1253924668
1909.5192993164	0.1245523989
1911.4481066894	0.1251035929
1913.3769140625	0.1251596808
1915.3057214355	0.1259389967
1917.2345288085	0.1216545328
1919.1633361816	0.1216701418
1921.0921435546	0.1252834946
1923.0209509277	0.1222739816
1924.9497583007	0.1239684820
1926.8785656738	0.1247766316
1928.8073730468	0.1237416342
1930.7361804199	0.1248896569
1932.6649877929	0.1234759912
1934.5937951660	0.1243069619
1936.5226025390	0.1237161309
1938.4514099121	0.1239943057
1940.3802172851	0.1237283051
1942.3090246582	0.1207190901
1944.2378320312	0.1222823560
1946.1666394042	0.1232277974
1948.0954467773	0.1231321916
1950.0242541503	0.1235096157
1951.9530615234	0.1232362911
1953.8818688964	0.1231383383
1955.8106762695	0.1226584464
1957.7394836425	0.1229850501
1959.6682910156	0.1227456555
1961.5970983886	0.1224923432
1963.5259057617	0.1229139715
1965.4547131347	0.1221991479
1967.3835205078	0.1212548539
1969.3123278808	0.1220441908
1971.2411352539	0.1225966588
1973.1699426269	0.1219703183
1975.0987499999	0.1219932288
1977.0275573730	0.1218115091
1978.9563647460	0.1217891723
1980.8851721191	0.1215431020
1982.8139794921	0.1212247461
1984.7427868652	0.1213803440
1986.6715942382	0.1207653880
1988.6004016113	0.1206828132
1990.5292089843	0.1198671088
1992.4580163574	0.1188724861
1994.3868237304	0.1201607957
1996.3156311035	0.1204089820
1998.2444384765	0.1197679639
2000.1732458496	0.1198571324
2002.1020532226	0.1193939745
2004.0308605956	0.1194098666
2005.9596679687	0.1191388816
2007.8884753417	0.1185383201
2009.8172827148	0.1184505373
2011.7460900878	0.1182436794
2013.6748974609	0.1182964295
2015.6037048339	0.1174396202
2017.5325122070	0.1168126166
2019.4613195800	0.1172699332
2021.3901269531	0.1171071455
2023.3189343261	0.1167301759
2025.2477416992	0.1164908260
2027.1765490722	0.1163482219
2029.1053564453	0.1160745919
2031.0341638183	0.1158879846
2032.9629711914	0.1157375425
2034.8917785644	0.1152388453
2036.8205859374	0.1150963902
2038.7493933105	0.1150442809
2040.6782006835	0.1143785417
2042.6070080566	0.1140788198
2044.5358154296	0.1142472625
2046.4646228027	0.1139216572
2048.3934301757	0.1136399657
2050.3222375488	0.1134685278
2052.2510449218	0.1134761125
2054.1798522949	0.1131263077
2056.1086596679	0.1127202511
2058.0374670410	0.1127604246
2059.9662744140	0.1122897267
2061.8950817871	0.1121781915
2063.8238891601	0.1116022989
2065.7526965331	0.1111612692
2067.6815039062	0.1116062999
2069.6103112792	0.1114100739
2071.5391186523	0.1111701280
2073.4679260253	0.1108298898
2075.3967333984	0.1106575876
2077.3255407714	0.1105196923
2079.2543481445	0.1103026122
2081.1831555175	0.1102505848
2083.1119628906	0.1099458337
2085.0407702636	0.1095955074
2086.9695776367	0.1093825325
2088.8983850097	0.1091970950
2090.8271923828	0.1088599265
2092.7559997558	0.1089811400
2094.6848071288	0.1087272987
2096.6136145019	0.1085008681
2098.5424218749	0.1084334925
2100.4712292480	0.1080589294
2102.4000366210	0.1081642509
2104.3288439941	0.1076967865
2106.2576513671	0.1076938137
2108.1864587402	0.1076823920
2110.1152661132	0.1072403640
2112.0440734863	0.1071712300
2113.9728808593	0.1068062186
2115.9016882324	0.1067265272
2117.8304956054	0.1064791009
2119.7593029785	0.1064664871
2121.6881103515	0.1062053889
2123.6169177245	0.1059427261
2125.5457250976	0.1060486734
2127.4745324706	0.1056748480
2129.4033398437	0.1058202162
2131.3321472167	0.1056545228
2133.2609545898	0.1053192466
2135.1897619628	0.1052143052
2137.1185693359	0.1050473452
2139.0473767089	0.1049541160
2140.9761840820	0.1048256233
2142.9049914550	0.1047936380
2144.8337988281	0.1045397893
2146.7626062011	0.1044639423
2148.6914135742	0.1042767614
2150.6202209472	0.1040947735
2152.5490283203	0.1040485129
2154.4778356933	0.1039539725
2156.4066430663	0.1038271934
2158.3354504394	0.1035969704
2160.2642578124	0.1035646796
2162.1930651855	0.1033152118
2164.1218725585	0.1031416431
2166.0506799316	0.1029643640
2167.9794873046	0.1029403955
2169.9082946777	0.1029644907
2171.8371020507	0.1027829275
2173.7659094238	0.1026926115
2175.6947167968	0.1023770124
2177.6235241699	0.1024301946
2179.5523315429	0.1023874134
2181.4811389160	0.1021669209
2183.4099462890	0.1021058112
2185.3387536620	0.1018879712
2187.2675610351	0.1015568003
2189.1963684081	0.1014507860
2191.1251757812	0.1015896499
2193.0539831542	0.1013324782
2194.9827905273	0.1012521461
2196.9115979003	0.1010474116
2198.8404052734	0.1008690298
2200.7692126464	0.1008531004
2202.6980200195	0.1006996334
2204.6268273925	0.1007207036
2206.5556347656	0.1004663631
2208.4844421386	0.1004407033
2210.4132495117	0.1002733335
2212.3420568847	0.1000885814
2214.2708642577	0.0999898612
2216.1996716308	0.0998025909
2218.1284790038	0.0997527316
2220.0572863769	0.0995576829
2221.9860937499	0.0995016620
2223.9149011230	0.0992740393
2225.8437084960	0.0993504077
2227.7725158691	0.0990771130
2229.7013232421	0.0988215655
2231.6301306152	0.0988538042
2233.5589379882	0.0984264165
2235.4877453613	0.0984987170
2237.4165527343	0.0982904434
2239.3453601074	0.0982801989
2241.2741674804	0.0980901271
2243.2029748534	0.0978094339
2245.1317822265	0.0979154930
2247.0605895995	0.0974058211
2248.9893969726	0.0973404199
2250.9182043456	0.0971567035
2252.8470117187	0.0970567167
2254.7758190917	0.0969901681
2256.7046264648	0.0966322273
2258.6334338378	0.0966229513
2260.5622412109	0.0964666456
2262.4910485839	0.0962864086
2264.4198559570	0.0961305201
2266.3486633300	0.0961122066
2268.2774707031	0.0958048552
2270.2062780761	0.0957471877
2272.1350854491	0.0957419425
2274.0638928222	0.0955127478
2275.9927001952	0.0955718607
2277.9215075683	0.0954044536
2279.8503149413	0.0953663737
2281.7791223144	0.0950924903
2283.7079296874	0.0951420069
2285.6367370605	0.0949949622
2287.5655444335	0.0945913047
2289.4943518066	0.0946999788
2291.4231591796	0.0942011550
2293.3519665527	0.0939539671
2295.2807739257	0.0937811956
2297.2095812988	0.0934869796
2299.1383886718	0.0931486189
2301.0671960449	0.0927394629
2302.9960034179	0.0924814343
2304.9248107909	0.0919076800
2306.8536181640	0.0915079266
2308.7824255370	0.0907361805
2310.7112329101	0.0900290161
2312.6400402831	0.0893350840
2314.5688476562	0.0883088261
2316.4976550292	0.0874985233
2318.4264624023	0.0864860564
2320.3552697753	0.0854125619
2322.2840771484	0.0840913802
2324.2128845214	0.0830920041
2326.1416918945	0.0823215991
2328.0704992675	0.0813321695
2329.9993066406	0.0804088265
2331.9281140136	0.0797471553
2333.8569213866	0.0795607418
2335.7857287597	0.0791345090
2337.7145361327	0.0789933056
2339.6433435058	0.0789704099
2341.5721508788	0.0791954100
2343.5009582519	0.0802599043
2345.4297656249	0.0815963745
2347.3585729980	0.0849009454
2349.2873803710	0.0874145925
2351.2161877441	0.0847404897
2353.1449951171	0.0806076527
2355.0738024902	0.0778037608
2357.0026098632	0.0755262971
2358.9314172363	0.0741160139
2360.8602246093	0.0732057840
2362.7890319823	0.0730152875
2364.7178393554	0.0735205859
2366.6466467284	0.0744166076
2368.5754541015	0.0759226605
2370.5042614745	0.0776330605
2372.4330688476	0.0796596557
2374.3618762206	0.0817815810
2376.2906835937	0.0837856904
2378.2194909667	0.0854837075
2380.1482983398	0.0866958201
2382.0771057128	0.0875617042
2384.0059130859	0.0881779566
2385.9347204589	0.0885233954
2387.8635278320	0.0884348974
2389.7923352050	0.0884691775
2391.7211425780	0.0883554220
2393.6499499511	0.0882074907
2395.5787573241	0.0880680010
2397.5075646972	0.0878102183
2399.4363720702	0.0879111886
2401.3651794433	0.0876717567
2403.2939868163	0.0875990614
2405.2227941894	0.0875711814
2407.1516015624	0.0872790664
2409.0804089355	0.0872302353
2411.0092163085	0.0871040076
2412.9380236816	0.0869990364
2414.8668310546	0.0867974013
2416.7956384277	0.0867507085
2418.7244458007	0.0866852626
2420.6532531738	0.0866174996
2422.5820605468	0.0864867866
2424.5108679198	0.0861458778
2426.4396752929	0.0861634314
2428.3684826659	0.0860917568
2430.2972900390	0.0860460699
2432.2260974120	0.0858852267
2434.1549047851	0.0857511535
2436.0837121581	0.0858145356
2438.0125195312	0.0854789019
2439.9413269042	0.0853623003
2441.8701342773	0.0853349119
2443.7989416503	0.0851061195
2445.7277490234	0.0850298852
2447.6565563964	0.0849434882
2449.5853637695	0.0847817063
2451.5141711425	0.0847376287
2453.4429785155	0.0846776366
2455.3717858886	0.0845429972
2457.3005932616	0.0843594819
2459.2294006347	0.0841569975
2461.1582080077	0.0841556340
2463.0870153808	0.0840745643
2465.0158227538	0.0839520469
2466.9446301269	0.0837875307
2468.8734374999	0.0836182162
2470.8022448730	0.0835436210
2472.7310522460	0.0834481418
2474.6598596191	0.0834033340
2476.5886669921	0.0832244605
2478.5174743652	0.0831899196
2480.4462817382	0.0830305293
2482.3750891112	0.0828306526
2484.3038964843	0.0829258487
2486.2327038573	0.0827941224
2488.1615112304	0.0826230347
2490.0903186034	0.0825490057
2492.0191259765	0.0824252144
2493.9479333495	0.0821844116
2495.8767407226	0.0820974410
2497.8055480956	0.0821062773
2499.7343554687	0.0819674730
2501.6631628417	0.0817610323
2503.5919702148	0.0816845000
2505.5207775878	0.0817403197
2507.4495849609	0.0814677849
2509.3783923339	0.0813695788
2511.3071997069	0.0813577324
2513.2360070800	0.0811861008
2515.1648144530	0.0810472667
2517.0936218261	0.0809064209
2519.0224291991	0.0808378458
2520.9512365722	0.0804932714
2522.8800439452	0.0804861337
2524.8088513183	0.0805729181
2526.7376586913	0.0803861544
2528.6664660644	0.0803929716
2530.5952734374	0.0803195238
2532.5240808105	0.0800989792
2534.4528881835	0.0799059048
2536.3816955566	0.0798809379
2538.3105029296	0.0796292126
2540.2393103027	0.0796239376
2542.1681176757	0.0796654150
2544.0969250487	0.0794118345
2546.0257324218	0.0794463307
2547.9545397948	0.0792504400
2549.8833471679	0.0791220069
2551.8121545409	0.0789352953
2553.7409619140	0.0788695738
2555.6697692870	0.0789714158
2557.5985766601	0.0786841437
2559.5273840331	0.0786572322
2561.4561914062	0.0785356462
2563.3849987792	0.0784621984
2565.3138061523	0.0783867240
2567.2426135253	0.0781136453
2569.1714208984	0.0780895427
2571.1002282714	0.0779990107
2573.0290356444	0.0779380128
2574.9578430175	0.0777664334
2576.8866503905	0.0775883794
2578.8154577636	0.0774990842
2580.7442651366	0.0773979202
2582.6730725097	0.0773419812
2584.6018798827	0.0771916807
2586.5306872558	0.0771413818
2588.4594946288	0.0769711956
2590.3883020019	0.0768610984
2592.3171093749	0.0768600255
2594.2459167480	0.0767030865
2596.1747241210	0.0766724795
2598.1035314941	0.0765861869
2600.0323388671	0.0764862001
2601.9611462401	0.0763011873
2603.8899536132	0.0760933757
2605.8187609862	0.0761694908
2607.7475683593	0.0760495961
2609.6763757323	0.0757785439
2611.6051831054	0.0756546110
2613.5339904784	0.0757094547
2615.4627978515	0.0756244063
2617.3916052245	0.0753758997
2619.3204125976	0.0754311755
2621.2492199706	0.0753022134
2623.1780273437	0.0750793964
2625.1068347167	0.0749848559
2627.0356420898	0.0748548731
2628.9644494628	0.0748270378
2630.8932568358	0.0747122839
2632.8220642089	0.0746123046
2634.7508715819	0.0744858831
2636.6796789550	0.0744278580
2638.6084863280	0.0743276775
2640.5372937011	0.0741773993
2642.4661010741	0.0740974844
2644.3949084472	0.0739629418
2646.3237158202	0.0739295334
2648.2525231933	0.0737099499
2650.1813305663	0.0737348348
2652.1101379394	0.0736184269
2654.0389453124	0.0733620673
2655.9677526855	0.0735411048
2657.8965600585	0.0732837766
2659.8253674315	0.0730964467
2661.7541748046	0.0730247870
2663.6829821776	0.0729879215
2665.6117895507	0.0729547441
2667.5405969237	0.0726585761
2669.4694042968	0.0727042556
2671.3982116698	0.0725704879
2673.3270190429	0.0723805800
2675.2558264159	0.0723095089
2677.1846337890	0.0721384957
2679.1134411620	0.0720655173
2681.0422485351	0.0720260367
2682.9710559081	0.0719638988
2684.8998632812	0.0717730075
2686.8286706542	0.0716522038
2688.7574780273	0.0715797395
2690.6862854003	0.0715453327
2692.6150927733	0.0714068115
2694.5439001464	0.0712452680
2696.4727075194	0.0711358115
2698.4015148925	0.0709912032
2700.3303222655	0.0709452033
2702.2591296386	0.0708459541
2704.1879370116	0.0708321929
2706.1167443847	0.0706962347
2708.0455517577	0.0705560744
2709.9743591308	0.0703444481
2711.9031665038	0.0701582283
2713.8319738769	0.0702885985
2715.7607812499	0.0701519176
2717.6895886230	0.0700551420
2719.6183959960	0.0699131638
2721.5472033690	0.0697698817
2723.4760107421	0.0697585344
2725.4048181151	0.0695832819
2727.3336254882	0.0694552213
2729.2624328612	0.0693499148
2731.1912402343	0.0692637712
2733.1200476073	0.0691233650
2735.0488549804	0.0690401345
2736.9776623534	0.0688680410
2738.9064697265	0.0689138174
2740.8352770995	0.0688331127
2742.7640844726	0.0684265196
2744.6928918456	0.0685304925
2746.6216992187	0.0684141964
2748.5505065917	0.0682551712
2750.4793139647	0.0681589991
2752.4081213378	0.0680283904
2754.3369287108	0.0679965541
2756.2657360839	0.0677079633
2758.1945434569	0.0677659661
2760.1233508300	0.0676505417
2762.0521582030	0.0674690083
2763.9809655761	0.0674804896
2765.9097729491	0.0672611669
2767.8385803222	0.0672287792
2769.7673876952	0.0671537071
2771.6961950683	0.0670150965
2773.6250024413	0.0668915212
2775.5538098144	0.0667440444
2777.4826171874	0.0666601658
2779.4114245604	0.0665605217
2781.3402319335	0.0664717183
2783.2690393065	0.0663163662
2785.1978466796	0.0661866367
2787.1266540526	0.0661756918
2789.0554614257	0.0659968555
2790.9842687987	0.0658064783
2792.9130761718	0.0657729059
2794.8418835448	0.0655740052
2796.7706909179	0.0654340982
2798.6994982909	0.0653496683
2800.6283056640	0.0652274340
2802.5571130370	0.0650723875
2804.4859204101	0.0649599433
2806.4147277831	0.0649084449
2808.3435351562	0.0647450686
2810.2723425292	0.0646996871
2812.2011499022	0.0644413978
2814.1299572753	0.0643211752
2816.0587646483	0.0642823726
2817.9875720214	0.0640575886
2819.9163793944	0.0639901757
2821.8451867675	0.0637830049
2823.7739941405	0.0638078004
2825.7028015136	0.0636676997
2827.6316088866	0.0634863377
2829.5604162597	0.0633929893
2831.4892236327	0.0631927699
2833.4180310058	0.0632708371
2835.3468383788	0.0629829466
2837.2756457519	0.0627657920
2839.2044531249	0.0626479238
2841.1332604979	0.0624402836
2843.0620678710	0.0622539893
2844.9908752440	0.0619627908
2846.9196826171	0.0616751760
2848.8484899901	0.0612623617
2850.7772973632	0.0612117909
2852.7061047362	0.0610707700
2854.6349121093	0.0609898902
2856.5637194823	0.0610211454
2858.4925268554	0.0607864335
2860.4213342284	0.0607829317
2862.3501416015	0.0607568398
2864.2789489745	0.0607276335
2866.2077563476	0.0605201870
2868.1365637206	0.0604412854
2870.0653710936	0.0604188815
2871.9941784667	0.0601989627
2873.9229858397	0.0601405688
2875.8517932128	0.0600029938
2877.7806005858	0.0600266308
2879.7094079589	0.0598812588
2881.6382153319	0.0596985556
2883.5670227050	0.0597291887
2885.4958300780	0.0596298166
2887.4246374511	0.0594922751
2889.3534448241	0.0593205839
2891.2822521972	0.0592510849
2893.2110595702	0.0590953529
2895.1398669433	0.0589159839
2897.0686743163	0.0588158108
2898.9974816893	0.0587506555
2900.9262890624	0.0586028881
2902.8550964354	0.0583787523
2904.7839038085	0.0582811385
2906.7127111815	0.0580800511
2908.6415185546	0.0578047857
2910.5703259276	0.0576180890
2912.4991333007	0.0575383306
2914.4279406737	0.0572035462
2916.3567480468	0.0568036065
2918.2855554198	0.0566198751
2920.2143627929	0.0564877763
2922.1431701659	0.0564549193
2924.0719775390	0.0563454852
2926.0007849120	0.0563204214
2927.9295922851	0.0563201755
2929.8583996581	0.0563131198
2931.7872070311	0.0562208667
2933.7160144042	0.0561593026
2935.6448217772	0.0562889911
2937.5736291503	0.0562110469
2939.5024365233	0.0561624654
2941.4312438964	0.0561299697
2943.3600512694	0.0560554266
2945.2888586425	0.0559445173
2947.2176660155	0.0559695661
2949.1464733886	0.0559476092
2951.0752807616	0.0556771047
2953.0040881347	0.0556001477
2954.9328955077	0.0553410277
2956.8617028808	0.0552168004
2958.7905102538	0.0551139601
2960.7193176268	0.0548824295
2962.6481249999	0.0548509285
2964.5769323729	0.0546499342
2966.5057397460	0.0546606518
2968.4345471190	0.0546748191
2970.3633544921	0.0546459965
2972.2921618651	0.0547404215
2974.2209692382	0.0547413304
2976.1497766112	0.0547940582
2978.0785839843	0.0547869317
2980.0073913573	0.0547517985
2981.9361987304	0.0547298081
2983.8650061034	0.0547288656
2985.7938134765	0.0546580479
2987.7226208495	0.0545510910
2989.6514282225	0.0544481352
2991.5802355956	0.0543822385
2993.5090429686	0.0543892086
2995.4378503417	0.0543523729
2997.3666577147	0.0542536154
2999.2954650878	0.0540388599
3001.2242724608	0.0539888479
3003.1530798339	0.0539610945
3005.0818872069	0.0537987500
3007.0106945800	0.0537010543
3008.9395019530	0.0536420345
3010.8683093261	0.0534778312
3012.7971166991	0.0532669425
3014.7259240722	0.0532614514
3016.6547314452	0.0531828105
3018.5835388182	0.0530770123
3020.5123461913	0.0529656112
3022.4411535643	0.0528590977
3024.3699609374	0.0527523011
3026.2987683104	0.0525417551
3028.2275756835	0.0525133051
3030.1563830565	0.0523582101
3032.0851904296	0.0521720052
3034.0139978026	0.0520859063
3035.9428051757	0.0520369112
3037.8716125487	0.0519697927
3039.8004199218	0.0518047065
3041.7292272948	0.0517250448
3043.6580346679	0.0515802056
3045.5868420409	0.0515874885
3047.5156494139	0.0514463894
3049.4444567870	0.0512624793
3051.3732641600	0.0514029413
3053.3020715331	0.0512631238
3055.2308789061	0.0509861037
3057.1596862792	0.0508346632
3059.0884936522	0.0507816449
3061.0173010253	0.0507566333
3062.9461083983	0.0505825393
3064.8749157714	0.0504378006
3066.8037231444	0.0504566431
3068.7325305175	0.0503348969
3070.6613378905	0.0502735227
3072.5901452636	0.0502368435
3074.5189526366	0.0500037782
3076.4477600097	0.0500366241
3078.3765673827	0.0498802364
3080.3053747557	0.0496652201
3082.2341821288	0.0497100353
3084.1629895018	0.0496478304
3086.0917968749	0.0495154336
3088.0206042479	0.0493587330
3089.9494116210	0.0493766963
3091.8782189940	0.0492752492
3093.8070263671	0.0491147712
3095.7358337401	0.0489738621
3097.6646411132	0.0488228872
3099.5934484862	0.0487261266
3101.5222558593	0.0486149788
3103.4510632323	0.0486282781
3105.3798706054	0.0484471805
3107.3086779784	0.0483769588
3109.2374853514	0.0483612865
3111.1662927245	0.0482608974
3113.0951000975	0.0480872467
3115.0239074706	0.0477571785
3116.9527148436	0.0477006324
3118.8815222167	0.0476104021
3120.8103295897	0.0475319475
3122.7391369628	0.0474025905
3124.6679443358	0.0472974703
3126.5967517089	0.0472118035
3128.5255590819	0.0470489934
3130.4543664550	0.0470594838
3132.3831738280	0.0468100980
3134.3119812011	0.0467499122
3136.2407885741	0.0466880426
3138.1695959471	0.0464806966
3140.0984033202	0.0465067364
3142.0272106932	0.0463607237
3143.9560180663	0.0461991206
3145.8848254393	0.0460648164
3147.8136328124	0.0459409729
3149.7424401854	0.0458048135
3151.6712475585	0.0457249135
3153.6000549315	0.0455686674
3155.5288623046	0.0453936979
3157.4576696776	0.0453030095
3159.3864770507	0.0451216027
3161.3152844237	0.0451398082
3163.2440917968	0.0450180434
3165.1728991698	0.0448556542
3167.1017065428	0.0447624996
3169.0305139159	0.0445657447
3170.9593212889	0.0444820970
3172.8881286620	0.0444106720
3174.8169360350	0.0442912504
3176.7457434081	0.0441118628
3178.6745507811	0.0440516323
3180.6033581542	0.0439242870
3182.5321655272	0.0437768698
3184.4609729003	0.0436539128
3186.3897802733	0.0435330123
3188.3185876464	0.0435369238
3190.2473950194	0.0433858112
3192.1762023925	0.0433259457
3194.1050097655	0.0432252511
3196.0338171386	0.0430068672
3197.9626245116	0.0428542905
3199.8914318846	0.0427846648
3201.8202392577	0.0427488275
3203.7490466307	0.0426372364
3205.6778540038	0.0426340550
3207.6066613768	0.0424983948
3209.5354687499	0.0424214639
3211.4642761229	0.0423560366
3213.3930834960	0.0421180315
3215.3218908690	0.0421170890
3217.2506982421	0.0421471894
3219.1795056151	0.0419354700
3221.1083129882	0.0417293012
3223.0371203612	0.0417662412
3224.9659277343	0.0417781360
3226.8947351073	0.0417067334
3228.8235424803	0.0415438041
3230.7523498534	0.0414845496
3232.6811572264	0.0415061116
3234.6099645995	0.0412832722
3236.5387719725	0.0411865935
3238.4675793456	0.0411301702
3240.3963867186	0.0411260575
3242.3251940917	0.0411056168
3244.2540014647	0.0409289375
3246.1828088378	0.0408732221
3248.1116162108	0.0408888422
3250.0404235839	0.0408700332
3251.9692309569	0.0407032073
3253.8980383300	0.0405989736
3255.8268457030	0.0405417234
3257.7556530760	0.0405179337
3259.6844604491	0.0405360833
3261.6132678221	0.0405007005
3263.5420751952	0.0404325128
3265.4708825682	0.0403197743
3267.3996899413	0.0403815471
3269.3284973143	0.0403404385
3271.2573046874	0.0402325541
3273.1861120604	0.0401714407
3275.1149194335	0.0400995351
3277.0437268065	0.0400897413
3278.9725341796	0.0400358588
3280.9013415526	0.0400270075
3282.8301489257	0.0399058312
3284.7589562987	0.0398701392
3286.6877636717	0.0398696959
3288.6165710448	0.0397661328
3290.5453784178	0.0396825112
3292.4741857909	0.0395510867
3294.4029931639	0.0395583473
3296.3318005370	0.0395006984
3298.2606079100	0.0394177362
3300.1894152831	0.0393675938
3302.1182226561	0.0392819867
3304.0470300292	0.0392837152
3305.9758374022	0.0392325521
3307.9046447753	0.0391258001
3309.8334521483	0.0390939340
3311.7622595214	0.0391178653
3313.6910668944	0.0390431583
3315.6198742675	0.0390070714
3317.5486816405	0.0389271453
3319.4774890135	0.0387342721
3321.4062963866	0.0386996046
3323.3351037596	0.0387223400
3325.2639111327	0.0385886468
3327.1927185057	0.0385110527
3329.1215258788	0.0385590643
3331.0503332518	0.0384898782
3332.9791406249	0.0384746939
3334.9079479979	0.0382911675
3336.8367553710	0.0381369032
3338.7655627440	0.0381919295
3340.6943701171	0.0380796120
3342.6231774901	0.0381619930
3344.5519848632	0.0381397381
3346.4807922362	0.0379867554
3348.4095996092	0.0379699394
3350.3384069823	0.0378222577
3352.2672143553	0.0377366915
3354.1960217284	0.0376799814
3356.1248291014	0.0375530794
3358.0536364745	0.0375442021
3359.9824438475	0.0375248343
3361.9112512206	0.0373478495
3363.8400585936	0.0372936130
3365.7688659667	0.0371959209
3367.6976733397	0.0370603725
3369.6264807128	0.0370967276
3371.5552880858	0.0371122584
3373.4840954589	0.0370807573
3375.4129028319	0.0369815901
3377.3417102049	0.0369000733
3379.2705175780	0.0368224382
3381.1993249510	0.0368372574
3383.1281323241	0.0366772786
3385.0569396971	0.0365222879
3386.9857470702	0.0365542173
3388.9145544432	0.0363903195
3390.8433618163	0.0363609120
3392.7721691893	0.0361704119
3394.7009765624	0.0361602157
3396.6297839354	0.0362392142
3398.5585913085	0.0359509736
3400.4873986815	0.0359320380
3402.4162060546	0.0358486101
3404.3450134276	0.0357468799
3406.2738208006	0.0357482545
3408.2026281737	0.0357387438
3410.1314355467	0.0356977023
3412.0602429198	0.0356402472
3413.9890502928	0.0355519541
3415.9178576659	0.0354505405
3417.8466650389	0.0354988500
3419.7754724120	0.0352891088
3421.7042797850	0.0351714864
3423.6330871581	0.0351415500
3425.5618945311	0.0351307131
3427.4907019042	0.0350525975
3429.4195092772	0.0349139646
3431.3483166503	0.0350042209
3433.2771240233	0.0348200053
3435.2059313963	0.0348512158
3437.1347387694	0.0347627141
3439.0635461424	0.0346479304
3440.9923535155	0.0345955491
3442.9211608885	0.0343362540
3444.8499682616	0.0345042050
3446.7787756346	0.0341808610
3448.7075830077	0.0341501907
3450.6363903807	0.0344301239
3452.5651977538	0.0341813937
3454.4940051268	0.0342678577
3456.4228124999	0.0341773331
3458.3516198729	0.0340817124
3460.2804272460	0.0341995060
3462.2092346190	0.0340761095
3464.1380419921	0.0340022743
3466.0668493651	0.0339583755
3467.9956567381	0.0338651091
3469.9244641112	0.0339430124
3471.8532714842	0.0338758305
3473.7820788573	0.0336412750
3475.7108862303	0.0335676856
3477.6396936034	0.0336313397
3479.5685009764	0.0336479209
3481.4973083495	0.0333223790
3483.4261157225	0.0333636180
3485.3549230956	0.0334704109
3487.2837304686	0.0333175436
3489.2125378417	0.0333988816
3491.1413452147	0.0334085003
3493.0701525878	0.0334807374
3494.9989599608	0.0333729796
3496.9277673338	0.0332669243
3498.8565747069	0.0332629159
3500.7853820799	0.0332491174
3502.7141894530	0.0329173803
3504.6429968260	0.0328093767
3506.5718041991	0.0334412605
3508.5006115721	0.0331313796
3510.4294189452	0.0329695493
3512.3582263182	0.0332123488
3514.2870336913	0.0330345854
3516.2158410643	0.0331113338
3518.1446484374	0.0330387428
3520.0734558104	0.0331559442
3522.0022631835	0.0328912437
3523.9310705565	0.0326042101
3525.8598779295	0.0327470303
3527.7886853026	0.0325854421
3529.7174926756	0.0326718092
3531.6463000487	0.0329636894
3533.5751074217	0.0330823585
3535.5039147948	0.0328180008
3537.4327221678	0.0326936692
3539.3615295409	0.0329573229
3541.2903369139	0.0329406001
3543.2191442870	0.0326931924
3545.1479516600	0.0321945995
3547.0767590331	0.0318455361
3549.0055664061	0.0326253101
3550.9343737792	0.0327188969
3552.8631811522	0.0320317671
3554.7919885252	0.0326584503
3556.7207958983	0.0328317657
3558.6496032713	0.0326163545
3560.5784106444	0.0323469453
3562.5072180174	0.0322518125
3564.4360253905	0.0325126387
3566.3648327635	0.0307956859
3568.2936401366	0.0302477591
3570.2224475096	0.0320037864
3572.1512548827	0.0326071233
3574.0800622557	0.0323858038
3576.0088696288	0.0324545465
3577.9376770018	0.0323947668
3579.8664843749	0.0323052704
3581.7952917479	0.0323745683
3583.7240991210	0.0323464423
3585.6529064940	0.0317809172
3587.5817138670	0.0299472436
3589.5105212401	0.0304990634
3591.4393286131	0.0324801579
3593.3681359862	0.0316841789
3595.2969433592	0.0312886722
3597.2257507323	0.0318042114
3599.1545581053	0.0318854004
3601.0833654784	0.0317087546
3603.0121728514	0.0319001824
3604.9409802245	0.0323426202
3606.8697875975	0.0314948000
3608.7985949706	0.0300744995
3610.7274023436	0.0305949152
3612.6562097167	0.0310493410
3614.5850170897	0.0303829182
3616.5138244627	0.0319654569
3618.4426318358	0.0301581696
3620.3714392088	0.0294950828
3622.3002465819	0.0322025903
3624.2290539549	0.0314800367
3626.1578613280	0.0326297916
3628.0866687010	0.0286625288
3630.0154760741	0.0266780425
3631.9442834471	0.0318822302
3633.8730908202	0.0311748739
3635.8018981932	0.0314802602
3637.7307055663	0.0320403539
3639.6595129393	0.0316093937
3641.5883203124	0.0318492614
3643.5171276854	0.0315007865
3645.4459350584	0.0318896770
3647.3747424315	0.0294198021
3649.3035498045	0.0273804367
3651.2323571776	0.0277618468
3653.1611645506	0.0316256955
3655.0899719237	0.0311662294
3657.0187792967	0.0287619047
3658.9475866698	0.0319837071
3660.8763940428	0.0313463509
3662.8052014159	0.0316852033
3664.7340087889	0.0315057375
3666.6628161620	0.0313850604
3668.5916235350	0.0307937972
3670.5204309081	0.0262613948
3672.4492382811	0.0303386096
3674.3780456541	0.0292366520
3676.3068530272	0.0253215786
3678.2356604002	0.0301199593
3680.1644677733	0.0306493156
3682.0932751463	0.0305975638
3684.0220825194	0.0312474016
3685.9508898924	0.0309350975
3687.8796972655	0.0284641571
3689.8085046385	0.0266240370
3691.7373120116	0.0296239424
3693.6661193846	0.0301418230
3695.5949267577	0.0307057612
3697.5237341307	0.0307565909
3699.4525415038	0.0302993003
3701.3813488768	0.0298138130
3703.3101562499	0.0289107282
3705.2389636229	0.0310734846
3707.1677709959	0.0299049616
3709.0965783690	0.0293518081
3711.0253857420	0.0282117017
3712.9541931151	0.0266474374
3714.8830004881	0.0299528483
3716.8118078612	0.0297513604
3718.7406152342	0.0298792459
3720.6694226073	0.0293846894
3722.5982299803	0.0286431983
3724.5270373534	0.0293878578
3726.4558447264	0.0276838951
3728.3846520995	0.0294416100
3730.3134594725	0.0291523412
3732.2422668456	0.0273677334
3734.1710742186	0.0268525444
3736.0998815916	0.0258432329
3738.0286889647	0.0269118156
3739.9574963377	0.0286366437
3741.8863037108	0.0297440588
3743.8151110838	0.0242130980
3745.7439184569	0.0232345425
3747.6727258299	0.0285460595
3749.6015332030	0.0253744554
3751.5303405760	0.0237544123
3753.4591479491	0.0263392925
3755.3879553221	0.0279198401
3757.3167626952	0.0287131071
3759.2455700682	0.0271282047
3761.1743774413	0.0278863050
3763.1031848143	0.0291525740
3765.0319921873	0.0276131779
3766.9607995604	0.0280087888
3768.8896069334	0.0278274789
3770.8184143065	0.0268436894
3772.7472216795	0.0285153221
3774.6760290526	0.0284433700
3776.6048364256	0.0285043865
3778.5336437987	0.0280657075
3780.4624511717	0.0270654447
3782.3912585448	0.0283048637
3784.3200659178	0.0277957134
3786.2488732909	0.0276270621
3788.1776806639	0.0280490629
3790.1064880370	0.0280598421
3792.0352954100	0.0278062299
3793.9641027830	0.0280325729
3795.8929101561	0.0268818587
3797.8217175291	0.0266352296
3799.7505249022	0.0276810788
3801.6793322752	0.0231581293
3803.6081396483	0.0261155479
3805.5369470213	0.0277674794
3807.4657543944	0.0237453915
3809.3945617674	0.0275343992
3811.3233691405	0.0270960387
3813.2521765135	0.0278560016
3815.1809838866	0.0255437717
3817.1097912596	0.0231328513
3819.0385986327	0.0278131440
3820.9674060057	0.0236783922
3822.8962133787	0.0245341286
3824.8250207518	0.0275426321
3826.7538281248	0.0255284216
3828.6826354979	0.0270294398
3830.6114428709	0.0261603352
3832.5402502440	0.0254107974
3834.4690576170	0.0259767100
3836.3978649901	0.0248871297
3838.3266723631	0.0228442252
3840.2554797362	0.0244804509
3842.1842871092	0.0259126797
3844.1130944823	0.0249437205
3846.0419018553	0.0265134685
3847.9707092284	0.0261155982
3849.8995166014	0.0261973105
3851.8283239745	0.0240772292
3853.7571313475	0.0192218740
3855.6859387205	0.0218678862
3857.6147460936	0.0261664093
3859.5435534666	0.0254961271
3861.4723608397	0.0253971871
3863.4011682127	0.0249160603
3865.3299755858	0.0234875455
3867.2587829588	0.0257311761
3869.1875903319	0.0239194371
3871.1163977049	0.0225007832
3873.0452050780	0.0256976634
3874.9740124510	0.0241213851
3876.9028198241	0.0254196413
3878.8316271971	0.0258304365
3880.7604345702	0.0229998492
3882.6892419432	0.0254269671
3884.6180493162	0.0241686050
3886.5468566893	0.0226725228
3888.4756640623	0.0255415384
3890.4044714354	0.0243588127
3892.3332788084	0.0232137684
3894.2620861815	0.0248962305
3896.1908935545	0.0251810662
3898.1197009276	0.0243503042
3900.0485083006	0.0233029835
3901.9773156737	0.0231326148
3903.9061230467	0.0229480471
3905.8349304198	0.0231399145
3907.7637377928	0.0247569606
3909.6925451659	0.0247053318
3911.6213525389	0.0245071538
3913.5501599119	0.0248780008
3915.4789672850	0.0242247693
3917.4077746580	0.0236436166
3919.3365820311	0.0234663039
3921.2653894041	0.0241464004
3923.1941967772	0.0241498798
3925.1230041502	0.0236813631
3927.0518115233	0.0240430571
3928.9806188963	0.0241694711
3930.9094262694	0.0236523952
3932.8382336424	0.0232429449
3934.7670410155	0.0238469057
3936.6958483885	0.0239649899
3938.6246557616	0.0238618962
3940.5534631346	0.0239643790
3942.4822705076	0.0232219249
3944.4110778807	0.0234095529
3946.3398852537	0.0237584859
3948.2686926268	0.0232220367
3950.1974999998	0.0233486593
3952.1263073729	0.0235046055
3954.0551147459	0.0233967844
3955.9839221190	0.0234424919
3957.9127294920	0.0234448612
3959.8415368651	0.0234542675
3961.7703442381	0.0231738314
3963.6991516112	0.0231452566
3965.6279589842	0.0232671052
3967.5567663573	0.0231182557
3969.4855737303	0.0231157504
3971.4143811034	0.0230490100
3973.3431884764	0.0230176523
3975.2719958494	0.0228731856
3977.2008032225	0.0228206031
3979.1296105955	0.0228940807
3981.0584179686	0.0227642916
3982.9872253416	0.0227390938
3984.9160327147	0.0226483569
3986.8448400877	0.0226921365
3988.7736474608	0.0226701610
3990.7024548338	0.0225379243
3992.6312622069	0.0225225054
3994.5600695799	0.0224935208
3996.4888769530	0.0225205328
3998.4176843260	0.0224658884
4000.3464916991	0.0224357285
4002.2752990721	0.0222502947
4004.2041064451	0.0222567320
4006.1329138182	0.0223347396
4008.0617211912	0.0221474376
4009.9905285643	0.0221787803
4011.9193359373	0.0221057385
4013.8481433104	0.0219885707
4015.7769506834	0.0219189599
4017.7057580565	0.0218752418
4019.6345654295	0.0219068788
4021.5633728026	0.0218329392
4023.4921801756	0.0217695795
4025.4209875487	0.0217332151
4027.3497949217	0.0217669047
4029.2786022948	0.0217715316
4031.2074096678	0.0216764919
4033.1362170408	0.0215401370
4035.0650244139	0.0215548612
4036.9938317869	0.0215856638
4038.9226391600	0.0214854330
4040.8514465330	0.0214845166
4042.7802539061	0.0214276817
4044.7090612791	0.0213278402
4046.6378686522	0.0213015825
4048.5666760252	0.0213007387
4050.4954833983	0.0212216359
4052.4242907713	0.0211682692
4054.3530981444	0.0211655069
4056.2819055174	0.0210759696
4058.2107128905	0.0210204981
4060.1395202635	0.0209743306
4062.0683276365	0.0209701415
4063.9971350096	0.0209012181
4065.9259423826	0.0208019353
4067.8547497557	0.0207823701
4069.7835571287	0.0207265150
4071.7123645018	0.0206821561
4073.6411718748	0.0206536986
4075.5699792479	0.0205930006
4077.4987866209	0.0204434916
4079.4275939940	0.0204360113
4081.3564013670	0.0205205716
4083.2852087401	0.0204084441
4085.2140161131	0.0203280076
4087.1428234862	0.0204014368
4089.0716308592	0.0203499384
4091.0004382323	0.0202153437
4092.9292456053	0.0201985072
4094.8580529783	0.0201463625
4096.7868603514	0.0201178510
4098.7156677244	0.0201048478
4100.6444750975	0.0200709291
4102.5732824705	0.0200371444
4104.5020898436	0.0199791081
4106.4308972166	0.0199275054
4108.3597045897	0.0198540073
4110.2885119627	0.0198685303
4112.2173193358	0.0197741967
4114.1461267088	0.0196738765
4116.0749340819	0.0197378602
4118.0037414549	0.0197558366
4119.9325488280	0.0196415670
4121.8613562010	0.0195471719
4123.7901635740	0.0195785277
4125.7189709471	0.0194966532
4127.6477783201	0.0194954146
4129.5765856932	0.0194246061
4131.5053930662	0.0193152390
4133.4342004393	0.0193561390
4135.3630078123	0.0192249510
4137.2918151854	0.0192148015
4139.2206225584	0.0191866979
4141.1494299315	0.0190620385
4143.0782373045	0.0191150568
4145.0070446776	0.0191437714
4146.9358520506	0.0190314911
4148.8646594237	0.0189212654
4150.7934667967	0.0188439731
4152.7222741697	0.0188470017
4154.6510815428	0.0189044178
4156.5798889158	0.0187531486
4158.5086962889	0.0187584795
4160.4375036619	0.0187664740
4162.3663110350	0.0186513644
4164.2951184080	0.0186784826
4166.2239257811	0.0185620319
4168.1527331541	0.0184948295
4170.0815405272	0.0185231920
4172.0103479002	0.0185342487
4173.9391552733	0.0184187926
4175.8679626463	0.0183258671
4177.7967700194	0.0183926802
4179.7255773924	0.0183747411
4181.6543847654	0.0182570033
4183.5831921385	0.0181894023
4185.5119995115	0.0182156134
4187.4408068846	0.0180885158
4189.3696142576	0.0181084163
4191.2984216307	0.0180496424
4193.2272290037	0.0179774426
4195.1560363768	0.0180678535
4197.0848437498	0.0178703275
4199.0136511229	0.0178645290
4200.9424584959	0.0178132597
4202.8712658690	0.0178126246
4204.8000732420	0.0178191513
4206.7288806151	0.0176461469
4208.6576879881	0.0177021362
4210.5864953611	0.0176224317
4212.5153027342	0.0176290292
4214.4441101072	0.0175782889
4216.3729174803	0.0175129585
4218.3017248533	0.0176102370
4220.2305322264	0.0175290238
4222.1593395994	0.0174288191
4224.0881469725	0.0174581632
4226.0169543455	0.0174467117
4227.9457617186	0.0172769111
4229.8745690916	0.0173388273
4231.8033764647	0.0172921382
4233.7321838377	0.0171522573
4235.6609912108	0.0170972906
4237.5897985838	0.0170676000
4239.5186059569	0.0171691254
4241.4474133299	0.0170254707
4243.3762207029	0.0169887692
4245.3050280760	0.0169996861
4247.2338354490	0.0170208607
4249.1626428221	0.0169740710
4251.0914501951	0.0168485232
4253.0202575682	0.0168701746
4254.9490649412	0.0167514570
4256.8778723143	0.0167587623
4258.8066796873	0.0166689996
4260.7354870604	0.0166665874
4262.6642944334	0.0166295897
4264.5931018065	0.0165313464
4266.5219091795	0.0166935101
4268.4507165526	0.0165678877
4270.3795239256	0.0164840110
4272.3083312986	0.0164613687
4274.2371386717	0.0164735559
4276.1659460447	0.0164354369
4278.0947534178	0.0164072625
4280.0235607908	0.0163397454
4281.9523681639	0.0160909742
4283.8811755369	0.0162890702
4285.8099829100	0.0162505545
4287.7387902830	0.0160460081
4289.6675976561	0.0161171779
4291.5964050291	0.0161363222
4293.5252124022	0.0161108468
4295.4540197752	0.0160250813
4297.3828271483	0.0160325821
4299.3116345213	0.0160233714
4301.2404418943	0.0159643330
4303.1692492674	0.0158272069
4305.0980566404	0.0158029161
4307.0268640135	0.0157503095
4308.9556713865	0.0157373641
4310.8844787596	0.0158177912
4312.8132861326	0.0156907141
4314.7420935057	0.0156962387
4316.6709008787	0.0155971330
4318.5997082518	0.0156026501
4320.5285156248	0.0155890118
4322.4573229979	0.0154559482
4324.3861303709	0.0154671045
4326.3149377440	0.0153796319
4328.2437451170	0.0154715683
4330.1725524900	0.0153635275
4332.1013598631	0.0152523853
4334.0301672361	0.0153362155
4335.9589746092	0.0153022446
4337.8877819822	0.0152281038
4339.8165893553	0.0151601713
4341.7453967283	0.0151581503
4343.6742041014	0.0150752291
4345.6030114744	0.0151648168
4347.5318188475	0.0151131321
4349.4606262205	0.0150159495
4351.3894335936	0.0150726251
4353.3182409666	0.0149905076
4355.2470483397	0.0149232084
4357.1758557127	0.0148436483
4359.1046630858	0.0148830712
4361.0334704588	0.0147800008
4362.9622778318	0.0147570968
4364.8910852049	0.0147480797
4366.8198925779	0.0146034500
4368.7486999510	0.0146853589
4370.6775073240	0.0146535104
4372.6063146971	0.0146664493
4374.5351220701	0.0146283610
4376.4639294432	0.0145661868
4378.3927368162	0.0145578878
4380.3215441893	0.0145104704
4382.2503515623	0.0144846579
4384.1791589354	0.0143812085
4386.1079663084	0.0143774636
4388.0367736815	0.0142729236
4389.9655810545	0.0142905694
4391.8943884275	0.0143406130
4393.8231958006	0.0142322630
4395.7520031736	0.0142467953
4397.6808105467	0.0142399641
4399.6096179197	0.0141866952
4401.5384252928	0.0141046122
4403.4672326658	0.0141120572
4405.3960400389	0.0140659641
4407.3248474119	0.0140556321
4409.2536547850	0.0140666887
4411.1824621580	0.0139946043
4413.1112695311	0.0139760692
4415.0400769041	0.0138729028
4416.9688842772	0.0138392169
4418.8976916502	0.0137913190
4420.8264990232	0.0138086528
4422.7553063963	0.0137821194
4424.6841137693	0.0136663318
4426.6129211424	0.0136789661
4428.5417285154	0.0137042888
4430.4705358885	0.0137364976
4432.3993432615	0.0135603696
4434.3281506346	0.0135731287
4436.2569580076	0.0136295799
4438.1857653807	0.0135032842
4440.1145727537	0.0135129578
4442.0433801268	0.0134217311
4443.9721874998	0.0134169087
4445.9009948729	0.0133689269
4447.8298022459	0.0133192558
4449.7586096189	0.0133132897
4451.6874169920	0.0132309161
4453.6162243650	0.0132937348
4455.5450317381	0.0132364053
4457.4738391111	0.0132093644
4459.4026464842	0.0131884199
4461.3314538572	0.0130670015
4463.2602612303	0.0131011158
4465.1890686033	0.0131021123
4467.1178759764	0.0130675342
4469.0466833494	0.0130235329
4470.9754907225	0.0129291825
4472.9042980955	0.0129842097
4474.8331054686	0.0130116064
4476.7619128416	0.0128344316
4478.6907202147	0.0127672590
4480.6195275877	0.0128013417
4482.5483349607	0.0127991140
4484.4771423338	0.0127563998
4486.4059497068	0.0126795061
4488.3347570799	0.0127273835
4490.2635644529	0.0127060972
4492.1923718260	0.0125994002
4494.1211791990	0.0126087721
4496.0499865721	0.0125733344
4497.9787939451	0.0125080198
4499.9076013182	0.0124949757
4501.8364086912	0.0125150969
4503.7652160643	0.0124868229
4505.6940234373	0.0123930182
4507.6228308104	0.0123980436
4509.5516381834	0.0123681603
4511.4804455564	0.0123117175
4513.4092529295	0.0123149622
4515.3380603025	0.0122853927
4517.2668676756	0.0122901974
4519.1956750486	0.0122302808
4521.1244824217	0.0121974181
4523.0532897947	0.0121967569
4524.9820971678	0.0121337008
4526.9109045408	0.0120848790
4528.8397119139	0.0120372968
4530.7685192869	0.0120948283
4532.6973266600	0.0120508056
4534.6261340330	0.0119190365
4536.5549414061	0.0119162872
4538.4837487791	0.0119719282
4540.4125561521	0.0119173918
4542.3413635252	0.0118243285
4544.2701708982	0.0118686222
4546.1989782713	0.0117712775
4548.1277856443	0.0117628556
4550.0565930174	0.0117747262
4551.9854003904	0.0116270948
4553.9142077635	0.0116636213
4555.8430151365	0.0116763003
4557.7718225096	0.0116325198
4559.7006298826	0.0115667842
4561.6294372557	0.0115837101
4563.5582446287	0.0115864910
4565.4870520018	0.0114943646
4567.4158593748	0.0115005607
4569.3446667478	0.0114448527
4571.2734741209	0.0114491386
4573.2022814939	0.0114531191
4575.1310888670	0.0114051644
4577.0598962400	0.0113352360
4578.9887036131	0.0113218129
4580.9175109861	0.0113974446
4582.8463183592	0.0112584904
4584.7751257322	0.0112016145
4586.7039331053	0.0111776395
4588.6327404783	0.0110467905
4590.5615478514	0.0111230919
4592.4903552244	0.0111585297
4594.4191625975	0.0110655073
4596.3479699705	0.0110426303
4598.2767773435	0.0110479556
4600.2055847166	0.0110733705
4602.1343920896	0.0110213161
4604.0631994627	0.0109720128
4605.9920068357	0.0110026225
4607.9208142088	0.0109404959
4609.8496215818	0.0109560508
4611.7784289549	0.0109178070
4613.7072363279	0.0108735375
4615.6360437010	0.0109062074
4617.5648510740	0.0107776150
4619.4936584471	0.0107634002
4621.4224658201	0.0107418969
4623.3512731932	0.0107216425
4625.2800805662	0.0107737947
4627.2088879393	0.0107435277
4629.1376953123	0.0106698303
4631.0665026853	0.0106128659
4632.9953100584	0.0106459782
4634.9241174314	0.0105623510
4636.8529248045	0.0105157681
4638.7817321775	0.0104540577
4640.7105395506	0.0104572624
4642.6393469236	0.0105721429
4644.5681542967	0.0104728667
4646.4969616697	0.0103771649
4648.4257690428	0.0103412364
4650.3545764158	0.0103921052
4652.2833837889	0.0103169195
4654.2121911619	0.0102820639
4656.1409985350	0.0102998922
4658.0698059080	0.0102160247
4659.9986132810	0.0102888513
4661.9274206541	0.0101241563
4663.8562280271	0.0101268291
4665.7850354002	0.0102745965
4667.7138427732	0.0101301782
4669.6426501463	0.0100593232
4671.5714575193	0.0100835850
4673.5002648924	0.0100993197
4675.4290722654	0.0099830125
4677.3578796385	0.0099359490
4679.2866870115	0.0099462867
4681.2154943846	0.0099483337
4683.1443017576	0.0099329324
4685.0731091307	0.0098983664
4687.0019165037	0.0099249240
4688.9307238767	0.0098466277
4690.8595312498	0.0098527856
4692.7883386228	0.0099004656
4694.7171459959	0.0098660868
4696.6459533689	0.0097745759
4698.5747607420	0.0097468365
4700.5035681150	0.0097235814
4702.4323754881	0.0096801464
4704.3611828611	0.0097552370
4706.2899902342	0.0096637439
4708.2187976072	0.0096760988
4710.1476049803	0.0097051952
4712.0764123533	0.0095475586
4714.0052197264	0.0095438240
4715.9340270994	0.0095984396
4717.8628344724	0.0095476089
4719.7916418455	0.0094511872
4721.7204492185	0.0094577260
4723.6492565916	0.0094654262
4725.5780639646	0.0094337240
4727.5068713377	0.0093924627
4729.4356787107	0.0094730379
4731.3644860838	0.0094605805
4733.2932934568	0.0093316995
4735.2221008299	0.0093283523
4737.1509082029	0.0092388280
4739.0797155760	0.0092667285
4741.0085229490	0.0092340661
4742.9373303221	0.0092446506
4744.8661376951	0.0092315581
4746.7949450682	0.0090843942
4748.7237524412	0.0091599990
4750.6525598142	0.0091082957
4752.5813671873	0.0091332141
4754.5101745603	0.0090480521
4756.4389819334	0.0090452600
4758.3677893064	0.0091656074
4760.2965966795	0.0089617502
4762.2254040525	0.0089918412
4764.1542114256	0.0089907143
4766.0830187986	0.0089207236
4768.0118261717	0.0088749472
4769.9406335447	0.0088919261
4771.8694409178	0.0089621255
4773.7982482908	0.0088508017
4775.7270556639	0.0088576935
4777.6558630369	0.0088091241
4779.5846704099	0.0087973773
4781.5134777830	0.0088660326
4783.4422851560	0.0088089984
4785.3710925291	0.0087242173
4787.2998999021	0.0087255258
4789.2287072752	0.0086678425
4791.1575146482	0.0086188558
4793.0863220213	0.0087507237
4795.0151293943	0.0086546466
4796.9439367674	0.0085871648
4798.8727441404	0.0085955001
4800.8015515135	0.0085445717
4802.7303588865	0.0085305143
4804.6591662596	0.0085230405
4806.5879736326	0.0085583432
4808.5167810056	0.0084492844
4810.4455883787	0.0084556462
4812.3743957517	0.0084602106
4814.3032031248	0.0084449304
4816.2320104978	0.0084190667
4818.1608178709	0.0083520226
4820.0896252439	0.0084171444
4822.0184326170	0.0083428929
4823.9472399900	0.0083353277
4825.8760473631	0.0082972283
4827.8048547361	0.0083001256
4829.7336621092	0.0083002057
4831.6624694822	0.0081680939
4833.5912768553	0.0082178265
4835.5200842283	0.0082023945
4837.4488916013	0.0082032327
4839.3776989744	0.0081603415
4841.3065063474	0.0080987057
4843.2353137205	0.0081253983
4845.1641210935	0.0081188381
4847.0929284666	0.0081038866
4849.0217358396	0.0080481134
4850.9505432127	0.0080275936
4852.8793505857	0.0079624057
4854.8081579588	0.0079776431
4856.7369653318	0.0079942122
4858.6657727049	0.0079178205
4860.5945800779	0.0078887288
4862.5233874510	0.0079118889
4864.4521948240	0.0078884624
4866.3810021971	0.0078954101
4868.3098095701	0.0079234643
4870.2386169431	0.0077585541
4872.1674243162	0.0078294016
4874.0962316892	0.0078257211
4876.0250390623	0.0077286894
4877.9538464353	0.0077270097
4879.8826538084	0.0075859716
4881.8114611814	0.0077391998
4883.7402685545	0.0077212029
4885.6690759275	0.0076515805
4887.5978833006	0.0076850215
4889.5266906736	0.0076280888
4891.4554980467	0.0076192105
4893.3843054197	0.0074743191
4895.3131127928	0.0075898161
4897.2419201658	0.0076053580
4899.1707275388	0.0075061829
4901.0995349119	0.0075671868
4903.0283422849	0.0075430181
4904.9571496580	0.0075077517
4906.8859570310	0.0074493363
4908.8147644041	0.0074952040
4910.7435717771	0.0074166879
4912.6723791502	0.0073538218
4914.6011865232	0.0073732072
4916.5299938963	0.0073666284
4918.4588012693	0.0073917978
4920.3876086424	0.0073069939
4922.3164160154	0.0073336526
4924.2452233885	0.0073034940
4926.1740307615	0.0072830911
4928.1028381345	0.0072882948
4930.0316455076	0.0071855080
4931.9604528806	0.0071873227
4933.8892602537	0.0071685868
4935.8180676267	0.0071499646
4937.7468749998	0.0071264990
4939.6756823728	0.0071086823
4941.6044897459	0.0071368199
4943.5332971189	0.0071831564
4945.4621044920	0.0071322871
4947.3909118650	0.0070699938
4949.3197192381	0.0071514165
4951.2485266111	0.0070410692
4953.1773339842	0.0069544911
4955.1061413572	0.0070393747
4957.0349487302	0.0069908174
4958.9637561033	0.0069503775
4960.8925634763	0.0069603939
4962.8213708494	0.0068574371
4964.7501782224	0.0068342406
4966.6789855955	0.0069260681
4968.6077929685	0.0068341633
4970.5366003416	0.0068439869
4972.4654077146	0.0069255270
4974.3942150877	0.0068303705
4976.3230224607	0.0068448177
4978.2518298338	0.0068141613
4980.1806372068	0.0067176297
4982.1094445799	0.0067101708
4984.0382519529	0.0067069130
4985.9670593259	0.0066920239
4987.8958666990	0.0066192700
4989.8246740720	0.0066270470
4991.7534814451	0.0067177466
4993.6822888181	0.0067378134
4995.6110961912	0.0066544074
4997.5399035642	0.0065990654
4999.4687109373	0.0066378545
5001.3975183103	0.0065930756
5003.3263256834	0.0065965923
5005.2551330564	0.0066019632
5007.1839404295	0.0065335212
5009.1127478025	0.0065467134
5011.0415551756	0.0064938567
5012.9703625486	0.0064676488
5014.8991699217	0.0064877803
5016.8279772947	0.0064481106
5018.7567846677	0.0063777976
5020.6855920408	0.0063558090
5022.6143994138	0.0064474475
5024.5432067869	0.0064025447
5026.4720141599	0.0062913918
5028.4008215330	0.0063585369
5030.3296289060	0.0064123673
5032.2584362791	0.0062562614
5034.1872436521	0.0062446482
5036.1160510252	0.0063255122
5038.0448583982	0.0062289196
5039.9736657713	0.0062881415
5041.9024731443	0.0062840302
5043.8312805174	0.0062144939
5045.7600878904	0.0062161759
5047.6888952634	0.0062401071
5049.6177026365	0.0062970230
5051.5465100095	0.0061500384
5053.4753173826	0.0061460659
5055.4041247556	0.0061273677
5057.3329321287	0.0060340669
5059.2617395017	0.0061182808
5061.1905468748	0.0060815490
5063.1193542478	0.0060545169
5065.0481616209	0.0060498230
5066.9769689939	0.0060294177
5068.9057763670	0.0059888824
5070.8345837400	0.0059742890
5072.7633911131	0.0059720026
5074.6921984861	0.0059614959
5076.6210058591	0.0060373372
5078.5498132322	0.0059414469
5080.4786206052	0.0058970777
5082.4074279783	0.0059199138
5084.3362353513	0.0058631445
5086.2650427244	0.0058568669
5088.1938500974	0.0058434666
5090.1226574705	0.0058638966
5092.0514648435	0.0057491371
5093.9802722166	0.0057445937
5095.9090795896	0.0058535743
5097.8378869627	0.0057441834
5099.7666943357	0.0057697566
5101.6955017088	0.0057938611
5103.6243090818	0.0056731305
5105.5531164548	0.0056908694
5107.4819238279	0.0057038078
5109.4107312009	0.0056625786
5111.3395385740	0.0056506367
5113.2683459470	0.0056606531
5115.1971533201	0.0056519140
5117.1259606931	0.0056031891
5119.0547680662	0.0056115617
5120.9835754392	0.0056428285
5122.9123828123	0.0055982308
5124.8411901853	0.0054826038
5126.7699975584	0.0055342261
5128.6988049314	0.0055776946
5130.6276123045	0.0054435646
5132.5564196775	0.0054885391
5134.4852270506	0.0054920735
5136.4140344236	0.0054549417
5138.3428417966	0.0054984810
5140.2716491697	0.0054731509
5142.2004565427	0.0054288390
5144.1292639158	0.0054047271
5146.0580712888	0.0054431264
5147.9868786619	0.0053925272
5149.9156860349	0.0054282392
5151.8444934080	0.0054015610
5153.7733007810	0.0053256191
5155.7021081541	0.0053521264
5157.6309155271	0.0052864719
5159.5597229002	0.0053697694
5161.4885302732	0.0052397540
5163.4173376463	0.0051610447
5165.3461450193	0.0052817622
5167.2749523923	0.0052288258
5169.2037597654	0.0052461433
5171.1325671384	0.0051782886
5173.0613745115	0.0052191373
5174.9901818845	0.0052479301
5176.9189892576	0.0052017509
5178.8477966306	0.0051756925
5180.7766040037	0.0051031867
5182.7054113767	0.0051804343
5184.6342187498	0.0051750978
5186.5630261228	0.0051428620
5188.4918334959	0.0050820801
5190.4206408689	0.0051000668
5192.3494482420	0.0051507764
5194.2782556150	0.0051242681
5196.2070629880	0.0051249051
5198.1358703611	0.0050189132
5200.0646777341	0.0050645429
5201.9934851072	0.0050852611
5203.9222924802	0.0050512748
5205.8510998533	0.0049814885
5207.7799072263	0.0048482744
5209.7087145994	0.0048787063
5211.6375219724	0.0049053309
5213.5663293455	0.0050038560
5215.4951367185	0.0049748141
5217.4239440916	0.0048739216
5219.3527514646	0.0048835790
5221.2815588377	0.0048801098
5223.2103662107	0.0048898184
5225.1391735837	0.0047984621
5227.0679809568	0.0048415884
5228.9967883298	0.0049257064
5230.9255957029	0.0047950456
5232.8544030759	0.0047642821
5234.7832104490	0.0048368950
5236.7120178220	0.0048157941
5238.6408251951	0.0048050694
5240.5696325681	0.0047288965
5242.4984399412	0.0046175518
5244.4272473142	0.0046658339
5246.3560546873	0.0047086263
5248.2848620603	0.0046365014
5250.2136694334	0.0046788352
5252.1424768064	0.0048241811
5254.0712841795	0.0046516908
5256.0000915525	0.0046045822
5257.9288989255	0.0047317310
5259.8577062986	0.0045774849
5261.7865136716	0.0045905099
5263.7153210447	0.0046100561
5265.6441284177	0.0045568086
5267.5729357908	0.0045776116
5269.5017431638	0.0045773769
5271.4305505369	0.0045836819
5273.3593579099	0.0046056304
5275.2881652830	0.0045988690
5277.2169726560	0.0045141792
5279.1457800291	0.0045721983
5281.0745874021	0.0045217145
5283.0033947752	0.0045091044
5284.9322021482	0.0044793203
5286.8610095212	0.0043859463
5288.7898168943	0.0045074429
5290.7186242673	0.0043855053
5292.6474316404	0.0044295811
5294.5762390134	0.0045045852
5296.5050463865	0.0044227345
5298.4338537595	0.0044542230
5300.3626611326	0.0044034370
5302.2914685056	0.0044417814
5304.2202758787	0.0043899934
5306.1490832517	0.0043668682
5308.0778906248	0.0043574777
5310.0066979978	0.0043449416
5311.9355053709	0.0043941680
5313.8643127439	0.0043393625
5315.7931201169	0.0043499451
5317.7219274900	0.0043670889
5319.6507348630	0.0043275608
5321.5795422361	0.0042763287
5323.5083496091	0.0043026693
5325.4371569822	0.0042102439
5327.3659643552	0.0041757831
5329.2947717283	0.0041807536
5331.2235791013	0.0041922955
5333.1523864744	0.0042861812
5335.0811938474	0.0041265553
5337.0100012205	0.0041585779
5338.9388085935	0.0040451954
5340.8676159666	0.0040656268
5342.7964233396	0.0041833203
5344.7252307126	0.0039554611
5346.6540380857	0.0041526896
5348.5828454587	0.0040839212
5350.5116528318	0.0040434469
5352.4404602048	0.0040849140
5354.3692675779	0.0039073173
5356.2980749509	0.0040344931
5358.2268823240	0.0040045404
5360.1556896970	0.0040364256
5362.0844970701	0.0039948896
5364.0133044431	0.0039821398
5365.9421118162	0.0040570153
5367.8709191892	0.0039980765
5369.7997265623	0.0040263832
5371.7285339353	0.0039228620
5373.6573413083	0.0039543705
5375.5861486814	0.0039418377
5377.5149560544	0.0038369996
5379.4437634275	0.0038901553
5381.3725708005	0.0039459467
5383.3013781736	0.0039264462
5385.2301855466	0.0038843122
5387.1589929197	0.0039243205
5389.0878002927	0.0039060712
5391.0166076658	0.0039098207
5392.9454150388	0.0038034972
5394.8742224119	0.0037047777
5396.8030297849	0.0037531522
5398.7318371580	0.0037950790
5400.6606445310	0.0038428067
5402.5894519041	0.0037985207
5404.5182592771	0.0038176444
5406.4470666501	0.0038036625
5408.3758740232	0.0037407749
5410.3046813962	0.0037315849
5412.2334887693	0.0037312992
5414.1622961423	0.0036905599
5416.0911035154	0.0037053013
5418.0199108884	0.0037878405
5419.9487182615	0.0036898078
5421.8775256345	0.0037158141
5423.8063330076	0.0037377588
5425.7351403806	0.0037221669
5427.6639477537	0.0037232346
5429.5927551267	0.0035790601
5431.5215624998	0.0036552320
5433.4503698728	0.0036227661
5435.3791772458	0.0035326506
5437.3079846189	0.0036902791
5439.2367919919	0.0036869317
5441.1655993650	0.0035569961
5443.0944067380	0.0035650849
5445.0232141111	0.0035599624
5446.9520214841	0.0035321377
5448.8808288572	0.0035819642
5450.8096362302	0.0035524657
5452.7384436033	0.0036219698
5454.6672509763	0.0036220998
5456.5960583494	0.0035305219
5458.5248657224	0.0035159164
5460.4536730955	0.0034419491
5462.3824804685	0.0035055415
5464.3112878415	0.0035207269
5466.2400952146	0.0035374083
5468.1689025876	0.0035087774
5470.0977099607	0.0034374259
5472.0265173337	0.0035111569
5473.9553247068	0.0033621960
5475.8841320798	0.0033234917
5477.8129394529	0.0034371149
5479.7417468259	0.0034419787
5481.6705541990	0.0034192838
5483.5993615720	0.0033833473
5485.5281689451	0.0034227287
5487.4569763181	0.0033951472
5489.3857836912	0.0034184016
5491.3145910642	0.0033912542
5493.2433984372	0.0032808590
5495.1722058103	0.0033356983
5497.1010131833	0.0033906368
5499.0298205564	0.0033961423
5500.9586279294	0.0033261916
5502.8874353025	0.0032804045
5504.8162426755	0.0032574474
5506.7450500486	0.0032567494
5508.6738574216	0.0033478849
5510.6026647947	0.0033399630
5512.5314721677	0.0033782176
5514.4602795408	0.0033543406
5516.3890869138	0.0032590281
5518.3178942869	0.0033064000
5520.2467016599	0.0032379017
5522.1755090330	0.0032207340
5524.1043164060	0.0032949753
5526.0331237790	0.0031797504
5527.9619311521	0.0031526645
5529.8907385251	0.0032729662
5531.8195458982	0.0032013459
5533.7483532712	0.0031910923
5535.6771606443	0.0032402626
5537.6059680173	0.0030499988
5539.5347753904	0.0030918254
5541.4635827634	0.0031646588
5543.3923901365	0.0031136372
5545.3211975095	0.0032175099
5547.2500048826	0.0031492119
5549.1788122556	0.0030991717
5551.1076196287	0.0030900552
5553.0364270017	0.0030589881
5554.9652343747	0.0031045568
5556.8940417478	0.0030715661
5558.8228491208	0.0030666599
5560.7516564939	0.0030822740
5562.6804638669	0.0031092737
5564.6092712400	0.0030900161
5566.5380786130	0.0030817005
5568.4668859861	0.0030505289
5570.3956933591	0.0029640167
5572.3245007322	0.0030274594
5574.2533081052	0.0030348829
5576.1821154783	0.0030077035
5578.1109228513	0.0030454192
5580.0397302244	0.0030363156
5581.9685375974	0.0030145366
5583.8973449704	0.0030146569
5585.8261523435	0.0029815645
5587.7549597165	0.0029682845
5589.6837670896	0.0029687418
5591.6125744626	0.0029215075
5593.5413818357	0.0030018974
5595.4701892087	0.0029736585
5597.3989965818	0.0029231845
5599.3278039548	0.0029638465
5601.2566113279	0.0028659026
5603.1854187009	0.0028609724
5605.1142260740	0.0028617750
5607.0430334470	0.0028806017
5608.9718408201	0.0028850071
5610.9006481931	0.0028447737
5612.8294555661	0.0028686088
5614.7582629392	0.0028336709
5616.6870703122	0.0028930954
5618.6158776853	0.0028624316
5620.5446850583	0.0028120507
5622.4734924314	0.0028873910
5624.4022998044	0.0027791967
5626.3311071775	0.0027337419
5628.2599145505	0.0028440380
5630.1887219236	0.0027903323
5632.1175292966	0.0027382798
5634.0463366697	0.0027924231
5635.9751440427	0.0027607754
5637.9039514158	0.0027597379
5639.8327587888	0.0027416386
5641.7615661619	0.0027351317
5643.6903735349	0.0027694728
5645.6191809079	0.0027134505
5647.5479882810	0.0027269206
5649.4767956540	0.0027327118
5651.4056030271	0.0027331794
5653.3344104001	0.0027308597
5655.2632177732	0.0027141520
5657.1920251462	0.0027161120
5659.1208325193	0.0026606871
5661.0496398923	0.0026518989
5662.9784472654	0.0026242100
5664.9072546384	0.0026429931
5666.8360620115	0.0026462683
5668.7648693845	0.0026175838
5670.6936767576	0.0026756073
5672.6224841306	0.0026047416
5674.5512915036	0.0025485852
5676.4800988767	0.0025778068
5678.4089062497	0.0025737477
5680.3377136228	0.0025779451
5682.2665209958	0.0026240372
5684.1953283689	0.0026563720
5686.1241357419	0.0025619292
5688.0529431150	0.0025225496
5689.9817504880	0.0025448985
5691.9105578611	0.0025211512
5693.8393652341	0.0025295047
5695.7681726072	0.0025123858
5697.6969799802	0.0025338531
5699.6257873533	0.0025874632
5701.5545947263	0.0025567641
5703.4834020993	0.0025154597
5705.4122094724	0.0025031557
5707.3410168454	0.0025082896
5709.2698242185	0.0025374577
5711.1986315915	0.0025604768
5713.1274389646	0.0024543081
5715.0562463376	0.0024616201
5716.9850537107	0.0025510811
5718.9138610837	0.0024032893
5720.8426684568	0.0024342202
5722.7714758298	0.0024478729
5724.7002832029	0.0023892166
5726.6290905759	0.0024939314
5728.5578979490	0.0024495553
5730.4867053220	0.0024750042
5732.4155126950	0.0023865961
5734.3443200681	0.0023325118
5736.2731274411	0.0024255528
5738.2019348142	0.0023639475
5740.1307421872	0.0024102593
5742.0595495603	0.0023702225
5743.9883569333	0.0023665661
5745.9171643064	0.0023711100
5747.8459716794	0.0023215038
5749.7747790525	0.0023936057
5751.7035864255	0.0023082183
5753.6323937986	0.0022441845
5755.5612011716	0.0023152945
5757.4900085447	0.0023643621
5759.4188159177	0.0022711977
5761.3476232907	0.0022926074
5763.2764306638	0.0023937919
5765.2052380368	0.0022970713
5767.1340454099	0.0022914438
5769.0628527829	0.0022837250
5770.9916601560	0.0022364464
5772.9204675290	0.0022439323
5774.8492749021	0.0022556982
5776.7780822751	0.0022524125
5778.7068896482	0.0022519175
5780.6356970212	0.0022784467
5782.5645043943	0.0022670454
5784.4933117673	0.0022681921
5786.4221191404	0.0021922968
5788.3509265134	0.0021650544
5790.2797338865	0.0022106885
5792.2085412595	0.0021866318
5794.1373486325	0.0021694724
5796.0661560056	0.0021575687
5797.9949633786	0.0021388093
5799.9237707517	0.0021485696
5801.8525781247	0.0021485197
5803.7813854978	0.0020909845
5805.7101928708	0.0022098958
5807.6390002439	0.0022386448
5809.5678076169	0.0021720524
5811.4966149900	0.0022033853
5813.4254223630	0.0020871426
5815.3542297361	0.0021568267
5817.2830371091	0.0021443097
5819.2118444822	0.0020074830
5821.1406518552	0.0021062871
5823.0694592282	0.0021459437
5824.9982666013	0.0020874422
5826.9270739743	0.0020688439
5828.8558813474	0.0021246313
5830.7846887204	0.0020255656
5832.7134960935	0.0020282455
5834.6423034665	0.0021196746
5836.5711108396	0.0019823899
5838.4999182126	0.0019669009
5840.4287255857	0.0020423834
5842.3575329587	0.0020475248
5844.2863403318	0.0020022676
5846.2151477048	0.0020028756
5848.1439550779	0.0020066961
5850.0727624509	0.0019786013
5852.0015698239	0.0019611435
5853.9303771970	0.0019375419
5855.8591845700	0.0020115336
5857.7879919431	0.0019805999
5859.7167993161	0.0019052089
5861.6456066892	0.0019388767
5863.5744140622	0.0019348984
5865.5032214353	0.0018878111
5867.4320288083	0.0019051440
5869.3608361814	0.0019292759
5871.2896435544	0.0018924710
5873.2184509275	0.0019261254
5875.1472583005	0.0018968137
5877.0760656736	0.0018641665
5879.0048730466	0.0019253704
5880.9336804196	0.0019263255
5882.8624877927	0.0018530170
5884.7912951657	0.0018234963
5886.7201025388	0.0019035509
5888.6489099118	0.0019104064
5890.5777172849	0.0019040316
5892.5065246579	0.0019413615
5894.4353320310	0.0019125346
5896.3641394040	0.0017964754
5898.2929467771	0.0017827218
5900.2217541501	0.0018667278
5902.1505615232	0.0018380925
5904.0793688962	0.0018558094
5906.0081762693	0.0018514225
5907.9369836423	0.0018644676
5909.8657910154	0.0018676206
5911.7945983884	0.0017911224
5913.7234057614	0.0018006035
5915.6522131345	0.0017969166
5917.5810205075	0.0018185775
5919.5098278806	0.0017701925
5921.4386352536	0.0017558836
5923.3674426267	0.0018098406
5925.2962499997	0.0017716401
5927.2250573728	0.0017761590
5929.1538647458	0.0017652104
5931.0826721189	0.0017303975
5933.0114794919	0.0017153646
5934.9402868650	0.0017606879
5936.8690942380	0.0017642584
5938.7979016111	0.0017680139
5940.7267089841	0.0017635570
5942.6555163571	0.0016772298
5944.5843237302	0.0017589617
5946.5131311032	0.0017434184
5948.4419384763	0.0016897272
5950.3707458493	0.0017658065
5952.2995532224	0.0016984550
5954.2283605954	0.0016937444
5956.1571679685	0.0017174911
5958.0859753415	0.0016497679
5960.0147827146	0.0016732195
5961.9435900876	0.0016883239
5963.8723974607	0.0016819177
5965.8012048337	0.0016731017
5967.7300122068	0.0016305589
5969.6588195798	0.0016650322
5971.5876269528	0.0016123569
5973.5164343259	0.0015864332
5975.4452416989	0.0016654793
5977.3740490720	0.0016079277
5979.3028564450	0.0015846880
5981.2316638181	0.0016336006
5983.1604711911	0.0016396618
5985.0892785642	0.0016122151
5987.0180859372	0.0016512889
5988.9468933103	0.0015961303
5990.8757006833	0.0015506030
5992.8045080564	0.0016440265
5994.7333154294	0.0015615653
5996.6621228025	0.0015960145
5998.5909301755	0.0015908640
6000.5197375485	0.0015733371
