399.2631262207	0.0015947660
401.1919335938	0.0021437937
403.1207409668	0.0024106102
405.0495483398	0.0026752218
406.9783557129	0.0029376163
408.9071630859	0.0027475760
410.8359704590	0.0028870434
412.7647778320	0.0032248148
414.6935852051	0.0027223015
416.6223925781	0.0027295994
418.5511999512	0.0026826162
420.4800073242	0.0026537091
422.4088146973	0.0035786971
424.3376220703	0.0030254321
426.2664294434	0.0031107906
428.1952368164	0.0035485686
430.1240441895	0.0033496479
432.0528515625	0.0037719419
433.9816589355	0.0033259131
435.9104663086	0.0032585743
437.8392736816	0.0030326950
439.7680810547	0.0027913025
441.6968884277	0.0029060263
443.6256958008	0.0025317045
445.5545031738	0.0028074307
447.4833105469	0.0027406646
449.4121179199	0.0021246260
451.3409252930	0.0019150821
453.2697326660	0.0023390967
455.1985400391	0.0023082024
457.1273474121	0.0021904483
459.0561547852	0.0022470239
460.9849621582	0.0018180882
462.9137695313	0.0017610225
464.8425769043	0.0013655727
466.7713842773	0.0014904942
468.7001916504	0.0016500881
470.6289990234	0.0017067136
472.5578063965	0.0016077159
474.4866137695	0.0006745431
476.4154211426	0.0015031749
478.3442285156	0.0015284405
480.2730358887	0.0003893590
482.2018432617	0.0004798425
484.1306506348	0.0007247612
486.0594580078	0.0007790623
487.9882653809	0.0005679537
489.9170727539	0.0007738794
491.8458801270	0.0004878661
493.7746875000	0.0002999101
495.7034948730	0.0001457953
497.6323022461	0.0000562244
499.5611096191	0.0007508713
501.4899169922	0.0003473979
503.4187243652	0.0001646013
505.3475317383	0.0001238304
507.2763391113	0.0002096796
509.2051464844	0.0002112890
511.1339538574	-0.0002751228
513.0627612305	0.0004161499
514.9915686035	0.0001312521
516.9203759766	0.0002912288
518.8491833496	0.0008906392
520.7779907227	0.0004486722
522.7067980957	0.0004906893
524.6356054688	0.0002764956
526.5644128418	0.0003147399
528.4932202148	0.0001639332
530.4220275879	0.0001461740
532.3508349609	0.0003683464
534.2796423340	0.0002608299
536.2084497070	0.0005076283
538.1372570801	0.0005170748
540.0660644531	0.0004921335
541.9948718262	0.0002714135
543.9236791992	0.0003340771
545.8524865723	0.0003687637
547.7812939453	0.0000465643
549.7101013184	0.0004191076
551.6389086914	0.0004928276
553.5677160645	0.0004119163
555.4965234375	0.0005523587
557.4253308105	0.0003782434
559.3541381836	0.0005771083
561.2829455566	0.0006177382
563.2117529297	0.0005622967
565.1405603027	0.0006514996
567.0693676758	0.0002647061
568.9981750488	0.0006116063
570.9269824219	0.0005749515
572.8557897949	0.0001150716
574.7845971680	0.0007594588
576.7134045410	0.0005164973
578.6422119141	0.0000962382
580.5710192871	0.0003336909
582.4998266602	0.0002569748
584.4286340332	0.0003046304
586.3574414063	0.0003690073
588.2862487793	0.0003052200
590.2150561523	0.0005120718
592.1438635254	0.0006491212
594.0726708984	0.0002787314
596.0014782715	0.0006556491
597.9302856445	0.0006186912
599.8590930176	0.0001800188
601.7879003906	0.0004773419
603.7167077637	0.0000250900
605.6455151367	0.0002240993
607.5743225098	0.0001667000
609.5031298828	-0.0000695979
611.4319372559	0.0004140510
613.3607446289	0.0004064982
615.2895520020	-0.0000193299
617.2183593750	-0.0000668936
619.1471667480	0.0000771053
621.0759741211	0.0000547409
623.0047814941	0.0000122971
624.9335888672	-0.0002177414
626.8623962402	-0.0000778364
628.7912036133	-0.0000646962
630.7200109863	0.0005636906
632.6488183594	0.0017274355
634.5776257324	0.0021970095
636.5064331055	0.0025566616
638.4352404785	0.0024977280
640.3640478516	0.0023454428
642.2928552246	0.0026146125
644.2216625977	0.0028276835
646.1504699707	0.0034376523
648.0792773438	0.0037106704
650.0080847168	0.0037153885
651.9368920898	0.0040924898
653.8656994629	0.0039607766
655.7945068359	0.0043222364
657.7233142090	0.0046725748
659.6521215820	0.0047625056
661.5809289551	0.0051955851
663.5097363281	0.0049861912
665.4385437012	0.0051221475
667.3673510742	0.0047328505
669.2961584473	0.0047817249
671.2249658203	0.0058841892
673.1537731934	0.0057748239
675.0825805664	0.0061329040
677.0113879395	0.0065114740
678.9401953125	0.0063290726
680.8690026855	0.0067151356
682.7978100586	0.0069571608
684.7266174316	0.0068842084
686.6554248047	0.0066788318
688.5842321777	0.0064266291
690.5130395508	0.0066043315
692.4418469238	0.0072257575
694.3706542969	0.0074517094
696.2994616699	0.0084964428
698.2282690430	0.0100173717
700.1570764160	0.0105119217
702.0858837891	0.0102925384
704.0146911621	0.0095068384
705.9434985352	0.0084973294
707.8723059082	0.0070199752
709.8011132813	0.0058322335
711.7299206543	0.0041244309
713.6587280273	0.0023137452
715.5875354004	0.0014861961
717.5163427734	0.0006834129
719.4451501465	0.0007408741
721.3739575195	0.0004390251
723.3027648926	0.0003156801
725.2315722656	0.0004484263
727.1603796387	0.0001669333
729.0891870117	0.0003572930
731.0179943848	-0.0000806698
732.9468017578	0.0000841693
734.8756091309	0.0002281021
736.8044165039	-0.0000964104
738.7332238770	0.0003494053
740.6620312500	0.0003667977
742.5908386230	0.0000704144
744.5196459961	-0.0000359291
746.4484533691	0.0000712788
748.3772607422	0.0002134098
750.3060681152	0.0004592071
752.2348754883	0.0004112955
754.1636828613	0.0002316832
756.0924902344	0.0002770395
758.0212976074	0.0000161018
759.9501049805	0.0001125623
761.8789123535	0.0002894126
763.8077197266	0.0005993296
765.7365270996	0.0008806025
767.6653344727	0.0005435572
769.5941418457	0.0004053068
771.5229492188	0.0004785645
773.4517565918	0.0005148919
775.3805639648	0.0005425794
777.3093713379	0.0007117753
779.2381787109	0.0005543666
781.1669860840	0.0005356701
783.0957934570	0.0006739214
785.0246008301	0.0005073863
786.9534082031	0.0005465931
788.8822155762	0.0005524339
790.8110229492	0.0007441102
792.7398303223	0.0006701496
794.6686376953	0.0005746334
796.5974450684	0.0008266553
798.5262524414	0.0012556772
800.4550598145	0.0015139738
802.3838671875	0.0010720189
804.3126745605	0.0009718036
806.2414819336	0.0008918844
808.1702893066	0.0008158856
810.0990966797	0.0008150885
812.0279040527	0.0004803330
813.9567114258	0.0003111793
815.8855187988	0.0004334455
817.8143261719	0.0004507597
819.7431335449	0.0002552070
821.6719409180	0.0005575057
823.6007482910	0.0007199944
825.5295556641	0.0007744227
827.4583630371	0.0008182178
829.3871704102	0.0011984126
831.3159777832	0.0016692935
833.2447851563	0.0015218169
835.1735925293	0.0021252232
837.1023999023	0.0022992450
839.0312072754	0.0020034430
840.9600146484	0.0020905791
842.8888220215	0.0019143652
844.8176293945	0.0015262917
846.7464367676	0.0013563735
848.6752441406	0.0015696846
850.6040515137	0.0012888580
852.5328588867	0.0013408305
854.4616662598	0.0012554888
856.3904736328	0.0011124811
858.3192810059	0.0012106383
860.2480883789	0.0007417459
862.1768957520	0.0007908430
864.1057031250	0.0007327651
866.0345104980	0.0006042637
867.9633178711	0.0004657370
869.8921252441	0.0005789544
871.8209326172	0.0008428859
873.7497399902	0.0004675917
875.6785473633	0.0005193603
877.6073547363	0.0004293392
879.5361621094	0.0003149331
881.4649694824	0.0005069989
883.3937768555	0.0005492648
885.3225842285	0.0004291588
887.2513916016	0.0004859409
889.1801989746	0.0006077798
891.1090063477	0.0005134434
893.0378137207	0.0006345671
894.9666210938	0.0003785844
896.8954284668	0.0005077992
898.8242358398	0.0005780662
900.7530432129	0.0003919986
902.6818505859	0.0006038498
904.6106579590	0.0003972573
906.5394653320	0.0007580637
908.4682727051	0.0011645789
910.3970800781	0.0009060391
912.3258874512	0.0007523523
914.2546948242	0.0010013399
916.1835021973	0.0010231260
918.1123095703	0.0013630093
920.0411169434	0.0018188945
921.9699243164	0.0013962011
923.8987316895	0.0018548009
925.8275390625	0.0020664742
927.7563464355	0.0022669150
929.6851538086	0.0026740511
931.6139611816	0.0021792906
933.5427685547	0.0026227725
935.4715759277	0.0027660634
937.4003833008	0.0028740685
939.3291906738	0.0034206025
941.2579980469	0.0034211928
943.1868054199	0.0035166866
945.1156127930	0.0034011928
947.0444201660	0.0035151588
948.9732275391	0.0034985212
950.9020349121	0.0032301813
952.8308422852	0.0033354769
954.7596496582	0.0032102796
956.6884570313	0.0031677000
958.6172644043	0.0032820678
960.5460717773	0.0031303959
962.4748791504	0.0032193237
964.4036865234	0.0032133590
966.3324938965	0.0033799750
968.2613012695	0.0038130865
970.1901086426	0.0037695910
972.1189160156	0.0040279469
974.0477233887	0.0040630326
975.9765307617	0.0042870408
977.9053381348	0.0048381072
979.8341455078	0.0050464468
981.7629528809	0.0057533169
983.6917602539	0.0062409723
985.6205676270	0.0070362841
987.5493750000	0.0078091607
989.4781823730	0.0085842507
991.4069897461	0.0099582970
993.3357971191	0.0105663668
995.2646044922	0.0114140641
997.1934118652	0.0123730693
999.1222192383	0.0132543221
1001.0510266113	0.0146062542
1002.9798339844	0.0155138867
1004.9086413574	0.0164725855
1006.8374487305	0.0177300423
1008.7662561035	0.0186816100
1010.6950634766	0.0198528301
1012.6238708496	0.0211261939
1014.5526782227	0.0217465367
1016.4814855957	0.0228752363
1018.4102929688	0.0242824461
1020.3391003418	0.0253041871
1022.2679077148	0.0264128484
1024.1967150879	0.0272685848
1026.1255224609	0.0284534134
1028.0543298340	0.0296386033
1029.9831372070	0.0302813705
1031.9119445801	0.0309269931
1033.8407519531	0.0316211134
1035.7695593262	0.0320265517
1037.6983666992	0.0322048366
1039.6271740723	0.0325576514
1041.5559814453	0.0326773301
1043.4847888184	0.0322960019
1045.4135961914	0.0316838101
1047.3424035645	0.0312829614
1049.2712109375	0.0309409592
1051.2000183105	0.0303745382
1053.1288256836	0.0297876541
1055.0576330566	0.0291720927
1056.9864404297	0.0285021849
1058.9152478027	0.0277320966
1060.8440551758	0.0269803219
1062.7728625488	0.0262178965
1064.7016699219	0.0253182780
1066.6304772949	0.0242110342
1068.5592846680	0.0233148187
1070.4880920410	0.0223679431
1072.4168994141	0.0212732852
1074.3457067871	0.0204644315
1076.2745141602	0.0192871671
1078.2033215332	0.0184631534
1080.1321289062	0.0178177804
1082.0609362793	0.0168579668
1083.9897436523	0.0160489921
1085.9185510254	0.0151980165
1087.8473583984	0.0146068782
1089.7761657715	0.0139412507
1091.7049731445	0.0134173557
1093.6337805176	0.0127141895
1095.5625878906	0.0122360773
1097.4913952637	0.0121029373
1099.4202026367	0.0113240220
1101.3490100098	0.0113883605
1103.2778173828	0.0112106316
1105.2066247559	0.0105874911
1107.1354321289	0.0106765572
1109.0642395019	0.0103348764
1110.9930468750	0.0104138609
1112.9218542480	0.0103800278
1114.8506616211	0.0099967457
1116.7794689941	0.0101929139
1118.7082763672	0.0099943401
1120.6370837402	0.0100657092
1122.5658911133	0.0104402984
1124.4946984863	0.0102648782
1126.4235058594	0.0103434958
1128.3523132324	0.0107116383
1130.2811206055	0.0109340791
1132.2099279785	0.0110375248
1134.1387353516	0.0113818534
1136.0675427246	0.0121346619
1137.9963500977	0.0128373373
1139.9251574707	0.0133892372
1141.8539648437	0.0141725298
1143.7827722168	0.0152472351
1145.7115795898	0.0161799192
1147.6403869629	0.0171201862
1149.5691943359	0.0180785470
1151.4980017090	0.0190072395
1153.4268090820	0.0200293176
1155.3556164551	0.0209476799
1157.2844238281	0.0217130296
1159.2132312012	0.0223363116
1161.1420385742	0.0233942308
1163.0708459473	0.0242998041
1164.9996533203	0.0249956120
1166.9284606934	0.0260265581
1168.8572680664	0.0269800890
1170.7860754394	0.0281327572
1172.7148828125	0.0290365256
1174.6436901855	0.0300597232
1176.5724975586	0.0312552638
1178.5013049316	0.0323976874
1180.4301123047	0.0337094329
1182.3589196777	0.0349816829
1184.2877270508	0.0366605669
1186.2165344238	0.0381903499
1188.1453417969	0.0399156064
1190.0741491699	0.0418411009
1192.0029565430	0.0438664667
1193.9317639160	0.0459013991
1195.8605712891	0.0477353968
1197.7893786621	0.0501531810
1199.7181860351	0.0521872044
1201.6469934082	0.0544240102
1203.5758007812	0.0567316711
1205.5046081543	0.0586814135
1207.4334155273	0.0607716739
1209.3622229004	0.0626384616
1211.2910302734	0.0647845939
1213.2198376465	0.0663610399
1215.1486450195	0.0680699646
1217.0774523926	0.0698664635
1219.0062597656	0.0709374100
1220.9350671387	0.0720326006
1222.8638745117	0.0726851970
1224.7926818848	0.0731763095
1226.7214892578	0.0738310665
1228.6502966308	0.0743619502
1230.5791040039	0.0744166821
1232.5079113769	0.0747319311
1234.4367187500	0.0750657618
1236.3655261230	0.0747713745
1238.2943334961	0.0747110844
1240.2231408691	0.0745997131
1242.1519482422	0.0742260367
1244.0807556152	0.0738976970
1246.0095629883	0.0736867785
1247.9383703613	0.0731048584
1249.8671777344	0.0726442486
1251.7959851074	0.0721134394
1253.7247924805	0.0711553842
1255.6535998535	0.0704289973
1257.5824072266	0.0694106594
1259.5112145996	0.0682719648
1261.4400219726	0.0670640320
1263.3688293457	0.0663373917
1265.2976367187	0.0656021237
1267.2264440918	0.0648028105
1269.1552514648	0.0641086921
1271.0840588379	0.0628783256
1273.0128662109	0.0621725433
1274.9416735840	0.0608492158
1276.8704809570	0.0595287010
1278.7992883301	0.0583728999
1280.7280957031	0.0570202768
1282.6569030762	0.0562980697
1284.5857104492	0.0550660267
1286.5145178223	0.0540836044
1288.4433251953	0.0531444810
1290.3721325683	0.0523875244
1292.3009399414	0.0517944172
1294.2297473144	0.0512883998
1296.1585546875	0.0510902777
1298.0873620605	0.0508928597
1300.0161694336	0.0513684973
1301.9449768066	0.0514356196
1303.8737841797	0.0518403649
1305.8025915527	0.0523285121
1307.7313989258	0.0529408082
1309.6602062988	0.0541246422
1311.5890136719	0.0547997430
1313.5178210449	0.0557688028
1315.4466284180	0.0568461716
1317.3754357910	0.0585385635
1319.3042431640	0.0600946881
1321.2330505371	0.0618806109
1323.1618579101	0.0639593005
1325.0906652832	0.0653921813
1327.0194726562	0.0675445646
1328.9482800293	0.0692236498
1330.8770874023	0.0709646717
1332.8058947754	0.0728300512
1334.7347021484	0.0740806162
1336.6635095215	0.0748897418
1338.5923168945	0.0745048672
1340.5211242676	0.0755321532
1342.4499316406	0.0779810250
1344.3787390137	0.0784983337
1346.3075463867	0.0783095807
1348.2363537597	0.0782087967
1350.1651611328	0.0776666403
1352.0939685058	0.0776477158
1354.0227758789	0.0766361654
1355.9515832519	0.0759255588
1357.8803906250	0.0756846294
1359.8091979980	0.0743406266
1361.7380053711	0.0719238967
1363.6668127441	0.0710304379
1365.5956201172	0.0736666471
1367.5244274902	0.0720887482
1369.4532348633	0.0712193251
1371.3820422363	0.0723072588
1373.3108496094	0.0689041317
1375.2396569824	0.0694061816
1377.1684643555	0.0706756487
1379.0972717285	0.0704294592
1381.0260791015	0.0704003796
1382.9548864746	0.0703203380
1384.8836938476	0.0703774095
1386.8125012207	0.0675522238
1388.7413085937	0.0689529479
1390.6701159668	0.0734277591
1392.5989233398	0.0719993263
1394.5277307129	0.0683386028
1396.4565380859	0.0710505843
1398.3853454590	0.0714091808
1400.3141528320	0.0707519799
1402.2429602051	0.0753541067
1404.1717675781	0.0720111802
1406.1005749512	0.0723204464
1408.0293823242	0.0745332167
1409.9581896972	0.0722836405
1411.8869970703	0.0733075812
1413.8158044433	0.0710145384
1415.7446118164	0.0720510036
1417.6734191894	0.0660744458
1419.6022265625	0.0605952293
1421.5310339355	0.0671257377
1423.4598413086	0.0651869997
1425.3886486816	0.0634045899
1427.3174560547	0.0634332523
1429.2462634277	0.0594730303
1431.1750708008	0.0575239509
1433.1038781738	0.0578002036
1435.0326855469	0.0534770936
1436.9614929199	0.0465740189
1438.8903002929	0.0511337817
1440.8191076660	0.0519842282
1442.7479150390	0.0486136898
1444.6767224121	0.0504516140
1446.6055297851	0.0472205468
1448.5343371582	0.0473844148
1450.4631445312	0.0488932058
1452.3919519043	0.0498754941
1454.3207592773	0.0516334288
1456.2495666504	0.0446764827
1458.1783740234	0.0468051024
1460.1071813965	0.0594116524
1462.0359887695	0.0626799986
1463.9647961426	0.0633351058
1465.8936035156	0.0661613643
1467.8224108886	0.0741609931
1469.7512182617	0.0793781281
1471.6800256347	0.0731786191
1473.6088330078	0.0772246271
1475.5376403808	0.0865150020
1477.4664477539	0.0928972811
1479.3952551269	0.1006905735
1481.3240625000	0.1027594507
1483.2528698730	0.1087241620
1485.1816772461	0.1122245193
1487.1104846191	0.1117912903
1489.0392919922	0.1123373285
1490.9680993652	0.1139297187
1492.8969067383	0.1284502745
1494.8257141113	0.1263697743
1496.7545214843	0.1169705987
1498.6833288574	0.1298587024
1500.6121362304	0.1335609406
1502.5409436035	0.1415753216
1504.4697509765	0.1352048665
1506.3985583496	0.1060418263
1508.3273657226	0.1251023412
1510.2561730957	0.1414374113
1512.1849804687	0.1378631145
1514.1137878418	0.1472432911
1516.0425952148	0.1358746886
1517.9714025879	0.1414262950
1519.9002099609	0.1362861544
1521.8290173340	0.1224909499
1523.7578247070	0.1437716484
1525.6866320801	0.1414649785
1527.6154394531	0.1416263580
1529.5442468261	0.1527123749
1531.4730541992	0.1482471824
1533.4018615722	0.1385694444
1535.3306689453	0.1450165808
1537.2594763183	0.1523470581
1539.1882836914	0.1167360097
1541.1170910644	0.1216663048
1543.0458984375	0.1404087842
1544.9747058105	0.1360814571
1546.9035131836	0.1550451815
1548.8323205566	0.1467259973
1550.7611279297	0.1507726461
1552.6899353027	0.1493976116
1554.6187426758	0.1388326138
1556.5475500488	0.1464054286
1558.4763574218	0.1112710536
1560.4051647949	0.1182812601
1562.3339721679	0.1559165120
1564.2627795410	0.1490721703
1566.1915869140	0.1524481624
1568.1203942871	0.1509436071
1570.0492016601	0.1374183744
1571.9780090332	0.1538449824
1573.9068164062	0.1547712982
1575.8356237793	0.1284163892
1577.7644311523	0.1417202950
1579.6932385254	0.1560754180
1581.6220458984	0.1504626870
1583.5508532715	0.1541295946
1585.4796606445	0.1519367099
1587.4084680175	0.1530635655
1589.3372753906	0.1519255042
1591.2660827636	0.1517012715
1593.1948901367	0.1520103514
1595.1236975097	0.1502723247
1597.0525048828	0.1520121992
1598.9813122558	0.1511020958
1600.9101196289	0.1519633234
1602.8389270019	0.1496534646
1604.7677343750	0.1517426223
1606.6965417480	0.1499026716
1608.6253491211	0.1496438831
1610.5541564941	0.1494901180
1612.4829638672	0.1499697566
1614.4117712402	0.1516198069
1616.3405786132	0.1286076009
1618.2693859863	0.1378403604
1620.1981933593	0.1555497348
1622.1270007324	0.1412002444
1624.0558081054	0.1422322094
1625.9846154785	0.1469777375
1627.9134228515	0.1471837312
1629.8422302246	0.1459646523
1631.7710375976	0.1537267268
1633.6998449707	0.1440522373
1635.6286523437	0.1236830801
1637.5574597168	0.1400706917
1639.4862670898	0.1505163014
1641.4150744629	0.1477988809
1643.3438818359	0.1506946534
1645.2726892090	0.1384728104
1647.2014965820	0.1259253919
1649.1303039550	0.1497333646
1651.0591113281	0.1420693994
1652.9879187011	0.1002881452
1654.9167260742	0.1287849694
1656.8455334472	0.1540150940
1658.7743408203	0.1479169726
1660.7031481933	0.1517539620
1662.6319555664	0.1403567791
1664.5607629394	0.1468400657
1666.4895703125	0.1548175812
1668.4183776855	0.1392108202
1670.3471850586	0.1366065741
1672.2759924316	0.1504535526
1674.2047998047	0.1411455870
1676.1336071777	0.1367006302
1678.0624145507	0.1527446806
1679.9912219238	0.1480781436
1681.9200292968	0.1472428143
1683.8488366699	0.1241166964
1685.7776440429	0.1231532842
1687.7064514160	0.1590318084
1689.6352587890	0.1414020956
1691.5640661621	0.1527693719
1693.4928735351	0.1544569433
1695.4216809082	0.1201657206
1697.3504882812	0.1421683282
1699.2792956543	0.1284086108
1701.2081030273	0.1185841709
1703.1369104004	0.1511813104
1705.0657177734	0.1409433782
1706.9945251464	0.1418254673
1708.9233325195	0.1513381302
1710.8521398925	0.1460458636
1712.7809472656	0.1482515931
1714.7097546386	0.1396701336
1716.6385620117	0.1275984347
1718.5673693847	0.1260620952
1720.4961767578	0.1445259452
1722.4249841308	0.1481946111
1724.3537915039	0.1398138106
1726.2825988769	0.1492381990
1728.2114062500	0.1395838410
1730.1402136230	0.1411018968
1732.0690209961	0.1369069964
1733.9978283691	0.1108532101
1735.9266357421	0.1317473948
1737.8554431152	0.1424307227
1739.7842504882	0.1300587803
1741.7130578613	0.1392140090
1743.6418652343	0.1413578987
1745.5706726074	0.1413869858
1747.4994799804	0.1425991654
1749.4282873535	0.1378179938
1751.3570947265	0.1329245567
1753.2859020996	0.1443939954
1755.2147094726	0.1492671371
1757.1435168457	0.1391716748
1759.0723242187	0.1500575244
1761.0011315918	0.1426149309
1762.9299389648	0.1390377581
1764.8587463379	0.1544766128
1766.7875537109	0.1418038607
1768.7163610839	0.1428857744
1770.6451684570	0.1421723217
1772.5739758300	0.1304885745
1774.5027832031	0.1426139176
1776.4315905761	0.1488739699
1778.3603979492	0.1467667669
1780.2892053222	0.1458107531
1782.2180126953	0.1465613842
1784.1468200683	0.1462340653
1786.0756274414	0.1441007257
1788.0044348144	0.1498927623
1789.9332421875	0.1467984915
1791.8620495605	0.1357376128
1793.7908569336	0.1403306723
1795.7196643066	0.1483714581
1797.6484716796	0.1466321349
1799.5772790527	0.1447774172
1801.5060864257	0.1429518759
1803.4348937988	0.1463158131
1805.3637011718	0.1487429142
1807.2925085449	0.1472590715
1809.2213159179	0.1476930082
1811.1501232910	0.1445021927
1813.0789306640	0.1478332579
1815.0077380371	0.1484470218
1816.9365454101	0.1471780539
1818.8653527832	0.1480877697
1820.7941601562	0.1475045383
1822.7229675293	0.1491850615
1824.6517749023	0.1416012645
1826.5805822753	0.1454441845
1828.5093896484	0.1454341412
1830.4381970214	0.1386451125
1832.3670043945	0.1478183568
1834.2958117675	0.1467639506
1836.2246191406	0.1469328105
1838.1534265136	0.1463764608
1840.0822338867	0.1471313834
1842.0110412597	0.1470371932
1843.9398486328	0.1339912415
1845.8686560058	0.1410245150
1847.7974633789	0.1467277110
1849.7262707519	0.1440974176
1851.6550781250	0.1472020745
1853.5838854980	0.1449536383
1855.5126928710	0.1461203992
1857.4415002441	0.1453267187
1859.3703076171	0.1446483582
1861.2991149902	0.1451338828
1863.2279223632	0.1437161714
1865.1567297363	0.1449480355
1867.0855371093	0.1410995275
1869.0143444824	0.1365297735
1870.9431518554	0.1407403648
1872.8719592285	0.1444956064
1874.8007666015	0.1427315474
1876.7295739746	0.1434799433
1878.6583813476	0.1427593529
1880.5871887207	0.1422549337
1882.5159960937	0.1430461109
1884.4448034667	0.1411693841
1886.3736108398	0.1425872445
1888.3024182128	0.1399415433
1890.2312255859	0.1380207390
1892.1600329589	0.1418674290
1894.0888403320	0.1402171850
1896.0176477050	0.1395277083
1897.9464550781	0.1407546997
1899.8752624511	0.1401377022
1901.8040698242	0.1403234005
1903.7328771972	0.1396683753
1905.6616845703	0.1400401294
1907.5904919433	0.1389237046
1909.5192993164	0.1380958259
1911.4481066894	0.1388023496
1913.3769140625	0.1386745274
1915.3057214355	0.1395650208
1917.2345288085	0.1348137856
1919.1633361816	0.1347428262
1921.0921435546	0.1387406290
1923.0209509277	0.1352521628
1924.9497583007	0.1373443902
1926.8785656738	0.1382919550
1928.8073730468	0.1369810551
1930.7361804199	0.1381283849
1932.6649877929	0.1366844177
1934.5937951660	0.1377807856
1936.5226025390	0.1368432343
1938.4514099121	0.1372271776
1940.3802172851	0.1368873119
1942.3090246582	0.1334960908
1944.2378320312	0.1354551613
1946.1666394042	0.1364391148
1948.0954467773	0.1362155676
1950.0242541503	0.1364720464
1951.9530615234	0.1361497641
1953.8818688964	0.1362136602
1955.8106762695	0.1357806027
1957.7394836425	0.1359066665
1959.6682910156	0.1357643902
1961.5970983886	0.1355563998
1963.5259057617	0.1357243359
1965.4547131347	0.1350915283
1967.3835205078	0.1339591444
1969.3123278808	0.1347715557
1971.2411352539	0.1351805329
1973.1699426269	0.1345322281
1975.0987499999	0.1349518597
1977.0275573730	0.1343973875
1978.9563647460	0.1343862265
1980.8851721191	0.1341971755
1982.8139794921	0.1338292062
1984.7427868652	0.1340451837
1986.6715942382	0.1331319809
1988.6004016113	0.1330642849
1990.5292089843	0.1322179735
1992.4580163574	0.1311296225
1994.3868237304	0.1323966384
1996.3156311035	0.1326849163
1998.2444384765	0.1319236159
2000.1732458496	0.1318877935
2002.1020532226	0.1315675676
2004.0308605956	0.1313937902
2005.9596679687	0.1310277879
2007.8884753417	0.1306221187
2009.8172827148	0.1305937916
2011.7460900878	0.1300837398
2013.6748974609	0.1299714744
2015.6037048339	0.1291815192
2017.5325122070	0.1283522248
2019.4613195800	0.1289226115
2021.3901269531	0.1288842559
2023.3189343261	0.1282959878
2025.2477416992	0.1279710233
2027.1765490722	0.1278624535
2029.1053564453	0.1276233196
2031.0341638183	0.1272473931
2032.9629711914	0.1269532442
2034.8917785644	0.1265713871
2036.8205859374	0.1263420433
2038.7493933105	0.1261219978
2040.6782006835	0.1254718453
2042.6070080566	0.1251958311
2044.5358154296	0.1253378838
2046.4646228027	0.1249075159
2048.3934301757	0.1246968955
2050.3222375488	0.1244066656
2052.2510449218	0.1241122931
2054.1798522949	0.1239521950
2056.1086596679	0.1236304417
2058.0374670410	0.1235230044
2059.9662744140	0.1229715347
2061.8950817871	0.1229340881
2063.8238891601	0.1225094795
2065.7526965331	0.1218693703
2067.6815039062	0.1220971644
2069.6103112792	0.1218772829
2071.5391186523	0.1216373742
2073.4679260253	0.1213152483
2075.3967333984	0.1212317646
2077.3255407714	0.1209470034
2079.2543481445	0.1204970479
2081.1831555175	0.1204735339
2083.1119628906	0.1202086955
2085.0407702636	0.1199553311
2086.9695776367	0.1196073890
2088.8983850097	0.1194237471
2090.8271923828	0.1191437989
2092.7559997558	0.1190432310
2094.6848071288	0.1189113706
2096.6136145019	0.1185132861
2098.5424218749	0.1184558123
2100.4712292480	0.1182345599
2102.4000366210	0.1180135757
2104.3288439941	0.1176208854
2106.2576513671	0.1174184978
2108.1864587402	0.1172537655
2110.1152661132	0.1169438511
2112.0440734863	0.1167314798
2113.9728808593	0.1164683551
2115.9016882324	0.1164232045
2117.8304956054	0.1162665188
2119.7593029785	0.1160723567
2121.6881103515	0.1157850325
2123.6169177245	0.1157655269
2125.5457250976	0.1154660732
2127.4745324706	0.1151933521
2129.4033398437	0.1151734442
2131.3321472167	0.1147479415
2133.2609545898	0.1148539111
2135.1897619628	0.1145748794
2137.1185693359	0.1144185811
2139.0473767089	0.1143541783
2140.9761840820	0.1140794829
2142.9049914550	0.1141061261
2144.8337988281	0.1137004420
2146.7626062011	0.1136311740
2148.6914135742	0.1134116277
2150.6202209472	0.1132642329
2152.5490283203	0.1132003367
2154.4778356933	0.1129222363
2156.4066430663	0.1128194630
2158.3354504394	0.1126942039
2160.2642578124	0.1125711873
2162.1930651855	0.1122416481
2164.1218725585	0.1122180298
2166.0506799316	0.1119666174
2167.9794873046	0.1119023189
2169.9082946777	0.1117125973
2171.8371020507	0.1114516407
2173.7659094238	0.1116054058
2175.6947167968	0.1111359596
2177.6235241699	0.1111906469
2179.5523315429	0.1111028418
2181.4811389160	0.1109236926
2183.4099462890	0.1108269915
2185.3387536620	0.1105345339
2187.2675610351	0.1105116904
2189.1963684081	0.1102078333
2191.1251757812	0.1102472097
2193.0539831542	0.1099783033
2194.9827905273	0.1098708510
2196.9115979003	0.1097211316
2198.8404052734	0.1093902290
2200.7692126464	0.1094340906
2202.6980200195	0.1091215014
2204.6268273925	0.1091771051
2206.5556347656	0.1090003401
2208.4844421386	0.1088209823
2210.4132495117	0.1086720526
2212.3420568847	0.1083823740
2214.2708642577	0.1083162874
2216.1996716308	0.1081663668
2218.1284790038	0.1081298292
2220.0572863769	0.1079339758
2221.9860937499	0.1079075336
2223.9149011230	0.1075753421
2225.8437084960	0.1073598340
2227.7725158691	0.1072471663
2229.7013232421	0.1069827452
2231.6301306152	0.1069561765
2233.5589379882	0.1065695807
2235.4877453613	0.1064920723
2237.4165527343	0.1062947884
2239.3453601074	0.1061179563
2241.2741674804	0.1059826389
2243.2029748534	0.1056732684
2245.1317822265	0.1055761576
2247.0605895995	0.1053809375
2248.9893969726	0.1053591371
2250.9182043456	0.1050472632
2252.8470117187	0.1048316360
2254.7758190917	0.1046917140
2256.7046264648	0.1045445725
2258.6334338378	0.1044453681
2260.5622412109	0.1042259634
2262.4910485839	0.1041233093
2264.4198559570	0.1038087308
2266.3486633300	0.1036878824
2268.2774707031	0.1034512520
2270.2062780761	0.1034435928
2272.1350854491	0.1033883393
2274.0638928222	0.1030866280
2275.9927001952	0.1030956954
2277.9215075683	0.1028703749
2279.8503149413	0.1027245522
2281.7791223144	0.1025471240
2283.7079296874	0.1026113331
2285.6367370605	0.1024826169
2287.5655444335	0.1022112817
2289.4943518066	0.1019453555
2291.4231591796	0.1014258638
2293.3519665527	0.1013273597
2295.2807739257	0.1009050161
2297.2095812988	0.1005622596
2299.1383886718	0.1001978070
2301.0671960449	0.0997957736
2302.9960034179	0.0993925855
2304.9248107909	0.0987112671
2306.8536181640	0.0982315093
2308.7824255370	0.0973840132
2310.7112329101	0.0966962427
2312.6400402831	0.0956461728
2314.5688476562	0.0945834368
2316.4976550292	0.0936320499
2318.4264624023	0.0921193436
2320.3552697753	0.0909252912
2322.2840771484	0.0895056576
2324.2128845214	0.0884628892
2326.1416918945	0.0875655860
2328.0704992675	0.0863488019
2329.9993066406	0.0853772834
2331.9281140136	0.0846675336
2333.8569213866	0.0843396559
2335.7857287597	0.0838590637
2337.7145361327	0.0837517828
2339.6433435058	0.0837007314
2341.5721508788	0.0840593278
2343.5009582519	0.0852821618
2345.4297656249	0.0867603421
2347.3585729980	0.0905897841
2349.2873803710	0.0933991000
2351.2161877441	0.0901053473
2353.1449951171	0.0854170322
2355.0738024902	0.0822930336
2357.0026098632	0.0796187520
2358.9314172363	0.0783471167
2360.8602246093	0.0774168968
2362.7890319823	0.0770037174
2364.7178393554	0.0776188821
2366.6466467284	0.0786097646
2368.5754541015	0.0801983923
2370.5042614745	0.0821951777
2372.4330688476	0.0846156031
2374.3618762206	0.0868826210
2376.2906835937	0.0891731679
2378.2194909667	0.0911983848
2380.1482983398	0.0926936343
2382.0771057128	0.0938144401
2384.0059130859	0.0943308175
2385.9347204589	0.0948067382
2387.8635278320	0.0947678685
2389.7923352050	0.0947059542
2391.7211425780	0.0945935249
2393.6499499511	0.0943441018
2395.5787573241	0.0943458974
2397.5075646972	0.0941178799
2399.4363720702	0.0940902978
2401.3651794433	0.0938968658
2403.2939868163	0.0936374143
2405.2227941894	0.0934657156
2407.1516015624	0.0934691280
2409.0804089355	0.0933450758
2411.0092163085	0.0930223390
2412.9380236816	0.0930286348
2414.8668310546	0.0928613842
2416.7956384277	0.0928560793
2418.7244458007	0.0925746039
2420.6532531738	0.0924372822
2422.5820605468	0.0923659056
2424.5108679198	0.0919710696
2426.4396752929	0.0920421034
2428.3684826659	0.0918612033
2430.2972900390	0.0918054730
2432.2260974120	0.0916575789
2434.1549047851	0.0914351195
2436.0837121581	0.0914219320
2438.0125195312	0.0912318230
2439.9413269042	0.0910780728
2441.8701342773	0.0908962637
2443.7989416503	0.0909024030
2445.7277490234	0.0907324478
2447.6565563964	0.0906697959
2449.5853637695	0.0904329121
2451.5141711425	0.0902751088
2453.4429785155	0.0903993100
2455.3717858886	0.0900527090
2457.3005932616	0.0899898112
2459.2294006347	0.0898007378
2461.1582080077	0.0896167904
2463.0870153808	0.0895083398
2465.0158227538	0.0893234015
2466.9446301269	0.0892336965
2468.8734374999	0.0890381485
2470.8022448730	0.0890861303
2472.7310522460	0.0888284594
2474.6598596191	0.0887284577
2476.5886669921	0.0886787623
2478.5174743652	0.0884812474
2480.4462817382	0.0884837285
2482.3750891112	0.0882228985
2484.3038964843	0.0881393030
2486.2327038573	0.0880227387
2488.1615112304	0.0878017098
2490.0903186034	0.0877255723
2492.0191259765	0.0876141787
2493.9479333495	0.0874603391
2495.8767407226	0.0874014273
2497.8055480956	0.0872709528
2499.7343554687	0.0870654881
2501.6631628417	0.0870926529
2503.5919702148	0.0869093314
2505.5207775878	0.0867376700
2507.4495849609	0.0866627544
2509.3783923339	0.0864772350
2511.3071997069	0.0863513947
2513.2360070800	0.0862421840
2515.1648144530	0.0860294253
2517.0936218261	0.0858897641
2519.0224291991	0.0860119015
2520.9512365722	0.0857975334
2522.8800439452	0.0856571496
2524.8088513183	0.0856409967
2526.7376586913	0.0853828862
2528.6664660644	0.0852310508
2530.5952734374	0.0850383043
2532.5240808105	0.0849115178
2534.4528881835	0.0848184675
2536.3816955566	0.0847844034
2538.3105029296	0.0846777633
2540.2393103027	0.0845532790
2542.1681176757	0.0844689459
2544.0969250487	0.0842895210
2546.0257324218	0.0842231661
2547.9545397948	0.0840555653
2549.8833471679	0.0838911012
2551.8121545409	0.0837721303
2553.7409619140	0.0836338699
2555.6697692870	0.0834366605
2557.5985766601	0.0833659172
2559.5273840331	0.0832518265
2561.4561914062	0.0829613656
2563.3849987792	0.0830003098
2565.3138061523	0.0829282254
2567.2426135253	0.0827576071
2569.1714208984	0.0826371312
2571.1002282714	0.0825430229
2573.0290356444	0.0823327601
2574.9578430175	0.0821368396
2576.8866503905	0.0821779743
2578.8154577636	0.0819519907
2580.7442651366	0.0819346607
2582.6730725097	0.0818284452
2584.6018798827	0.0816603377
2586.5306872558	0.0815876871
2588.4594946288	0.0813516080
2590.3883020019	0.0812922120
2592.3171093749	0.0810033232
2594.2459167480	0.0809572041
2596.1747241210	0.0808502361
2598.1035314941	0.0806311369
2600.0323388671	0.0806419030
2601.9611462401	0.0805120766
2603.8899536132	0.0805028975
2605.8187609862	0.0802286193
2607.7475683593	0.0801069885
2609.6763757323	0.0799890310
2611.6051831054	0.0798186511
2613.5339904784	0.0799510926
2615.4627978515	0.0797097608
2617.3916052245	0.0795109570
2619.3204125976	0.0794606358
2621.2492199706	0.0794013292
2623.1780273437	0.0792792290
2625.1068347167	0.0791049004
2627.0356420898	0.0789417922
2628.9644494628	0.0787754282
2630.8932568358	0.0787813812
2632.8220642089	0.0785528570
2634.7508715819	0.0784047395
2636.6796789550	0.0783272833
2638.6084863280	0.0781408921
2640.5372937011	0.0781336799
2642.4661010741	0.0779564679
2644.3949084472	0.0778866112
2646.3237158202	0.0778240710
2648.2525231933	0.0775899515
2650.1813305663	0.0775717571
2652.1101379394	0.0774401575
2654.0389453124	0.0772106200
2655.9677526855	0.0771552026
2657.8965600585	0.0771273822
2659.8253674315	0.0769587457
2661.7541748046	0.0767185688
2663.6829821776	0.0766527802
2665.6117895507	0.0766352117
2667.5405969237	0.0765097290
2669.4694042968	0.0762843937
2671.3982116698	0.0761606023
2673.3270190429	0.0761623383
2675.2558264159	0.0759660006
2677.1846337890	0.0758154765
2679.1134411620	0.0757255927
2681.0422485351	0.0755491257
2682.9710559081	0.0755291134
2684.8998632812	0.0754678920
2686.8286706542	0.0752345026
2688.7574780273	0.0750714466
2690.6862854003	0.0749640390
2692.6150927733	0.0748579577
2694.5439001464	0.0748450607
2696.4727075194	0.0746549964
2698.4015148925	0.0743434504
2700.3303222655	0.0743137822
2702.2591296386	0.0743513033
2704.1879370116	0.0741334558
2706.1167443847	0.0739604980
2708.0455517577	0.0739483461
2709.9743591308	0.0737589747
2711.9031665038	0.0736190528
2713.8319738769	0.0735556036
2715.7607812499	0.0735469908
2717.6895886230	0.0734077841
2719.6183959960	0.0730752274
2721.5472033690	0.0730659962
2723.4760107421	0.0729869008
2725.4048181151	0.0728600025
2727.3336254882	0.0727032423
2729.2624328612	0.0725528449
2731.1912402343	0.0725807101
2733.1200476073	0.0724310279
2735.0488549804	0.0723029524
2736.9776623534	0.0720504224
2738.9064697265	0.0719437227
2740.8352770995	0.0718677640
2742.7640844726	0.0717466399
2744.6928918456	0.0717541501
2746.6216992187	0.0714593232
2748.5505065917	0.0713506341
2750.4793139647	0.0712187439
2752.4081213378	0.0710809380
2754.3369287108	0.0710185915
2756.2657360839	0.0707985163
2758.1945434569	0.0707518011
2760.1233508300	0.0706413314
2762.0521582030	0.0704761744
2763.9809655761	0.0703615844
2765.9097729491	0.0703280270
2767.8385803222	0.0701445490
2769.7673876952	0.0699902177
2771.6961950683	0.0699134916
2773.6250024413	0.0697416663
2775.5538098144	0.0696931481
2777.4826171874	0.0694633573
2779.4114245604	0.0693518594
2781.3402319335	0.0692539811
2783.2690393065	0.0690802187
2785.1978466796	0.0689557791
2787.1266540526	0.0687526017
2789.0554614257	0.0687286556
2790.9842687987	0.0685801357
2792.9130761718	0.0683647469
2794.8418835448	0.0683507770
2796.7706909179	0.0683478564
2798.6994982909	0.0680468976
2800.6283056640	0.0678571835
2802.5571130370	0.0677723885
2804.4859204101	0.0675756782
2806.4147277831	0.0675521046
2808.3435351562	0.0673361346
2810.2723425292	0.0672109723
2812.2011499022	0.0670324937
2814.1299572753	0.0668290854
2816.0587646483	0.0668024868
2817.9875720214	0.0667419806
2819.9163793944	0.0666521937
2821.8451867675	0.0664367676
2823.7739941405	0.0664970279
2825.7028015136	0.0661804080
2827.6316088866	0.0659164786
2829.5604162597	0.0659728944
2831.4892236327	0.0658061355
2833.4180310058	0.0657083988
2835.3468383788	0.0653308928
2837.2756457519	0.0652812943
2839.2044531249	0.0651674420
2841.1332604979	0.0649528727
2843.0620678710	0.0648241639
2844.9908752440	0.0643259883
2846.9196826171	0.0640373677
2848.8484899901	0.0635687262
2850.7772973632	0.0634200945
2852.7061047362	0.0634388402
2854.6349121093	0.0632191449
2856.5637194823	0.0632401109
2858.4925268554	0.0631381422
2860.4213342284	0.0630342662
2862.3501416015	0.0628770068
2864.2789489745	0.0628145486
2866.2077563476	0.0627653375
2868.1365637206	0.0625683516
2870.0653710936	0.0624323636
2871.9941784667	0.0623586662
2873.9229858397	0.0623809174
2875.8517932128	0.0622310787
2877.7806005858	0.0620116740
2879.7094079589	0.0619377494
2881.6382153319	0.0619782209
2883.5670227050	0.0618790388
2885.4958300780	0.0616593584
2887.4246374511	0.0615915880
2889.3534448241	0.0615523160
2891.2822521972	0.0613858998
2893.2110595702	0.0611893535
2895.1398669433	0.0609866306
2897.0686743163	0.0607922859
2898.9974816893	0.0608013347
2900.9262890624	0.0605878755
2902.8550964354	0.0603268258
2904.7839038085	0.0602357984
2906.7127111815	0.0599874705
2908.6415185546	0.0598574430
2910.5703259276	0.0596258491
2912.4991333007	0.0592367686
2914.4279406737	0.0589348525
2916.3567480468	0.0586709529
2918.2855554198	0.0584883913
2920.2143627929	0.0584143028
2922.1431701659	0.0582580790
2924.0719775390	0.0581804737
2926.0007849120	0.0581682920
2927.9295922851	0.0580541119
2929.8583996581	0.0580947846
2931.7872070311	0.0578981265
2933.7160144042	0.0579176843
2935.6448217772	0.0579946898
2937.5736291503	0.0578342974
2939.5024365233	0.0579526052
2941.4312438964	0.0577424765
2943.3600512694	0.0577623211
2945.2888586425	0.0578037500
2947.2176660155	0.0575344712
2949.1464733886	0.0575393438
2951.0752807616	0.0574228466
2953.0040881347	0.0572146699
2954.9328955077	0.0571103245
2956.8617028808	0.0570199341
2958.7905102538	0.0566710308
2960.7193176268	0.0565631054
2962.6481249999	0.0564755574
2964.5769323729	0.0562752858
2966.5057397460	0.0562916622
2968.4345471190	0.0561513603
2970.3633544921	0.0563219935
2972.2921618651	0.0563030317
2974.2209692382	0.0562736355
2976.1497766112	0.0564161539
2978.0785839843	0.0562914386
2980.0073913573	0.0563328080
2981.9361987304	0.0562273078
2983.8650061034	0.0562289059
2985.7938134765	0.0562171303
2987.7226208495	0.0561069101
2989.6514282225	0.0560879782
2991.5802355956	0.0559453592
2993.5090429686	0.0558330677
2995.4378503417	0.0557591617
2997.3666577147	0.0557328649
2999.2954650878	0.0555434041
3001.2242724608	0.0554191507
3003.1530798339	0.0553105623
3005.0818872069	0.0551941618
3007.0106945800	0.0551596135
3008.9395019530	0.0549584106
3010.8683093261	0.0548342392
3012.7971166991	0.0547219887
3014.7259240722	0.0546148643
3016.6547314452	0.0544825271
3018.5835388182	0.0543899089
3020.5123461913	0.0543257669
3022.4411535643	0.0542352796
3024.3699609374	0.0541023761
3026.2987683104	0.0538998879
3028.2275756835	0.0538881794
3030.1563830565	0.0536720380
3032.0851904296	0.0534742698
3034.0139978026	0.0534345508
3035.9428051757	0.0533053726
3037.8716125487	0.0532935970
3039.8004199218	0.0531502217
3041.7292272948	0.0529557168
3043.6580346679	0.0529425703
3045.5868420409	0.0529038012
3047.5156494139	0.0527115837
3049.4444567870	0.0525909960
3051.3732641600	0.0524264053
3053.3020715331	0.0523016788
3055.2308789061	0.0522158146
3057.1596862792	0.0520488173
3059.0884936522	0.0520617813
3061.0173010253	0.0519562662
3062.9461083983	0.0518822968
3064.8749157714	0.0517368354
3066.8037231444	0.0515762419
3068.7325305175	0.0515774712
3070.6613378905	0.0514097586
3072.5901452636	0.0513200983
3074.5189526366	0.0511887968
3076.4477600097	0.0511295386
3078.3765673827	0.0509717651
3080.3053747557	0.0507420972
3082.2341821288	0.0507908128
3084.1629895018	0.0507204719
3086.0917968749	0.0506065190
3088.0206042479	0.0504594296
3089.9494116210	0.0503007770
3091.8782189940	0.0502380505
3093.8070263671	0.0500871949
3095.7358337401	0.0499118231
3097.6646411132	0.0499177352
3099.5934484862	0.0497779846
3101.5222558593	0.0495875180
3103.4510632323	0.0495932810
3105.3798706054	0.0494995713
3107.3086779784	0.0494371466
3109.2374853514	0.0491970554
3111.1662927245	0.0490513705
3113.0951000975	0.0489738584
3115.0239074706	0.0487975962
3116.9527148436	0.0486895889
3118.8815222167	0.0484072268
3120.8103295897	0.0483976230
3122.7391369628	0.0483342782
3124.6679443358	0.0482889973
3126.5967517089	0.0481515117
3128.5255590819	0.0478986017
3130.4543664550	0.0479310155
3132.3831738280	0.0475985557
3134.3119812011	0.0475802384
3136.2407885741	0.0475556366
3138.1695959471	0.0473396182
3140.0984033202	0.0473283976
3142.0272106932	0.0470869467
3143.9560180663	0.0470599979
3145.8848254393	0.0468386486
3147.8136328124	0.0466454923
3149.7424401854	0.0466968492
3151.6712475585	0.0464685634
3153.6000549315	0.0462686494
3155.5288623046	0.0461631939
3157.4576696776	0.0460880324
3159.3864770507	0.0459996238
3161.3152844237	0.0458685607
3163.2440917968	0.0457364023
3165.1728991698	0.0455963388
3167.1017065428	0.0454161949
3169.0305139159	0.0453445464
3170.9593212889	0.0451808795
3172.8881286620	0.0450502336
3174.8169360350	0.0450405180
3176.7457434081	0.0447819829
3178.6745507811	0.0447025597
3180.6033581542	0.0445733592
3182.5321655272	0.0444075167
3184.4609729003	0.0443900414
3186.3897802733	0.0442365557
3188.3185876464	0.0441183895
3190.2473950194	0.0439392328
3192.1762023925	0.0438975692
3194.1050097655	0.0438256338
3196.0338171386	0.0436540693
3197.9626245116	0.0435745977
3199.8914318846	0.0434599444
3201.8202392577	0.0434107333
3203.7490466307	0.0432516336
3205.6778540038	0.0431252494
3207.6066613768	0.0430495813
3209.5354687499	0.0428976640
3211.4642761229	0.0428544357
3213.3930834960	0.0427357107
3215.3218908690	0.0426438078
3217.2506982421	0.0426213741
3219.1795056151	0.0424672365
3221.1083129882	0.0424221307
3223.0371203612	0.0422837324
3224.9659277343	0.0422034040
3226.8947351073	0.0422277935
3228.8235424803	0.0420179889
3230.7523498534	0.0421116613
3232.6811572264	0.0419393182
3234.6099645995	0.0417266525
3236.5387719725	0.0418798178
3238.4675793456	0.0416034870
3240.3963867186	0.0415824205
3242.3251940917	0.0416391753
3244.2540014647	0.0414569601
3246.1828088378	0.0413256772
3248.1116162108	0.0412269533
3250.0404235839	0.0412584245
3251.9692309569	0.0411854759
3253.8980383300	0.0411370471
3255.8268457030	0.0410620049
3257.7556530760	0.0409919322
3259.6844604491	0.0409255996
3261.6132678221	0.0409457833
3263.5420751952	0.0409200899
3265.4708825682	0.0407100469
3267.3996899413	0.0406646430
3269.3284973143	0.0405018665
3271.2573046874	0.0404329225
3273.1861120604	0.0404830351
3275.1149194335	0.0404171944
3277.0437268065	0.0403089598
3278.9725341796	0.0402876660
3280.9013415526	0.0402970612
3282.8301489257	0.0401457325
3284.7589562987	0.0401089974
3286.6877636717	0.0400487632
3288.6165710448	0.0400271416
3290.5453784178	0.0398632549
3292.4741857909	0.0397865102
3294.4029931639	0.0398073420
3296.3318005370	0.0396146514
3298.2606079100	0.0396965668
3300.1894152831	0.0395673737
3302.1182226561	0.0395399779
3304.0470300292	0.0394959413
3305.9758374022	0.0392705798
3307.9046447753	0.0392940938
3309.8334521483	0.0392120369
3311.7622595214	0.0392747074
3313.6910668944	0.0391154811
3315.6198742675	0.0390163511
3317.5486816405	0.0390020423
3319.4774890135	0.0388536006
3321.4062963866	0.0389100984
3323.3351037596	0.0388259031
3325.2639111327	0.0388110243
3327.1927185057	0.0387060307
3329.1215258788	0.0386111066
3331.0503332518	0.0385603234
3332.9791406249	0.0384544954
3334.9079479979	0.0384393409
3336.8367553710	0.0383066460
3338.7655627440	0.0382813402
3340.6943701171	0.0382402241
3342.6231774901	0.0381072462
3344.5519848632	0.0380526446
3346.4807922362	0.0380790755
3348.4095996092	0.0379208326
3350.3384069823	0.0378024131
3352.2672143553	0.0378242284
3354.1960217284	0.0377007052
3356.1248291014	0.0377534255
3358.0536364745	0.0376055613
3359.9824438475	0.0373773500
3361.9112512206	0.0373805501
3363.8400585936	0.0372969806
3365.7688659667	0.0372187793
3367.6976733397	0.0371665582
3369.6264807128	0.0370940901
3371.5552880858	0.0370518453
3373.4840954589	0.0369902104
3375.4129028319	0.0368340947
3377.3417102049	0.0368365012
3379.2705175780	0.0367826298
3381.1993249510	0.0366531163
3383.1281323241	0.0365432203
3385.0569396971	0.0364215523
3386.9857470702	0.0364645720
3388.9145544432	0.0363361351
3390.8433618163	0.0361926779
3392.7721691893	0.0360682681
3394.7009765624	0.0360421538
3396.6297839354	0.0359964371
3398.5585913085	0.0358697027
3400.4873986815	0.0358819515
3402.4162060546	0.0356712341
3404.3450134276	0.0356149971
3406.2738208006	0.0355682746
3408.2026281737	0.0354689658
3410.1314355467	0.0354469866
3412.0602429198	0.0353889242
3413.9890502928	0.0353998356
3415.9178576659	0.0352815315
3417.8466650389	0.0351715051
3419.7754724120	0.0349374451
3421.7042797850	0.0348778144
3423.6330871581	0.0349373259
3425.5618945311	0.0349037498
3427.4907019042	0.0348357037
3429.4195092772	0.0347582959
3431.3483166503	0.0347556546
3433.2771240233	0.0345627591
3435.2059313963	0.0346079990
3437.1347387694	0.0344915912
3439.0635461424	0.0343777202
3440.9923535155	0.0342599228
3442.9211608885	0.0340523198
3444.8499682616	0.0341916308
3446.7787756346	0.0338473618
3448.7075830077	0.0339905694
3450.6363903807	0.0341825262
3452.5651977538	0.0339345336
3454.4940051268	0.0340510309
3456.4228124999	0.0338800400
3458.3516198729	0.0338033289
3460.2804272460	0.0336585641
3462.2092346190	0.0335625336
3464.1380419921	0.0336561054
3466.0668493651	0.0335760266
3467.9956567381	0.0335294008
3469.9244641112	0.0334610268
3471.8532714842	0.0335079581
3473.7820788573	0.0334223323
3475.7108862303	0.0332811289
3477.6396936034	0.0333642028
3479.5685009764	0.0333166793
3481.4973083495	0.0330057591
3483.4261157225	0.0329762697
3485.3549230956	0.0330310650
3487.2837304686	0.0330239423
3489.2125378417	0.0331053026
3491.1413452147	0.0330423303
3493.0701525878	0.0331298225
3494.9989599608	0.0329178274
3496.9277673338	0.0327482522
3498.8565747069	0.0329126790
3500.7853820799	0.0328433216
3502.7141894530	0.0325068533
3504.6429968260	0.0324735045
3506.5718041991	0.0328803174
3508.5006115721	0.0325458348
3510.4294189452	0.0324256569
3512.3582263182	0.0326342434
3514.2870336913	0.0326400250
3516.2158410643	0.0327285826
3518.1446484374	0.0324972048
3520.0734558104	0.0326954573
3522.0022631835	0.0324404612
3523.9310705565	0.0320233256
3525.8598779295	0.0321660601
3527.7886853026	0.0320809782
3529.7174926756	0.0321802273
3531.6463000487	0.0323383734
3533.5751074217	0.0324293189
3535.5039147948	0.0321863033
3537.4327221678	0.0321469307
3539.3615295409	0.0324368477
3541.2903369139	0.0323029533
3543.2191442870	0.0322031602
3545.1479516600	0.0316928923
3547.0767590331	0.0312782750
3549.0055664061	0.0320674852
3550.9343737792	0.0321098939
3552.8631811522	0.0315767154
3554.7919885252	0.0320843086
3556.7207958983	0.0320368297
3558.6496032713	0.0319715887
3560.5784106444	0.0318795964
3562.5072180174	0.0316454507
3564.4360253905	0.0318061113
3566.3648327635	0.0301349945
3568.2936401366	0.0296008494
3570.2224475096	0.0315041840
3572.1512548827	0.0320737883
3574.0800622557	0.0317381620
3576.0088696288	0.0317352265
3577.9376770018	0.0317027494
3579.8664843749	0.0316437557
3581.7952917479	0.0315522887
3583.7240991210	0.0315923691
3585.6529064940	0.0310479738
3587.5817138670	0.0292401835
3589.5105212401	0.0298548415
3591.4393286131	0.0317250639
3593.3681359862	0.0309187956
3595.2969433592	0.0305500384
3597.2257507323	0.0310690515
3599.1545581053	0.0311458521
3601.0833654784	0.0310056657
3603.0121728514	0.0310546476
3604.9409802245	0.0314655006
3606.8697875975	0.0307231843
3608.7985949706	0.0292582922
3610.7274023436	0.0298562087
3612.6562097167	0.0302966312
3614.5850170897	0.0296223592
3616.5138244627	0.0312247053
3618.4426318358	0.0294328760
3620.3714392088	0.0286699608
3622.3002465819	0.0313074365
3624.2290539549	0.0307321995
3626.1578613280	0.0318444483
3628.0866687010	0.0279379413
3630.0154760741	0.0258399323
3631.9442834471	0.0310258530
3633.8730908202	0.0304233693
3635.8018981932	0.0305946115
3637.7307055663	0.0312882923
3639.6595129393	0.0308104865
3641.5883203124	0.0310665499
3643.5171276854	0.0306390561
3645.4459350584	0.0308291651
3647.3747424315	0.0284687877
3649.3035498045	0.0264745727
3651.2323571776	0.0270187110
3653.1611645506	0.0306999814
3655.0899719237	0.0301318299
3657.0187792967	0.0278897658
3658.9475866698	0.0310272090
3660.8763940428	0.0304614920
3662.8052014159	0.0308113173
3664.7340087889	0.0306339376
3666.6628161620	0.0304277651
3668.5916235350	0.0297413208
3670.5204309081	0.0253875367
3672.4492382811	0.0294384249
3674.3780456541	0.0282222759
3676.3068530272	0.0244149044
3678.2356604002	0.0292611867
3680.1644677733	0.0296624061
3682.0932751463	0.0296860188
3684.0220825194	0.0303722695
3685.9508898924	0.0297833923
3687.8796972655	0.0273433290
3689.8085046385	0.0257120971
3691.7373120116	0.0286661088
3693.6661193846	0.0291689299
3695.5949267577	0.0296177529
3697.5237341307	0.0296371076
3699.4525415038	0.0293445773
3701.3813488768	0.0287744924
3703.3101562499	0.0278755128
3705.2389636229	0.0299513936
3707.1677709959	0.0287872851
3709.0965783690	0.0283586960
3711.0253857420	0.0270050894
3712.9541931151	0.0257178880
3714.8830004881	0.0291302539
3716.8118078612	0.0285776742
3718.7406152342	0.0287894756
3720.6694226073	0.0284043103
3722.5982299803	0.0276036672
3724.5270373534	0.0283559281
3726.4558447264	0.0267751068
3728.3846520995	0.0284482278
3730.3134594725	0.0280951858
3732.2422668456	0.0263885483
3734.1710742186	0.0259141270
3736.0998815916	0.0249637291
3738.0286889647	0.0258155651
3739.9574963377	0.0274780467
3741.8863037108	0.0286934171
3743.8151110838	0.0232562572
3745.7439184569	0.0223415196
3747.6727258299	0.0274149664
3749.6015332030	0.0242423154
3751.5303405760	0.0228307154
3753.4591479491	0.0254510604
3755.3879553221	0.0269338451
3757.3167626952	0.0276895463
3759.2455700682	0.0261809863
3761.1743774413	0.0267358217
3763.1031848143	0.0279145017
3765.0319921873	0.0266029965
3766.9607995604	0.0269212108
3768.8896069334	0.0267071612
3770.8184143065	0.0257618465
3772.7472216795	0.0272997487
3774.6760290526	0.0273866877
3776.6048364256	0.0273520499
3778.5336437987	0.0267341547
3780.4624511717	0.0258965809
3782.3912585448	0.0271157324
3784.3200659178	0.0266477950
3786.2488732909	0.0265150853
3788.1776806639	0.0269079357
3790.1064880370	0.0268405173
3792.0352954100	0.0266200081
3793.9641027830	0.0269977637
3795.8929101561	0.0257591233
3797.8217175291	0.0255113430
3799.7505249022	0.0264674518
3801.6793322752	0.0220033489
3803.6081396483	0.0249930471
3805.5369470213	0.0265441909
3807.4657543944	0.0226937123
3809.3945617674	0.0263139177
3811.3233691405	0.0258425754
3813.2521765135	0.0266541131
3815.1809838866	0.0243993700
3817.1097912596	0.0220951736
3819.0385986327	0.0264886357
3820.9674060057	0.0225201510
3822.8962133787	0.0234554373
3824.8250207518	0.0262633208
3826.7538281248	0.0243619904
3828.6826354979	0.0258226022
3830.6114428709	0.0249835625
3832.5402502440	0.0243269093
3834.4690576170	0.0247475058
3836.3978649901	0.0236788094
3838.3266723631	0.0217965282
3840.2554797362	0.0232395194
3842.1842871092	0.0246439148
3844.1130944823	0.0237574782
3846.0419018553	0.0252692290
3847.9707092284	0.0250048898
3849.8995166014	0.0249185413
3851.8283239745	0.0228316970
3853.7571313475	0.0182488337
3855.6859387205	0.0207704417
3857.6147460936	0.0249637738
3859.5435534666	0.0242884383
3861.4723608397	0.0241397880
3863.4011682127	0.0237023979
3865.3299755858	0.0224329606
3867.2587829588	0.0244549681
3869.1875903319	0.0225998648
3871.1163977049	0.0213916153
3873.0452050780	0.0243721083
3874.9740124510	0.0228214525
3876.9028198241	0.0241204314
3878.8316271971	0.0244401526
3880.7604345702	0.0217706840
3882.6892419432	0.0241778493
3884.6180493162	0.0228605866
3886.5468566893	0.0214091688
3888.4756640623	0.0242411159
3890.4044714354	0.0231116880
3892.3332788084	0.0221465565
3894.2620861815	0.0236603785
3896.1908935545	0.0238899514
3898.1197009276	0.0230730586
3900.0485083006	0.0219297372
3901.9773156737	0.0219071954
3903.9061230467	0.0216659606
3905.8349304198	0.0219217706
3907.7637377928	0.0234817415
3909.6925451659	0.0233591478
3911.6213525389	0.0232755709
3913.5501599119	0.0234697424
3915.4789672850	0.0228717774
3917.4077746580	0.0223466288
3919.3365820311	0.0223487988
3921.2653894041	0.0229703002
3923.1941967772	0.0227073804
3925.1230041502	0.0223737881
3927.0518115233	0.0225567110
3928.9806188963	0.0228220429
3930.9094262694	0.0225176867
3932.8382336424	0.0219014883
3934.7670410155	0.0225065965
3936.6958483885	0.0226394758
3938.6246557616	0.0224885605
3940.5534631346	0.0225761458
3942.4822705076	0.0219374876
3944.4110778807	0.0220687427
3946.3398852537	0.0223939437
3948.2686926268	0.0219101887
3950.1974999998	0.0219278801
3952.1263073729	0.0222090781
3954.0551147459	0.0221833307
3955.9839221190	0.0221113265
3957.9127294920	0.0219995193
3959.8415368651	0.0220176186
3961.7703442381	0.0218414385
3963.6991516112	0.0218316261
3965.6279589842	0.0219629873
3967.5567663573	0.0218127556
3969.4855737303	0.0217273831
3971.4143811034	0.0216359328
3973.3431884764	0.0216796529
3975.2719958494	0.0215196479
3977.2008032225	0.0215018298
3979.1296105955	0.0215711743
3981.0584179686	0.0214247629
3982.9872253416	0.0214603469
3984.9160327147	0.0213430189
3986.8448400877	0.0213728994
3988.7736474608	0.0211642887
3990.7024548338	0.0210363492
3992.6312622069	0.0211457238
3994.5600695799	0.0210823566
3996.4888769530	0.0211983528
3998.4176843260	0.0210242495
4000.3464916991	0.0210045222
4002.2752990721	0.0209770557
4004.2041064451	0.0208708625
4006.1329138182	0.0209008455
4008.0617211912	0.0207084212
4009.9905285643	0.0207282249
4011.9193359373	0.0207430087
4013.8481433104	0.0206360482
4015.7769506834	0.0206367038
4017.7057580565	0.0206263512
4019.6345654295	0.0204413068
4021.5633728026	0.0204770938
4023.4921801756	0.0204615574
4025.4209875487	0.0202853829
4027.3497949217	0.0203740224
4029.2786022948	0.0202545822
4031.2074096678	0.0202569962
4033.1362170408	0.0201619063
4035.0650244139	0.0200411305
4036.9938317869	0.0200660639
4038.9226391600	0.0199432261
4040.8514465330	0.0200129207
4042.7802539061	0.0198396444
4044.7090612791	0.0197774544
4046.6378686522	0.0198183674
4048.5666760252	0.0197550431
4050.4954833983	0.0197850056
4052.4242907713	0.0197064094
4054.3530981444	0.0197136216
4056.2819055174	0.0196089000
4058.2107128905	0.0195306242
4060.1395202635	0.0194718987
4062.0683276365	0.0194254518
4063.9971350096	0.0194557104
4065.9259423826	0.0193995051
4067.8547497557	0.0194009971
4069.7835571287	0.0193238445
4071.7123645018	0.0192595925
4073.6411718748	0.0192073882
4075.5699792479	0.0191819668
4077.4987866209	0.0191229973
4079.4275939940	0.0190211348
4081.3564013670	0.0190988872
4083.2852087401	0.0190309323
4085.2140161131	0.0188963450
4087.1428234862	0.0189003386
4089.0716308592	0.0188675821
4091.0004382323	0.0187948048
4092.9292456053	0.0187248327
4094.8580529783	0.0186898094
4096.7868603514	0.0186172314
4098.7156677244	0.0185331386
4100.6444750975	0.0185372438
4102.5732824705	0.0185387246
4104.5020898436	0.0185272954
4106.4308972166	0.0184159484
4108.3597045897	0.0183684081
4110.2885119627	0.0183739420
4112.2173193358	0.0182642601
4114.1461267088	0.0183375292
4116.0749340819	0.0182856619
4118.0037414549	0.0181989148
4119.9325488280	0.0181629900
4121.8613562010	0.0181233361
4123.7901635740	0.0181828365
4125.7189709471	0.0179943312
4127.6477783201	0.0180280209
4129.5765856932	0.0179979447
4131.5053930662	0.0178780779
4133.4342004393	0.0178431273
4135.3630078123	0.0177192446
4137.2918151854	0.0178505518
4139.2206225584	0.0176825449
4141.1494299315	0.0176289976
4143.0782373045	0.0176720768
4145.0070446776	0.0175738856
4146.9358520506	0.0175736342
4148.8646594237	0.0174107030
4150.7934667967	0.0174731035
4152.7222741697	0.0174074695
4154.6510815428	0.0173119139
4156.5798889158	0.0173434205
4158.5086962889	0.0172909871
4160.4375036619	0.0172702409
4162.3663110350	0.0172084793
4164.2951184080	0.0171395876
4166.2239257811	0.0170174725
4168.1527331541	0.0171273928
4170.0815405272	0.0171304252
4172.0103479002	0.0169702712
4173.9391552733	0.0169311836
4175.8679626463	0.0169204641
4177.7967700194	0.0168976616
4179.7255773924	0.0168223381
4181.6543847654	0.0167823117
4183.5831921385	0.0166377705
4185.5119995115	0.0166730396
4187.4408068846	0.0166504867
4189.3696142576	0.0165928192
4191.2984216307	0.0165781341
4193.2272290037	0.0164030045
4195.1560363768	0.0164226517
4197.0848437498	0.0164030604
4199.0136511229	0.0164651610
4200.9424584959	0.0163984019
4202.8712658690	0.0163140893
4204.8000732420	0.0163318105
4206.7288806151	0.0162168499
4208.6576879881	0.0162371099
4210.5864953611	0.0161824282
4212.5153027342	0.0161233880
4214.4441101072	0.0159856677
4216.3729174803	0.0160284676
4218.3017248533	0.0159864202
4220.2305322264	0.0158963054
4222.1593395994	0.0160742551
4224.0881469725	0.0159046836
4226.0169543455	0.0158694759
4227.9457617186	0.0158588365
4229.8745690916	0.0157862194
4231.8033764647	0.0157446079
4233.7321838377	0.0156859141
4235.6609912108	0.0156748295
4237.5897985838	0.0155868363
4239.5186059569	0.0156609360
4241.4474133299	0.0155476201
4243.3762207029	0.0155188479
4245.3050280760	0.0154660624
4247.2338354490	0.0154108163
4249.1626428221	0.0154556669
4251.0914501951	0.0152957458
4253.0202575682	0.0153611358
4254.9490649412	0.0153410034
4256.8778723143	0.0152570065
4258.8066796873	0.0151089448
4260.7354870604	0.0151206926
4262.6642944334	0.0152096581
4264.5931018065	0.0150780492
4266.5219091795	0.0150918476
4268.4507165526	0.0150315054
4270.3795239256	0.0150779113
4272.3083312986	0.0149602173
4274.2371386717	0.0148372650
4276.1659460447	0.0148640852
4278.0947534178	0.0148475263
4280.0235607908	0.0148567753
4281.9523681639	0.0147231612
4283.8811755369	0.0148460437
4285.8099829100	0.0147473384
4287.7387902830	0.0145398751
4289.6675976561	0.0145480987
4291.5964050291	0.0145538319
4293.5252124022	0.0145536698
4295.4540197752	0.0144413877
4297.3828271483	0.0145118348
4299.3116345213	0.0144676138
4301.2404418943	0.0144506721
4303.1692492674	0.0144225582
4305.0980566404	0.0142547004
4307.0268640135	0.0142618818
4308.9556713865	0.0142325126
4310.8844787596	0.0141888801
4312.8132861326	0.0141822118
4314.7420935057	0.0141927339
4316.6709008787	0.0141429007
4318.5997082518	0.0141928885
4320.5285156248	0.0140876435
4322.4573229979	0.0139807835
4324.3861303709	0.0140668256
4326.3149377440	0.0139268748
4328.2437451170	0.0139173586
4330.1725524900	0.0138942301
4332.1013598631	0.0138335899
4334.0301672361	0.0137956571
4335.9589746092	0.0137661146
4337.8877819822	0.0137763703
4339.8165893553	0.0136517249
4341.7453967283	0.0136568900
4343.6742041014	0.0136464536
4345.6030114744	0.0135825295
4347.5318188475	0.0135260653
4349.4606262205	0.0135011151
4351.3894335936	0.0134570785
4353.3182409666	0.0134529863
4355.2470483397	0.0134395426
4357.1758557127	0.0133792795
4359.1046630858	0.0133990981
4361.0334704588	0.0131957699
4362.9622778318	0.0132708717
4364.8910852049	0.0133801866
4366.8198925779	0.0132350633
4368.7486999510	0.0131749269
4370.6775073240	0.0131299980
4372.6063146971	0.0131961349
4374.5351220701	0.0131303379
4376.4639294432	0.0131411012
4378.3927368162	0.0130151473
4380.3215441893	0.0129297860
4382.2503515623	0.0130300876
4384.1791589354	0.0129178427
4386.1079663084	0.0128806075
4388.0367736815	0.0128372330
4389.9655810545	0.0128646325
4391.8943884275	0.0127515858
4393.8231958006	0.0127529483
4395.7520031736	0.0127615919
4397.6808105467	0.0126140574
4399.6096179197	0.0126888137
4401.5384252928	0.0125798639
4403.4672326658	0.0126167331
4405.3960400389	0.0125610027
4407.3248474119	0.0125175864
4409.2536547850	0.0126144420
4411.1824621580	0.0124448836
4413.1112695311	0.0124149453
4415.0400769041	0.0123875067
4416.9688842772	0.0123478016
4418.8976916502	0.0122646559
4420.8264990232	0.0122882696
4422.7553063963	0.0123279104
4424.6841137693	0.0122467391
4426.6129211424	0.0121975122
4428.5417285154	0.0121667981
4430.4705358885	0.0122584198
4432.3993432615	0.0121033480
4434.3281506346	0.0120829437
4436.2569580076	0.0121390745
4438.1857653807	0.0120506724
4440.1145727537	0.0120433178
4442.0433801268	0.0119077079
4443.9721874998	0.0119452169
4445.9009948729	0.0119380737
4447.8298022459	0.0118318927
4449.7586096189	0.0118767601
4451.6874169920	0.0118854791
4453.6162243650	0.0117646400
4455.5450317381	0.0117532657
4457.4738391111	0.0117833447
4459.4026464842	0.0116218440
4461.3314538572	0.0116546880
4463.2602612303	0.0116343042
4465.1890686033	0.0115323178
4467.1178759764	0.0115340166
4469.0466833494	0.0114887189
4470.9754907225	0.0115357907
4472.9042980955	0.0115228537
4474.8331054686	0.0114722820
4476.7619128416	0.0114744352
4478.6907202147	0.0113938395
4480.6195275877	0.0112915412
4482.5483349607	0.0113328435
4484.4771423338	0.0112910103
4486.4059497068	0.0112026036
4488.3347570799	0.0112230796
4490.2635644529	0.0112127205
4492.1923718260	0.0111772530
4494.1211791990	0.0110608814
4496.0499865721	0.0110974452
4497.9787939451	0.0110938568
4499.9076013182	0.0110349245
4501.8364086912	0.0111284088
4503.7652160643	0.0110432114
4505.6940234373	0.0109623335
4507.6228308104	0.0109954961
4509.5516381834	0.0109334253
4511.4804455564	0.0108835213
4513.4092529295	0.0109873181
4515.3380603025	0.0108548719
4517.2668676756	0.0107521145
4519.1956750486	0.0108511280
4521.1244824217	0.0107243182
4523.0532897947	0.0107094757
4524.9820971678	0.0106807807
4526.9109045408	0.0106765777
4528.8397119139	0.0106391525
4530.7685192869	0.0105221272
4532.6973266600	0.0106136277
4534.6261340330	0.0105492948
4536.5549414061	0.0104857646
4538.4837487791	0.0104715899
4540.4125561521	0.0104604792
4542.3413635252	0.0104517676
4544.2701708982	0.0104325507
4546.1989782713	0.0104428716
4548.1277856443	0.0103318756
4550.0565930174	0.0102734696
4551.9854003904	0.0102288770
4553.9142077635	0.0102041578
4555.8430151365	0.0101618301
4557.7718225096	0.0101768691
4559.7006298826	0.0102390759
4561.6294372557	0.0102188205
4563.5582446287	0.0101741999
4565.4870520018	0.0100517599
4567.4158593748	0.0100532006
4569.3446667478	0.0100160297
4571.2734741209	0.0100263841
4573.2022814939	0.0100140013
4575.1310888670	0.0099031050
4577.0598962400	0.0099677891
4578.9887036131	0.0098828096
4580.9175109861	0.0098625142
4582.8463183592	0.0098411860
4584.7751257322	0.0097707752
4586.7039331053	0.0098628327
4588.6327404783	0.0098265037
4590.5615478514	0.0097661810
4592.4903552244	0.0096877888
4594.4191625975	0.0096523184
4596.3479699705	0.0097059272
4598.2767773435	0.0096508916
4600.2055847166	0.0095867580
4602.1343920896	0.0095809093
4604.0631994627	0.0095262313
4605.9920068357	0.0095443483
4607.9208142088	0.0095660742
4609.8496215818	0.0094571225
4611.7784289549	0.0094581004
4613.7072363279	0.0094663063
4615.6360437010	0.0094394963
4617.5648510740	0.0094179884
4619.4936584471	0.0093927775
4621.4224658201	0.0093441932
4623.3512731932	0.0092860591
4625.2800805662	0.0093850344
4627.2088879393	0.0093240859
4629.1376953123	0.0092433766
4631.0665026853	0.0092589958
4632.9953100584	0.0091466103
4634.9241174314	0.0091708042
4636.8529248045	0.0091879256
4638.7817321775	0.0090868352
4640.7105395506	0.0091054887
4642.6393469236	0.0091523360
4644.5681542967	0.0090393368
4646.4969616697	0.0089529213
4648.4257690428	0.0089500183
4650.3545764158	0.0089311749
4652.2833837889	0.0089643756
4654.2121911619	0.0089160064
4656.1409985350	0.0088905925
4658.0698059080	0.0089234421
4659.9986132810	0.0088428026
4661.9274206541	0.0087711103
4663.8562280271	0.0087951235
4665.7850354002	0.0087900031
4667.7138427732	0.0086959070
4669.6426501463	0.0087496135
4671.5714575193	0.0087781278
4673.5002648924	0.0086436439
4675.4290722654	0.0086210705
4677.3578796385	0.0086111734
4679.2866870115	0.0086672958
4681.2154943846	0.0086413296
4683.1443017576	0.0084676994
4685.0731091307	0.0085472725
4687.0019165037	0.0085991565
4688.9307238767	0.0084915962
4690.8595312498	0.0084466534
4692.7883386228	0.0084578907
4694.7171459959	0.0084542986
4696.6459533689	0.0083996411
4698.5747607420	0.0083195716
4700.5035681150	0.0082498873
4702.4323754881	0.0083803581
4704.3611828611	0.0083600339
4706.2899902342	0.0082696117
4708.2187976072	0.0083223712
4710.1476049803	0.0081816157
4712.0764123533	0.0082114134
4714.0052197264	0.0082339719
4715.9340270994	0.0081817675
4717.8628344724	0.0082300566
4719.7916418455	0.0081809144
4721.7204492185	0.0081759645
4723.6492565916	0.0081624966
4725.5780639646	0.0081446040
4727.5068713377	0.0080127185
4729.4356787107	0.0080120740
4731.3644860838	0.0080502797
4733.2932934568	0.0079833651
4735.2221008299	0.0080153979
4737.1509082029	0.0078757871
4739.0797155760	0.0079822661
4741.0085229490	0.0080046449
4742.9373303221	0.0078514293
4744.8661376951	0.0078960899
4746.7949450682	0.0077735377
4748.7237524412	0.0078733591
4750.6525598142	0.0078694485
4752.5813671873	0.0076756170
4754.5101745603	0.0077591892
4756.4389819334	0.0077309399
4758.3677893064	0.0077083460
4760.2965966795	0.0077541298
4762.2254040525	0.0076398263
4764.1542114256	0.0076412167
4766.0830187986	0.0076850350
4768.0118261717	0.0076182615
4769.9406335447	0.0076216594
4771.8694409178	0.0075484985
4773.7982482908	0.0075273486
4775.7270556639	0.0075651808
4777.6558630369	0.0074843229
4779.5846704099	0.0074362964
4781.5134777830	0.0074897106
4783.4422851560	0.0075481385
4785.3710925291	0.0074279215
4787.2998999021	0.0074099633
4789.2287072752	0.0074237138
4791.1575146482	0.0073476303
4793.0863220213	0.0073403078
4795.0151293943	0.0073291324
4796.9439367674	0.0072929640
4798.8727441404	0.0072165360
4800.8015515135	0.0072706561
4802.7303588865	0.0071930457
4804.6591662596	0.0071914885
4806.5879736326	0.0072444798
4808.5167810056	0.0071280166
4810.4455883787	0.0072180768
4812.3743957517	0.0071503785
4814.3032031248	0.0071340986
4816.2320104978	0.0071126129
4818.1608178709	0.0070587369
4820.0896252439	0.0071415431
4822.0184326170	0.0069880970
4823.9472399900	0.0069942730
4825.8760473631	0.0070272461
4827.8048547361	0.0070126094
4829.7336621092	0.0070309499
4831.6624694822	0.0069659576
4833.5912768553	0.0069545917
4835.5200842283	0.0069085015
4837.4488916013	0.0068509793
4839.3776989744	0.0068574185
4841.3065063474	0.0069064554
4843.2353137205	0.0068269828
4845.1641210935	0.0068168221
4847.0929284666	0.0068060011
4849.0217358396	0.0067426767
4850.9505432127	0.0067826258
4852.8793505857	0.0067766504
4854.8081579588	0.0067728534
4856.7369653318	0.0066558691
4858.6657727049	0.0066191060
4860.5945800779	0.0066661909
4862.5233874510	0.0067435373
4864.4521948240	0.0067164404
4866.3810021971	0.0065628989
4868.3098095701	0.0066052596
4870.2386169431	0.0065222187
4872.1674243162	0.0065338137
4874.0962316892	0.0065934854
4876.0250390623	0.0065278672
4877.9538464353	0.0064743436
4879.8826538084	0.0064738216
4881.8114611814	0.0065811439
4883.7402685545	0.0064242254
4885.6690759275	0.0063788914
4887.5978833006	0.0064000483
4889.5266906736	0.0063658217
4891.4554980467	0.0064717159
4893.3843054197	0.0063634967
4895.3131127928	0.0063112164
4897.2419201658	0.0063510565
4899.1707275388	0.0063259332
4901.0995349119	0.0063390126
4903.0283422849	0.0062475810
4904.9571496580	0.0061532734
4906.8859570310	0.0062662037
4908.8147644041	0.0062686400
4910.7435717771	0.0061758053
4912.6723791502	0.0061334721
4914.6011865232	0.0060615889
4916.5299938963	0.0061375988
4918.4588012693	0.0061400346
4920.3876086424	0.0061448654
4922.3164160154	0.0060927104
4924.2452233885	0.0060798619
4926.1740307615	0.0061453064
4928.1028381345	0.0059694108
4930.0316455076	0.0060619242
4931.9604528806	0.0060526207
4933.8892602537	0.0059376964
4935.8180676267	0.0060390029
4937.7468749998	0.0059740110
4939.6756823728	0.0059197699
4941.6044897459	0.0058938516
4943.5332971189	0.0058716489
4945.4621044920	0.0058508459
4947.3909118650	0.0058899666
4949.3197192381	0.0058420612
4951.2485266111	0.0058082342
4953.1773339842	0.0058729816
4955.1061413572	0.0057947831
4957.0349487302	0.0058080526
4958.9637561033	0.0057706498
4960.8925634763	0.0057692993
4962.8213708494	0.0058265529
4964.7501782224	0.0057805302
4966.6789855955	0.0057158051
4968.6077929685	0.0056776069
4970.5366003416	0.0057217637
4972.4654077146	0.0056353891
4974.3942150877	0.0055892537
4976.3230224607	0.0055656349
4978.2518298338	0.0055501172
4980.1806372068	0.0055931285
4982.1094445799	0.0055680899
4984.0382519529	0.0055957786
4985.9670593259	0.0055562165
4987.8958666990	0.0055574141
4989.8246740720	0.0055161319
4991.7534814451	0.0054084919
4993.6822888181	0.0055184932
4995.6110961912	0.0055355891
4997.5399035642	0.0054202219
4999.4687109373	0.0055181002
5001.3975183103	0.0054793330
5003.3263256834	0.0053167241
5005.2551330564	0.0054236604
5007.1839404295	0.0054050712
5009.1127478025	0.0053295149
5011.0415551756	0.0053440197
5012.9703625486	0.0053770449
5014.8991699217	0.0053828973
5016.8279772947	0.0052587735
5018.7567846677	0.0052618179
5020.6855920408	0.0052423165
5022.6143994138	0.0052368687
5024.5432067869	0.0052548321
5026.4720141599	0.0052055605
5028.4008215330	0.0051686931
5030.3296289060	0.0051597329
5032.2584362791	0.0052476577
5034.1872436521	0.0051915525
5036.1160510252	0.0051466506
5038.0448583982	0.0051462371
5039.9736657713	0.0051143616
5041.9024731443	0.0050972765
5043.8312805174	0.0050772987
5045.7600878904	0.0050455206
5047.6888952634	0.0049778563
5049.6177026365	0.0050895894
5051.5465100095	0.0050174803
5053.4753173826	0.0048981486
5055.4041247556	0.0049326140
5057.3329321287	0.0049626157
5059.2617395017	0.0050650360
5061.1905468748	0.0049627475
5063.1193542478	0.0048786588
5065.0481616209	0.0048597702
5066.9769689939	0.0049643200
5068.9057763670	0.0050072712
5070.8345837400	0.0048231184
5072.7633911131	0.0048656007
5074.6921984861	0.0048406785
5076.6210058591	0.0048518665
5078.5498132322	0.0048713065
5080.4786206052	0.0047568548
5082.4074279783	0.0048378929
5084.3362353513	0.0048009367
5086.2650427244	0.0046974774
5088.1938500974	0.0047397423
5090.1226574705	0.0047007110
5092.0514648435	0.0046787728
5093.9802722166	0.0047764834
5095.9090795896	0.0047261817
5097.8378869627	0.0046511968
5099.7666943357	0.0046993671
5101.6955017088	0.0046753041
5103.6243090818	0.0046627596
5105.5531164548	0.0046941778
5107.4819238279	0.0046444321
5109.4107312009	0.0045723608
5111.3395385740	0.0046114856
5113.2683459470	0.0046093911
5115.1971533201	0.0045700008
5117.1259606931	0.0046061855
5119.0547680662	0.0045308089
5120.9835754392	0.0044732057
5122.9123828123	0.0045380769
5124.8411901853	0.0045114099
5126.7699975584	0.0044546379
5128.6988049314	0.0044989726
5130.6276123045	0.0044510514
5132.5564196775	0.0043415669
5134.4852270506	0.0043920679
5136.4140344236	0.0044631013
5138.3428417966	0.0044221701
5140.2716491697	0.0043716766
5142.2004565427	0.0043392661
5144.1292639158	0.0043468811
5146.0580712888	0.0043573868
5147.9868786619	0.0042694304
5149.9156860349	0.0043448508
5151.8444934080	0.0043903380
5153.7733007810	0.0042854659
5155.7021081541	0.0042953808
5157.6309155271	0.0041879546
5159.5597229002	0.0042170221
5161.4885302732	0.0042936634
5163.4173376463	0.0041856286
5165.3461450193	0.0041646888
5167.2749523923	0.0041687367
5169.2037597654	0.0042039063
5171.1325671384	0.0041511459
5173.0613745115	0.0041720038
5174.9901818845	0.0042588045
5176.9189892576	0.0041882345
5178.8477966306	0.0041455859
5180.7766040037	0.0041459380
5182.7054113767	0.0041950075
5184.6342187498	0.0041214703
5186.5630261228	0.0040454762
5188.4918334959	0.0041161748
5190.4206408689	0.0040226197
5192.3494482420	0.0039844518
5194.2782556150	0.0041317055
5196.2070629880	0.0040851058
5198.1358703611	0.0039550918
5200.0646777341	0.0039835731
5201.9934851072	0.0040320368
5203.9222924802	0.0039696479
5205.8510998533	0.0038383543
5207.7799072263	0.0038841851
5209.7087145994	0.0039718980
5211.6375219724	0.0039157411
5213.5663293455	0.0039093401
5215.4951367185	0.0039624511
5217.4239440916	0.0039953748
5219.3527514646	0.0039258208
5221.2815588377	0.0038832393
5223.2103662107	0.0039187502
5225.1391735837	0.0038546636
5227.0679809568	0.0038044250
5228.9967883298	0.0038569053
5230.9255957029	0.0037973509
5232.8544030759	0.0037568477
5234.7832104490	0.0038667859
5236.7120178220	0.0038239234
5238.6408251951	0.0037712851
5240.5696325681	0.0037967956
5242.4984399412	0.0037731107
5244.4272473142	0.0037191643
5246.3560546873	0.0036842648
5248.2848620603	0.0036266488
5250.2136694334	0.0036044461
5252.1424768064	0.0037700529
5254.0712841795	0.0036995104
5256.0000915525	0.0036350712
5257.9288989255	0.0036999648
5259.8577062986	0.0036197221
5261.7865136716	0.0036277547
5263.7153210447	0.0035858415
5265.6441284177	0.0036015725
5267.5729357908	0.0036089029
5269.5017431638	0.0036111521
5271.4305505369	0.0036255945
5273.3593579099	0.0036104254
5275.2881652830	0.0036334670
5277.2169726560	0.0035660234
5279.1457800291	0.0036099451
5281.0745874021	0.0035163136
5283.0033947752	0.0034765499
5284.9322021482	0.0035367731
5286.8610095212	0.0035417806
5288.7898168943	0.0035489085
5290.7186242673	0.0034207362
5292.6474316404	0.0034980257
5294.5762390134	0.0034319453
5296.5050463865	0.0034442921
5298.4338537595	0.0035464214
5300.3626611326	0.0034340136
5302.2914685056	0.0034387740
5304.2202758787	0.0033562947
5306.1490832517	0.0034090874
5308.0778906248	0.0034579416
5310.0066979978	0.0034107850
5311.9355053709	0.0033891695
5313.8643127439	0.0034156514
5315.7931201169	0.0033607609
5317.7219274900	0.0032499896
5319.6507348630	0.0033979833
5321.5795422361	0.0033125621
5323.5083496091	0.0033314910
5325.4371569822	0.0033803803
5327.3659643552	0.0032102133
5329.2947717283	0.0032216951
5331.2235791013	0.0032230716
5333.1523864744	0.0032221868
5335.0811938474	0.0032654859
5337.0100012205	0.0033046673
5338.9388085935	0.0030885087
5340.8676159666	0.0031946080
5342.7964233396	0.0032884555
5344.7252307126	0.0030518379
5346.6540380857	0.0032208869
5348.5828454587	0.0031437711
5350.5116528318	0.0031423266
5352.4404602048	0.0031787730
5354.3692675779	0.0030504346
5356.2980749509	0.0031745536
5358.2268823240	0.0031873405
5360.1556896970	0.0031974127
5362.0844970701	0.0030918703
5364.0133044431	0.0030940305
5365.9421118162	0.0031195488
5367.8709191892	0.0030279146
5369.7997265623	0.0031214268
5371.7285339353	0.0031420700
5373.6573413083	0.0030941935
5375.5861486814	0.0030796486
5377.5149560544	0.0030679139
5379.4437634275	0.0030126399
5381.3725708005	0.0030612862
5383.3013781736	0.0030369302
5385.2301855466	0.0029578460
5387.1589929197	0.0029698126
5389.0878002927	0.0029638016
5391.0166076658	0.0030237259
5392.9454150388	0.0029467954
5394.8742224119	0.0029602521
5396.8030297849	0.0029954291
5398.7318371580	0.0028884355
5400.6606445310	0.0028957012
5402.5894519041	0.0029186448
5404.5182592771	0.0028748256
5406.4470666501	0.0028849263
5408.3758740232	0.0029294197
5410.3046813962	0.0028790399
5412.2334887693	0.0029295431
5414.1622961423	0.0027957896
5416.0911035154	0.0027935556
5418.0199108884	0.0029504022
5419.9487182615	0.0027679098
5421.8775256345	0.0028437232
5423.8063330076	0.0028486508
5425.7351403806	0.0028127269
5427.6639477537	0.0028531768
5429.5927551267	0.0026899362
5431.5215624998	0.0027421503
5433.4503698728	0.0028208720
5435.3791772458	0.0028012511
5437.3079846189	0.0027463301
5439.2367919919	0.0027351822
5441.1655993650	0.0027362176
5443.0944067380	0.0027799476
5445.0232141111	0.0027318136
5446.9520214841	0.0026037851
5448.8808288572	0.0027203527
5450.8096362302	0.0027119308
5452.7384436033	0.0027061005
5454.6672509763	0.0027007563
5456.5960583494	0.0026695793
5458.5248657224	0.0027378453
5460.4536730955	0.0026827706
5462.3824804685	0.0027052066
5464.3112878415	0.0026600456
5466.2400952146	0.0026250198
5468.1689025876	0.0026720823
5470.0977099607	0.0026674825
5472.0265173337	0.0026968224
5473.9553247068	0.0025651820
5475.8841320798	0.0024499600
5477.8129394529	0.0025480255
5479.7417468259	0.0025548127
5481.6705541990	0.0025071488
5483.5993615720	0.0026041390
5485.5281689451	0.0026110359
5487.4569763181	0.0026075533
5489.3857836912	0.0026354142
5491.3145910642	0.0025526630
5493.2433984372	0.0025321455
5495.1722058103	0.0025610756
5497.1010131833	0.0025224132
5499.0298205564	0.0024844888
5500.9586279294	0.0025094019
5502.8874353025	0.0024446426
5504.8162426755	0.0024991459
5506.7450500486	0.0025505272
5508.6738574216	0.0024021748
5510.6026647947	0.0024405741
5512.5314721677	0.0025281205
5514.4602795408	0.0025273622
5516.3890869138	0.0024300867
5518.3178942869	0.0024104468
5520.2467016599	0.0024438831
5522.1755090330	0.0024264245
5524.1043164060	0.0024852587
5526.0331237790	0.0024058046
5527.9619311521	0.0023921020
5529.8907385251	0.0023738139
5531.8195458982	0.0023694606
5533.7483532712	0.0024360456
5535.6771606443	0.0023638839
5537.6059680173	0.0024035689
5539.5347753904	0.0023894133
5541.4635827634	0.0023582708
5543.3923901365	0.0023202952
5545.3211975095	0.0022714797
5547.2500048826	0.0023417154
5549.1788122556	0.0022927455
5551.1076196287	0.0023291656
5553.0364270017	0.0023984914
5554.9652343747	0.0023424027
5556.8940417478	0.0023336383
5558.8228491208	0.0022902759
5560.7516564939	0.0022329800
5562.6804638669	0.0022771743
5564.6092712400	0.0023168726
5566.5380786130	0.0022825887
5568.4668859861	0.0022582505
5570.3956933591	0.0023040213
5572.3245007322	0.0022999449
5574.2533081052	0.0021705534
5576.1821154783	0.0021770205
5578.1109228513	0.0022731135
5580.0397302244	0.0022625150
5581.9685375974	0.0022221673
5583.8973449704	0.0021965439
5585.8261523435	0.0021677632
5587.7549597165	0.0021445509
5589.6837670896	0.0022189794
5591.6125744626	0.0022083879
5593.5413818357	0.0021580630
5595.4701892087	0.0022140297
5597.3989965818	0.0021690640
5599.3278039548	0.0021238397
5601.2566113279	0.0021411073
5603.1854187009	0.0021636388
5605.1142260740	0.0021733954
5607.0430334470	0.0021400712
5608.9718408201	0.0021538134
5610.9006481931	0.0021409956
5612.8294555661	0.0020556771
5614.7582629392	0.0020521760
5616.6870703122	0.0021395010
5618.6158776853	0.0022043521
5620.5446850583	0.0021409753
5622.4734924314	0.0020662528
5624.4022998044	0.0020902231
5626.3311071775	0.0020279901
5628.2599145505	0.0020282036
5630.1887219236	0.0020854848
5632.1175292966	0.0020734938
5634.0463366697	0.0020610127
5635.9751440427	0.0019685577
5637.9039514158	0.0020294031
5639.8327587888	0.0020789630
5641.7615661619	0.0019654164
5643.6903735349	0.0019832642
5645.6191809079	0.0020253933
5647.5479882810	0.0019584671
5649.4767956540	0.0019154160
5651.4056030271	0.0019759280
5653.3344104001	0.0019761799
5655.2632177732	0.0019804914
5657.1920251462	0.0019488496
5659.1208325193	0.0019396523
5661.0496398923	0.0019864831
5662.9784472654	0.0018800779
5664.9072546384	0.0019680217
5666.8360620115	0.0019925605
5668.7648693845	0.0018649977
5670.6936767576	0.0019306301
5672.6224841306	0.0019124859
5674.5512915036	0.0019193972
5676.4800988767	0.0018982331
5678.4089062497	0.0017940339
5680.3377136228	0.0018590882
5682.2665209958	0.0018774627
5684.1953283689	0.0018761491
5686.1241357419	0.0019551013
5688.0529431150	0.0018545723
5689.9817504880	0.0017964268
5691.9105578611	0.0018789689
5693.8393652341	0.0018158297
5695.7681726072	0.0017981969
5697.6969799802	0.0018456036
5699.6257873533	0.0017687200
5701.5545947263	0.0017637925
5703.4834020993	0.0018485980
5705.4122094724	0.0017704419
5707.3410168454	0.0017726158
5709.2698242185	0.0018423643
5711.1986315915	0.0017637776
5713.1274389646	0.0018232632
5715.0562463376	0.0018169624
5716.9850537107	0.0017665583
5718.9138610837	0.0017991385
5720.8426684568	0.0017794983
5722.7714758298	0.0017712493
5724.7002832029	0.0016971772
5726.6290905759	0.0016855972
5728.5578979490	0.0016553849
5730.4867053220	0.0016811775
5732.4155126950	0.0017443610
5734.3443200681	0.0016826099
5736.2731274411	0.0016944460
5738.2019348142	0.0016536618
5740.1307421872	0.0016801399
5742.0595495603	0.0017586376
5743.9883569333	0.0017239312
5745.9171643064	0.0017191190
5747.8459716794	0.0017249642
5749.7747790525	0.0016525723
5751.7035864255	0.0015943621
5753.6323937986	0.0016743876
5755.5612011716	0.0016993033
5757.4900085447	0.0016576705
5759.4188159177	0.0016744002
5761.3476232907	0.0017225019
5763.2764306638	0.0016445529
5765.2052380368	0.0015878767
5767.1340454099	0.0016429528
5769.0628527829	0.0015515627
5770.9916601560	0.0015927983
5772.9204675290	0.0016455075
5774.8492749021	0.0015931334
5776.7780822751	0.0015971079
5778.7068896482	0.0015169622
5780.6356970212	0.0015332759
5782.5645043943	0.0015667212
5784.4933117673	0.0015610643
5786.4221191404	0.0015870347
5788.3509265134	0.0015934274
5790.2797338865	0.0015832342
5792.2085412595	0.0015082774
5794.1373486325	0.0015154190
5796.0661560056	0.0015656913
5797.9949633786	0.0015149578
5799.9237707517	0.0015164402
5801.8525781247	0.0015528934
5803.7813854978	0.0015210509
5805.7101928708	0.0015277658
5807.6390002439	0.0014956561
5809.5678076169	0.0014953266
5811.4966149900	0.0015341758
5813.4254223630	0.0014599063
5815.3542297361	0.0014688463
5817.2830371091	0.0015139168
5819.2118444822	0.0015140552
5821.1406518552	0.0014844646
5823.0694592282	0.0014569859
5824.9982666013	0.0014647859
5826.9270739743	0.0014307150
5828.8558813474	0.0014482470
5830.7846887204	0.0014845490
5832.7134960935	0.0014448609
5834.6423034665	0.0014144938
5836.5711108396	0.0014296601
5838.4999182126	0.0014066654
5840.4287255857	0.0014718438
5842.3575329587	0.0015044210
5844.2863403318	0.0014371835
5846.2151477048	0.0014527924
5848.1439550779	0.0014003722
5850.0727624509	0.0013807175
5852.0015698239	0.0013105846
5853.9303771970	0.0013315333
5855.8591845700	0.0014736169
5857.7879919431	0.0014211021
5859.7167993161	0.0013962721
5861.6456066892	0.0013426798
5863.5744140622	0.0013421132
5865.5032214353	0.0013575009
5867.4320288083	0.0013659073
5869.3608361814	0.0013735590
5871.2896435544	0.0013262833
5873.2184509275	0.0014089006
5875.1472583005	0.0013025652
5877.0760656736	0.0013142879
5879.0048730466	0.0014280820
5880.9336804196	0.0013075217
5882.8624877927	0.0012649314
5884.7912951657	0.0012715479
5886.7201025388	0.0013072824
5888.6489099118	0.0012858643
5890.5777172849	0.0013349587
5892.5065246579	0.0013828003
5894.4353320310	0.0012840583
5896.3641394040	0.0012331384
5898.2929467771	0.0012452964
5900.2217541501	0.0013272163
5902.1505615232	0.0012489884
5904.0793688962	0.0012062027
5906.0081762693	0.0013083122
5907.9369836423	0.0012645719
5909.8657910154	0.0012603097
5911.7945983884	0.0012538452
5913.7234057614	0.0011566775
5915.6522131345	0.0011624515
5917.5810205075	0.0012421743
5919.5098278806	0.0012901751
5921.4386352536	0.0012249683
5923.3674426267	0.0012142925
5925.2962499997	0.0012830556
5927.2250573728	0.0011863527
5929.1538647458	0.0012202421
5931.0826721189	0.0012753559
5933.0114794919	0.0012507054
5934.9402868650	0.0012764300
5936.8690942380	0.0011681789
5938.7979016111	0.0012244120
5940.7267089841	0.0011819355
5942.6555163571	0.0011209075
5944.5843237302	0.0012196741
5946.5131311032	0.0011357123
5948.4419384763	0.0012029712
5950.3707458493	0.0012035542
5952.2995532224	0.0011369440
5954.2283605954	0.0011924579
5956.1571679685	0.0011809149
5958.0859753415	0.0011331821
5960.0147827146	0.0010732859
5961.9435900876	0.0011228307
5963.8723974607	0.0011434346
5965.8012048337	0.0011171291
5967.7300122068	0.0010994028
5969.6588195798	0.0010948386
5971.5876269528	0.0010592053
5973.5164343259	0.0010329536
5975.4452416989	0.0011164157
5977.3740490720	0.0011294504
5979.3028564450	0.0011367416
5981.2316638181	0.0011388611
5983.1604711911	0.0011582917
5985.0892785642	0.0011098468
5987.0180859372	0.0010406985
5988.9468933103	0.0011213493
5990.8757006833	0.0010983184
5992.8045080564	0.0011084743
5994.7333154294	0.0011500521
5996.6621228025	0.0010595790
5998.5909301755	0.0010353206
6000.5197375485	0.0010666378
