399.2631262207	0.0016615957
401.1919335938	0.0025076354
403.1207409668	0.0026660878
405.0495483398	0.0029178988
406.9783557129	0.0032142936
408.9071630859	0.0024272143
410.8359704590	0.0030394536
412.7647778320	0.0029539191
414.6935852051	0.0030327081
416.6223925781	0.0032088947
418.5511999512	0.0023568729
420.4800073242	0.0030474050
422.4088146973	0.0035039475
424.3376220703	0.0028144594
426.2664294434	0.0036019641
428.1952368164	0.0038333675
430.1240441895	0.0029666959
432.0528515625	0.0034330701
433.9816589355	0.0033663523
435.9104663086	0.0032307464
437.8392736816	0.0033247683
439.7680810547	0.0029757847
441.6968884277	0.0030924901
443.6256958008	0.0028686165
445.5545031738	0.0031545658
447.4833105469	0.0029103567
449.4121179199	0.0022453126
451.3409252930	0.0024906835
453.2697326660	0.0023379563
455.1985400391	0.0022708261
457.1273474121	0.0022042450
459.0561547852	0.0018273205
460.9849621582	0.0014368321
462.9137695313	0.0016323463
464.8425769043	0.0018558439
466.7713842773	0.0012438898
468.7001916504	0.0013150687
470.6289990234	0.0018845308
472.5578063965	0.0017837787
474.4866137695	0.0011223583
476.4154211426	0.0011405158
478.3442285156	0.0013583136
480.2730358887	0.0005736630
482.2018432617	0.0003875287
484.1306506348	0.0006062852
486.0594580078	0.0006329557
487.9882653809	0.0009407413
489.9170727539	0.0006388339
491.8458801270	0.0005354338
493.7746875000	0.0006339464
495.7034948730	0.0003462202
497.6323022461	0.0005728744
499.5611096191	0.0005665394
501.4899169922	0.0007228394
503.4187243652	0.0006730021
505.3475317383	0.0001671724
507.2763391113	0.0006699070
509.2051464844	0.0008831404
511.1339538574	0.0008144696
513.0627612305	0.0003188715
514.9915686035	0.0003529908
516.9203759766	0.0012508493
518.8491833496	0.0004236419
520.7779907227	0.0005826795
522.7067980957	0.0012288094
524.6356054688	0.0005371800
526.5644128418	0.0007711847
528.4932202148	0.0007040721
530.4220275879	0.0004538404
532.3508349609	0.0005511525
534.2796423340	0.0005681126
536.2084497070	0.0006726895
538.1372570801	0.0004542808
540.0660644531	0.0006219834
541.9948718262	0.0008926659
543.9236791992	0.0006535664
545.8524865723	0.0006065524
547.7812939453	0.0008923849
549.7101013184	0.0005174596
551.6389086914	0.0004902915
553.5677160645	0.0008185695
555.4965234375	0.0005392806
557.4253308105	0.0007484391
559.3541381836	0.0005823822
561.2829455566	0.0007798689
563.2117529297	0.0006749618
565.1405603027	-0.0003707714
567.0693676758	0.0004858356
568.9981750488	0.0010527180
570.9269824219	0.0004635062
572.8557897949	0.0003755975
574.7845971680	0.0004559617
576.7134045410	0.0005404974
578.6422119141	0.0002659275
580.5710192871	0.0001918970
582.4998266602	0.0004212344
584.4286340332	0.0004965708
586.3574414063	0.0004570964
588.2862487793	0.0002329623
590.2150561523	0.0001727511
592.1438635254	0.0006597545
594.0726708984	0.0004710642
596.0014782715	0.0001422826
597.9302856445	0.0008612316
599.8590930176	0.0009411579
601.7879003906	0.0006075986
603.7167077637	0.0003132915
605.6455151367	0.0004544356
607.5743225098	0.0006167838
609.5031298828	0.0002595012
611.4319372559	0.0004895239
613.3607446289	0.0003462585
615.2895520020	0.0004642583
617.2183593750	0.0004748501
619.1471667480	0.0001017260
621.0759741211	0.0000659771
623.0047814941	0.0003821765
624.9335888672	0.0004291977
626.8623962402	-0.0001859507
628.7912036133	0.0001291022
630.7200109863	0.0009314925
632.6488183594	0.0017225083
634.5776257324	0.0021996750
636.5064331055	0.0024158242
638.4352404785	0.0026056790
640.3640478516	0.0023567104
642.2928552246	0.0027225651
644.2216625977	0.0034197068
646.1504699707	0.0034991519
648.0792773438	0.0036915364
650.0080847168	0.0041366448
651.9368920898	0.0043276399
653.8656994629	0.0042784745
655.7945068359	0.0044631339
657.7233142090	0.0045749769
659.6521215820	0.0048277881
661.5809289551	0.0051026326
663.5097363281	0.0051471516
665.4385437012	0.0051365895
667.3673510742	0.0048657921
669.2961584473	0.0053671440
671.2249658203	0.0058262404
673.1537731934	0.0058865338
675.0825805664	0.0065032793
677.0113879395	0.0066924682
678.9401953125	0.0064784307
680.8690026855	0.0064936634
682.7978100586	0.0065907994
684.7266174316	0.0064094830
686.6554248047	0.0065311827
688.5842321777	0.0064450847
690.5130395508	0.0065953592
692.4418469238	0.0075406265
694.3706542969	0.0075425957
696.2994616699	0.0084847435
698.2282690430	0.0099623501
700.1570764160	0.0104930717
702.0858837891	0.0106341857
704.0146911621	0.0097150095
705.9434985352	0.0088058207
707.8723059082	0.0073091439
709.8011132813	0.0057509453
711.7299206543	0.0043419888
713.6587280273	0.0022128231
715.5875354004	0.0013489411
717.5163427734	0.0011144882
719.4451501465	0.0006102439
721.3739575195	0.0004150082
723.3027648926	0.0004263349
725.2315722656	0.0003747492
727.1603796387	0.0001784823
729.0891870117	0.0002100399
731.0179943848	0.0004521705
732.9468017578	0.0002664765
734.8756091309	0.0001798224
736.8044165039	0.0004029954
738.7332238770	-0.0001851184
740.6620312500	-0.0000981196
742.5908386230	0.0004123176
744.5196459961	0.0001763528
746.4484533691	0.0000305424
748.3772607422	0.0001872197
750.3060681152	0.0006123323
752.2348754883	0.0003341530
754.1636828613	0.0004208749
756.0924902344	0.0006368617
758.0212976074	0.0002551658
759.9501049805	0.0004054727
761.8789123535	0.0002670494
763.8077197266	0.0002823303
765.7365270996	0.0004439233
767.6653344727	0.0006290821
769.5941418457	0.0007148086
771.5229492188	0.0002924564
773.4517565918	0.0005054403
775.3805639648	0.0005915263
777.3093713379	0.0005380391
779.2381787109	0.0005645137
781.1669860840	0.0007384622
783.0957934570	0.0008259485
785.0246008301	0.0004585854
786.9534082031	0.0003715151
788.8822155762	0.0007045998
790.8110229492	0.0009002958
792.7398303223	0.0004231943
794.6686376953	0.0008168712
796.5974450684	0.0012036783
798.5262524414	0.0012791569
800.4550598145	0.0017332630
802.3838671875	0.0013147572
804.3126745605	0.0012546452
806.2414819336	0.0009240214
808.1702893066	0.0007585166
810.0990966797	0.0011349622
812.0279040527	0.0007706573
813.9567114258	0.0006410585
815.8855187988	0.0004170836
817.8143261719	0.0004823150
819.7431335449	0.0005929843
821.6719409180	0.0005339552
823.6007482910	0.0009139698
825.5295556641	0.0007939512
827.4583630371	0.0005842207
829.3871704102	0.0008952514
831.3159777832	0.0014342833
833.2447851563	0.0018921525
835.1735925293	0.0022645872
837.1023999023	0.0023196135
839.0312072754	0.0020943510
840.9600146484	0.0020973142
842.8888220215	0.0020631342
844.8176293945	0.0018290200
846.7464367676	0.0015583166
848.6752441406	0.0015215134
850.6040515137	0.0015276929
852.5328588867	0.0012290307
854.4616662598	0.0012568898
856.3904736328	0.0012574561
858.3192810059	0.0007875100
860.2480883789	0.0009279988
862.1768957520	0.0008153556
864.1057031250	0.0003396144
866.0345104980	0.0005481364
867.9633178711	0.0005687507
869.8921252441	0.0005569229
871.8209326172	0.0003479570
873.7497399902	0.0002283219
875.6785473633	0.0005170440
877.6073547363	0.0005882661
879.5361621094	0.0005832272
881.4649694824	0.0001721752
883.3937768555	0.0002409452
885.3225842285	0.0004826561
887.2513916016	0.0004729336
889.1801989746	0.0006300181
891.1090063477	0.0001448101
893.0378137207	0.0001617140
894.9666210938	0.0005905138
896.8954284668	0.0004447450
898.8242358398	0.0004974472
900.7530432129	0.0005524283
902.6818505859	0.0006342917
904.6106579590	0.0008507144
906.5394653320	0.0005347021
908.4682727051	0.0005707390
910.3970800781	0.0008172566
912.3258874512	0.0007372652
914.2546948242	0.0010859696
916.1835021973	0.0011601507
918.1123095703	0.0013722759
920.0411169434	0.0016063469
921.9699243164	0.0017076130
923.8987316895	0.0020400584
925.8275390625	0.0018562812
927.7563464355	0.0021026023
929.6851538086	0.0023765506
931.6139611816	0.0024789067
933.5427685547	0.0027576066
935.4715759277	0.0029009101
937.4003833008	0.0031240161
939.3291906738	0.0032746755
941.2579980469	0.0034260615
943.1868054199	0.0031834804
945.1156127930	0.0032312041
947.0444201660	0.0032733369
948.9732275391	0.0031679852
950.9020349121	0.0033509983
952.8308422852	0.0030575353
954.7596496582	0.0030681507
956.6884570313	0.0031547579
958.6172644043	0.0031982590
960.5460717773	0.0032863421
962.4748791504	0.0032059192
964.4036865234	0.0032081301
966.3324938965	0.0032983874
968.2613012695	0.0037601721
970.1901086426	0.0038060863
972.1189160156	0.0037712376
974.0477233887	0.0041109426
975.9765307617	0.0044398340
977.9053381348	0.0047546830
979.8341455078	0.0051596281
981.7629528809	0.0056191967
983.6917602539	0.0060384455
985.6205676270	0.0069337124
987.5493750000	0.0076451609
989.4781823730	0.0085291285
991.4069897461	0.0097531695
993.3357971191	0.0105684455
995.2646044922	0.0113624241
997.1934118652	0.0121648442
999.1222192383	0.0133250616
1001.0510266113	0.0142222196
1002.9798339844	0.0151276151
1004.9086413574	0.0162710324
1006.8374487305	0.0171684101
1008.7662561035	0.0185493715
1010.6950634766	0.0195730664
1012.6238708496	0.0205013752
1014.5526782227	0.0216883533
1016.4814855957	0.0225060470
1018.4102929688	0.0237103440
1020.3391003418	0.0249081925
1022.2679077148	0.0258340426
1024.1967150879	0.0269639716
1026.1255224609	0.0278375484
1028.0543298340	0.0286608580
1029.9831372070	0.0295907110
1031.9119445801	0.0302299932
1033.8407519531	0.0309309177
1035.7695593262	0.0315553471
1037.6983666992	0.0318925716
1039.6271740723	0.0319705158
1041.5559814453	0.0317874663
1043.4847888184	0.0316293426
1045.4135961914	0.0312763974
1047.3424035645	0.0307492688
1049.2712109375	0.0302548651
1051.2000183105	0.0297755003
1053.1288256836	0.0291083213
1055.0576330566	0.0284575410
1056.9864404297	0.0280411206
1058.9152478027	0.0271854624
1060.8440551758	0.0263986401
1062.7728625488	0.0259837955
1064.7016699219	0.0247035474
1066.6304772949	0.0235361122
1068.5592846680	0.0231499802
1070.4880920410	0.0218720231
1072.4168994141	0.0207786113
1074.3457067871	0.0201945864
1076.2745141602	0.0191035792
1078.2033215332	0.0183846653
1080.1321289062	0.0174316578
1082.0609362793	0.0164696313
1083.9897436523	0.0156272240
1085.9185510254	0.0146627855
1087.8473583984	0.0143095320
1089.7761657715	0.0136605464
1091.7049731445	0.0130248182
1093.6337805176	0.0126343388
1095.5625878906	0.0120833749
1097.4913952637	0.0116947088
1099.4202026367	0.0112068793
1101.3490100098	0.0110081388
1103.2778173828	0.0107888551
1105.2066247559	0.0102864234
1107.1354321289	0.0102951676
1109.0642395019	0.0101537267
1110.9930468750	0.0097659416
1112.9218542480	0.0099838525
1114.8506616211	0.0100101903
1116.7794689941	0.0096749421
1118.7082763672	0.0097163748
1120.6370837402	0.0098284036
1122.5658911133	0.0098575735
1124.4946984863	0.0102041364
1126.4235058594	0.0103146294
1128.3523132324	0.0101827830
1130.2811206055	0.0107137896
1132.2099279785	0.0109865023
1134.1387353516	0.0111459829
1136.0675427246	0.0118195247
1137.9963500977	0.0122914705
1139.9251574707	0.0129500236
1141.8539648437	0.0139920544
1143.7827722168	0.0149803199
1145.7115795898	0.0157397762
1147.6403869629	0.0167652108
1149.5691943359	0.0177254453
1151.4980017090	0.0185998157
1153.4268090820	0.0196811855
1155.3556164551	0.0203917176
1157.2844238281	0.0212561339
1159.2132312012	0.0220378004
1161.1420385742	0.0227892324
1163.0708459473	0.0236496013
1164.9996533203	0.0245328024
1166.9284606934	0.0255156215
1168.8572680664	0.0262187365
1170.7860754394	0.0272608325
1172.7148828125	0.0282988921
1174.6436901855	0.0293121673
1176.5724975586	0.0303390436
1178.5013049316	0.0313826762
1180.4301123047	0.0326591581
1182.3589196777	0.0339893810
1184.2877270508	0.0357804559
1186.2165344238	0.0373405069
1188.1453417969	0.0389836654
1190.0741491699	0.0408709496
1192.0029565430	0.0425624773
1193.9317639160	0.0445356295
1195.8605712891	0.0468909182
1197.7893786621	0.0490399823
1199.7181860351	0.0509064794
1201.6469934082	0.0532371998
1203.5758007812	0.0552119389
1205.5046081543	0.0572675616
1207.4334155273	0.0594768897
1209.3622229004	0.0613073744
1211.2910302734	0.0632029623
1213.2198376465	0.0648439005
1215.1486450195	0.0666088238
1217.0774523926	0.0678692609
1219.0062597656	0.0689956099
1220.9350671387	0.0701348186
1222.8638745117	0.0709607452
1224.7926818848	0.0717278272
1226.7214892578	0.0720201731
1228.6502966308	0.0725030154
1230.5791040039	0.0727677271
1232.5079113769	0.0728495568
1234.4367187500	0.0728087425
1236.3655261230	0.0727902055
1238.2943334961	0.0728882402
1240.2231408691	0.0726237893
1242.1519482422	0.0724071562
1244.0807556152	0.0719343722
1246.0095629883	0.0716664493
1247.9383703613	0.0712976679
1249.8671777344	0.0708754808
1251.7959851074	0.0702561438
1253.7247924805	0.0692924410
1255.6535998535	0.0687384605
1257.5824072266	0.0676179528
1259.5112145996	0.0665114969
1261.4400219726	0.0656595826
1263.3688293457	0.0647490323
1265.2976367187	0.0639084354
1267.2264440918	0.0631928593
1269.1552514648	0.0624348447
1271.0840588379	0.0613614693
1273.0128662109	0.0603251047
1274.9416735840	0.0590457767
1276.8704809570	0.0581591427
1278.7992883301	0.0570394434
1280.7280957031	0.0557482354
1282.6569030762	0.0546917170
1284.5857104492	0.0536039397
1286.5145178223	0.0527671650
1288.4433251953	0.0516977645
1290.3721325683	0.0511852950
1292.3009399414	0.0506042019
1294.2297473144	0.0503485724
1296.1585546875	0.0501886718
1298.0873620605	0.0497975275
1300.0161694336	0.0500737987
1301.9449768066	0.0501812361
1303.8737841797	0.0508704111
1305.8025915527	0.0510389544
1307.7313989258	0.0517084897
1309.6602062988	0.0529882759
1311.5890136719	0.0533253700
1313.5178210449	0.0546310171
1315.4466284180	0.0560273565
1317.3754357910	0.0571463853
1319.3042431640	0.0585236251
1321.2330505371	0.0604580939
1323.1618579101	0.0623652749
1325.0906652832	0.0639289916
1327.0194726562	0.0658453554
1328.9482800293	0.0675332397
1330.8770874023	0.0693326294
1332.8058947754	0.0709950700
1334.7347021484	0.0723132491
1336.6635095215	0.0729796439
1338.5923168945	0.0729073435
1340.5211242676	0.0736804157
1342.4499316406	0.0760612562
1344.3787390137	0.0767862499
1346.3075463867	0.0761210620
1348.2363537597	0.0764159188
1350.1651611328	0.0757896528
1352.0939685058	0.0757240504
1354.0227758789	0.0750343204
1355.9515832519	0.0740878284
1357.8803906250	0.0739856213
1359.8091979980	0.0726030469
1361.7380053711	0.0701881945
1363.6668127441	0.0691165924
1365.5956201172	0.0716187358
1367.5244274902	0.0703143626
1369.4532348633	0.0695115179
1371.3820422363	0.0707055628
1373.3108496094	0.0673305541
1375.2396569824	0.0680084229
1377.1684643555	0.0691268295
1379.0972717285	0.0687484071
1381.0260791015	0.0689177662
1382.9548864746	0.0685050637
1384.8836938476	0.0685695335
1386.8125012207	0.0659763217
1388.7413085937	0.0672652274
1390.6701159668	0.0713754296
1392.5989233398	0.0698958784
1394.5277307129	0.0668029785
1396.4565380859	0.0693008304
1398.3853454590	0.0694848746
1400.3141528320	0.0691079497
1402.2429602051	0.0734333172
1404.1717675781	0.0702836737
1406.1005749512	0.0707768425
1408.0293823242	0.0726036429
1409.9581896972	0.0703620762
1411.8869970703	0.0716578960
1413.8158044433	0.0692155659
1415.7446118164	0.0701062679
1417.6734191894	0.0644803643
1419.6022265625	0.0588098019
1421.5310339355	0.0652741492
1423.4598413086	0.0637396127
1425.3886486816	0.0617002398
1427.3174560547	0.0618376434
1429.2462634277	0.0580270179
1431.1750708008	0.0559975952
1433.1038781738	0.0566159897
1435.0326855469	0.0521262586
1436.9614929199	0.0453873165
1438.8903002929	0.0501176268
1440.8191076660	0.0504728854
1442.7479150390	0.0474345200
1444.6767224121	0.0492054299
1446.6055297851	0.0457864106
1448.5343371582	0.0464274287
1450.4631445312	0.0476482809
1452.3919519043	0.0486423895
1454.3207592773	0.0505026840
1456.2495666504	0.0435449295
1458.1783740234	0.0458331406
1460.1071813965	0.0579280406
1462.0359887695	0.0610758923
1463.9647961426	0.0618330687
1465.8936035156	0.0645756274
1467.8224108886	0.0722877383
1469.7512182617	0.0773902982
1471.6800256347	0.0715152472
1473.6088330078	0.0754009336
1475.5376403808	0.0845328271
1477.4664477539	0.0904836208
1479.3952551269	0.0980624035
1481.3240625000	0.1003313139
1483.2528698730	0.1059919000
1485.1816772461	0.1095287949
1487.1104846191	0.1091063693
1489.0392919922	0.1095455214
1490.9680993652	0.1110327244
1492.8969067383	0.1252165586
1494.8257141113	0.1232250631
1496.7545214843	0.1139851213
1498.6833288574	0.1267609000
1500.6121362304	0.1300886422
1502.5409436035	0.1376931965
1504.4697509765	0.1318998337
1506.3985583496	0.1032374725
1508.3273657226	0.1215169281
1510.2561730957	0.1378508210
1512.1849804687	0.1344445348
1514.1137878418	0.1433677822
1516.0425952148	0.1322477311
1517.9714025879	0.1376482248
1519.9002099609	0.1327223331
1521.8290173340	0.1193102300
1523.7578247070	0.1399920881
1525.6866320801	0.1375049651
1527.6154394531	0.1378571093
1529.5442468261	0.1488978863
1531.4730541992	0.1441406161
1533.4018615722	0.1348376721
1535.3306689453	0.1412898451
1537.2594763183	0.1482725143
1539.1882836914	0.1137275547
1541.1170910644	0.1185481697
1543.0458984375	0.1365712136
1544.9747058105	0.1324346364
1546.9035131836	0.1509983838
1548.8323205566	0.1426981241
1550.7611279297	0.1469157338
1552.6899353027	0.1455467343
1554.6187426758	0.1351405084
1556.5475500488	0.1426783353
1558.4763574218	0.1082301885
1560.4051647949	0.1151321232
1562.3339721679	0.1517556459
1564.2627795410	0.1451819241
1566.1915869140	0.1484802663
1568.1203942871	0.1467885226
1570.0492016601	0.1338288337
1571.9780090332	0.1497363150
1573.9068164062	0.1504556984
1575.8356237793	0.1247428060
1577.7644311523	0.1383405924
1579.6932385254	0.1523824930
1581.6220458984	0.1462111771
1583.5508532715	0.1502072066
1585.4796606445	0.1478157490
1587.4084680175	0.1487476677
1589.3372753906	0.1480608881
1591.2660827636	0.1475898772
1593.1948901367	0.1479703486
1595.1236975097	0.1462918520
1597.0525048828	0.1481557488
1598.9813122558	0.1471064091
1600.9101196289	0.1476998329
1602.8389270019	0.1457729042
1604.7677343750	0.1476781815
1606.6965417480	0.1459707320
1608.6253491211	0.1455831528
1610.5541564941	0.1453064084
1612.4829638672	0.1460851431
1614.4117712402	0.1476424932
1616.3405786132	0.1252271533
1618.2693859863	0.1342724264
1620.1981933593	0.1515252739
1622.1270007324	0.1373166740
1624.0558081054	0.1384542584
1625.9846154785	0.1432185322
1627.9134228515	0.1430710852
1629.8422302246	0.1419890523
1631.7710375976	0.1494990736
1633.6998449707	0.1401509047
1635.6286523437	0.1206536740
1637.5574597168	0.1365144998
1639.4862670898	0.1464361697
1641.4150744629	0.1437922120
1643.3438818359	0.1467529684
1645.2726892090	0.1346977651
1647.2014965820	0.1226654500
1649.1303039550	0.1458547413
1651.0591113281	0.1381026506
1652.9879187011	0.0976193547
1654.9167260742	0.1252263039
1656.8455334472	0.1496913731
1658.7743408203	0.1441021115
1660.7031481933	0.1478174031
1662.6319555664	0.1366415471
1664.5607629394	0.1431148052
1666.4895703125	0.1507725120
1668.4183776855	0.1355309784
1670.3471850586	0.1330316663
1672.2759924316	0.1463702917
1674.2047998047	0.1371746957
1676.1336071777	0.1328836381
1678.0624145507	0.1487519741
1679.9912219238	0.1440295875
1681.9200292968	0.1432082653
1683.8488366699	0.1208756119
1685.7776440429	0.1199053675
1687.7064514160	0.1549274921
1689.6352587890	0.1376616359
1691.5640661621	0.1487731934
1693.4928735351	0.1502390653
1695.4216809082	0.1168811917
1697.3504882812	0.1384481192
1699.2792956543	0.1248390228
1701.2081030273	0.1154364645
1703.1369104004	0.1471058130
1705.0657177734	0.1371379495
1706.9945251464	0.1379416585
1708.9233325195	0.1472151875
1710.8521398925	0.1422920823
1712.7809472656	0.1443310231
1714.7097546386	0.1360158324
1716.6385620117	0.1241140217
1718.5673693847	0.1227529496
1720.4961767578	0.1408891231
1722.4249841308	0.1442383230
1724.3537915039	0.1361364424
1726.2825988769	0.1453235745
1728.2114062500	0.1358104795
1730.1402136230	0.1372870505
1732.0690209961	0.1333106011
1733.9978283691	0.1078338623
1735.9266357421	0.1281018406
1737.8554431152	0.1384371221
1739.7842504882	0.1264726371
1741.7130578613	0.1354971826
1743.6418652343	0.1372915357
1745.5706726074	0.1373599768
1747.4994799804	0.1387231201
1749.4282873535	0.1340615451
1751.3570947265	0.1291406453
1753.2859020996	0.1405050159
1755.2147094726	0.1454908103
1757.1435168457	0.1355246007
1759.0723242187	0.1460028291
1761.0011315918	0.1385672092
1762.9299389648	0.1353071034
1764.8587463379	0.1501594484
1766.7875537109	0.1378094703
1768.7163610839	0.1391353309
1770.6451684570	0.1383311749
1772.5739758300	0.1273790449
1774.5027832031	0.1389245242
1776.4315905761	0.1449311376
1778.3603979492	0.1430072337
1780.2892053222	0.1416369677
1782.2180126953	0.1425789744
1784.1468200683	0.1421808600
1786.0756274414	0.1399798393
1788.0044348144	0.1457467377
1789.9332421875	0.1426666379
1791.8620495605	0.1320080459
1793.7908569336	0.1364381760
1795.7196643066	0.1440862715
1797.6484716796	0.1424981058
1799.5772790527	0.1408399940
1801.5060864257	0.1391337216
1803.4348937988	0.1426796317
1805.3637011718	0.1448990107
1807.2925085449	0.1430878639
1809.2213159179	0.1434957683
1811.1501232910	0.1406462193
1813.0789306640	0.1440134048
1815.0077380371	0.1441855282
1816.9365454101	0.1428985894
1818.8653527832	0.1440620571
1820.7941601562	0.1434811652
1822.7229675293	0.1450455487
1824.6517749023	0.1376101226
1826.5805822753	0.1415077448
1828.5093896484	0.1415560544
1830.4381970214	0.1348247528
1832.3670043945	0.1439162791
1834.2958117675	0.1428852081
1836.2246191406	0.1427741051
1838.1534265136	0.1421971172
1840.0822338867	0.1430159211
1842.0110412597	0.1430437118
1843.9398486328	0.1301381886
1845.8686560058	0.1369593143
1847.7974633789	0.1428554058
1849.7262707519	0.1402101070
1851.6550781250	0.1433111727
1853.5838854980	0.1410961747
1855.5126928710	0.1420614719
1857.4415002441	0.1412474215
1859.3703076171	0.1404417008
1861.2991149902	0.1412661970
1863.2279223632	0.1400114000
1865.1567297363	0.1409354359
1867.0855371093	0.1373031437
1869.0143444824	0.1329608262
1870.9431518554	0.1368967891
1872.8719592285	0.1404988170
1874.8007666015	0.1387428641
1876.7295739746	0.1393697113
1878.6583813476	0.1387561262
1880.5871887207	0.1381800473
1882.5159960937	0.1389003694
1884.4448034667	0.1373297274
1886.3736108398	0.1388445199
1888.3024182128	0.1362515390
1890.2312255859	0.1343008876
1892.1600329589	0.1378591657
1894.0888403320	0.1363572776
1896.0176477050	0.1359067261
1897.9464550781	0.1369160414
1899.8752624511	0.1362752616
1901.8040698242	0.1363754869
1903.7328771972	0.1355774403
1905.6616845703	0.1360794604
1907.5904919433	0.1350852251
1909.5192993164	0.1341963410
1911.4481066894	0.1348330230
1913.3769140625	0.1349136233
1915.3057214355	0.1357082278
1917.2345288085	0.1310675591
1919.1633361816	0.1311485618
1921.0921435546	0.1350172758
1923.0209509277	0.1316483319
1924.9497583007	0.1335489154
1926.8785656738	0.1345427781
1928.8073730468	0.1332871616
1930.7361804199	0.1344209909
1932.6649877929	0.1329630613
1934.5937951660	0.1338062733
1936.5226025390	0.1330570281
1938.4514099121	0.1335170567
1940.3802172851	0.1332730949
1942.3090246582	0.1299369335
1944.2378320312	0.1317089200
1946.1666394042	0.1325832605
1948.0954467773	0.1324116290
1950.0242541503	0.1327799559
1951.9530615234	0.1322868168
1953.8818688964	0.1323270500
1955.8106762695	0.1318792105
1957.7394836425	0.1321186125
1959.6682910156	0.1319177449
1961.5970983886	0.1315642893
1963.5259057617	0.1319049448
1965.4547131347	0.1312326193
1967.3835205078	0.1302056164
1969.3123278808	0.1309701800
1971.2411352539	0.1313873082
1973.1699426269	0.1307226717
1975.0987499999	0.1309659183
1977.0275573730	0.1305488348
1978.9563647460	0.1306504011
1980.8851721191	0.1306140721
1982.8139794921	0.1301086545
1984.7427868652	0.1302374899
1986.6715942382	0.1293823719
1988.6004016113	0.1294731349
1990.5292089843	0.1287988126
1992.4580163574	0.1275308430
1994.3868237304	0.1286855042
1996.3156311035	0.1286965609
1998.2444384765	0.1281047463
2000.1732458496	0.1283509284
2002.1020532226	0.1279307753
2004.0308605956	0.1278620064
2005.9596679687	0.1274294257
2007.8884753417	0.1269074380
2009.8172827148	0.1267913282
2011.7460900878	0.1263817847
2013.6748974609	0.1264482588
2015.6037048339	0.1256801188
2017.5325122070	0.1248182505
2019.4613195800	0.1252513081
2021.3901269531	0.1251825839
2023.3189343261	0.1247743219
2025.2477416992	0.1245595962
2027.1765490722	0.1241468415
2029.1053564453	0.1239238381
2031.0341638183	0.1237040609
2032.9629711914	0.1233244687
2034.8917785644	0.1230926365
2036.8205859374	0.1227802187
2038.7493933105	0.1225554943
2040.6782006835	0.1220915318
2042.6070080566	0.1218094528
2044.5358154296	0.1218317598
2046.4646228027	0.1212381795
2048.3934301757	0.1211517155
2050.3222375488	0.1209649369
2052.2510449218	0.1206249446
2054.1798522949	0.1205232218
2056.1086596679	0.1201214790
2058.0374670410	0.1200372875
2059.9662744140	0.1195939183
2061.8950817871	0.1193349063
2063.8238891601	0.1189216599
2065.7526965331	0.1185383350
2067.6815039062	0.1186996624
2069.6103112792	0.1183722764
2071.5391186523	0.1182924807
2073.4679260253	0.1178858429
2075.3967333984	0.1175461113
2077.3255407714	0.1174730957
2079.2543481445	0.1170448065
2081.1831555175	0.1169906855
2083.1119628906	0.1167552918
2085.0407702636	0.1163746715
2086.9695776367	0.1162217855
2088.8983850097	0.1158531755
2090.8271923828	0.1155513227
2092.7559997558	0.1157053038
2094.6848071288	0.1154429764
2096.6136145019	0.1152200103
2098.5424218749	0.1150717288
2100.4712292480	0.1145086586
2102.4000366210	0.1144403070
2104.3288439941	0.1142564490
2106.2576513671	0.1141616404
2108.1864587402	0.1140633523
2110.1152661132	0.1137035787
2112.0440734863	0.1135153919
2113.9728808593	0.1131826043
2115.9016882324	0.1129405573
2117.8304956054	0.1128056645
2119.7593029785	0.1128615439
2121.6881103515	0.1126431525
2123.6169177245	0.1123588830
2125.5457250976	0.1121790409
2127.4745324706	0.1119789779
2129.4033398437	0.1118474677
2131.3321472167	0.1115651876
2133.2609545898	0.1115105450
2135.1897619628	0.1111283600
2137.1185693359	0.1109967977
2139.0473767089	0.1110690087
2140.9761840820	0.1108105630
2142.9049914550	0.1107403338
2144.8337988281	0.1104796529
2146.7626062011	0.1102950275
2148.6914135742	0.1102234423
2150.6202209472	0.1101594567
2152.5490283203	0.1099155098
2154.4778356933	0.1097939163
2156.4066430663	0.1097067967
2158.3354504394	0.1094004214
2160.2642578124	0.1093136817
2162.1930651855	0.1091352552
2164.1218725585	0.1090318710
2166.0506799316	0.1087993383
2167.9794873046	0.1086840332
2169.9082946777	0.1085436046
2171.8371020507	0.1083355099
2173.7659094238	0.1083123833
2175.6947167968	0.1080542952
2177.6235241699	0.1079377383
2179.5523315429	0.1076737121
2181.4811389160	0.1076746434
2183.4099462890	0.1076001674
2185.3387536620	0.1073217094
2187.2675610351	0.1072262228
2189.1963684081	0.1070029587
2191.1251757812	0.1070376709
2193.0539831542	0.1067741513
2194.9827905273	0.1066228449
2196.9115979003	0.1065025851
2198.8404052734	0.1062875390
2200.7692126464	0.1061326712
2202.6980200195	0.1059868634
2204.6268273925	0.1060744077
2206.5556347656	0.1057433188
2208.4844421386	0.1056703180
2210.4132495117	0.1054541022
2212.3420568847	0.1052387580
2214.2708642577	0.1052672938
2216.1996716308	0.1049878299
2218.1284790038	0.1048959792
2220.0572863769	0.1046606824
2221.9860937499	0.1046611220
2223.9149011230	0.1043773443
2225.8437084960	0.1041013151
2227.7725158691	0.1041726023
2229.7013232421	0.1038773209
2231.6301306152	0.1037634611
2233.5589379882	0.1035703719
2235.4877453613	0.1034032851
2237.4165527343	0.1032604128
2239.3453601074	0.1030331403
2241.2741674804	0.1028018743
2243.2029748534	0.1026744843
2245.1317822265	0.1026603431
2247.0605895995	0.1024001613
2248.9893969726	0.1021700948
2250.9182043456	0.1019903868
2252.8470117187	0.1018931419
2254.7758190917	0.1016842723
2256.7046264648	0.1014687344
2258.6334338378	0.1013079733
2260.5622412109	0.1010489911
2262.4910485839	0.1008614600
2264.4198559570	0.1008024514
2266.3486633300	0.1007040292
2268.2774707031	0.1004852802
2270.2062780761	0.1004370749
2272.1350854491	0.1001206636
2274.0638928222	0.1001500785
2275.9927001952	0.1001115888
2277.9215075683	0.0997270793
2279.8503149413	0.0997922421
2281.7791223144	0.0995074213
2283.7079296874	0.0995156169
2285.6367370605	0.0993383080
2287.5655444335	0.0989985317
2289.4943518066	0.0989220813
2291.4231591796	0.0985706598
2293.3519665527	0.0984410346
2295.2807739257	0.0980010703
2297.2095812988	0.0976391435
2299.1383886718	0.0971615911
2301.0671960449	0.0968201905
2302.9960034179	0.0966061354
2304.9248107909	0.0959153622
2306.8536181640	0.0955238938
2308.7824255370	0.0947686136
2310.7112329101	0.0939708501
2312.6400402831	0.0930422619
2314.5688476562	0.0920285657
2316.4976550292	0.0912240744
2318.4264624023	0.0899113864
2320.3552697753	0.0886707008
2322.2840771484	0.0874281675
2324.2128845214	0.0863947272
2326.1416918945	0.0855555981
2328.0704992675	0.0845533237
2329.9993066406	0.0834827721
2331.9281140136	0.0827888772
2333.8569213866	0.0826987475
2335.7857287597	0.0823268592
2337.7145361327	0.0821944177
2339.6433435058	0.0821034014
2341.5721508788	0.0822546259
2343.5009582519	0.0834988877
2345.4297656249	0.0849860758
2347.3585729980	0.0883277357
2349.2873803710	0.0909588486
2351.2161877441	0.0879191458
2353.1449951171	0.0836139023
2355.0738024902	0.0808808580
2357.0026098632	0.0782713220
2358.9314172363	0.0768487006
2360.8602246093	0.0760344341
2362.7890319823	0.0757804066
2364.7178393554	0.0761761665
2366.6466467284	0.0771030337
2368.5754541015	0.0787666813
2370.5042614745	0.0805331320
2372.4330688476	0.0826158375
2374.3618762206	0.0846582949
2376.2906835937	0.0868868530
2378.2194909667	0.0887472853
2380.1482983398	0.0900364220
2382.0771057128	0.0911764950
2384.0059130859	0.0915505737
2385.9347204589	0.0918167755
2387.8635278320	0.0918348059
2389.7923352050	0.0919326097
2391.7211425780	0.0918876827
2393.6499499511	0.0915125906
2395.5787573241	0.0914947316
2397.5075646972	0.0912712216
2399.4363720702	0.0912325978
2401.3651794433	0.0910470784
2403.2939868163	0.0908416882
2405.2227941894	0.0907896087
2407.1516015624	0.0906308144
2409.0804089355	0.0906271338
2411.0092163085	0.0902894884
2412.9380236816	0.0902283043
2414.8668310546	0.0902636498
2416.7956384277	0.0900215358
2418.7244458007	0.0898617357
2420.6532531738	0.0895938575
2422.5820605468	0.0894819051
2424.5108679198	0.0895445421
2426.4396752929	0.0893727019
2428.3684826659	0.0891106650
2430.2972900390	0.0890921354
2432.2260974120	0.0889619589
2434.1549047851	0.0887539089
2436.0837121581	0.0885837451
2438.0125195312	0.0884822160
2439.9413269042	0.0884082317
2441.8701342773	0.0882125124
2443.7989416503	0.0881659612
2445.7277490234	0.0880333036
2447.6565563964	0.0878773779
2449.5853637695	0.0876558498
2451.5141711425	0.0874735489
2453.4429785155	0.0875424966
2455.3717858886	0.0874058008
2457.3005932616	0.0872101039
2459.2294006347	0.0871088728
2461.1582080077	0.0869510099
2463.0870153808	0.0867377818
2465.0158227538	0.0866737366
2466.9446301269	0.0865098685
2468.8734374999	0.0863207132
2470.8022448730	0.0863826275
2472.7310522460	0.0862027258
2474.6598596191	0.0859904289
2476.5886669921	0.0859406292
2478.5174743652	0.0857813954
2480.4462817382	0.0856356174
2482.3750891112	0.0856521726
2484.3038964843	0.0855005831
2486.2327038573	0.0852627009
2488.1615112304	0.0852232724
2490.0903186034	0.0850613862
2492.0191259765	0.0848854557
2493.9479333495	0.0848129243
2495.8767407226	0.0847322494
2497.8055480956	0.0845827609
2499.7343554687	0.0844549388
2501.6631628417	0.0843423977
2503.5919702148	0.0842154026
2505.5207775878	0.0841078460
2507.4495849609	0.0839502737
2509.3783923339	0.0839050412
2511.3071997069	0.0837628767
2513.2360070800	0.0836280361
2515.1648144530	0.0835033208
2517.0936218261	0.0833377987
2519.0224291991	0.0832498595
2520.9512365722	0.0831277221
2522.8800439452	0.0830399022
2524.8088513183	0.0827592388
2526.7376586913	0.0827559158
2528.6664660644	0.0827830136
2530.5952734374	0.0825389549
2532.5240808105	0.0824536979
2534.4528881835	0.0822700262
2536.3816955566	0.0821520165
2538.3105029296	0.0819249526
2540.2393103027	0.0818174481
2542.1681176757	0.0818365365
2544.0969250487	0.0816138983
2546.0257324218	0.0815674812
2547.9545397948	0.0814547986
2549.8833471679	0.0812131315
2551.8121545409	0.0811736435
2553.7409619140	0.0811521709
2555.6697692870	0.0809655786
2557.5985766601	0.0807803720
2559.5273840331	0.0806409866
2561.4561914062	0.0806859583
2563.3849987792	0.0805430934
2565.3138061523	0.0802768171
2567.2426135253	0.0802939832
2569.1714208984	0.0800468326
2571.1002282714	0.0798711702
2573.0290356444	0.0797265172
2574.9578430175	0.0796931684
2576.8866503905	0.0796892270
2578.8154577636	0.0794389248
2580.7442651366	0.0794309005
2582.6730725097	0.0791569352
2584.6018798827	0.0791133493
2586.5306872558	0.0790956020
2588.4594946288	0.0788169652
2590.3883020019	0.0787195116
2592.3171093749	0.0785114169
2594.2459167480	0.0785968751
2596.1747241210	0.0784741640
2598.1035314941	0.0782830864
2600.0323388671	0.0782309026
2601.9611462401	0.0780554339
2603.8899536132	0.0780346096
2605.8187609862	0.0778927281
2607.7475683593	0.0777457505
2609.6763757323	0.0775454789
2611.6051831054	0.0774799511
2613.5339904784	0.0774170309
2615.4627978515	0.0771094859
2617.3916052245	0.0769682154
2619.3204125976	0.0769237280
2621.2492199706	0.0768862218
2623.1780273437	0.0767054856
2625.1068347167	0.0765191168
2627.0356420898	0.0765227228
2628.9644494628	0.0763831213
2630.8932568358	0.0761714578
2632.8220642089	0.0762068182
2634.7508715819	0.0760885328
2636.6796789550	0.0757790655
2638.6084863280	0.0757298321
2640.5372937011	0.0757565796
2642.4661010741	0.0755463019
2644.3949084472	0.0753657371
2646.3237158202	0.0754106939
2648.2525231933	0.0752312392
2650.1813305663	0.0750643313
2652.1101379394	0.0748474076
2654.0389453124	0.0746669769
2655.9677526855	0.0747869164
2657.8965600585	0.0746994019
2659.8253674315	0.0746684670
2661.7541748046	0.0744156688
2663.6829821776	0.0742298216
2665.6117895507	0.0741858482
2667.5405969237	0.0740012974
2669.4694042968	0.0740368515
2671.3982116698	0.0737632960
2673.3270190429	0.0737007111
2675.2558264159	0.0736460239
2677.1846337890	0.0733568370
2679.1134411620	0.0733075216
2681.0422485351	0.0731343478
2682.9710559081	0.0731192529
2684.8998632812	0.0731025264
2686.8286706542	0.0728625134
2688.7574780273	0.0727262795
2690.6862854003	0.0726851821
2692.6150927733	0.0724349096
2694.5439001464	0.0722905695
2696.4727075194	0.0722608864
2698.4015148925	0.0721638426
2700.3303222655	0.0721007437
2702.2591296386	0.0717739537
2704.1879370116	0.0717733726
2706.1167443847	0.0718370304
2708.0455517577	0.0716097057
2709.9743591308	0.0714513287
2711.9031665038	0.0713723600
2713.8319738769	0.0712775439
2715.7607812499	0.0710826665
2717.6895886230	0.0711203665
2719.6183959960	0.0709032863
2721.5472033690	0.0707760975
2723.4760107421	0.0707063228
2725.4048181151	0.0703902990
2727.3336254882	0.0703759342
2729.2624328612	0.0702403188
2731.1912402343	0.0701972619
2733.1200476073	0.0700379610
2735.0488549804	0.0698114559
2736.9776623534	0.0697518289
2738.9064697265	0.0697061718
2740.8352770995	0.0696900934
2742.7640844726	0.0694407970
2744.6928918456	0.0694282949
2746.6216992187	0.0693361983
2748.5505065917	0.0691193640
2750.4793139647	0.0689860061
2752.4081213378	0.0688216090
2754.3369287108	0.0687399283
2756.2657360839	0.0686521679
2758.1945434569	0.0685535297
2760.1233508300	0.0683026612
2762.0521582030	0.0683081448
2763.9809655761	0.0681976974
2765.9097729491	0.0680402294
2767.8385803222	0.0679936260
2769.7673876952	0.0676472709
2771.6961950683	0.0676161051
2773.6250024413	0.0674942657
2775.5538098144	0.0673235208
2777.4826171874	0.0673622787
2779.4114245604	0.0671543628
2781.3402319335	0.0669857860
2783.2690393065	0.0669718981
2785.1978466796	0.0668502823
2787.1266540526	0.0666656271
2789.0554614257	0.0664726049
2790.9842687987	0.0662971362
2792.9130761718	0.0663142502
2794.8418835448	0.0661437213
2796.7706909179	0.0660015345
2798.6994982909	0.0658639371
2800.6283056640	0.0655999556
2802.5571130370	0.0655408129
2804.4859204101	0.0653572530
2806.4147277831	0.0653075129
2808.3435351562	0.0652165040
2810.2723425292	0.0650901720
2812.2011499022	0.0649740845
2814.1299572753	0.0647494644
2816.0587646483	0.0647234917
2817.9875720214	0.0645393580
2819.9163793944	0.0644021332
2821.8451867675	0.0643337294
2823.7739941405	0.0642385632
2825.7028015136	0.0640805215
2827.6316088866	0.0638569370
2829.5604162597	0.0637661219
2831.4892236327	0.0636936203
2833.4180310058	0.0635512173
2835.3468383788	0.0632952750
2837.2756457519	0.0632277727
2839.2044531249	0.0629701167
2841.1332604979	0.0627383292
2843.0620678710	0.0626309440
2844.9908752440	0.0622961968
2846.9196826171	0.0620085225
2848.8484899901	0.0614666082
2850.7772973632	0.0612374954
2852.7061047362	0.0612383150
2854.6349121093	0.0611869097
2856.5637194823	0.0611868873
2858.4925268554	0.0609356463
2860.4213342284	0.0609350950
2862.3501416015	0.0609232523
2864.2789489745	0.0607246384
2866.2077563476	0.0606717616
2868.1365637206	0.0606155545
2870.0653710936	0.0604784414
2871.9941784667	0.0604185089
2873.9229858397	0.0601857379
2875.8517932128	0.0600321516
2877.7806005858	0.0601655394
2879.7094079589	0.0599141829
2881.6382153319	0.0599135607
2883.5670227050	0.0599750653
2885.4958300780	0.0596888624
2887.4246374511	0.0595735125
2889.3534448241	0.0594326109
2891.2822521972	0.0593619198
2893.2110595702	0.0591762774
2895.1398669433	0.0589496307
2897.0686743163	0.0588722154
2898.9974816893	0.0587193444
2900.9262890624	0.0585275292
2902.8550964354	0.0583836213
2904.7839038085	0.0581742898
2906.7127111815	0.0579742640
2908.6415185546	0.0578576475
2910.5703259276	0.0575596839
2912.4991333007	0.0573022366
2914.4279406737	0.0570160896
2916.3567480468	0.0567101166
2918.2855554198	0.0564773902
2920.2143627929	0.0564428903
2922.1431701659	0.0564618967
2924.0719775390	0.0561729074
2926.0007849120	0.0561154336
2927.9295922851	0.0560383834
2929.8583996581	0.0560071841
2931.7872070311	0.0560066923
2933.7160144042	0.0559832118
2935.6448217772	0.0560251698
2937.5736291503	0.0557935759
2939.5024365233	0.0559558235
2941.4312438964	0.0559489205
2943.3600512694	0.0558636561
2945.2888586425	0.0558925383
2947.2176660155	0.0556567796
2949.1464733886	0.0556879677
2951.0752807616	0.0554907098
2953.0040881347	0.0553238615
2954.9328955077	0.0552190356
2956.8617028808	0.0550261363
2958.7905102538	0.0548982844
2960.7193176268	0.0546505451
2962.6481249999	0.0545003004
2964.5769323729	0.0543703325
2966.5057397460	0.0544094667
2968.4345471190	0.0544052571
2970.3633544921	0.0544103980
2972.2921618651	0.0544978306
2974.2209692382	0.0544862822
2976.1497766112	0.0544769391
2978.0785839843	0.0544061065
2980.0073913573	0.0543996096
2981.9361987304	0.0543328822
2983.8650061034	0.0543865114
2985.7938134765	0.0543513037
2987.7226208495	0.0541715398
2989.6514282225	0.0541891642
2991.5802355956	0.0540020093
2993.5090429686	0.0538894236
2995.4378503417	0.0539451167
2997.3666577147	0.0537594408
2999.2954650878	0.0536809936
3001.2242724608	0.0536866225
3003.1530798339	0.0535104573
3005.0818872069	0.0534541756
3007.0106945800	0.0533133708
3008.9395019530	0.0531934351
3010.8683093261	0.0530762747
3012.7971166991	0.0527918451
3014.7259240722	0.0528111607
3016.6547314452	0.0526877418
3018.5835388182	0.0525778905
3020.5123461913	0.0525394678
3022.4411535643	0.0523409024
3024.3699609374	0.0522549115
3026.2987683104	0.0521341488
3028.2275756835	0.0521035828
3030.1563830565	0.0518834703
3032.0851904296	0.0517193489
3034.0139978026	0.0516390130
3035.9428051757	0.0515364856
3037.8716125487	0.0515220352
3039.8004199218	0.0512964055
3041.7292272948	0.0512783565
3043.6580346679	0.0511906929
3045.5868420409	0.0510892645
3047.5156494139	0.0509806387
3049.4444567870	0.0507480800
3051.3732641600	0.0507321693
3053.3020715331	0.0505652949
3055.2308789061	0.0504694358
3057.1596862792	0.0502969101
3059.0884936522	0.0501189269
3061.0173010253	0.0501415506
3062.9461083983	0.0500257239
3064.8749157714	0.0499638394
3066.8037231444	0.0498438179
3068.7325305175	0.0497549400
3070.6613378905	0.0497213379
3072.5901452636	0.0495675914
3074.5189526366	0.0495036244
3076.4477600097	0.0494080298
3078.3765673827	0.0491790250
3080.3053747557	0.0490552895
3082.2341821288	0.0490285829
3084.1629895018	0.0490014441
3086.0917968749	0.0488867313
3088.0206042479	0.0487485006
3089.9494116210	0.0486690998
3091.8782189940	0.0485057458
3093.8070263671	0.0484066717
3095.7358337401	0.0483089909
3097.6646411132	0.0482455753
3099.5934484862	0.0481533259
3101.5222558593	0.0479715243
3103.4510632323	0.0478914753
3105.3798706054	0.0477326587
3107.3086779784	0.0476224981
3109.2374853514	0.0474976525
3111.1662927245	0.0474702269
3113.0951000975	0.0473438054
3115.0239074706	0.0470829196
3116.9527148436	0.0470262431
3118.8815222167	0.0468330234
3120.8103295897	0.0468210392
3122.7391369628	0.0467037782
3124.6679443358	0.0464816615
3126.5967517089	0.0464363992
3128.5255590819	0.0463464223
3130.4543664550	0.0463329256
3132.3831738280	0.0460710675
3134.3119812011	0.0459252037
3136.2407885741	0.0458416007
3138.1695959471	0.0456491001
3140.0984033202	0.0456065461
3142.0272106932	0.0455252454
3143.9560180663	0.0453856327
3145.8848254393	0.0452113152
3147.8136328124	0.0451421328
3149.7424401854	0.0449447930
3151.6712475585	0.0448125228
3153.6000549315	0.0448265485
3155.5288623046	0.0447046570
3157.4576696776	0.0445316061
3159.3864770507	0.0443427786
3161.3152844237	0.0442519076
3163.2440917968	0.0441621765
3165.1728991698	0.0439968631
3167.1017065428	0.0437715314
3169.0305139159	0.0437909812
3170.9593212889	0.0436475910
3172.8881286620	0.0434040911
3174.8169360350	0.0434886217
3176.7457434081	0.0432472974
3178.6745507811	0.0431202054
3180.6033581542	0.0430899523
3182.5321655272	0.0429396518
3184.4609729003	0.0428449064
3186.3897802733	0.0426560491
3188.3185876464	0.0426265374
3190.2473950194	0.0425496250
3192.1762023925	0.0424196422
3194.1050097655	0.0422918350
3196.0338171386	0.0421475694
3197.9626245116	0.0419962332
3199.8914318846	0.0419951156
3201.8202392577	0.0419545770
3203.7490466307	0.0417352319
3205.6778540038	0.0417229757
3207.6066613768	0.0415023156
3209.5354687499	0.0413975902
3211.4642761229	0.0414346755
3213.3930834960	0.0412421636
3215.3218908690	0.0411576331
3217.2506982421	0.0410456620
3219.1795056151	0.0409893990
3221.1083129882	0.0409072787
3223.0371203612	0.0407704934
3224.9659277343	0.0407656059
3226.8947351073	0.0407310128
3228.8235424803	0.0405955277
3230.7523498534	0.0405396074
3232.6811572264	0.0404251106
3234.6099645995	0.0403395444
3236.5387719725	0.0403941907
3238.4675793456	0.0402178578
3240.3963867186	0.0401486307
3242.3251940917	0.0400221199
3244.2540014647	0.0398878790
3246.1828088378	0.0399482921
3248.1116162108	0.0398455523
3250.0404235839	0.0399131514
3251.9692309569	0.0398447737
3253.8980383300	0.0395552926
3255.8268457030	0.0395744368
3257.7556530760	0.0396267995
3259.6844604491	0.0393700190
3261.6132678221	0.0393300429
3263.5420751952	0.0393519029
3265.4708825682	0.0392044559
3267.3996899413	0.0393288136
3269.3284973143	0.0392030850
3271.2573046874	0.0390338302
3273.1861120604	0.0389562324
3275.1149194335	0.0388610587
3277.0437268065	0.0389286205
3278.9725341796	0.0389675312
3280.9013415526	0.0389627293
3282.8301489257	0.0387547687
3284.7589562987	0.0387362465
3286.6877636717	0.0386174358
3288.6165710448	0.0385259241
3290.5453784178	0.0385817066
3292.4741857909	0.0384015292
3294.4029931639	0.0384550169
3296.3318005370	0.0383358449
3298.2606079100	0.0382861421
3300.1894152831	0.0381891951
3302.1182226561	0.0379910618
3304.0470300292	0.0380801857
3305.9758374022	0.0379273519
3307.9046447753	0.0378675312
3309.8334521483	0.0378224701
3311.7622595214	0.0378232077
3313.6910668944	0.0378892981
3315.6198742675	0.0377225801
3317.5486816405	0.0376197770
3319.4774890135	0.0376096629
3321.4062963866	0.0375402421
3323.3351037596	0.0374149755
3325.2639111327	0.0374376029
3327.1927185057	0.0373854265
3329.1215258788	0.0372719988
3331.0503332518	0.0371889621
3332.9791406249	0.0371659845
3334.9079479979	0.0370936319
3336.8367553710	0.0368216038
3338.7655627440	0.0368101597
3340.6943701171	0.0368067846
3342.6231774901	0.0367158540
3344.5519848632	0.0366852954
3346.4807922362	0.0366261229
3348.4095996092	0.0365591124
3350.3384069823	0.0364648327
3352.2672143553	0.0364642069
3354.1960217284	0.0363977700
3356.1248291014	0.0362452976
3358.0536364745	0.0361015201
3359.9824438475	0.0360553078
3361.9112512206	0.0359780490
3363.8400585936	0.0359137431
3365.7688659667	0.0358543172
3367.6976733397	0.0357003957
3369.6264807128	0.0358104929
3371.5552880858	0.0357537121
3373.4840954589	0.0355729535
3375.4129028319	0.0355416238
3377.3417102049	0.0353538096
3379.2705175780	0.0352298915
3381.1993249510	0.0351864472
3383.1281323241	0.0351571664
3385.0569396971	0.0351136923
3386.9857470702	0.0350491554
3388.9145544432	0.0350522771
3390.8433618163	0.0349213555
3392.7721691893	0.0347628184
3394.7009765624	0.0347633623
3396.6297839354	0.0346425250
3398.5585913085	0.0345756002
3400.4873986815	0.0345507935
3402.4162060546	0.0344446674
3404.3450134276	0.0345026106
3406.2738208006	0.0344377533
3408.2026281737	0.0343026519
3410.1314355467	0.0341798849
3412.0602429198	0.0342010707
3413.9890502928	0.0341156013
3415.9178576659	0.0338718295
3417.8466650389	0.0339715108
3419.7754724120	0.0337381698
3421.7042797850	0.0335606858
3423.6330871581	0.0337021984
3425.5618945311	0.0336409807
3427.4907019042	0.0336123519
3429.4195092772	0.0335198306
3431.3483166503	0.0333710313
3433.2771240233	0.0333057195
3435.2059313963	0.0333400518
3437.1347387694	0.0331842378
3439.0635461424	0.0331053212
3440.9923535155	0.0330160260
3442.9211608885	0.0329232402
3444.8499682616	0.0329835266
3446.7787756346	0.0326121002
3448.7075830077	0.0326700583
3450.6363903807	0.0328814313
3452.5651977538	0.0327799246
3454.4940051268	0.0327602364
3456.4228124999	0.0325428769
3458.3516198729	0.0325428620
3460.2804272460	0.0324720964
3462.2092346190	0.0323607735
3464.1380419921	0.0324391946
3466.0668493651	0.0323386006
3467.9956567381	0.0322799906
3469.9244641112	0.0322566554
3471.8532714842	0.0321406946
3473.7820788573	0.0320895240
3475.7108862303	0.0320369080
3477.6396936034	0.0320375711
3479.5685009764	0.0320089981
3481.4973083495	0.0317447484
3483.4261157225	0.0318710431
3485.3549230956	0.0319222696
3487.2837304686	0.0316938311
3489.2125378417	0.0317473337
3491.1413452147	0.0317423008
3493.0701525878	0.0317854509
3494.9989599608	0.0316883549
3496.9277673338	0.0315778330
3498.8565747069	0.0315931365
3500.7853820799	0.0315147638
3502.7141894530	0.0311815217
3504.6429968260	0.0311985482
3506.5718041991	0.0316613466
3508.5006115721	0.0313306749
3510.4294189452	0.0312292334
3512.3582263182	0.0314527452
3514.2870336913	0.0314708203
3516.2158410643	0.0315105990
3518.1446484374	0.0313772336
3520.0734558104	0.0314379707
3522.0022631835	0.0310899094
3523.9310705565	0.0308865085
3525.8598779295	0.0309232660
3527.7886853026	0.0308421291
3529.7174926756	0.0309693478
3531.6463000487	0.0310507081
3533.5751074217	0.0312381275
3535.5039147948	0.0310265049
3537.4327221678	0.0309385117
3539.3615295409	0.0311696157
3541.2903369139	0.0311324261
3543.2191442870	0.0309974551
3545.1479516600	0.0304091536
3547.0767590331	0.0300597139
3549.0055664061	0.0307056699
3550.9343737792	0.0307917744
3552.8631811522	0.0303736962
3554.7919885252	0.0307952575
3556.7207958983	0.0307952203
3558.6496032713	0.0307321362
3560.5784106444	0.0306042880
3562.5072180174	0.0303910747
3564.4360253905	0.0305872001
3566.3648327635	0.0289602913
3568.2936401366	0.0283896700
3570.2224475096	0.0303081386
3572.1512548827	0.0307442639
3574.0800622557	0.0304266997
3576.0088696288	0.0306027047
3577.9376770018	0.0303314533
3579.8664843749	0.0303294882
3581.7952917479	0.0304197036
3583.7240991210	0.0303925201
3585.6529064940	0.0299110934
3587.5817138670	0.0280928500
3589.5105212401	0.0287194215
3591.4393286131	0.0305641182
3593.3681359862	0.0297550634
3595.2969433592	0.0293635093
3597.2257507323	0.0298647583
3599.1545581053	0.0299403798
3601.0833654784	0.0297022425
3603.0121728514	0.0299551971
3604.9409802245	0.0303686149
3606.8697875975	0.0295259561
3608.7985949706	0.0281723831
3610.7274023436	0.0287270136
3612.6562097167	0.0291463248
3614.5850170897	0.0284722410
3616.5138244627	0.0300832316
3618.4426318358	0.0282589477
3620.3714392088	0.0275375135
3622.3002465819	0.0302109644
3624.2290539549	0.0294939280
3626.1578613280	0.0304504447
3628.0866687010	0.0267804489
3630.0154760741	0.0249333736
3631.9442834471	0.0297179725
3633.8730908202	0.0291894972
3635.8018981932	0.0295339599
3637.7307055663	0.0299973898
3639.6595129393	0.0295818225
3641.5883203124	0.0298119001
3643.5171276854	0.0295424536
3645.4459350584	0.0297316089
3647.3747424315	0.0273020770
3649.3035498045	0.0254945569
3651.2323571776	0.0258705802
3653.1611645506	0.0294701383
3655.0899719237	0.0290407855
3657.0187792967	0.0267162975
3658.9475866698	0.0297347829
3660.8763940428	0.0293480903
3662.8052014159	0.0296110995
3664.7340087889	0.0293441508
3666.6628161620	0.0292970724
3668.5916235350	0.0286015831
3670.5204309081	0.0243739747
3672.4492382811	0.0282300226
3674.3780456541	0.0270969495
3676.3068530272	0.0235402808
3678.2356604002	0.0280892756
3680.1644677733	0.0285269283
3682.0932751463	0.0284680165
3684.0220825194	0.0290631000
3685.9508898924	0.0287225358
3687.8796972655	0.0263644047
3689.8085046385	0.0247106366
3691.7373120116	0.0275285151
3693.6661193846	0.0279553439
3695.5949267577	0.0284537412
3697.5237341307	0.0284901205
3699.4525415038	0.0281518362
3701.3813488768	0.0276695099
3703.3101562499	0.0268356260
3705.2389636229	0.0288612191
3707.1677709959	0.0276995320
3709.0965783690	0.0272293221
3711.0253857420	0.0259552859
3712.9541931151	0.0245818235
3714.8830004881	0.0278692022
3716.8118078612	0.0275133699
3718.7406152342	0.0277184919
3720.6694226073	0.0272423252
3722.5982299803	0.0265197475
3724.5270373534	0.0272375233
3726.4558447264	0.0256138854
3728.3846520995	0.0273744520
3730.3134594725	0.0270198882
3732.2422668456	0.0252750050
3734.1710742186	0.0247929301
3736.0998815916	0.0238851123
3738.0286889647	0.0248932317
3739.9574963377	0.0264076069
3741.8863037108	0.0274568330
3743.8151110838	0.0222991407
3745.7439184569	0.0214552656
3747.6727258299	0.0263160504
3749.6015332030	0.0232143514
3751.5303405760	0.0219098032
3753.4591479491	0.0244064108
3755.3879553221	0.0258877650
3757.3167626952	0.0266317558
3759.2455700682	0.0250655822
3761.1743774413	0.0257834457
3763.1031848143	0.0269052424
3765.0319921873	0.0255045444
3766.9607995604	0.0258531999
3768.8896069334	0.0255445186
3770.8184143065	0.0247043539
3772.7472216795	0.0262002945
3774.6760290526	0.0261722244
3776.6048364256	0.0262286067
3778.5336437987	0.0256770775
3780.4624511717	0.0249378122
3782.3912585448	0.0260667112
3784.3200659178	0.0255011078
3786.2488732909	0.0254284646
3788.1776806639	0.0259110536
3790.1064880370	0.0258246846
3792.0352954100	0.0255120527
3793.9641027830	0.0259353109
3795.8929101561	0.0246975571
3797.8217175291	0.0244481415
3799.7505249022	0.0253649205
3801.6793322752	0.0210674722
3803.6081396483	0.0241010692
3805.5369470213	0.0254334398
3807.4657543944	0.0217369683
3809.3945617674	0.0253316965
3811.3233691405	0.0248327330
3813.2521765135	0.0256246105
3815.1809838866	0.0234113298
3817.1097912596	0.0213575512
3819.0385986327	0.0255046971
3820.9674060057	0.0215188712
3822.8962133787	0.0224652067
3824.8250207518	0.0251595434
3826.7538281248	0.0233587790
3828.6826354979	0.0246974453
3830.6114428709	0.0239125006
3832.5402502440	0.0232993625
3834.4690576170	0.0237612706
3836.3978649901	0.0227897279
3838.3266723631	0.0208786614
3840.2554797362	0.0222940668
3842.1842871092	0.0236092806
3844.1130944823	0.0227536969
3846.0419018553	0.0241536815
3847.9707092284	0.0238796659
3849.8995166014	0.0239543281
3851.8283239745	0.0218970142
3853.7571313475	0.0175063275
3855.6859387205	0.0199905708
3857.6147460936	0.0239785425
3859.5435534666	0.0233077668
3861.4723608397	0.0231779851
3863.4011682127	0.0227161348
3865.3299755858	0.0214128867
3867.2587829588	0.0234657116
3869.1875903319	0.0217021797
3871.1163977049	0.0205744635
3873.0452050780	0.0234303921
3874.9740124510	0.0218190178
3876.9028198241	0.0232115053
3878.8316271971	0.0234780591
3880.7604345702	0.0209215805
3882.6892419432	0.0233464353
3884.6180493162	0.0219665281
3886.5468566893	0.0205985792
3888.4756640623	0.0232845973
3890.4044714354	0.0221215673
3892.3332788084	0.0211773887
3894.2620861815	0.0226523131
3896.1908935545	0.0229165666
3898.1197009276	0.0221501719
3900.0485083006	0.0210816674
3901.9773156737	0.0209762454
3903.9061230467	0.0207956396
3905.8349304198	0.0210576244
3907.7637377928	0.0224700235
3909.6925451659	0.0223489814
3911.6213525389	0.0222597141
3913.5501599119	0.0225069821
3915.4789672850	0.0219434686
3917.4077746580	0.0214112103
3919.3365820311	0.0212660916
3921.2653894041	0.0218840986
3923.1941967772	0.0217942633
3925.1230041502	0.0214283504
3927.0518115233	0.0217150506
3928.9806188963	0.0219618678
3930.9094262694	0.0215190947
3932.8382336424	0.0209833793
3934.7670410155	0.0216251425
3936.6958483885	0.0217235573
3938.6246557616	0.0216163434
3940.5534631346	0.0217266865
3942.4822705076	0.0210095458
3944.4110778807	0.0211739652
3946.3398852537	0.0214771628
3948.2686926268	0.0209340602
3950.1974999998	0.0210228413
3952.1263073729	0.0213010330
3954.0551147459	0.0211969726
3955.9839221190	0.0211688243
3957.9127294920	0.0210987832
3959.8415368651	0.0210433546
3961.7703442381	0.0209582336
3963.6991516112	0.0209248830
3965.6279589842	0.0209495965
3967.5567663573	0.0208300650
3969.4855737303	0.0208190288
3971.4143811034	0.0207805857
3973.3431884764	0.0207555629
3975.2719958494	0.0206491891
3977.2008032225	0.0205864683
3979.1296105955	0.0206586383
3981.0584179686	0.0205280390
3982.9872253416	0.0204676986
3984.9160327147	0.0203579534
3986.8448400877	0.0203700121
3988.7736474608	0.0203612447
3990.7024548338	0.0202211551
3992.6312622069	0.0203090347
3994.5600695799	0.0202761665
3996.4888769530	0.0202155411
3998.4176843260	0.0201064721
4000.3464916991	0.0201442577
4002.2752990721	0.0201425757
4004.2041064451	0.0198926888
4006.1329138182	0.0199951380
4008.0617211912	0.0199096203
4009.9905285643	0.0197931752
4011.9193359373	0.0199081656
4013.8481433104	0.0197332185
4015.7769506834	0.0196788162
4017.7057580565	0.0196818970
4019.6345654295	0.0195928626
4021.5633728026	0.0195515603
4023.4921801756	0.0194924995
4025.4209875487	0.0195364766
4027.3497949217	0.0195213594
4029.2786022948	0.0194179751
4031.2074096678	0.0193319153
4033.1362170408	0.0192994624
4035.0650244139	0.0192698203
4036.9938317869	0.0191973019
4038.9226391600	0.0191814974
4040.8514465330	0.0191671941
4042.7802539061	0.0190899000
4044.7090612791	0.0189124476
4046.6378686522	0.0189760104
4048.5666760252	0.0189793967
4050.4954833983	0.0188282318
4052.4242907713	0.0189898796
4054.3530981444	0.0188767463
4056.2819055174	0.0187678449
4058.2107128905	0.0187550038
4060.1395202635	0.0186134130
4062.0683276365	0.0186845772
4063.9971350096	0.0186272990
4065.9259423826	0.0185630731
4067.8547497557	0.0185244177
4069.7835571287	0.0184208602
4071.7123645018	0.0183780082
4073.6411718748	0.0183901042
4075.5699792479	0.0183582157
4077.4987866209	0.0183434077
4079.4275939940	0.0183042549
4081.3564013670	0.0181087237
4083.2852087401	0.0181561131
4085.2140161131	0.0181297623
4087.1428234862	0.0181207582
4089.0716308592	0.0180995427
4091.0004382323	0.0179534722
4092.9292456053	0.0180254467
4094.8580529783	0.0178316906
4096.7868603514	0.0177912079
4098.7156677244	0.0178483054
4100.6444750975	0.0178238302
4102.5732824705	0.0178401042
4104.5020898436	0.0176796447
4106.4308972166	0.0176120680
4108.3597045897	0.0175885446
4110.2885119627	0.0176675096
4112.2173193358	0.0174826123
4114.1461267088	0.0173604973
4116.0749340819	0.0174389482
4118.0037414549	0.0173347145
4119.9325488280	0.0173491314
4121.8613562010	0.0172888804
4123.7901635740	0.0173047911
4125.7189709471	0.0171867330
4127.6477783201	0.0171075147
4129.5765856932	0.0171911269
4131.5053930662	0.0170794558
4133.4342004393	0.0170975178
4135.3630078123	0.0170510933
4137.2918151854	0.0169669706
4139.2206225584	0.0169690195
4141.1494299315	0.0169381015
4143.0782373045	0.0168019123
4145.0070446776	0.0167574286
4146.9358520506	0.0167829283
4148.8646594237	0.0167221464
4150.7934667967	0.0167172980
4152.7222741697	0.0166022275
4154.6510815428	0.0165804178
4156.5798889158	0.0165556222
4158.5086962889	0.0164732113
4160.4375036619	0.0164267141
4162.3663110350	0.0164014138
4164.2951184080	0.0164141208
4166.2239257811	0.0163571276
4168.1527331541	0.0163860470
4170.0815405272	0.0162948593
4172.0103479002	0.0162249804
4173.9391552733	0.0161737408
4175.8679626463	0.0162100773
4177.7967700194	0.0162576772
4179.7255773924	0.0160386842
4181.6543847654	0.0159938410
4183.5831921385	0.0159804262
4185.5119995115	0.0159837808
4187.4408068846	0.0158893522
4189.3696142576	0.0158548765
4191.2984216307	0.0158767812
4193.2272290037	0.0157406591
4195.1560363768	0.0157955121
4197.0848437498	0.0157477148
4199.0136511229	0.0156788845
4200.9424584959	0.0155475065
4202.8712658690	0.0155530404
4204.8000732420	0.0155982859
4206.7288806151	0.0154610574
4208.6576879881	0.0155185321
4210.5864953611	0.0154512050
4212.5153027342	0.0154010374
4214.4441101072	0.0153448768
4216.3729174803	0.0153601356
4218.3017248533	0.0152849304
4220.2305322264	0.0151620191
4222.1593395994	0.0152743347
4224.0881469725	0.0151507594
4226.0169543455	0.0151716182
4227.9457617186	0.0151698254
4229.8745690916	0.0150891198
4231.8033764647	0.0150669450
4233.7321838377	0.0150178373
4235.6609912108	0.0150590418
4237.5897985838	0.0149869341
4239.5186059569	0.0149212107
4241.4474133299	0.0147714149
4243.3762207029	0.0147888884
4245.3050280760	0.0147501407
4247.2338354490	0.0146407923
4249.1626428221	0.0147379301
4251.0914501951	0.0146765336
4253.0202575682	0.0146355340
4254.9490649412	0.0145410150
4256.8778723143	0.0145019963
4258.8066796873	0.0144965965
4260.7354870604	0.0144558689
4262.6642944334	0.0144443084
4264.5931018065	0.0144063067
4266.5219091795	0.0143974973
4268.4507165526	0.0143232532
4270.3795239256	0.0143733826
4272.3083312986	0.0143144280
4274.2371386717	0.0142740142
4276.1659460447	0.0143341776
4278.0947534178	0.0142493974
4280.0235607908	0.0141644869
4281.9523681639	0.0140804779
4283.8811755369	0.0140352603
4285.8099829100	0.0139693711
4287.7387902830	0.0139983520
4289.6675976561	0.0139991902
4291.5964050291	0.0139589505
4293.5252124022	0.0138392113
4295.4540197752	0.0137719987
4297.3828271483	0.0138685144
4299.3116345213	0.0137732290
4301.2404418943	0.0137791447
4303.1692492674	0.0136762122
4305.0980566404	0.0136275124
4307.0268640135	0.0136937927
4308.9556713865	0.0135720354
4310.8844787596	0.0135425180
4312.8132861326	0.0135025326
4314.7420935057	0.0135595966
4316.6709008787	0.0134460256
4318.5997082518	0.0133776460
4320.5285156248	0.0134361684
4322.4573229979	0.0133533254
4324.3861303709	0.0133733340
4326.3149377440	0.0132446615
4328.2437451170	0.0132110873
4330.1725524900	0.0132318661
4332.1013598631	0.0131637529
4334.0301672361	0.0131910639
4335.9589746092	0.0131318625
4337.8877819822	0.0130315600
4339.8165893553	0.0130830035
4341.7453967283	0.0130825210
4343.6742041014	0.0129537759
4345.6030114744	0.0130096944
4347.5318188475	0.0129410867
4349.4606262205	0.0128695313
4351.3894335936	0.0128385667
4353.3182409666	0.0127307065
4355.2470483397	0.0127881560
4357.1758557127	0.0127568720
4359.1046630858	0.0127741508
4361.0334704588	0.0127526596
4362.9622778318	0.0126936603
4364.8910852049	0.0126609337
4366.8198925779	0.0125842104
4368.7486999510	0.0125722326
4370.6775073240	0.0125422962
4372.6063146971	0.0125957467
4374.5351220701	0.0125029385
4376.4639294432	0.0124004893
4378.3927368162	0.0123618096
4380.3215441893	0.0123509886
4382.2503515623	0.0124066528
4384.1791589354	0.0122915702
4386.1079663084	0.0122802779
4388.0367736815	0.0122329108
4389.9655810545	0.0121563282
4391.8943884275	0.0121730808
4393.8231958006	0.0121214632
4395.7520031736	0.0121116769
4397.6808105467	0.0121043641
4399.6096179197	0.0120707564
4401.5384252928	0.0119846798
4403.4672326658	0.0119613633
4405.3960400389	0.0119537804
4407.3248474119	0.0118965711
4409.2536547850	0.0119018275
4411.1824621580	0.0118609145
4413.1112695311	0.0118078124
4415.0400769041	0.0118259182
4416.9688842772	0.0117808226
4418.8976916502	0.0117259566
4420.8264990232	0.0117688719
4422.7553063963	0.0117091127
4424.6841137693	0.0116222426
4426.6129211424	0.0116378833
4428.5417285154	0.0116223544
4430.4705358885	0.0115323160
4432.3993432615	0.0115342252
4434.3281506346	0.0115499059
4436.2569580076	0.0114468001
4438.1857653807	0.0114182010
4440.1145727537	0.0113577358
4442.0433801268	0.0113884117
4443.9721874998	0.0113574853
4445.9009948729	0.0112656225
4447.8298022459	0.0113671497
4449.7586096189	0.0112096835
4451.6874169920	0.0111541357
4453.6162243650	0.0112459250
4455.5450317381	0.0111802556
4457.4738391111	0.0111991577
4459.4026464842	0.0111558335
4461.3314538572	0.0110980105
4463.2602612303	0.0111103132
4465.1890686033	0.0110888407
4467.1178759764	0.0110222269
4469.0466833494	0.0109580923
4470.9754907225	0.0109291747
4472.9042980955	0.0109616816
4474.8331054686	0.0109033184
4476.7619128416	0.0108822621
4478.6907202147	0.0108900527
4480.6195275877	0.0107237715
4482.5483349607	0.0107879117
4484.4771423338	0.0107968235
4486.4059497068	0.0106807072
4488.3347570799	0.0107043022
4490.2635644529	0.0106852278
4492.1923718260	0.0106343273
4494.1211791990	0.0105295386
4496.0499865721	0.0105767744
4497.9787939451	0.0105946567
4499.9076013182	0.0105105042
4501.8364086912	0.0104741026
4503.7652160643	0.0104435682
4505.6940234373	0.0104512535
4507.6228308104	0.0104442239
4509.5516381834	0.0103807067
4511.4804455564	0.0102852918
4513.4092529295	0.0103585813
4515.3380603025	0.0102645690
4517.2668676756	0.0102322232
4519.1956750486	0.0102857985
4521.1244824217	0.0101274103
4523.0532897947	0.0102502648
4524.9820971678	0.0101772435
4526.9109045408	0.0101066744
4528.8397119139	0.0101841278
4530.7685192869	0.0100433100
4532.6973266600	0.0100665800
4534.6261340330	0.0100227427
4536.5549414061	0.0099288970
4538.4837487791	0.0099590896
4540.4125561521	0.0099797472
4542.3413635252	0.0098614609
4544.2701708982	0.0098236259
4546.1989782713	0.0098683555
4548.1277856443	0.0097873919
4550.0565930174	0.0097926632
4551.9854003904	0.0097294934
4553.9142077635	0.0096818954
4555.8430151365	0.0096719917
4557.7718225096	0.0096819084
4559.7006298826	0.0097116139
4561.6294372557	0.0096272463
4563.5582446287	0.0096262880
4565.4870520018	0.0096266028
4567.4158593748	0.0095724240
4569.3446667478	0.0095000379
4571.2734741209	0.0095523112
4573.2022814939	0.0095680179
4575.1310888670	0.0094659869
4577.0598962400	0.0094536450
4578.9887036131	0.0094108824
4580.9175109861	0.0094249155
4582.8463183592	0.0094035948
4584.7751257322	0.0093793478
4586.7039331053	0.0093075447
4588.6327404783	0.0092414934
4590.5615478514	0.0093020974
4592.4903552244	0.0092053041
4594.4191625975	0.0091973338
4596.3479699705	0.0091772191
4598.2767773435	0.0091027394
4600.2055847166	0.0091265887
4602.1343920896	0.0090836976
4604.0631994627	0.0090510901
4605.9920068357	0.0089856517
4607.9208142088	0.0090028401
4609.8496215818	0.0089870170
4611.7784289549	0.0089156814
4613.7072363279	0.0089699430
4615.6360437010	0.0089313472
4617.5648510740	0.0088725258
4619.4936584471	0.0088618044
4621.4224658201	0.0088849002
4623.3512731932	0.0088451849
4625.2800805662	0.0087052332
4627.2088879393	0.0087414067
4629.1376953123	0.0087449066
4631.0665026853	0.0087006465
4632.9953100584	0.0087869139
4634.9241174314	0.0087146852
4636.8529248045	0.0086614452
4638.7817321775	0.0087000001
4640.7105395506	0.0086268438
4642.6393469236	0.0086154630
4644.5681542967	0.0085728876
4646.4969616697	0.0085059181
4648.4257690428	0.0085526798
4650.3545764158	0.0085210130
4652.2833837889	0.0084484927
4654.2121911619	0.0084201153
4656.1409985350	0.0083975457
4658.0698059080	0.0083898734
4659.9986132810	0.0083466005
4661.9274206541	0.0083438940
4663.8562280271	0.0082870796
4665.7850354002	0.0082005486
4667.7138427732	0.0082638822
4669.6426501463	0.0082715647
4671.5714575193	0.0082744304
4673.5002648924	0.0082525052
4675.4290722654	0.0081990818
4677.3578796385	0.0082201241
4679.2866870115	0.0081114061
4681.2154943846	0.0080512222
4683.1443017576	0.0080850720
4685.0731091307	0.0080494918
4687.0019165037	0.0080392249
4688.9307238767	0.0080715772
4690.8595312498	0.0080086524
4692.7883386228	0.0079963906
4694.7171459959	0.0080445167
4696.6459533689	0.0079150926
4698.5747607420	0.0079281386
4700.5035681150	0.0079171173
4702.4323754881	0.0078259259
4704.3611828611	0.0078848582
4706.2899902342	0.0078705046
4708.2187976072	0.0078580696
4710.1476049803	0.0077983611
4712.0764123533	0.0077923536
4714.0052197264	0.0077596689
4715.9340270994	0.0077006598
4717.8628344724	0.0077550532
4719.7916418455	0.0077243969
4721.7204492185	0.0077312673
4723.6492565916	0.0076708719
4725.5780639646	0.0076529519
4727.5068713377	0.0076608360
4729.4356787107	0.0075425915
4731.3644860838	0.0075418595
4733.2932934568	0.0075629991
4735.2221008299	0.0075395852
4737.1509082029	0.0075520016
4739.0797155760	0.0075358767
4741.0085229490	0.0074327723
4742.9373303221	0.0074675456
4744.8661376951	0.0074793501
4746.7949450682	0.0073910998
4748.7237524412	0.0073842332
4750.6525598142	0.0073581021
4752.5813671873	0.0074192928
4754.5101745603	0.0073948549
4756.4389819334	0.0073037525
4758.3677893064	0.0072255437
4760.2965966795	0.0072337468
4762.2254040525	0.0073012253
4764.1542114256	0.0072275572
4766.0830187986	0.0072598504
4768.0118261717	0.0071721389
4769.9406335447	0.0070930347
4771.8694409178	0.0071669901
4773.7982482908	0.0071253376
4775.7270556639	0.0071076667
4777.6558630369	0.0070798798
4779.5846704099	0.0070691416
4781.5134777830	0.0070625199
4783.4422851560	0.0070535289
4785.3710925291	0.0070777852
4787.2998999021	0.0070284121
4789.2287072752	0.0069101229
4791.1575146482	0.0068997620
4793.0863220213	0.0069245864
4795.0151293943	0.0068762759
4796.9439367674	0.0068721469
4798.8727441404	0.0068717268
4800.8015515135	0.0069072573
4802.7303588865	0.0068380944
4804.6591662596	0.0067885807
4806.5879736326	0.0067970632
4808.5167810056	0.0067877723
4810.4455883787	0.0067688776
4812.3743957517	0.0066476194
4814.3032031248	0.0067547089
4816.2320104978	0.0067293644
4818.1608178709	0.0066212388
4820.0896252439	0.0066334661
4822.0184326170	0.0066280086
4823.9472399900	0.0066876472
4825.8760473631	0.0065232757
4827.8048547361	0.0065384097
4829.7336621092	0.0065767029
4831.6624694822	0.0065433267
4833.5912768553	0.0065652221
4835.5200842283	0.0064772386
4837.4488916013	0.0065507116
4839.3776989744	0.0064606774
4841.3065063474	0.0064134779
4843.2353137205	0.0064582843
4845.1641210935	0.0063859159
4847.0929284666	0.0063067893
4849.0217358396	0.0062957332
4850.9505432127	0.0064114789
4852.8793505857	0.0063646417
4854.8081579588	0.0063618720
4856.7369653318	0.0063017434
4858.6657727049	0.0062035117
4860.5945800779	0.0062410561
4862.5233874510	0.0062464392
4864.4521948240	0.0062536118
4866.3810021971	0.0062279254
4868.3098095701	0.0062489742
4870.2386169431	0.0062063858
4872.1674243162	0.0061591230
4874.0962316892	0.0060917577
4876.0250390623	0.0060984436
4877.9538464353	0.0061247041
4879.8826538084	0.0060633090
4881.8114611814	0.0061179223
4883.7402685545	0.0060346536
4885.6690759275	0.0060572000
4887.5978833006	0.0060320524
4889.5266906736	0.0059585739
4891.4554980467	0.0060125943
4893.3843054197	0.0059451712
4895.3131127928	0.0059894854
4897.2419201658	0.0059037972
4899.1707275388	0.0059317979
4901.0995349119	0.0059952703
4903.0283422849	0.0058496632
4904.9571496580	0.0058478327
4906.8859570310	0.0058251801
4908.8147644041	0.0058591850
4910.7435717771	0.0058405390
4912.6723791502	0.0058164839
4914.6011865232	0.0058313394
4916.5299938963	0.0057417899
4918.4588012693	0.0057799849
4920.3876086424	0.0058332263
4922.3164160154	0.0057697734
4924.2452233885	0.0056954268
4926.1740307615	0.0056991912
4928.1028381345	0.0057030418
4930.0316455076	0.0056841783
4931.9604528806	0.0056730052
4933.8892602537	0.0056191320
4935.8180676267	0.0055605518
4937.7468749998	0.0055715586
4939.6756823728	0.0055742953
4941.6044897459	0.0055469507
4943.5332971189	0.0055924077
4945.4621044920	0.0055468678
4947.3909118650	0.0055236677
4949.3197192381	0.0055914433
4951.2485266111	0.0055058645
4953.1773339842	0.0054227263
4955.1061413572	0.0054903482
4957.0349487302	0.0054548117
4958.9637561033	0.0053895032
4960.8925634763	0.0054881433
4962.8213708494	0.0054235253
4964.7501782224	0.0053282920
4966.6789855955	0.0053251386
4968.6077929685	0.0052963374
4970.5366003416	0.0052883923
4972.4654077146	0.0052851690
4974.3942150877	0.0053045955
4976.3230224607	0.0052327956
4978.2518298338	0.0052904570
4980.1806372068	0.0052998299
4982.1094445799	0.0052486835
4984.0382519529	0.0052396571
4985.9670593259	0.0050883936
4987.8958666990	0.0052031381
4989.8246740720	0.0052512828
4991.7534814451	0.0051876125
4993.6822888181	0.0051931017
4995.6110961912	0.0051250365
4997.5399035642	0.0051624337
4999.4687109373	0.0051342528
5001.3975183103	0.0050655282
5003.3263256834	0.0049893507
5005.2551330564	0.0050353771
5007.1839404295	0.0050849435
5009.1127478025	0.0050637871
5011.0415551756	0.0050552823
5012.9703625486	0.0049498351
5014.8991699217	0.0049831187
5016.8279772947	0.0049645570
5018.7567846677	0.0049671447
5020.6855920408	0.0049416497
5022.6143994138	0.0048701707
5024.5432067869	0.0049533183
5026.4720141599	0.0048638028
5028.4008215330	0.0048641949
5030.3296289060	0.0048889564
5032.2584362791	0.0048116827
5034.1872436521	0.0048216078
5036.1160510252	0.0048329849
5038.0448583982	0.0048057199
5039.9736657713	0.0047395099
5041.9024731443	0.0047767926
5043.8312805174	0.0047541801
5045.7600878904	0.0047393385
5047.6888952634	0.0047571664
5049.6177026365	0.0046811914
5051.5465100095	0.0047010239
5053.4753173826	0.0047500459
5055.4041247556	0.0047228071
5057.3329321287	0.0046158186
5059.2617395017	0.0046306457
5061.1905468748	0.0046829996
5063.1193542478	0.0046436330
5065.0481616209	0.0046458086
5066.9769689939	0.0045677605
5068.9057763670	0.0045190454
5070.8345837400	0.0045324881
5072.7633911131	0.0045127710
5074.6921984861	0.0045273397
5076.6210058591	0.0045542223
5078.5498132322	0.0045467494
5080.4786206052	0.0045036566
5082.4074279783	0.0045106225
5084.3362353513	0.0044913953
5086.2650427244	0.0044250935
5088.1938500974	0.0044207964
5090.1226574705	0.0044062519
5092.0514648435	0.0044342903
5093.9802722166	0.0044371369
5095.9090795896	0.0043352656
5097.8378869627	0.0043584993
5099.7666943357	0.0043502087
5101.6955017088	0.0043145721
5103.6243090818	0.0044258409
5105.5531164548	0.0044113835
5107.4819238279	0.0043339208
5109.4107312009	0.0042977389
5111.3395385740	0.0042887898
5113.2683459470	0.0043031266
5115.1971533201	0.0042793872
5117.1259606931	0.0042728549
5119.0547680662	0.0042020786
5120.9835754392	0.0041919257
5122.9123828123	0.0042204829
5124.8411901853	0.0042087734
5126.7699975584	0.0042240014
5128.6988049314	0.0041800020
5130.6276123045	0.0041895891
5132.5564196775	0.0041300757
5134.4852270506	0.0041243704
5136.4140344236	0.0041995831
5138.3428417966	0.0040859235
5140.2716491697	0.0040896293
5142.2004565427	0.0041256035
5144.1292639158	0.0040784115
5146.0580712888	0.0040369192
5147.9868786619	0.0040080445
5149.9156860349	0.0040274337
5151.8444934080	0.0040149740
5153.7733007810	0.0040656310
5155.7021081541	0.0040216418
5157.6309155271	0.0039856089
5159.5597229002	0.0039942637
5161.4885302732	0.0039487113
5163.4173376463	0.0040244590
5165.3461450193	0.0039766114
5167.2749523923	0.0039582700
5169.2037597654	0.0040119495
5171.1325671384	0.0039374260
5173.0613745115	0.0038523865
5174.9901818845	0.0038606822
5176.9189892576	0.0039033981
5178.8477966306	0.0037965174
5180.7766040037	0.0038371924
5182.7054113767	0.0038888464
5184.6342187498	0.0038091817
5186.5630261228	0.0037898561
5188.4918334959	0.0037981635
5190.4206408689	0.0038669265
5192.3494482420	0.0038158216
5194.2782556150	0.0037843713
5196.2070629880	0.0037568877
5198.1358703611	0.0037440332
5200.0646777341	0.0037542072
5201.9934851072	0.0037132362
5203.9222924802	0.0038032276
5205.8510998533	0.0036720051
5207.7799072263	0.0035100738
5209.7087145994	0.0035697126
5211.6375219724	0.0036547189
5213.5663293455	0.0036908754
5215.4951367185	0.0037082185
5217.4239440916	0.0037115882
5219.3527514646	0.0035719152
5221.2815588377	0.0035976814
5223.2103662107	0.0036258101
5225.1391735837	0.0035727820
5227.0679809568	0.0035879987
5228.9967883298	0.0035631545
5230.9255957029	0.0035589514
5232.8544030759	0.0035242438
5234.7832104490	0.0035594839
5236.7120178220	0.0034792661
5238.6408251951	0.0034303814
5240.5696325681	0.0035301163
5242.4984399412	0.0035381056
5244.4272473142	0.0035410263
5246.3560546873	0.0034857281
5248.2848620603	0.0034085582
5250.2136694334	0.0034088865
5252.1424768064	0.0034963563
5254.0712841795	0.0033804337
5256.0000915525	0.0033525245
5257.9288989255	0.0034690185
5259.8577062986	0.0033991502
5261.7865136716	0.0034271907
5263.7153210447	0.0033432329
5265.6441284177	0.0033213629
5267.5729357908	0.0033630403
5269.5017431638	0.0033581126
5271.4305505369	0.0033998275
5273.3593579099	0.0033542363
5275.2881652830	0.0033524965
5277.2169726560	0.0033201189
5279.1457800291	0.0033992324
5281.0745874021	0.0032975860
5283.0033947752	0.0032390151
5284.9322021482	0.0033871783
5286.8610095212	0.0032893480
5288.7898168943	0.0032241778
5290.7186242673	0.0031633151
5292.6474316404	0.0032238981
5294.5762390134	0.0032254446
5296.5050463865	0.0032058544
5298.4338537595	0.0032741749
5300.3626611326	0.0032078035
5302.2914685056	0.0032139225
5304.2202758787	0.0031937421
5306.1490832517	0.0032337527
5308.0778906248	0.0031397112
5310.0066979978	0.0031576767
5311.9355053709	0.0032615969
5313.8643127439	0.0031368365
5315.7931201169	0.0031452239
5317.7219274900	0.0030830610
5319.6507348630	0.0031036094
5321.5795422361	0.0030772123
5323.5083496091	0.0030628475
5325.4371569822	0.0031064856
5327.3659643552	0.0029461351
5329.2947717283	0.0030285129
5331.2235791013	0.0030514374
5333.1523864744	0.0029374766
5335.0811938474	0.0030115263
5337.0100012205	0.0030393465
5338.9388085935	0.0029257159
5340.8676159666	0.0030046809
5342.7964233396	0.0030908068
5344.7252307126	0.0029974617
5346.6540380857	0.0029764990
5348.5828454587	0.0029133498
5350.5116528318	0.0029635627
5352.4404602048	0.0028979341
5354.3692675779	0.0028659527
5356.2980749509	0.0029367791
5358.2268823240	0.0029003471
5360.1556896970	0.0030720038
5362.0844970701	0.0029461081
5364.0133044431	0.0028397078
5365.9421118162	0.0028951510
5367.8709191892	0.0028122335
5369.7997265623	0.0028889235
5371.7285339353	0.0028484790
5373.6573413083	0.0028363669
5375.5861486814	0.0028486261
5377.5149560544	0.0027536517
5379.4437634275	0.0027977880
5381.3725708005	0.0028782347
5383.3013781736	0.0028292239
5385.2301855466	0.0028003920
5387.1589929197	0.0027871076
5389.0878002927	0.0027230941
5391.0166076658	0.0028036786
5392.9454150388	0.0027774028
5394.8742224119	0.0026837336
5396.8030297849	0.0026906980
5398.7318371580	0.0027091412
5400.6606445310	0.0027737739
5402.5894519041	0.0027485527
5404.5182592771	0.0026781447
5406.4470666501	0.0026810677
5408.3758740232	0.0027167643
5410.3046813962	0.0026513510
5412.2334887693	0.0026182623
5414.1622961423	0.0026281928
5416.0911035154	0.0026041721
5418.0199108884	0.0026093083
5419.9487182615	0.0025915485
5421.8775256345	0.0026688417
5423.8063330076	0.0026860614
5425.7351403806	0.0026282566
5427.6639477537	0.0025624412
5429.5927551267	0.0025276151
5431.5215624998	0.0025834087
5433.4503698728	0.0026045511
5435.3791772458	0.0025889021
5437.3079846189	0.0025055702
5439.2367919919	0.0025905129
5441.1655993650	0.0025733174
5443.0944067380	0.0024656272
5445.0232141111	0.0025333064
5446.9520214841	0.0024569179
5448.8808288572	0.0024933920
5450.8096362302	0.0024993734
5452.7384436033	0.0024946490
5454.6672509763	0.0025575273
5456.5960583494	0.0024549663
5458.5248657224	0.0024835095
5460.4536730955	0.0024589652
5462.3824804685	0.0024243691
5464.3112878415	0.0024270085
5466.2400952146	0.0023410018
5468.1689025876	0.0023982613
5470.0977099607	0.0024839528
5472.0265173337	0.0024850150
5473.9553247068	0.0024206694
5475.8841320798	0.0024049662
5477.8129394529	0.0024252729
5479.7417468259	0.0024137618
5481.6705541990	0.0024032635
5483.5993615720	0.0023374474
5485.5281689451	0.0023671724
5487.4569763181	0.0024097934
5489.3857836912	0.0023815762
5491.3145910642	0.0024140165
5493.2433984372	0.0023581169
5495.1722058103	0.0022793557
5497.1010131833	0.0023032771
5499.0298205564	0.0023403135
5500.9586279294	0.0023404709
5502.8874353025	0.0023290969
5504.8162426755	0.0022942692
5506.7450500486	0.0022252938
5508.6738574216	0.0022520146
5510.6026647947	0.0022471638
5512.5314721677	0.0022900486
5514.4602795408	0.0023662006
5516.3890869138	0.0022631176
5518.3178942869	0.0022834227
5520.2467016599	0.0023213928
5522.1755090330	0.0022854418
5524.1043164060	0.0022483196
5526.0331237790	0.0022311383
5527.9619311521	0.0022525876
5529.8907385251	0.0021506818
5531.8195458982	0.0021677436
5533.7483532712	0.0022133861
5535.6771606443	0.0022342871
5537.6059680173	0.0022343528
5539.5347753904	0.0021378757
5541.4635827634	0.0021827205
5543.3923901365	0.0021694433
5545.3211975095	0.0021119127
5547.2500048826	0.0021218583
5549.1788122556	0.0021133167
5551.1076196287	0.0020810328
5553.0364270017	0.0021473896
5554.9652343747	0.0021500369
5556.8940417478	0.0020246408
5558.8228491208	0.0021458438
5560.7516564939	0.0021154257
5562.6804638669	0.0020281882
5564.6092712400	0.0020918876
5566.5380786130	0.0020790794
5568.4668859861	0.0020894767
5570.3956933591	0.0020252336
5572.3245007322	0.0020780354
5574.2533081052	0.0020542792
5576.1821154783	0.0019848817
5578.1109228513	0.0020013666
5580.0397302244	0.0019962830
5581.9685375974	0.0021494026
5583.8973449704	0.0020832359
5585.8261523435	0.0019653398
5587.7549597165	0.0019863434
5589.6837670896	0.0019869297
5591.6125744626	0.0019980934
5593.5413818357	0.0019846514
5595.4701892087	0.0020026648
5597.3989965818	0.0019349542
5599.3278039548	0.0019373450
5601.2566113279	0.0019689496
5603.1854187009	0.0019695268
5605.1142260740	0.0019892892
5607.0430334470	0.0019442772
5608.9718408201	0.0019360913
5610.9006481931	0.0019245085
5612.8294555661	0.0019884803
5614.7582629392	0.0019808849
5616.6870703122	0.0019159301
5618.6158776853	0.0019083056
5620.5446850583	0.0019080843
5622.4734924314	0.0019645109
5624.4022998044	0.0018731330
5626.3311071775	0.0018672375
5628.2599145505	0.0019094049
5630.1887219236	0.0018447237
5632.1175292966	0.0018901151
5634.0463366697	0.0018643662
5635.9751440427	0.0018588200
5637.9039514158	0.0019156155
5639.8327587888	0.0018730706
5641.7615661619	0.0018579417
5643.6903735349	0.0018611257
5645.6191809079	0.0018257608
5647.5479882810	0.0018784623
5649.4767956540	0.0018882458
5651.4056030271	0.0018121749
5653.3344104001	0.0018222246
5655.2632177732	0.0017686659
5657.1920251462	0.0017769352
5659.1208325193	0.0018354070
5661.0496398923	0.0018220168
5662.9784472654	0.0018211277
5664.9072546384	0.0017630851
5666.8360620115	0.0017889063
5668.7648693845	0.0017520119
5670.6936767576	0.0016871550
5672.6224841306	0.0016936294
5674.5512915036	0.0016931568
5676.4800988767	0.0017679827
5678.4089062497	0.0017307063
5680.3377136228	0.0017425240
5682.2665209958	0.0017153097
5684.1953283689	0.0016436038
5686.1241357419	0.0016881570
5688.0529431150	0.0016956052
5689.9817504880	0.0017550993
5691.9105578611	0.0016601279
5693.8393652341	0.0016632833
5695.7681726072	0.0016953105
5697.6969799802	0.0016047411
5699.6257873533	0.0016673821
5701.5545947263	0.0016037121
5703.4834020993	0.0016946865
5705.4122094724	0.0017195405
5707.3410168454	0.0016269735
5709.2698242185	0.0017263498
5711.1986315915	0.0016176584
5713.1274389646	0.0015767487
5715.0562463376	0.0016324439
5716.9850537107	0.0016370362
5718.9138610837	0.0016269498
5720.8426684568	0.0015964361
5722.7714758298	0.0016125793
5724.7002832029	0.0015719777
5726.6290905759	0.0015569357
5728.5578979490	0.0015129354
5730.4867053220	0.0015040957
5732.4155126950	0.0015628475
5734.3443200681	0.0015889491
5736.2731274411	0.0015731122
5738.2019348142	0.0015394896
5740.1307421872	0.0014889026
5742.0595495603	0.0014422829
5743.9883569333	0.0015603679
5745.9171643064	0.0015316019
5747.8459716794	0.0014886997
5749.7747790525	0.0015425966
5751.7035864255	0.0014772380
5753.6323937986	0.0015392299
5755.5612011716	0.0015079939
5757.4900085447	0.0014854902
5759.4188159177	0.0015335095
5761.3476232907	0.0014696494
5763.2764306638	0.0014931096
5765.2052380368	0.0014938449
5767.1340454099	0.0014707467
5769.0628527829	0.0014607881
5770.9916601560	0.0014649496
5772.9204675290	0.0014811475
5774.8492749021	0.0014558118
5776.7780822751	0.0014080009
5778.7068896482	0.0014004500
5780.6356970212	0.0014490318
5782.5645043943	0.0014073884
5784.4933117673	0.0013882534
5786.4221191404	0.0013732747
5788.3509265134	0.0013625986
5790.2797338865	0.0014453052
5792.2085412595	0.0014137803
5794.1373486325	0.0013967645
5796.0661560056	0.0014086555
5797.9949633786	0.0013625375
5799.9237707517	0.0013850026
5801.8525781247	0.0013900681
5803.7813854978	0.0013764380
5805.7101928708	0.0013440049
5807.6390002439	0.0013601026
5809.5678076169	0.0013905047
5811.4966149900	0.0012991382
5813.4254223630	0.0013088506
5815.3542297361	0.0013591407
5817.2830371091	0.0013451579
5819.2118444822	0.0012949489
5821.1406518552	0.0013296326
5823.0694592282	0.0014316181
5824.9982666013	0.0012700476
5826.9270739743	0.0012184151
5828.8558813474	0.0013124290
5830.7846887204	0.0013232474
5832.7134960935	0.0013556448
5834.6423034665	0.0013262351
5836.5711108396	0.0013127706
5838.4999182126	0.0012413454
5840.4287255857	0.0012955003
5842.3575329587	0.0013096166
5844.2863403318	0.0011939218
5846.2151477048	0.0012911963
5848.1439550779	0.0012966796
5850.0727624509	0.0012284154
5852.0015698239	0.0012693127
5853.9303771970	0.0013272858
5855.8591845700	0.0012357490
5857.7879919431	0.0012777847
5859.7167993161	0.0013598116
5861.6456066892	0.0012096523
5863.5744140622	0.0012362839
5865.5032214353	0.0011615593
5867.4320288083	0.0011815820
5869.3608361814	0.0012723346
5871.2896435544	0.0011752595
5873.2184509275	0.0012490265
5875.1472583005	0.0012468800
5877.0760656736	0.0012267996
5879.0048730466	0.0011936880
5880.9336804196	0.0011712593
5882.8624877927	0.0011662566
5884.7912951657	0.0011751169
5886.7201025388	0.0012649313
5888.6489099118	0.0011938341
5890.5777172849	0.0011766437
5892.5065246579	0.0011850467
5894.4353320310	0.0011382441
5896.3641394040	0.0011176310
5898.2929467771	0.0011632391
5900.2217541501	0.0011249804
5902.1505615232	0.0011097162
5904.0793688962	0.0011886939
5906.0081762693	0.0010596908
5907.9369836423	0.0011268934
5909.8657910154	0.0011260030
5911.7945983884	0.0011032704
5913.7234057614	0.0012198915
5915.6522131345	0.0011141000
5917.5810205075	0.0011027721
5919.5098278806	0.0011027127
5921.4386352536	0.0011440841
5923.3674426267	0.0010706813
5925.2962499997	0.0010922712
5927.2250573728	0.0011544265
5929.1538647458	0.0010021958
5931.0826721189	0.0011254484
5933.0114794919	0.0010585443
5934.9402868650	0.0010316663
5936.8690942380	0.0011087802
5938.7979016111	0.0010398538
5940.7267089841	0.0010987329
5942.6555163571	0.0010574695
5944.5843237302	0.0010858023
5946.5131311032	0.0010567568
5948.4419384763	0.0010338112
5950.3707458493	0.0010434999
5952.2995532224	0.0010118742
5954.2283605954	0.0011228557
5956.1571679685	0.0010669443
5958.0859753415	0.0010107519
5960.0147827146	0.0010691633
5961.9435900876	0.0010507397
5963.8723974607	0.0009842560
5965.8012048337	0.0009695857
5967.7300122068	0.0009818316
5969.6588195798	0.0009924045
5971.5876269528	0.0010595717
5973.5164343259	0.0010494287
5975.4452416989	0.0010078161
5977.3740490720	0.0010192716
5979.3028564450	0.0010393150
5981.2316638181	0.0010274034
5983.1604711911	0.0010142414
5985.0892785642	0.0010038653
5987.0180859372	0.0009776090
5988.9468933103	0.0009371273
5990.8757006833	0.0009134474
5992.8045080564	0.0009269732
5994.7333154294	0.0008985220
5996.6621228025	0.0009552583
5998.5909301755	0.0009824920
6000.5197375485	0.0009466852
