399.2631262207	0.0015108085
401.1919335938	0.0024259430
403.1207409668	0.0023556573
405.0495483398	0.0021072293
406.9783557129	0.0022231708
408.9071630859	0.0028376193
410.8359704590	0.0028873817
412.7647778320	0.0024318984
414.6935852051	0.0027606939
416.6223925781	0.0026642205
418.5511999512	0.0024506031
420.4800073242	0.0027135354
422.4088146973	0.0030818379
424.3376220703	0.0030550715
426.2664294434	0.0029838735
428.1952368164	0.0031169159
430.1240441895	0.0029967893
432.0528515625	0.0032919720
433.9816589355	0.0032299319
435.9104663086	0.0027584913
437.8392736816	0.0028270399
439.7680810547	0.0029786010
441.6968884277	0.0025986107
443.6256958008	0.0024886811
445.5545031738	0.0029030512
447.4833105469	0.0029015229
449.4121179199	0.0029456848
451.3409252930	0.0024297165
453.2697326660	0.0021390142
455.1985400391	0.0024739690
457.1273474121	0.0018369617
459.0561547852	0.0013519358
460.9849621582	0.0013851090
462.9137695313	0.0016280236
464.8425769043	0.0017073448
466.7713842773	0.0014275538
468.7001916504	0.0013817026
470.6289990234	0.0014547120
472.5578063965	0.0015531667
474.4866137695	0.0010840928
476.4154211426	0.0005640006
478.3442285156	0.0007348820
480.2730358887	0.0008108742
482.2018432617	0.0004401116
484.1306506348	0.0003757639
486.0594580078	0.0005726457
487.9882653809	0.0004437484
489.9170727539	0.0005175249
491.8458801270	0.0006280647
493.7746875000	0.0004684309
495.7034948730	0.0006107286
497.6323022461	0.0006942826
499.5611096191	0.0001692676
501.4899169922	0.0005034497
503.4187243652	0.0008341027
505.3475317383	0.0000227361
507.2763391113	0.0002158918
509.2051464844	0.0000878743
511.1339538574	-0.0002723467
513.0627612305	0.0004207985
514.9915686035	0.0006024713
516.9203759766	0.0002815601
518.8491833496	0.0004342984
520.7779907227	0.0006178837
522.7067980957	0.0000065617
524.6356054688	0.0002885316
526.5644128418	0.0003142483
528.4932202148	-0.0000372701
530.4220275879	0.0004156723
532.3508349609	-0.0000006734
534.2796423340	-0.0001234113
536.2084497070	0.0002297438
538.1372570801	0.0002901971
540.0660644531	0.0004798555
541.9948718262	0.0005095794
543.9236791992	0.0001869902
545.8524865723	0.0000070988
547.7812939453	0.0001882965
549.7101013184	0.0002093726
551.6389086914	0.0001676350
553.5677160645	0.0001498339
555.4965234375	0.0002626368
557.4253308105	0.0002458290
559.3541381836	0.0002675669
561.2829455566	0.0001500504
563.2117529297	0.0002638697
565.1405603027	0.0001893097
567.0693676758	-0.0002363129
568.9981750488	0.0004659611
570.9269824219	0.0003754557
572.8557897949	-0.0002279948
574.7845971680	0.0001559156
576.7134045410	0.0000770891
578.6422119141	-0.0000770195
580.5710192871	0.0003231956
582.4998266602	0.0003559212
584.4286340332	0.0003632071
586.3574414063	0.0006201210
588.2862487793	0.0001374162
590.2150561523	0.0002228524
592.1438635254	0.0002946819
594.0726708984	-0.0001444802
596.0014782715	0.0003527134
597.9302856445	-0.0000411947
599.8590930176	0.0001417849
601.7879003906	0.0006099528
603.7167077637	0.0000652971
605.6455151367	0.0000824386
607.5743225098	-0.0000397707
609.5031298828	0.0003177468
611.4319372559	0.0004677471
613.3607446289	0.0004014574
615.2895520020	0.0002738647
617.2183593750	-0.0001140296
619.1471667480	0.0002617880
621.0759741211	0.0001812258
623.0047814941	0.0000517440
624.9335888672	0.0001523057
626.8623962402	-0.0000979989
628.7912036133	0.0000889544
630.7200109863	0.0005433819
632.6488183594	0.0014735328
634.5776257324	0.0024367734
636.5064331055	0.0020634588
638.4352404785	0.0019797576
640.3640478516	0.0026340061
642.2928552246	0.0025123388
644.2216625977	0.0027327545
646.1504699707	0.0032505551
648.0792773438	0.0033213031
650.0080847168	0.0034642790
651.9368920898	0.0034301761
653.8656994629	0.0033742744
655.7945068359	0.0038680485
657.7233142090	0.0039511016
659.6521215820	0.0039817225
661.5809289551	0.0045869974
663.5097363281	0.0045884280
665.4385437012	0.0047151791
667.3673510742	0.0044314731
669.2961584473	0.0044910219
671.2249658203	0.0055661527
673.1537731934	0.0054493630
675.0825805664	0.0054349732
677.0113879395	0.0056870081
678.9401953125	0.0057887603
680.8690026855	0.0058669592
682.7978100586	0.0056981072
684.7266174316	0.0055254744
686.6554248047	0.0053232992
688.5842321777	0.0058189752
690.5130395508	0.0060129268
692.4418469238	0.0063638873
694.3706542969	0.0067035728
696.2994616699	0.0071985614
698.2282690430	0.0088541415
700.1570764160	0.0094697671
702.0858837891	0.0092019597
704.0146911621	0.0084065180
705.9434985352	0.0075264471
707.8723059082	0.0066966787
709.8011132813	0.0051727165
711.7299206543	0.0038175390
713.6587280273	0.0024062002
715.5875354004	0.0013743613
717.5163427734	0.0009276483
719.4451501465	0.0004970000
721.3739575195	0.0004522491
723.3027648926	0.0005964685
725.2315722656	0.0001780650
727.1603796387	0.0001114934
729.0891870117	0.0004281027
731.0179943848	0.0003818066
732.9468017578	0.0006660939
734.8756091309	0.0004447465
736.8044165039	0.0001121046
738.7332238770	0.0001251260
740.6620312500	0.0000279712
742.5908386230	0.0002560219
744.5196459961	0.0004038292
746.4484533691	0.0004166606
748.3772607422	0.0002882992
750.3060681152	0.0003717473
752.2348754883	0.0004806338
754.1636828613	0.0004381495
756.0924902344	0.0004260308
758.0212976074	0.0005063944
759.9501049805	0.0004894352
761.8789123535	0.0002622830
763.8077197266	0.0005411955
765.7365270996	0.0005210537
767.6653344727	0.0004008564
769.5941418457	0.0007288211
771.5229492188	0.0006812582
773.4517565918	0.0005477013
775.3805639648	0.0004715375
777.3093713379	0.0004848699
779.2381787109	0.0004830289
781.1669860840	0.0003919930
783.0957934570	0.0004412426
785.0246008301	0.0007650899
786.9534082031	0.0008086251
788.8822155762	0.0007311674
790.8110229492	0.0008747479
792.7398303223	0.0008194530
794.6686376953	0.0009738785
796.5974450684	0.0008690079
798.5262524414	0.0009856081
800.4550598145	0.0011853217
802.3838671875	0.0011404450
804.3126745605	0.0012374946
806.2414819336	0.0008484403
808.1702893066	0.0007551177
810.0990966797	0.0006338348
812.0279040527	0.0006353799
813.9567114258	0.0005809150
815.8855187988	0.0004646359
817.8143261719	0.0008282369
819.7431335449	0.0006415437
821.6719409180	0.0007667021
823.6007482910	0.0007325197
825.5295556641	0.0006657118
827.4583630371	0.0010607687
829.3871704102	0.0010925655
831.3159777832	0.0012087033
833.2447851563	0.0015642237
835.1735925293	0.0018064475
837.1023999023	0.0016038407
839.0312072754	0.0018400645
840.9600146484	0.0018424294
842.8888220215	0.0015649225
844.8176293945	0.0014772494
846.7464367676	0.0013420288
848.6752441406	0.0016102341
850.6040515137	0.0012496122
852.5328588867	0.0012150006
854.4616662598	0.0012724262
856.3904736328	0.0009695825
858.3192810059	0.0011349014
860.2480883789	0.0008383982
862.1768957520	0.0005729196
864.1057031250	0.0007618110
866.0345104980	0.0008498782
867.9633178711	0.0005560653
869.8921252441	0.0005485993
871.8209326172	0.0005098804
873.7497399902	0.0003735619
875.6785473633	0.0005122861
877.6073547363	0.0005770285
879.5361621094	0.0005605829
881.4649694824	0.0002335246
883.3937768555	0.0005305627
885.3225842285	0.0005686380
887.2513916016	0.0003678320
889.1801989746	0.0005229876
891.1090063477	0.0004821805
893.0378137207	0.0007476511
894.9666210938	0.0004965436
896.8954284668	0.0005611167
898.8242358398	0.0005050220
900.7530432129	0.0003451473
902.6818505859	0.0008360504
904.6106579590	0.0006205369
906.5394653320	0.0007118051
908.4682727051	0.0007121800
910.3970800781	0.0007712888
912.3258874512	0.0010580069
914.2546948242	0.0007497901
916.1835021973	0.0011720280
918.1123095703	0.0013985676
920.0411169434	0.0012297329
921.9699243164	0.0016467217
923.8987316895	0.0017130373
925.8275390625	0.0016153799
927.7563464355	0.0019018996
929.6851538086	0.0019541313
931.6139611816	0.0021711236
933.5427685547	0.0024456033
935.4715759277	0.0024827030
937.4003833008	0.0026947574
939.3291906738	0.0027163820
941.2579980469	0.0029888861
943.1868054199	0.0030864959
945.1156127930	0.0030226319
947.0444201660	0.0030011451
948.9732275391	0.0029135267
950.9020349121	0.0031622085
952.8308422852	0.0027194489
954.7596496582	0.0027302157
956.6884570313	0.0029286635
958.6172644043	0.0024906583
960.5460717773	0.0027352381
962.4748791504	0.0028750547
964.4036865234	0.0029819109
966.3324938965	0.0032121949
968.2613012695	0.0032931948
970.1901086426	0.0032567526
972.1189160156	0.0033881110
974.0477233887	0.0039403788
975.9765307617	0.0039156978
977.9053381348	0.0040364754
979.8341455078	0.0047233747
981.7629528809	0.0050845742
983.6917602539	0.0054685315
985.6205676270	0.0062393267
987.5493750000	0.0067576952
989.4781823730	0.0073615508
991.4069897461	0.0086400844
993.3357971191	0.0093927998
995.2646044922	0.0100212777
997.1934118652	0.0109860767
999.1222192383	0.0116935959
1001.0510266113	0.0125834774
1002.9798339844	0.0135380607
1004.9086413574	0.0145533662
1006.8374487305	0.0153313028
1008.7662561035	0.0162468106
1010.6950634766	0.0173101667
1012.6238708496	0.0179584194
1014.5526782227	0.0191873014
1016.4814855957	0.0199294705
1018.4102929688	0.0205905624
1020.3391003418	0.0220591035
1022.2679077148	0.0229496695
1024.1967150879	0.0238666385
1026.1255224609	0.0245262310
1028.0543298340	0.0252203047
1029.9831372070	0.0261711478
1031.9119445801	0.0267781336
1033.8407519531	0.0274696238
1035.7695593262	0.0277227908
1037.6983666992	0.0282084122
1039.6271740723	0.0283451062
1041.5559814453	0.0279606711
1043.4847888184	0.0279376376
1045.4135961914	0.0274389926
1047.3424035645	0.0269648284
1049.2712109375	0.0266862214
1051.2000183105	0.0263805650
1053.1288256836	0.0257990528
1055.0576330566	0.0250571854
1056.9864404297	0.0246272534
1058.9152478027	0.0241693519
1060.8440551758	0.0235120431
1062.7728625488	0.0226341039
1064.7016699219	0.0220252387
1066.6304772949	0.0211027935
1068.5592846680	0.0199698638
1070.4880920410	0.0194146428
1072.4168994141	0.0186149850
1074.3457067871	0.0175441373
1076.2745141602	0.0167029575
1078.2033215332	0.0159738027
1080.1321289062	0.0153027195
1082.0609362793	0.0145519618
1083.9897436523	0.0136415539
1085.9185510254	0.0132141002
1087.8473583984	0.0126486942
1089.7761657715	0.0119472556
1091.7049731445	0.0117909061
1093.6337805176	0.0111381784
1095.5625878906	0.0106315594
1097.4913952637	0.0105596390
1099.4202026367	0.0100853760
1101.3490100098	0.0096180243
1103.2778173828	0.0096273134
1105.2066247559	0.0095533403
1107.1354321289	0.0092054876
1109.0642395019	0.0089945644
1110.9930468750	0.0087831076
1112.9218542480	0.0090046395
1114.8506616211	0.0089037968
1116.7794689941	0.0086377058
1118.7082763672	0.0087870806
1120.6370837402	0.0088719334
1122.5658911133	0.0090978872
1124.4946984863	0.0088116899
1126.4235058594	0.0089023570
1128.3523132324	0.0093891090
1130.2811206055	0.0094988812
1132.2099279785	0.0097284000
1134.1387353516	0.0099845137
1136.0675427246	0.0104557006
1137.9963500977	0.0109378519
1139.9251574707	0.0116067855
1141.8539648437	0.0123558585
1143.7827722168	0.0132376347
1145.7115795898	0.0140810665
1147.6403869629	0.0147187272
1149.5691943359	0.0157072768
1151.4980017090	0.0164395124
1153.4268090820	0.0173031241
1155.3556164551	0.0182610285
1157.2844238281	0.0188533291
1159.2132312012	0.0194349121
1161.1420385742	0.0200694241
1163.0708459473	0.0208488218
1164.9996533203	0.0214227196
1166.9284606934	0.0221764743
1168.8572680664	0.0232781805
1170.7860754394	0.0240107626
1172.7148828125	0.0248722471
1174.6436901855	0.0259948634
1176.5724975586	0.0267080702
1178.5013049316	0.0278147087
1180.4301123047	0.0290894397
1182.3589196777	0.0300690494
1184.2877270508	0.0313294232
1186.2165344238	0.0328322276
1188.1453417969	0.0344615728
1190.0741491699	0.0358342901
1192.0029565430	0.0375126563
1193.9317639160	0.0391519219
1195.8605712891	0.0410811231
1197.7893786621	0.0432675071
1199.7181860351	0.0447870493
1201.6469934082	0.0469053946
1203.5758007812	0.0486956462
1205.5046081543	0.0504341871
1207.4334155273	0.0524693877
1209.3622229004	0.0541236885
1211.2910302734	0.0557066388
1213.2198376465	0.0570814572
1215.1486450195	0.0587887168
1217.0774523926	0.0598687455
1219.0062597656	0.0608322397
1220.9350671387	0.0616661087
1222.8638745117	0.0623395890
1224.7926818848	0.0631791949
1226.7214892578	0.0634740740
1228.6502966308	0.0639666989
1230.5791040039	0.0639662445
1232.5079113769	0.0642660409
1234.4367187500	0.0644737929
1236.3655261230	0.0643080845
1238.2943334961	0.0642934144
1240.2231408691	0.0638722554
1242.1519482422	0.0639103800
1244.0807556152	0.0635089725
1246.0095629883	0.0630863160
1247.9383703613	0.0627070218
1249.8671777344	0.0623287186
1251.7959851074	0.0618768781
1253.7247924805	0.0611599311
1255.6535998535	0.0606908351
1257.5824072266	0.0596416742
1259.5112145996	0.0587470122
1261.4400219726	0.0577770658
1263.3688293457	0.0572902039
1265.2976367187	0.0563719049
1267.2264440918	0.0554214008
1269.1552514648	0.0551977530
1271.0840588379	0.0537657887
1273.0128662109	0.0531532541
1274.9416735840	0.0522732139
1276.8704809570	0.0511443913
1278.7992883301	0.0502005927
1280.7280957031	0.0489931628
1282.6569030762	0.0484438911
1284.5857104492	0.0473093167
1286.5145178223	0.0466028750
1288.4433251953	0.0457284935
1290.3721325683	0.0452807769
1292.3009399414	0.0448133983
1294.2297473144	0.0441520996
1296.1585546875	0.0443494730
1298.0873620605	0.0438443907
1300.0161694336	0.0440412425
1301.9449768066	0.0442140698
1303.8737841797	0.0446277410
1305.8025915527	0.0451687612
1307.7313989258	0.0455117747
1309.6602062988	0.0467469841
1311.5890136719	0.0473237410
1313.5178210449	0.0482209325
1315.4466284180	0.0495022684
1317.3754357910	0.0506163612
1319.3042431640	0.0516035259
1321.2330505371	0.0532681197
1323.1618579101	0.0552052632
1325.0906652832	0.0564393662
1327.0194726562	0.0582086258
1328.9482800293	0.0596877709
1330.8770874023	0.0611520484
1332.8058947754	0.0625912696
1334.7347021484	0.0636674091
1336.6635095215	0.0643027723
1338.5923168945	0.0641864240
1340.5211242676	0.0650232285
1342.4499316406	0.0669902563
1344.3787390137	0.0677100122
1346.3075463867	0.0672481358
1348.2363537597	0.0672984645
1350.1651611328	0.0668932498
1352.0939685058	0.0666731894
1354.0227758789	0.0659348220
1355.9515832519	0.0651788041
1357.8803906250	0.0652498156
1359.8091979980	0.0639983267
1361.7380053711	0.0618444867
1363.6668127441	0.0610621795
1365.5956201172	0.0631781444
1367.5244274902	0.0621543340
1369.4532348633	0.0613388568
1371.3820422363	0.0624536425
1373.3108496094	0.0594364181
1375.2396569824	0.0597875975
1377.1684643555	0.0610146374
1379.0972717285	0.0605792701
1381.0260791015	0.0607182607
1382.9548864746	0.0604844391
1384.8836938476	0.0607444495
1386.8125012207	0.0583359227
1388.7413085937	0.0592187233
1390.6701159668	0.0632770061
1392.5989233398	0.0618733466
1394.5277307129	0.0589841940
1396.4565380859	0.0611895546
1398.3853454590	0.0611647889
1400.3141528320	0.0610980093
1402.2429602051	0.0649162233
1404.1717675781	0.0619499646
1406.1005749512	0.0624807402
1408.0293823242	0.0641227216
1409.9581896972	0.0620855838
1411.8869970703	0.0630898178
1413.8158044433	0.0609911457
1415.7446118164	0.0619354025
1417.6734191894	0.0567851029
1419.6022265625	0.0518748946
1421.5310339355	0.0576982349
1423.4598413086	0.0560109280
1425.3886486816	0.0543969274
1427.3174560547	0.0547888055
1429.2462634277	0.0512797534
1431.1750708008	0.0495548025
1433.1038781738	0.0500067286
1435.0326855469	0.0459512956
1436.9614929199	0.0401170701
1438.8903002929	0.0440487415
1440.8191076660	0.0445278734
1442.7479150390	0.0420446247
1444.6767224121	0.0433191061
1446.6055297851	0.0403348655
1448.5343371582	0.0407854877
1450.4631445312	0.0420077443
1452.3919519043	0.0430220068
1454.3207592773	0.0444040969
1456.2495666504	0.0384537950
1458.1783740234	0.0404156707
1460.1071813965	0.0510291159
1462.0359887695	0.0539136901
1463.9647961426	0.0544201285
1465.8936035156	0.0570210218
1467.8224108886	0.0641571656
1469.7512182617	0.0683698952
1471.6800256347	0.0628370270
1473.6088330078	0.0665062368
1475.5376403808	0.0746369436
1477.4664477539	0.0798482746
1479.3952551269	0.0864158124
1481.3240625000	0.0883823186
1483.2528698730	0.0935995579
1485.1816772461	0.0964966863
1487.1104846191	0.0959483758
1489.0392919922	0.0963333398
1490.9680993652	0.0977702439
1492.8969067383	0.1103536040
1494.8257141113	0.1084295884
1496.7545214843	0.1002786011
1498.6833288574	0.1112924740
1500.6121362304	0.1144014001
1502.5409436035	0.1214771196
1504.4697509765	0.1157578230
1506.3985583496	0.0905174017
1508.3273657226	0.1071149260
1510.2561730957	0.1211124212
1512.1849804687	0.1182755157
1514.1137878418	0.1262620389
1516.0425952148	0.1161735505
1517.9714025879	0.1210074201
1519.9002099609	0.1164357513
1521.8290173340	0.1048250049
1523.7578247070	0.1231781691
1525.6866320801	0.1208930761
1527.6154394531	0.1212482303
1529.5442468261	0.1308856905
1531.4730541992	0.1269288957
1533.4018615722	0.1184633151
1535.3306689453	0.1241320670
1537.2594763183	0.1303442717
1539.1882836914	0.0997047871
1541.1170910644	0.1042010635
1543.0458984375	0.1199446768
1544.9747058105	0.1164056212
1546.9035131836	0.1328929961
1548.8323205566	0.1254729778
1550.7611279297	0.1291803420
1552.6899353027	0.1279475540
1554.6187426758	0.1188099012
1556.5475500488	0.1252381206
1558.4763574218	0.0948594958
1560.4051647949	0.1012479663
1562.3339721679	0.1335587800
1564.2627795410	0.1273446679
1566.1915869140	0.1305891573
1568.1203942871	0.1292291880
1570.0492016601	0.1174163669
1571.9780090332	0.1317579746
1573.9068164062	0.1323297322
1575.8356237793	0.1098312959
1577.7644311523	0.1215234697
1579.6932385254	0.1340397298
1581.6220458984	0.1291536838
1583.5508532715	0.1318448782
1585.4796606445	0.1301296651
1587.4084680175	0.1309694350
1589.3372753906	0.1300276965
1591.2660827636	0.1299111545
1593.1948901367	0.1300172508
1595.1236975097	0.1289368868
1597.0525048828	0.1302590966
1598.9813122558	0.1293867230
1600.9101196289	0.1301479340
1602.8389270019	0.1279696524
1604.7677343750	0.1298893988
1606.6965417480	0.1283035725
1608.6253491211	0.1281416118
1610.5541564941	0.1279431731
1612.4829638672	0.1283844113
1614.4117712402	0.1298603266
1616.3405786132	0.1099861860
1618.2693859863	0.1181449071
1620.1981933593	0.1332199574
1622.1270007324	0.1205352172
1624.0558081054	0.1217893660
1625.9846154785	0.1259870827
1627.9134228515	0.1258851290
1629.8422302246	0.1249474585
1631.7710375976	0.1315214634
1633.6998449707	0.1232108623
1635.6286523437	0.1057150811
1637.5574597168	0.1197926402
1639.4862670898	0.1289158463
1641.4150744629	0.1263701469
1643.3438818359	0.1289355755
1645.2726892090	0.1182281822
1647.2014965820	0.1074580848
1649.1303039550	0.1282074749
1651.0591113281	0.1211376563
1652.9879187011	0.0854645967
1654.9167260742	0.1102748737
1656.8455334472	0.1316743195
1658.7743408203	0.1265015900
1660.7031481933	0.1298430264
1662.6319555664	0.1201146394
1664.5607629394	0.1257954985
1666.4895703125	0.1325204968
1668.4183776855	0.1190867275
1670.3471850586	0.1169328094
1672.2759924316	0.1287560165
1674.2047998047	0.1206620634
1676.1336071777	0.1168824211
1678.0624145507	0.1307401955
1679.9912219238	0.1265777946
1681.9200292968	0.1257552058
1683.8488366699	0.1060680971
1685.7776440429	0.1055067778
1687.7064514160	0.1361052394
1689.6352587890	0.1208142415
1691.5640661621	0.1310302913
1693.4928735351	0.1320812851
1695.4216809082	0.1026300788
1697.3504882812	0.1217722446
1699.2792956543	0.1094501838
1701.2081030273	0.1015602797
1703.1369104004	0.1296209991
1705.0657177734	0.1205745414
1706.9945251464	0.1215145960
1708.9233325195	0.1295265853
1710.8521398925	0.1252543926
1712.7809472656	0.1269738674
1714.7097546386	0.1193464696
1716.6385620117	0.1089904010
1718.5673693847	0.1077798009
1720.4961767578	0.1238805428
1722.4249841308	0.1267367601
1724.3537915039	0.1197825447
1726.2825988769	0.1280215383
1728.2114062500	0.1193379909
1730.1402136230	0.1207818463
1732.0690209961	0.1170352846
1733.9978283691	0.0947960317
1735.9266357421	0.1130382493
1737.8554431152	0.1217243820
1739.7842504882	0.1113277972
1741.7130578613	0.1194170713
1743.6418652343	0.1207921952
1745.5706726074	0.1209174916
1747.4994799804	0.1219803616
1749.4282873535	0.1176953614
1751.3570947265	0.1136881411
1753.2859020996	0.1237346753
1755.2147094726	0.1277513951
1757.1435168457	0.1190305948
1759.0723242187	0.1282712221
1761.0011315918	0.1217333227
1762.9299389648	0.1190334633
1764.8587463379	0.1320745647
1766.7875537109	0.1211891621
1768.7163610839	0.1224564016
1770.6451684570	0.1215889603
1772.5739758300	0.1116551608
1774.5027832031	0.1218894422
1776.4315905761	0.1271501482
1778.3603979492	0.1256346107
1780.2892053222	0.1247539669
1782.2180126953	0.1254310310
1784.1468200683	0.1251175106
1786.0756274414	0.1231961697
1788.0044348144	0.1281766146
1789.9332421875	0.1253369749
1791.8620495605	0.1159178615
1793.7908569336	0.1200538576
1795.7196643066	0.1267758161
1797.6484716796	0.1253820658
1799.5772790527	0.1238592416
1801.5060864257	0.1223200262
1803.4348937988	0.1253921092
1805.3637011718	0.1272603273
1807.2925085449	0.1259726584
1809.2213159179	0.1263082623
1811.1501232910	0.1237051636
1813.0789306640	0.1266740710
1815.0077380371	0.1268461049
1816.9365454101	0.1259125918
1818.8653527832	0.1267558336
1820.7941601562	0.1262015998
1822.7229675293	0.1275823116
1824.6517749023	0.1210406125
1826.5805822753	0.1246702820
1828.5093896484	0.1243933290
1830.4381970214	0.1184532344
1832.3670043945	0.1267781705
1834.2958117675	0.1257487237
1836.2246191406	0.1256818473
1838.1534265136	0.1252087802
1840.0822338867	0.1258140504
1842.0110412597	0.1257566512
1843.9398486328	0.1143879816
1845.8686560058	0.1205701232
1847.7974633789	0.1255913377
1849.7262707519	0.1232331097
1851.6550781250	0.1261751056
1853.5838854980	0.1241167635
1855.5126928710	0.1250589788
1857.4415002441	0.1243465692
1859.3703076171	0.1236099452
1861.2991149902	0.1243033558
1863.2279223632	0.1230874360
1865.1567297363	0.1239509657
1867.0855371093	0.1205134988
1869.0143444824	0.1168080643
1870.9431518554	0.1204478592
1872.8719592285	0.1234753728
1874.8007666015	0.1220772415
1876.7295739746	0.1227429211
1878.6583813476	0.1222243309
1880.5871887207	0.1216634810
1882.5159960937	0.1222100481
1884.4448034667	0.1205742210
1886.3736108398	0.1218527853
1888.3024182128	0.1196024343
1890.2312255859	0.1179480925
1892.1600329589	0.1214954779
1894.0888403320	0.1198427007
1896.0176477050	0.1193271056
1897.9464550781	0.1205270663
1899.8752624511	0.1198551506
1901.8040698242	0.1200764775
1903.7328771972	0.1193969995
1905.6616845703	0.1197319105
1907.5904919433	0.1187638342
1909.5192993164	0.1181096882
1911.4481066894	0.1186221689
1913.3769140625	0.1186134517
1915.3057214355	0.1194357574
1917.2345288085	0.1150777787
1919.1633361816	0.1153161973
1921.0921435546	0.1185621545
1923.0209509277	0.1155201793
1924.9497583007	0.1176063642
1926.8785656738	0.1181099713
1928.8073730468	0.1170335263
1930.7361804199	0.1182335913
1932.6649877929	0.1169140413
1934.5937951660	0.1178351641
1936.5226025390	0.1170782894
1938.4514099121	0.1172166616
1940.3802172851	0.1171149760
1942.3090246582	0.1143461615
1944.2378320312	0.1156969592
1946.1666394042	0.1166251674
1948.0954467773	0.1164103225
1950.0242541503	0.1165473461
1951.9530615234	0.1163454354
1953.8818688964	0.1163854897
1955.8106762695	0.1160279661
1957.7394836425	0.1161442250
1959.6682910156	0.1160197258
1961.5970983886	0.1157810241
1963.5259057617	0.1158528104
1965.4547131347	0.1152609661
1967.3835205078	0.1144207045
1969.3123278808	0.1152178496
1971.2411352539	0.1157149598
1973.1699426269	0.1150373369
1975.0987499999	0.1150550470
1977.0275573730	0.1148480028
1978.9563647460	0.1149375588
1980.8851721191	0.1146738976
1982.8139794921	0.1143634617
1984.7427868652	0.1143945158
1986.6715942382	0.1136691496
1988.6004016113	0.1138089597
1990.5292089843	0.1130570322
1992.4580163574	0.1119852066
1994.3868237304	0.1131479368
1996.3156311035	0.1133609861
1998.2444384765	0.1127443835
2000.1732458496	0.1127441972
2002.1020532226	0.1122259125
2004.0308605956	0.1121934354
2005.9596679687	0.1120301634
2007.8884753417	0.1116462350
2009.8172827148	0.1115680560
2011.7460900878	0.1110927239
2013.6748974609	0.1111053973
2015.6037048339	0.1104019433
2017.5325122070	0.1095490605
2019.4613195800	0.1099784598
2021.3901269531	0.1100200117
2023.3189343261	0.1097212732
2025.2477416992	0.1094553024
2027.1765490722	0.1091147885
2029.1053564453	0.1088698357
2031.0341638183	0.1086530089
2032.9629711914	0.1084980071
2034.8917785644	0.1082178578
2036.8205859374	0.1079491824
2038.7493933105	0.1078752875
2040.6782006835	0.1073066592
2042.6070080566	0.1069772467
2044.5358154296	0.1071132347
2046.4646228027	0.1065937504
2048.3934301757	0.1064643115
2050.3222375488	0.1063149571
2052.2510449218	0.1060504019
2054.1798522949	0.1059169546
2056.1086596679	0.1054789722
2058.0374670410	0.1053600609
2059.9662744140	0.1049984172
2061.8950817871	0.1049161255
2063.8238891601	0.1044793427
2065.7526965331	0.1041392833
2067.6815039062	0.1045022607
2069.6103112792	0.1040952504
2071.5391186523	0.1038582772
2073.4679260253	0.1035245359
2075.3967333984	0.1032468304
2077.3255407714	0.1031682342
2079.2543481445	0.1029752344
2081.1831555175	0.1029441431
2083.1119628906	0.1026267409
2085.0407702636	0.1025282890
2086.9695776367	0.1021648943
2088.8983850097	0.1018440723
2090.8271923828	0.1018061414
2092.7559997558	0.1015348434
2094.6848071288	0.1013780832
2096.6136145019	0.1012408137
2098.5424218749	0.1010362431
2100.4712292480	0.1007624120
2102.4000366210	0.1006332040
2104.3288439941	0.1004311442
2106.2576513671	0.1001658514
2108.1864587402	0.0999517292
2110.1152661132	0.0998598337
2112.0440734863	0.0997062474
2113.9728808593	0.0994552299
2115.9016882324	0.0994575173
2117.8304956054	0.0991788954
2119.7593029785	0.0990221947
2121.6881103515	0.0989681929
2123.6169177245	0.0986883193
2125.5457250976	0.0984967947
2127.4745324706	0.0983439684
2129.4033398437	0.0982638150
2131.3321472167	0.0981079936
2133.2609545898	0.0979238600
2135.1897619628	0.0977490321
2137.1185693359	0.0976118445
2139.0473767089	0.0974493474
2140.9761840820	0.0974360108
2142.9049914550	0.0972418338
2144.8337988281	0.0970238447
2146.7626062011	0.0970558673
2148.6914135742	0.0967716798
2150.6202209472	0.0967148840
2152.5490283203	0.0965271145
2154.4778356933	0.0963262320
2156.4066430663	0.0963177830
2158.3354504394	0.0962035954
2160.2642578124	0.0961120799
2162.1930651855	0.0957181752
2164.1218725585	0.0956628174
2166.0506799316	0.0956587493
2167.9794873046	0.0955477357
2169.9082946777	0.0954173058
2171.8371020507	0.0952667221
2173.7659094238	0.0952418521
2175.6947167968	0.0951250345
2177.6235241699	0.0950536132
2179.5523315429	0.0946598351
2181.4811389160	0.0946152657
2183.4099462890	0.0945796221
2185.3387536620	0.0943520665
2187.2675610351	0.0942892432
2189.1963684081	0.0940079167
2191.1251757812	0.0939980000
2193.0539831542	0.0938224047
2194.9827905273	0.0936883837
2196.9115979003	0.0936268345
2198.8404052734	0.0935109630
2200.7692126464	0.0933355242
2202.6980200195	0.0930750668
2204.6268273925	0.0930587649
2206.5556347656	0.0928477049
2208.4844421386	0.0928854123
2210.4132495117	0.0928023532
2212.3420568847	0.0926277563
2214.2708642577	0.0924807936
2216.1996716308	0.0922471732
2218.1284790038	0.0923001543
2220.0572863769	0.0920182616
2221.9860937499	0.0918494910
2223.9149011230	0.0918045864
2225.8437084960	0.0917724967
2227.7725158691	0.0916317403
2229.7013232421	0.0913756192
2231.6301306152	0.0912768841
2233.5589379882	0.0910333917
2235.4877453613	0.0909928158
2237.4165527343	0.0907640755
2239.3453601074	0.0905249342
2241.2741674804	0.0904937983
2243.2029748534	0.0903603584
2245.1317822265	0.0901800394
2247.0605895995	0.0900038928
2248.9893969726	0.0898610502
2250.9182043456	0.0896653980
2252.8470117187	0.0896030068
2254.7758190917	0.0893520564
2256.7046264648	0.0892363116
2258.6334338378	0.0890572220
2260.5622412109	0.0888334960
2262.4910485839	0.0888384134
2264.4198559570	0.0885956436
2266.3486633300	0.0886096954
2268.2774707031	0.0885031223
2270.2062780761	0.0883951783
2272.1350854491	0.0882176831
2274.0638928222	0.0879485309
2275.9927001952	0.0879836529
2277.9215075683	0.0877175182
2279.8503149413	0.0876424834
2281.7791223144	0.0876744166
2283.7079296874	0.0875669271
2285.6367370605	0.0874018073
2287.5655444335	0.0872262567
2289.4943518066	0.0870437324
2291.4231591796	0.0867395252
2293.3519665527	0.0865363628
2295.2807739257	0.0862714499
2297.2095812988	0.0860142410
2299.1383886718	0.0855753124
2301.0671960449	0.0852478966
2302.9960034179	0.0849492326
2304.9248107909	0.0844655558
2306.8536181640	0.0840271711
2308.7824255370	0.0832807720
2310.7112329101	0.0826071352
2312.6400402831	0.0819515139
2314.5688476562	0.0812246650
2316.4976550292	0.0803694129
2318.4264624023	0.0793260932
2320.3552697753	0.0782656670
2322.2840771484	0.0771396607
2324.2128845214	0.0762760043
2326.1416918945	0.0755698532
2328.0704992675	0.0747820064
2329.9993066406	0.0737604350
2331.9281140136	0.0731917247
2333.8569213866	0.0730291605
2335.7857287597	0.0726732463
2337.7145361327	0.0725413114
2339.6433435058	0.0724439770
2341.5721508788	0.0728929341
2343.5009582519	0.0737868398
2345.4297656249	0.0749273151
2347.3585729980	0.0779102445
2349.2873803710	0.0801061541
2351.2161877441	0.0775858015
2353.1449951171	0.0737297833
2355.0738024902	0.0713342130
2357.0026098632	0.0693279132
2358.9314172363	0.0680601597
2360.8602246093	0.0671936646
2362.7890319823	0.0670262873
2364.7178393554	0.0675420016
2366.6466467284	0.0683123320
2368.5754541015	0.0696381703
2370.5042614745	0.0711072087
2372.4330688476	0.0728568435
2374.3618762206	0.0746395066
2376.2906835937	0.0765926763
2378.2194909667	0.0782322586
2380.1482983398	0.0792991072
2382.0771057128	0.0802430362
2384.0059130859	0.0805895329
2385.9347204589	0.0806894898
2387.8635278320	0.0808165967
2389.7923352050	0.0809712410
2391.7211425780	0.0807085633
2393.6499499511	0.0804891586
2395.5787573241	0.0804879367
2397.5075646972	0.0803006142
2399.4363720702	0.0803110451
2401.3651794433	0.0800230503
2403.2939868163	0.0799897015
2405.2227941894	0.0799334496
2407.1516015624	0.0796193331
2409.0804089355	0.0796407908
2411.0092163085	0.0795307010
2412.9380236816	0.0794246197
2414.8668310546	0.0792080089
2416.7956384277	0.0790676847
2418.7244458007	0.0790531188
2420.6532531738	0.0789168626
2422.5820605468	0.0787275136
2424.5108679198	0.0786039308
2426.4396752929	0.0785120204
2428.3684826659	0.0784543976
2430.2972900390	0.0784910023
2432.2260974120	0.0782731771
2434.1549047851	0.0781589970
2436.0837121581	0.0779943392
2438.0125195312	0.0779010952
2439.9413269042	0.0778405815
2441.8701342773	0.0776005536
2443.7989416503	0.0775828511
2445.7277490234	0.0773931667
2447.6565563964	0.0773208588
2449.5853637695	0.0771497190
2451.5141711425	0.0770304352
2453.4429785155	0.0769715160
2455.3717858886	0.0768383145
2457.3005932616	0.0769810230
2459.2294006347	0.0766907185
2461.1582080077	0.0765459836
2463.0870153808	0.0763846487
2465.0158227538	0.0761924982
2466.9446301269	0.0761832446
2468.8734374999	0.0759525225
2470.8022448730	0.0759680495
2472.7310522460	0.0756788775
2474.6598596191	0.0755449384
2476.5886669921	0.0757000744
2478.5174743652	0.0754813105
2480.4462817382	0.0753212124
2482.3750891112	0.0753303319
2484.3038964843	0.0752316415
2486.2327038573	0.0750312358
2488.1615112304	0.0750044659
2490.0903186034	0.0748802051
2492.0191259765	0.0747602135
2493.9479333495	0.0746147335
2495.8767407226	0.0743794590
2497.8055480956	0.0743540823
2499.7343554687	0.0743502975
2501.6631628417	0.0741966069
2503.5919702148	0.0739733279
2505.5207775878	0.0739542097
2507.4495849609	0.0738616884
2509.3783923339	0.0737545341
2511.3071997069	0.0736427158
2513.2360070800	0.0734730810
2515.1648144530	0.0734614134
2517.0936218261	0.0732980222
2519.0224291991	0.0731892884
2520.9512365722	0.0730885193
2522.8800439452	0.0729601830
2524.8088513183	0.0728466511
2526.7376586913	0.0727121681
2528.6664660644	0.0727197379
2530.5952734374	0.0725955516
2532.5240808105	0.0724185556
2534.4528881835	0.0722769499
2536.3816955566	0.0722433776
2538.3105029296	0.0722723901
2540.2393103027	0.0720186532
2542.1681176757	0.0717347562
2544.0969250487	0.0717736781
2546.0257324218	0.0718106329
2547.9545397948	0.0716925263
2549.8833471679	0.0715893507
2551.8121545409	0.0714294612
2553.7409619140	0.0712894350
2555.6697692870	0.0712489784
2557.5985766601	0.0711895823
2559.5273840331	0.0709205717
2561.4561914062	0.0708456635
2563.3849987792	0.0708551556
2565.3138061523	0.0706865266
2567.2426135253	0.0706245378
2569.1714208984	0.0703517497
2571.1002282714	0.0703071952
2573.0290356444	0.0702700019
2574.9578430175	0.0700028241
2576.8866503905	0.0700019747
2578.8154577636	0.0699134097
2580.7442651366	0.0698008314
2582.6730725097	0.0696514845
2584.6018798827	0.0695508420
2586.5306872558	0.0694110394
2588.4594946288	0.0692739263
2590.3883020019	0.0692904741
2592.3171093749	0.0692007691
2594.2459167480	0.0691660717
2596.1747241210	0.0690330938
2598.1035314941	0.0688330829
2600.0323388671	0.0686893538
2601.9611462401	0.0686824769
2603.8899536132	0.0685434788
2605.8187609862	0.0683075413
2607.7475683593	0.0682985634
2609.6763757323	0.0682165176
2611.6051831054	0.0682025850
2613.5339904784	0.0680513680
2615.4627978515	0.0679344311
2617.3916052245	0.0678582191
2619.3204125976	0.0676278844
2621.2492199706	0.0676594377
2623.1780273437	0.0675884187
2625.1068347167	0.0673938245
2627.0356420898	0.0673235059
2628.9644494628	0.0672596321
2630.8932568358	0.0671571940
2632.8220642089	0.0670344532
2634.7508715819	0.0667517185
2636.6796789550	0.0667292178
2638.6084863280	0.0668720901
2640.5372937011	0.0666112229
2642.4661010741	0.0664508939
2644.3949084472	0.0663159043
2646.3237158202	0.0662621707
2648.2525231933	0.0661162436
2650.1813305663	0.0659429729
2652.1101379394	0.0659936368
2654.0389453124	0.0658528954
2655.9677526855	0.0658258200
2657.8965600585	0.0656260550
2659.8253674315	0.0655205846
2661.7541748046	0.0654499233
2663.6829821776	0.0653644428
2665.6117895507	0.0654673278
2667.5405969237	0.0651506186
2669.4694042968	0.0650449544
2671.3982116698	0.0649019182
2673.3270190429	0.0647847503
2675.2558264159	0.0648248345
2677.1846337890	0.0646019727
2679.1134411620	0.0645885617
2681.0422485351	0.0643941611
2682.9710559081	0.0642543137
2684.8998632812	0.0642898381
2686.8286706542	0.0641183853
2688.7574780273	0.0640231669
2690.6862854003	0.0639728755
2692.6150927733	0.0638311505
2694.5439001464	0.0637534410
2696.4727075194	0.0636639744
2698.4015148925	0.0634872019
2700.3303222655	0.0634356886
2702.2591296386	0.0632623211
2704.1879370116	0.0631440580
2706.1167443847	0.0631213188
2708.0455517577	0.0629822314
2709.9743591308	0.0628823563
2711.9031665038	0.0628391951
2713.8319738769	0.0627752692
2715.7607812499	0.0624826849
2717.6895886230	0.0624168813
2719.6183959960	0.0624648109
2721.5472033690	0.0623354279
2723.4760107421	0.0622175485
2725.4048181151	0.0619819388
2727.3336254882	0.0619035661
2729.2624328612	0.0619129352
2731.1912402343	0.0617329255
2733.1200476073	0.0615432113
2735.0488549804	0.0615093261
2736.9776623534	0.0614617094
2738.9064697265	0.0614064597
2740.8352770995	0.0612432882
2742.7640844726	0.0610752702
2744.6928918456	0.0610518456
2746.6216992187	0.0608913265
2748.5505065917	0.0608648546
2750.4793139647	0.0607165620
2752.4081213378	0.0606091395
2754.3369287108	0.0605476610
2756.2657360839	0.0603179932
2758.1945434569	0.0603615008
2760.1233508300	0.0601881742
2762.0521582030	0.0601171479
2763.9809655761	0.0600669309
2765.9097729491	0.0597467944
2767.8385803222	0.0597302355
2769.7673876952	0.0597713739
2771.6961950683	0.0595841631
2773.6250024413	0.0593550429
2775.5538098144	0.0593813658
2777.4826171874	0.0592792220
2779.4114245604	0.0590840578
2781.3402319335	0.0589985959
2783.2690393065	0.0589075014
2785.1978466796	0.0587913916
2787.1266540526	0.0585634373
2789.0554614257	0.0584787056
2790.9842687987	0.0583953634
2792.9130761718	0.0583216175
2794.8418835448	0.0582019165
2796.7706909179	0.0580716021
2798.6994982909	0.0579764321
2800.6283056640	0.0578173026
2802.5571130370	0.0577500127
2804.4859204101	0.0576662719
2806.4147277831	0.0576081872
2808.3435351562	0.0573593006
2810.2723425292	0.0572839528
2812.2011499022	0.0572241843
2814.1299572753	0.0569663048
2816.0587646483	0.0569489002
2817.9875720214	0.0567619801
2819.9163793944	0.0567057207
2821.8451867675	0.0566202998
2823.7739941405	0.0563947335
2825.7028015136	0.0563224740
2827.6316088866	0.0562217087
2829.5604162597	0.0561385602
2831.4892236327	0.0560358837
2833.4180310058	0.0559854135
2835.3468383788	0.0557462946
2837.2756457519	0.0555544607
2839.2044531249	0.0554968566
2841.1332604979	0.0553350188
2843.0620678710	0.0550074577
2844.9908752440	0.0546936877
2846.9196826171	0.0544949174
2848.8484899901	0.0540954992
2850.7772973632	0.0540441573
2852.7061047362	0.0539966524
2854.6349121093	0.0539070033
2856.5637194823	0.0539352596
2858.4925268554	0.0537098199
2860.4213342284	0.0537024140
2862.3501416015	0.0535468832
2864.2789489745	0.0534533411
2866.2077563476	0.0534374788
2868.1365637206	0.0532644168
2870.0653710936	0.0532496199
2871.9941784667	0.0531866401
2873.9229858397	0.0531437732
2875.8517932128	0.0529867001
2877.7806005858	0.0528821647
2879.7094079589	0.0528220758
2881.6382153319	0.0527113862
2883.5670227050	0.0526741147
2885.4958300780	0.0525762066
2887.4246374511	0.0524605624
2889.3534448241	0.0523102023
2891.2822521972	0.0522457547
2893.2110595702	0.0520980880
2895.1398669433	0.0518365838
2897.0686743163	0.0517035350
2898.9974816893	0.0516869947
2900.9262890624	0.0515811443
2902.8550964354	0.0513770655
2904.7839038085	0.0511908829
2906.7127111815	0.0510203391
2908.6415185546	0.0509643741
2910.5703259276	0.0506740734
2912.4991333007	0.0503855497
2914.4279406737	0.0502373427
2916.3567480468	0.0499223806
2918.2855554198	0.0498037897
2920.2143627929	0.0497716479
2922.1431701659	0.0496328138
2924.0719775390	0.0495123565
2926.0007849120	0.0494546145
2927.9295922851	0.0494066626
2929.8583996581	0.0493664667
2931.7872070311	0.0493642762
2933.7160144042	0.0494009927
2935.6448217772	0.0493198112
2937.5736291503	0.0492324457
2939.5024365233	0.0493672043
2941.4312438964	0.0492407009
2943.3600512694	0.0491003767
2945.2888586425	0.0491216630
2947.2176660155	0.0490451157
2949.1464733886	0.0489861593
2951.0752807616	0.0488343835
2953.0040881347	0.0486857966
2954.9328955077	0.0485646129
2956.8617028808	0.0484206527
2958.7905102538	0.0481791943
2960.7193176268	0.0481485426
2962.6481249999	0.0481228493
2964.5769323729	0.0478825010
2966.5057397460	0.0478529036
2968.4345471190	0.0477705598
2970.3633544921	0.0478903204
2972.2921618651	0.0480041541
2974.2209692382	0.0479867868
2976.1497766112	0.0480180793
2978.0785839843	0.0479113460
2980.0073913573	0.0480012409
2981.9361987304	0.0478631742
2983.8650061034	0.0477951095
2985.7938134765	0.0479126945
2987.7226208495	0.0477480218
2989.6514282225	0.0477249995
2991.5802355956	0.0476698503
2993.5090429686	0.0475150533
2995.4378503417	0.0474566221
2997.3666577147	0.0474233180
2999.2954650878	0.0473752953
3001.2242724608	0.0473416001
3003.1530798339	0.0471746847
3005.0818872069	0.0469467267
3007.0106945800	0.0469479002
3008.9395019530	0.0468608588
3010.8683093261	0.0466992110
3012.7971166991	0.0466587916
3014.7259240722	0.0465085581
3016.6547314452	0.0464002192
3018.5835388182	0.0463841558
3020.5123461913	0.0462273806
3022.4411535643	0.0461636335
3024.3699609374	0.0460060090
3026.2987683104	0.0458506718
3028.2275756835	0.0459881201
3030.1563830565	0.0457722098
3032.0851904296	0.0454864949
3034.0139978026	0.0455323718
3035.9428051757	0.0455131978
3037.8716125487	0.0453063399
3039.8004199218	0.0452445820
3041.7292272948	0.0452222563
3043.6580346679	0.0450553261
3045.5868420409	0.0450993031
3047.5156494139	0.0448781513
3049.4444567870	0.0446762703
3051.3732641600	0.0447402894
3053.3020715331	0.0445982777
3055.2308789061	0.0444370918
3057.1596862792	0.0442837104
3059.0884936522	0.0442352593
3061.0173010253	0.0440906510
3062.9461083983	0.0441060737
3064.8749157714	0.0440709516
3066.8037231444	0.0438554473
3068.7325305175	0.0438734293
3070.6613378905	0.0436994210
3072.5901452636	0.0437108167
3074.5189526366	0.0436117053
3076.4477600097	0.0433544144
3078.3765673827	0.0433216020
3080.3053747557	0.0431941338
3082.2341821288	0.0431742966
3084.1629895018	0.0431065410
3086.0917968749	0.0430685729
3088.0206042479	0.0428918451
3089.9494116210	0.0427294523
3091.8782189940	0.0428031310
3093.8070263671	0.0426373407
3095.7358337401	0.0424854010
3097.6646411132	0.0424231961
3099.5934484862	0.0423067287
3101.5222558593	0.0421390645
3103.4510632323	0.0421118177
3105.3798706054	0.0421168655
3107.3086779784	0.0419820100
3109.2374853514	0.0418908969
3111.1662927245	0.0417826399
3113.0951000975	0.0416420102
3115.0239074706	0.0414340645
3116.9527148436	0.0413742289
3118.8815222167	0.0412817411
3120.8103295897	0.0411118343
3122.7391369628	0.0411390513
3124.6679443358	0.0410303846
3126.5967517089	0.0409033820
3128.5255590819	0.0408414789
3130.4543664550	0.0407486036
3132.3831738280	0.0405870602
3134.3119812011	0.0404125005
3136.2407885741	0.0403904393
3138.1695959471	0.0402538627
3140.0984033202	0.0401089862
3142.0272106932	0.0400209203
3143.9560180663	0.0398615897
3145.8848254393	0.0398025960
3147.8136328124	0.0397475138
3149.7424401854	0.0396309532
3151.6712475585	0.0394304357
3153.6000549315	0.0393451601
3155.5288623046	0.0393644758
3157.4576696776	0.0391500965
3159.3864770507	0.0390887037
3161.3152844237	0.0390680321
3163.2440917968	0.0389417708
3165.1728991698	0.0388596319
3167.1017065428	0.0386432372
3169.0305139159	0.0385915153
3170.9593212889	0.0384845957
3172.8881286620	0.0383647382
3174.8169360350	0.0382801890
3176.7457434081	0.0380422920
3178.6745507811	0.0379525907
3180.6033581542	0.0378661007
3182.5321655272	0.0379054509
3184.4609729003	0.0377337113
3186.3897802733	0.0374672785
3188.3185876464	0.0375615284
3190.2473950194	0.0374657884
3192.1762023925	0.0372331887
3194.1050097655	0.0371956080
3196.0338171386	0.0372013338
3197.9626245116	0.0369585082
3199.8914318846	0.0369462967
3201.8202392577	0.0369736180
3203.7490466307	0.0367496051
3205.6778540038	0.0367028750
3207.6066613768	0.0365315154
3209.5354687499	0.0364914127
3211.4642761229	0.0364534631
3213.3930834960	0.0363342464
3215.3218908690	0.0362407938
3217.2506982421	0.0361237228
3219.1795056151	0.0361555554
3221.1083129882	0.0359471180
3223.0371203612	0.0359415486
3224.9659277343	0.0359540284
3226.8947351073	0.0357632414
3228.8235424803	0.0357134119
3230.7523498534	0.0356026888
3232.6811572264	0.0355624110
3234.6099645995	0.0354619771
3236.5387719725	0.0354470648
3238.4675793456	0.0354137644
3240.3963867186	0.0353201851
3242.3251940917	0.0352573059
3244.2540014647	0.0350854993
3246.1828088378	0.0351141691
3248.1116162108	0.0351169109
3250.0404235839	0.0350638255
3251.9692309569	0.0349441990
3253.8980383300	0.0348508358
3255.8268457030	0.0349679217
3257.7556530760	0.0348355025
3259.6844604491	0.0347804092
3261.6132678221	0.0348781198
3263.5420751952	0.0346827544
3265.4708825682	0.0346375257
3267.3996899413	0.0346232951
3269.3284973143	0.0344220437
3271.2573046874	0.0344059579
3273.1861120604	0.0343565941
3275.1149194335	0.0343230963
3277.0437268065	0.0342279673
3278.9725341796	0.0341316573
3280.9013415526	0.0341634676
3282.8301489257	0.0340929776
3284.7589562987	0.0341784507
3286.6877636717	0.0340468436
3288.6165710448	0.0339619592
3290.5453784178	0.0339152217
3292.4741857909	0.0336969495
3294.4029931639	0.0338196419
3296.3318005370	0.0337496847
3298.2606079100	0.0336793736
3300.1894152831	0.0335948542
3302.1182226561	0.0335872322
3304.0470300292	0.0336121358
3305.9758374022	0.0332787037
3307.9046447753	0.0333091095
3309.8334521483	0.0332537107
3311.7622595214	0.0332445875
3313.6910668944	0.0332855061
3315.6198742675	0.0331406742
3317.5486816405	0.0332717374
3319.4774890135	0.0331250317
3321.4062963866	0.0330918357
3323.3351037596	0.0330851078
3325.2639111327	0.0328880027
3327.1927185057	0.0329380333
3329.1215258788	0.0328324586
3331.0503332518	0.0327055082
3332.9791406249	0.0326958299
3334.9079479979	0.0326894671
3336.8367553710	0.0325783566
3338.7655627440	0.0324464105
3340.6943701171	0.0324881822
3342.6231774901	0.0324223340
3344.5519848632	0.0323176645
3346.4807922362	0.0323171541
3348.4095996092	0.0322694965
3350.3384069823	0.0321308449
3352.2672143553	0.0320511460
3354.1960217284	0.0320856422
3356.1248291014	0.0319902450
3358.0536364745	0.0318644047
3359.9824438475	0.0318411365
3361.9112512206	0.0317270048
3363.8400585936	0.0316374302
3365.7688659667	0.0316174030
3367.6976733397	0.0315021016
3369.6264807128	0.0315126888
3371.5552880858	0.0316124782
3373.4840954589	0.0314125121
3375.4129028319	0.0312535390
3377.3417102049	0.0312911011
3379.2705175780	0.0312153604
3381.1993249510	0.0311544612
3383.1281323241	0.0311054811
3385.0569396971	0.0309715085
3386.9857470702	0.0307797268
3388.9145544432	0.0308381282
3390.8433618163	0.0308253020
3392.7721691893	0.0306142904
3394.7009765624	0.0306729600
3396.6297839354	0.0304543190
3398.5585913085	0.0304569192
3400.4873986815	0.0305204950
3402.4162060546	0.0302199908
3404.3450134276	0.0303475149
3406.2738208006	0.0302626193
3408.2026281737	0.0301483199
3410.1314355467	0.0301420987
3412.0602429198	0.0300472230
3413.9890502928	0.0300618820
3415.9178576659	0.0299090724
3417.8466650389	0.0299106613
3419.7754724120	0.0297498833
3421.7042797850	0.0295673553
3423.6330871581	0.0297281239
3425.5618945311	0.0297812857
3427.4907019042	0.0296292901
3429.4195092772	0.0295450948
3431.3483166503	0.0294663087
3433.2771240233	0.0293343365
3435.2059313963	0.0293334797
3437.1347387694	0.0291605219
3439.0635461424	0.0292197429
3440.9923535155	0.0291685760
3442.9211608885	0.0290110521
3444.8499682616	0.0290880129
3446.7787756346	0.0286898650
3448.7075830077	0.0287532993
3450.6363903807	0.0289758965
3452.5651977538	0.0288563892
3454.4940051268	0.0288595930
3456.4228124999	0.0287231021
3458.3516198729	0.0287439283
3460.2804272460	0.0286846496
3462.2092346190	0.0285736229
3464.1380419921	0.0286146216
3466.0668493651	0.0285943914
3467.9956567381	0.0285010375
3469.9244641112	0.0284046270
3471.8532714842	0.0283693857
3473.7820788573	0.0283784606
3475.7108862303	0.0283443015
3477.6396936034	0.0283406489
3479.5685009764	0.0283023492
3481.4973083495	0.0279912185
3483.4261157225	0.0280924328
3485.3549230956	0.0281449482
3487.2837304686	0.0279143192
3489.2125378417	0.0279930830
3491.1413452147	0.0280164927
3493.0701525878	0.0280501768
3494.9989599608	0.0279163979
3496.9277673338	0.0279385708
3498.8565747069	0.0279888101
3500.7853820799	0.0278184265
3502.7141894530	0.0275031999
3504.6429968260	0.0275246426
3506.5718041991	0.0280784257
3508.5006115721	0.0276441947
3510.4294189452	0.0274262968
3512.3582263182	0.0277161803
3514.2870336913	0.0277075320
3516.2158410643	0.0278141107
3518.1446484374	0.0276504941
3520.0734558104	0.0277702920
3522.0022631835	0.0274949782
3523.9310705565	0.0272057205
3525.8598779295	0.0273536425
3527.7886853026	0.0272257365
3529.7174926756	0.0272794254
3531.6463000487	0.0274319630
3533.5751074217	0.0276371352
3535.5039147948	0.0273779780
3537.4327221678	0.0272297636
3539.3615295409	0.0275082588
3541.2903369139	0.0274114907
3543.2191442870	0.0272558779
3545.1479516600	0.0268619880
3547.0767590331	0.0265793391
3549.0055664061	0.0270934664
3550.9343737792	0.0272574127
3552.8631811522	0.0268492848
3554.7919885252	0.0271329284
3556.7207958983	0.0272531006
3558.6496032713	0.0270565059
3560.5784106444	0.0269741639
3562.5072180174	0.0269206408
3564.4360253905	0.0269177556
3566.3648327635	0.0256263781
3568.2936401366	0.0251980871
3570.2224475096	0.0267046690
3572.1512548827	0.0271648634
3574.0800622557	0.0268803593
3576.0088696288	0.0269468613
3577.9376770018	0.0268256292
3579.8664843749	0.0268000737
3581.7952917479	0.0268525351
3583.7240991210	0.0268823877
3585.6529064940	0.0264282059
3587.5817138670	0.0248449743
3589.5105212401	0.0252734125
3591.4393286131	0.0269574486
3593.3681359862	0.0264298320
3595.2969433592	0.0260205194
3597.2257507323	0.0264017209
3599.1545581053	0.0264736637
3601.0833654784	0.0263702627
3603.0121728514	0.0264904164
3604.9409802245	0.0267305784
3606.8697875975	0.0260899961
3608.7985949706	0.0248750970
3610.7274023436	0.0253555961
3612.6562097167	0.0257179365
3614.5850170897	0.0251682289
3616.5138244627	0.0266376026
3618.4426318358	0.0249670427
3620.3714392088	0.0243811272
3622.3002465819	0.0266822595
3624.2290539549	0.0260398313
3626.1578613280	0.0269876756
3628.0866687010	0.0236054659
3630.0154760741	0.0220423564
3631.9442834471	0.0263438523
3633.8730908202	0.0256504472
3635.8018981932	0.0259779803
3637.7307055663	0.0264884699
3639.6595129393	0.0261589605
3641.5883203124	0.0263274312
3643.5171276854	0.0260628425
3645.4459350584	0.0262679085
3647.3747424315	0.0241134539
3649.3035498045	0.0226393547
3651.2323571776	0.0229396187
3653.1611645506	0.0260862540
3655.0899719237	0.0256490819
3657.0187792967	0.0236501042
3658.9475866698	0.0264696069
3660.8763940428	0.0258135945
3662.8052014159	0.0261343904
3664.7340087889	0.0260533243
3666.6628161620	0.0257958956
3668.5916235350	0.0251963995
3670.5204309081	0.0215175934
3672.4492382811	0.0249429047
3674.3780456541	0.0238996036
3676.3068530272	0.0208364073
3678.2356604002	0.0248330813
3680.1644677733	0.0252490155
3682.0932751463	0.0253010988
3684.0220825194	0.0257390402
3685.9508898924	0.0254413448
3687.8796972655	0.0232470632
3689.8085046385	0.0217993036
3691.7373120116	0.0243123528
3693.6661193846	0.0247350931
3695.5949267577	0.0252111237
3697.5237341307	0.0250606462
3699.4525415038	0.0248879548
3701.3813488768	0.0245039463
3703.3101562499	0.0236595441
3705.2389636229	0.0254325867
3707.1677709959	0.0244746543
3709.0965783690	0.0240911432
3711.0253857420	0.0229500011
3712.9541931151	0.0218645111
3714.8830004881	0.0246841125
3716.8118078612	0.0243148282
3718.7406152342	0.0245121457
3720.6694226073	0.0241201520
3722.5982299803	0.0234845355
3724.5270373534	0.0240291841
3726.4558447264	0.0227394998
3728.3846520995	0.0242189579
3730.3134594725	0.0237129666
3732.2422668456	0.0223190188
3734.1710742186	0.0219905153
3736.0998815916	0.0210327767
3738.0286889647	0.0220055990
3739.9574963377	0.0234963074
3741.8863037108	0.0242490806
3743.8151110838	0.0197200440
3745.7439184569	0.0190079212
3747.6727258299	0.0231815726
3749.6015332030	0.0205069501
3751.5303405760	0.0194074605
3753.4591479491	0.0215798579
3755.3879553221	0.0229035504
3757.3167626952	0.0235376693
3759.2455700682	0.0221103020
3761.1743774413	0.0228084419
3763.1031848143	0.0238059815
3765.0319921873	0.0225544609
3766.9607995604	0.0229196809
3768.8896069334	0.0226932727
3770.8184143065	0.0218811594
3772.7472216795	0.0232965685
3774.6760290526	0.0233432278
3776.6048364256	0.0231438335
3778.5336437987	0.0226707086
3780.4624511717	0.0219959319
3782.3912585448	0.0230440143
3784.3200659178	0.0226677544
3786.2488732909	0.0224766769
3788.1776806639	0.0229268391
3790.1064880370	0.0227902606
3792.0352954100	0.0225863829
3793.9641027830	0.0229203999
3795.8929101561	0.0217491686
3797.8217175291	0.0216454677
3799.7505249022	0.0224342644
3801.6793322752	0.0186770335
3803.6081396483	0.0212162174
3805.5369470213	0.0225043651
3807.4657543944	0.0192741938
3809.3945617674	0.0223133359
3811.3233691405	0.0219591521
3813.2521765135	0.0225561634
3815.1809838866	0.0207253341
3817.1097912596	0.0187858623
3819.0385986327	0.0223795641
3820.9674060057	0.0191689208
3822.8962133787	0.0199474096
3824.8250207518	0.0222854018
3826.7538281248	0.0207092315
3828.6826354979	0.0218832213
3830.6114428709	0.0211179852
3832.5402502440	0.0205430407
3834.4690576170	0.0209751837
3836.3978649901	0.0200764500
3838.3266723631	0.0184737165
3840.2554797362	0.0197507180
3842.1842871092	0.0209637284
3844.1130944823	0.0201908275
3846.0419018553	0.0213803910
3847.9707092284	0.0211266708
3849.8995166014	0.0210547689
3851.8283239745	0.0193939470
3853.7571313475	0.0156018268
3855.6859387205	0.0176250003
3857.6147460936	0.0211817957
3859.5435534666	0.0205831025
3861.4723608397	0.0204710402
3863.4011682127	0.0201275051
3865.3299755858	0.0189699996
3867.2587829588	0.0207778625
3869.1875903319	0.0191322230
3871.1163977049	0.0181099437
3873.0452050780	0.0207040235
3874.9740124510	0.0193265192
3876.9028198241	0.0204550568
3878.8316271971	0.0206610952
3880.7604345702	0.0184879154
3882.6892419432	0.0205810145
3884.6180493162	0.0194668379
3886.5468566893	0.0182158556
3888.4756640623	0.0205766559
3890.4044714354	0.0196632911
3892.3332788084	0.0187210850
3894.2620861815	0.0201197173
3896.1908935545	0.0202689786
3898.1197009276	0.0195306540
3900.0485083006	0.0186885241
3901.9773156737	0.0185406972
3903.9061230467	0.0184296146
3905.8349304198	0.0186088011
3907.7637377928	0.0198610704
3909.6925451659	0.0197653715
3911.6213525389	0.0196968354
3913.5501599119	0.0199769437
3915.4789672850	0.0194654949
3917.4077746580	0.0189936832
3919.3365820311	0.0188218337
3921.2653894041	0.0193677247
3923.1941967772	0.0192317590
3925.1230041502	0.0189914051
3927.0518115233	0.0192824155
3928.9806188963	0.0193684474
3930.9094262694	0.0189750753
3932.8382336424	0.0184998624
3934.7670410155	0.0191159844
3936.6958483885	0.0191847570
3938.6246557616	0.0190817509
3940.5534631346	0.0191990435
3942.4822705076	0.0186141822
3944.4110778807	0.0187526196
3946.3398852537	0.0189434886
3948.2686926268	0.0185819827
3950.1974999998	0.0185837299
3952.1263073729	0.0187849049
3954.0551147459	0.0188364945
3955.9839221190	0.0187895261
3957.9127294920	0.0186142772
3959.8415368651	0.0185964964
3961.7703442381	0.0185852982
3963.6991516112	0.0184963085
3965.6279589842	0.0186201613
3967.5567663573	0.0184716377
3969.4855737303	0.0184430201
3971.4143811034	0.0183873326
3973.3431884764	0.0182002187
3975.2719958494	0.0182548333
3977.2008032225	0.0182100851
3979.1296105955	0.0182762556
3981.0584179686	0.0181723926
3982.9872253416	0.0180944502
3984.9160327147	0.0181223415
3986.8448400877	0.0180674493
3988.7736474608	0.0180912372
3990.7024548338	0.0179858860
3992.6312622069	0.0179540887
3994.5600695799	0.0178411193
3996.4888769530	0.0178095568
3998.4176843260	0.0178726949
4000.3464916991	0.0177678689
4002.2752990721	0.0177274942
4004.2041064451	0.0177050903
4006.1329138182	0.0176883843
4008.0617211912	0.0176069848
4009.9905285643	0.0175680108
4011.9193359373	0.0175588094
4013.8481433104	0.0174977724
4015.7769506834	0.0174599681
4017.7057580565	0.0173789449
4019.6345654295	0.0173442550
4021.5633728026	0.0173593313
4023.4921801756	0.0173218176
4025.4209875487	0.0172615722
4027.3497949217	0.0172666945
4029.2786022948	0.0171731934
4031.2074096678	0.0171302147
4033.1362170408	0.0171700176
4035.0650244139	0.0169699229
4036.9938317869	0.0169107337
4038.9226391600	0.0170273706
4040.8514465330	0.0169677567
4042.7802539061	0.0168267991
4044.7090612791	0.0168145373
4046.6378686522	0.0168377943
4048.5666760252	0.0166742988
4050.4954833983	0.0166679844
4052.4242907713	0.0167467482
4054.3530981444	0.0166844837
4056.2819055174	0.0166832786
4058.2107128905	0.0165413059
4060.1395202635	0.0164892878
4062.0683276365	0.0165350772
4063.9971350096	0.0164270736
4065.9259423826	0.0164308287
4067.8547497557	0.0164042506
4069.7835571287	0.0163919888
4071.7123645018	0.0163007118
4073.6411718748	0.0161826704
4075.5699792479	0.0163275972
4077.4987866209	0.0162596479
4079.4275939940	0.0160775147
4081.3564013670	0.0160818882
4083.2852087401	0.0160910003
4085.2140161131	0.0160523895
4087.1428234862	0.0159887299
4089.0716308592	0.0159372650
4091.0004382323	0.0159713458
4092.9292456053	0.0159913190
4094.8580529783	0.0158919804
4096.7868603514	0.0158594400
4098.7156677244	0.0157870948
4100.6444750975	0.0157313757
4102.5732824705	0.0157442912
4104.5020898436	0.0156441312
4106.4308972166	0.0155569874
4108.3597045897	0.0155467913
4110.2885119627	0.0155493692
4112.2173193358	0.0154834744
4114.1461267088	0.0154830795
4116.0749340819	0.0154132694
4118.0037414549	0.0153452186
4119.9325488280	0.0153646804
4121.8613562010	0.0152689088
4123.7901635740	0.0152812582
4125.7189709471	0.0152198598
4127.6477783201	0.0151404496
4129.5765856932	0.0151676564
4131.5053930662	0.0151686370
4133.4342004393	0.0150674414
4135.3630078123	0.0149830207
4137.2918151854	0.0151089560
4139.2206225584	0.0149805211
4141.1494299315	0.0148880016
4143.0782373045	0.0149651673
4145.0070446776	0.0148769319
4146.9358520506	0.0147862220
4148.8646594237	0.0147098321
4150.7934667967	0.0147431940
4152.7222741697	0.0146918055
4154.6510815428	0.0145825986
4156.5798889158	0.0146315861
4158.5086962889	0.0146624101
4160.4375036619	0.0145516209
4162.3663110350	0.0145695880
4164.2951184080	0.0146220913
4166.2239257811	0.0144756064
4168.1527331541	0.0144323185
4170.0815405272	0.0144292787
4172.0103479002	0.0144695574
4173.9391552733	0.0143111842
4175.8679626463	0.0141791506
4177.7967700194	0.0143019026
4179.7255773924	0.0141843967
4181.6543847654	0.0142030530
4183.5831921385	0.0141778141
4185.5119995115	0.0140453633
4187.4408068846	0.0140974708
4189.3696142576	0.0140802208
4191.2984216307	0.0140249776
4193.2272290037	0.0139476098
4195.1560363768	0.0139277978
4197.0848437498	0.0138769774
4199.0136511229	0.0138305984
4200.9424584959	0.0138650797
4202.8712658690	0.0138819795
4204.8000732420	0.0138574289
4206.7288806151	0.0137906624
4208.6576879881	0.0137009975
4210.5864953611	0.0136897294
4212.5153027342	0.0137824770
4214.4441101072	0.0136659965
4216.3729174803	0.0135095101
4218.3017248533	0.0134806838
4220.2305322264	0.0135180950
4222.1593395994	0.0135167036
4224.0881469725	0.0134810340
4226.0169543455	0.0135086542
4227.9457617186	0.0134168621
4229.8745690916	0.0133929886
4231.8033764647	0.0133350128
4233.7321838377	0.0132972142
4235.6609912108	0.0132138096
4237.5897985838	0.0130928680
4239.5186059569	0.0131983664
4241.4474133299	0.0131380083
4243.3762207029	0.0131735755
4245.3050280760	0.0131141106
4247.2338354490	0.0129788741
4249.1626428221	0.0130632957
4251.0914501951	0.0129702911
4253.0202575682	0.0129290139
4254.9490649412	0.0129464669
4256.8778723143	0.0129250083
4258.8066796873	0.0128450692
4260.7354870604	0.0127924494
4262.6642944334	0.0127151236
4264.5931018065	0.0126274386
4266.5219091795	0.0127167292
4268.4507165526	0.0127171054
4270.3795239256	0.0126802679
4272.3083312986	0.0126334494
4274.2371386717	0.0126206428
4276.1659460447	0.0125705097
4278.0947534178	0.0125177931
4280.0235607908	0.0125299785
4281.9523681639	0.0124798054
4283.8811755369	0.0124843940
4285.8099829100	0.0124277771
4287.7387902830	0.0124079902
4289.6675976561	0.0123822577
4291.5964050291	0.0123589206
4293.5252124022	0.0123046916
4295.4540197752	0.0122102089
4297.3828271483	0.0121867806
4299.3116345213	0.0121404305
4301.2404418943	0.0122269597
4303.1692492674	0.0120877502
4305.0980566404	0.0120513570
4307.0268640135	0.0121950209
4308.9556713865	0.0120422170
4310.8844787596	0.0119574480
4312.8132861326	0.0119269453
4314.7420935057	0.0119563770
4316.6709008787	0.0119091235
4318.5997082518	0.0118622892
4320.5285156248	0.0118781906
4322.4573229979	0.0117969969
4324.3861303709	0.0117760655
4326.3149377440	0.0117669553
4328.2437451170	0.0117618358
4330.1725524900	0.0116905198
4332.1013598631	0.0117099611
4334.0301672361	0.0116438698
4335.9589746092	0.0115666240
4337.8877819822	0.0116851358
4339.8165893553	0.0115725137
4341.7453967283	0.0114883222
4343.6742041014	0.0114950147
4345.6030114744	0.0114264814
4347.5318188475	0.0114981113
4349.4606262205	0.0115435924
4351.3894335936	0.0113961473
4353.3182409666	0.0113761155
4355.2470483397	0.0113500683
4357.1758557127	0.0112586319
4359.1046630858	0.0113138463
4361.0334704588	0.0112494854
4362.9622778318	0.0112704756
4364.8910852049	0.0112207718
4366.8198925779	0.0111612603
4368.7486999510	0.0112160146
4370.6775073240	0.0110690519
4372.6063146971	0.0110643338
4374.5351220701	0.0110750515
4376.4639294432	0.0110711325
4378.3927368162	0.0110372789
4380.3215441893	0.0109673366
4382.2503515623	0.0109585021
4384.1791589354	0.0109266695
4386.1079663084	0.0109537970
4388.0367736815	0.0108807199
4389.9655810545	0.0109057520
4391.8943884275	0.0108240508
4393.8231958006	0.0107145170
4395.7520031736	0.0107528847
4397.6808105467	0.0106629208
4399.6096179197	0.0106859067
4401.5384252928	0.0106363678
4403.4672326658	0.0105810855
4405.3960400389	0.0105843330
4407.3248474119	0.0105896909
4409.2536547850	0.0105989510
4411.1824621580	0.0104620885
4413.1112695311	0.0104468074
4415.0400769041	0.0104990676
4416.9688842772	0.0104825441
4418.8976916502	0.0104105333
4420.8264990232	0.0103745498
4422.7553063963	0.0103726881
4424.6841137693	0.0103316111
4426.6129211424	0.0102620712
4428.5417285154	0.0102419090
4430.4705358885	0.0102570765
4432.3993432615	0.0101823211
4434.3281506346	0.0102188019
4436.2569580076	0.0101464605
4438.1857653807	0.0101091266
4440.1145727537	0.0101562440
4442.0433801268	0.0100345686
4443.9721874998	0.0100869350
4445.9009948729	0.0100437915
4447.8298022459	0.0099788215
4449.7586096189	0.0099907648
4451.6874169920	0.0099019315
4453.6162243650	0.0098875500
4455.5450317381	0.0099684931
4457.4738391111	0.0099916328
4459.4026464842	0.0097807012
4461.3314538572	0.0097733419
4463.2602612303	0.0098508187
4465.1890686033	0.0098235961
4467.1178759764	0.0098451134
4469.0466833494	0.0097324448
4470.9754907225	0.0097414758
4472.9042980955	0.0097778235
4474.8331054686	0.0096958615
4476.7619128416	0.0096095707
4478.6907202147	0.0095871631
4480.6195275877	0.0095729958
4482.5483349607	0.0095564593
4484.4771423338	0.0095914658
4486.4059497068	0.0094358772
4488.3347570799	0.0094168298
4490.2635644529	0.0094890501
4492.1923718260	0.0094110938
4494.1211791990	0.0093939845
4496.0499865721	0.0094131595
4497.9787939451	0.0094192205
4499.9076013182	0.0092695700
4501.8364086912	0.0093088523
4503.7652160643	0.0093938261
4505.6940234373	0.0092701241
4507.6228308104	0.0092375353
4509.5516381834	0.0091600558
4511.4804455564	0.0091703264
4513.4092529295	0.0091388347
4515.3380603025	0.0091428272
4517.2668676756	0.0091666933
4519.1956750486	0.0090215793
4521.1244824217	0.0091165807
4523.0532897947	0.0090355724
4524.9820971678	0.0089225937
4526.9109045408	0.0090055857
4528.8397119139	0.0089362916
4530.7685192869	0.0089370394
4532.6973266600	0.0089022573
4534.6261340330	0.0089078415
4536.5549414061	0.0088718748
4538.4837487791	0.0087826941
4540.4125561521	0.0088505270
4542.3413635252	0.0087857293
4544.2701708982	0.0087497458
4546.1989782713	0.0087704416
4548.1277856443	0.0086881453
4550.0565930174	0.0086690132
4551.9854003904	0.0086472519
4553.9142077635	0.0086132251
4555.8430151365	0.0086472854
4557.7718225096	0.0086519653
4559.7006298826	0.0086462870
4561.6294372557	0.0085471608
4563.5582446287	0.0084691010
4565.4870520018	0.0085521638
4567.4158593748	0.0084688058
4569.3446667478	0.0084011536
4571.2734741209	0.0083714966
4573.2022814939	0.0083598755
4575.1310888670	0.0084004132
4577.0598962400	0.0083008837
4578.9887036131	0.0083640665
4580.9175109861	0.0083071887
4582.8463183592	0.0082074711
4584.7751257322	0.0082252473
4586.7039331053	0.0081891241
4588.6327404783	0.0082941381
4590.5615478514	0.0082196444
4592.4903552244	0.0081498511
4594.4191625975	0.0081524989
4596.3479699705	0.0081558023
4598.2767773435	0.0081708115
4600.2055847166	0.0080282008
4602.1343920896	0.0080556795
4604.0631994627	0.0080145486
4605.9920068357	0.0079495106
4607.9208142088	0.0080667408
4609.8496215818	0.0079917461
4611.7784289549	0.0078831082
4613.7072363279	0.0079148691
4615.6360437010	0.0078709917
4617.5648510740	0.0078483177
4619.4936584471	0.0078778639
4621.4224658201	0.0078187818
4623.3512731932	0.0078149699
4625.2800805662	0.0077850232
4627.2088879393	0.0078196134
4629.1376953123	0.0077802977
4631.0665026853	0.0076318020
4632.9953100584	0.0077288253
4634.9241174314	0.0077278530
4636.8529248045	0.0076146475
4638.7817321775	0.0075672874
4640.7105395506	0.0076189805
4642.6393469236	0.0076160994
4644.5681542967	0.0075066956
4646.4969616697	0.0075374404
4648.4257690428	0.0075423513
4650.3545764158	0.0075019160
4652.2833837889	0.0074831243
4654.2121911619	0.0075149536
4656.1409985350	0.0074482393
4658.0698059080	0.0074695121
4659.9986132810	0.0075401817
4661.9274206541	0.0073727509
4663.8562280271	0.0073711337
4665.7850354002	0.0073883031
4667.7138427732	0.0073684594
4669.6426501463	0.0073302635
4671.5714575193	0.0073001692
4673.5002648924	0.0073465751
4675.4290722654	0.0072869305
4677.3578796385	0.0072360178
4679.2866870115	0.0071499152
4681.2154943846	0.0071718935
4683.1443017576	0.0071233525
4685.0731091307	0.0070670177
4687.0019165037	0.0071535707
4688.9307238767	0.0071712192
4690.8595312498	0.0071890056
4692.7883386228	0.0071280426
4694.7171459959	0.0071451440
4696.6459533689	0.0070859576
4698.5747607420	0.0070436429
4700.5035681150	0.0070252968
4702.4323754881	0.0069270618
4704.3611828611	0.0070285317
4706.2899902342	0.0069739893
4708.2187976072	0.0068729138
4710.1476049803	0.0069316719
4712.0764123533	0.0069391681
4714.0052197264	0.0068724621
4715.9340270994	0.0069087250
4717.8628344724	0.0068308408
4719.7916418455	0.0067795794
4721.7204492185	0.0069425902
4723.6492565916	0.0067670802
4725.5780639646	0.0067195152
4727.5068713377	0.0067324126
4729.4356787107	0.0066833366
4731.3644860838	0.0067659123
4733.2932934568	0.0066697570
4735.2221008299	0.0066824481
4737.1509082029	0.0066475589
4739.0797155760	0.0066396822
4741.0085229490	0.0066841003
4742.9373303221	0.0066474518
4744.8661376951	0.0065715495
4746.7949450682	0.0065306751
4748.7237524412	0.0065958975
4750.6525598142	0.0065609179
4752.5813671873	0.0065810881
4754.5101745603	0.0064270739
4756.4389819334	0.0064460281
4758.3677893064	0.0065348414
4760.2965966795	0.0063539660
4762.2254040525	0.0064574988
4764.1542114256	0.0064456444
4766.0830187986	0.0063845217
4768.0118261717	0.0064351372
4769.9406335447	0.0063446779
4771.8694409178	0.0062671583
4773.7982482908	0.0063445438
4775.7270556639	0.0063770916
4777.6558630369	0.0063069798
4779.5846704099	0.0062872320
4781.5134777830	0.0062218914
4783.4422851560	0.0062968563
4785.3710925291	0.0062119169
4787.2998999021	0.0061497651
4789.2287072752	0.0062027611
4791.1575146482	0.0061339820
4793.0863220213	0.0062162639
4795.0151293943	0.0061477004
4796.9439367674	0.0061059515
4798.8727441404	0.0060683605
4800.8015515135	0.0060874857
4802.7303588865	0.0061321897
4804.6591662596	0.0060678851
4806.5879736326	0.0060962471
4808.5167810056	0.0059634661
4810.4455883787	0.0059849080
4812.3743957517	0.0059548980
4814.3032031248	0.0059602740
4816.2320104978	0.0060595265
4818.1608178709	0.0059507592
4820.0896252439	0.0059524509
4822.0184326170	0.0058793318
4823.9472399900	0.0058567021
4825.8760473631	0.0058476934
4827.8048547361	0.0058678063
4829.7336621092	0.0058785779
4831.6624694822	0.0058598663
4833.5912768553	0.0058771465
4835.5200842283	0.0057200380
4837.4488916013	0.0057340451
4839.3776989744	0.0056872666
4841.3065063474	0.0056594326
4843.2353137205	0.0057417187
4845.1641210935	0.0057440358
4847.0929284666	0.0057275374
4849.0217358396	0.0056182020
4850.9505432127	0.0056929900
4852.8793505857	0.0056770039
4854.8081579588	0.0055854172
4856.7369653318	0.0056022350
4858.6657727049	0.0056255180
4860.5945800779	0.0056393342
4862.5233874510	0.0055522751
4864.4521948240	0.0055129030
4866.3810021971	0.0055004093
4868.3098095701	0.0055235559
4870.2386169431	0.0055151824
4872.1674243162	0.0054670824
4874.0962316892	0.0054246886
4876.0250390623	0.0054332297
4877.9538464353	0.0054030740
4879.8826538084	0.0053685186
4881.8114611814	0.0054624230
4883.7402685545	0.0053960504
4885.6690759275	0.0053715277
4887.5978833006	0.0053607114
4889.5266906736	0.0053294953
4891.4554980467	0.0052706986
4893.3843054197	0.0052017244
4895.3131127928	0.0052792905
4897.2419201658	0.0051894197
4899.1707275388	0.0052755843
4901.0995349119	0.0052828565
4903.0283422849	0.0051411227
4904.9571496580	0.0052319057
4906.8859570310	0.0051836688
4908.8147644041	0.0051490376
4910.7435717771	0.0051828790
4912.6723791502	0.0051488932
4914.6011865232	0.0050988747
4916.5299938963	0.0051289247
4918.4588012693	0.0051150210
4920.3876086424	0.0050992109
4922.3164160154	0.0050049238
4924.2452233885	0.0049448246
4926.1740307615	0.0051050717
4928.1028381345	0.0048948769
4930.0316455076	0.0049573807
4931.9604528806	0.0051464089
4933.8892602537	0.0049990751
4935.8180676267	0.0050816815
4937.7468749998	0.0050105662
4939.6756823728	0.0049827136
4941.6044897459	0.0049521406
4943.5332971189	0.0048912913
4945.4621044920	0.0049092481
4947.3909118650	0.0048228935
4949.3197192381	0.0048807715
4951.2485266111	0.0048136394
4953.1773339842	0.0048202267
4955.1061413572	0.0048551420
4957.0349487302	0.0047674570
4958.9637561033	0.0048074154
4960.8925634763	0.0047371821
4962.8213708494	0.0047327261
4964.7501782224	0.0047918018
4966.6789855955	0.0046995906
4968.6077929685	0.0046719462
4970.5366003416	0.0047186119
4972.4654077146	0.0046930662
4974.3942150877	0.0046725105
4976.3230224607	0.0047139674
4978.2518298338	0.0047354707
4980.1806372068	0.0046687848
4982.1094445799	0.0046632276
4984.0382519529	0.0046856599
4985.9670593259	0.0046000294
4987.8958666990	0.0046342183
4989.8246740720	0.0046164077
4991.7534814451	0.0045059239
4993.6822888181	0.0045067687
4995.6110961912	0.0045773024
4997.5399035642	0.0045767734
4999.4687109373	0.0044834549
5001.3975183103	0.0045532230
5003.3263256834	0.0045122704
5005.2551330564	0.0044995141
5007.1839404295	0.0045564435
5009.1127478025	0.0043875361
5011.0415551756	0.0043891715
5012.9703625486	0.0043974351
5014.8991699217	0.0043968940
5016.8279772947	0.0044230088
5018.7567846677	0.0043637035
5020.6855920408	0.0043854946
5022.6143994138	0.0043808017
5024.5432067869	0.0044157375
5026.4720141599	0.0043334747
5028.4008215330	0.0042919507
5030.3296289060	0.0044004950
5032.2584362791	0.0042814966
5034.1872436521	0.0042055054
5036.1160510252	0.0042498983
5038.0448583982	0.0042583323
5039.9736657713	0.0042955726
5041.9024731443	0.0042629591
5043.8312805174	0.0041499734
5045.7600878904	0.0041481401
5047.6888952634	0.0042304173
5049.6177026365	0.0041858209
5051.5465100095	0.0041755936
5053.4753173826	0.0041974718
5055.4041247556	0.0041171117
5057.3329321287	0.0041255951
5059.2617395017	0.0041434099
5061.1905468748	0.0041264514
5063.1193542478	0.0041351295
5065.0481616209	0.0040821144
5066.9769689939	0.0040758783
5068.9057763670	0.0041101724
5070.8345837400	0.0040387362
5072.7633911131	0.0039640712
5074.6921984861	0.0040526278
5076.6210058591	0.0040991968
5078.5498132322	0.0039899861
5080.4786206052	0.0039802678
5082.4074279783	0.0039878776
5084.3362353513	0.0039473339
5086.2650427244	0.0039845016
5088.1938500974	0.0039404756
5090.1226574705	0.0038680914
5092.0514648435	0.0039614658
5093.9802722166	0.0039885817
5095.9090795896	0.0039235363
5097.8378869627	0.0039192094
5099.7666943357	0.0038337361
5101.6955017088	0.0038039801
5103.6243090818	0.0038321367
5105.5531164548	0.0038186852
5107.4819238279	0.0038735867
5109.4107312009	0.0038367151
5111.3395385740	0.0038117175
5113.2683459470	0.0038300832
5115.1971533201	0.0037638426
5117.1259606931	0.0037818449
5119.0547680662	0.0037698331
5120.9835754392	0.0037012792
5122.9123828123	0.0037123491
5124.8411901853	0.0037325094
5126.7699975584	0.0037101298
5128.6988049314	0.0036328097
5130.6276123045	0.0036545601
5132.5564196775	0.0036927420
5134.4852270506	0.0036050482
5136.4140344236	0.0036491898
5138.3428417966	0.0037223019
5140.2716491697	0.0036421628
5142.2004565427	0.0035817910
5144.1292639158	0.0035995317
5146.0580712888	0.0035451488
5147.9868786619	0.0034762104
5149.9156860349	0.0035577188
5151.8444934080	0.0035704942
5153.7733007810	0.0035440295
5155.7021081541	0.0035460610
5157.6309155271	0.0035263384
5159.5597229002	0.0035570539
5161.4885302732	0.0035227621
5163.4173376463	0.0034378578
5165.3461450193	0.0034045132
5167.2749523923	0.0035469634
5169.2037597654	0.0035536166
5171.1325671384	0.0034430688
5173.0613745115	0.0034804284
5174.9901818845	0.0034413873
5176.9189892576	0.0034986017
5178.8477966306	0.0034581409
5180.7766040037	0.0034500896
5182.7054113767	0.0034885348
5184.6342187498	0.0033148380
5186.5630261228	0.0034201411
5188.4918334959	0.0034236177
5190.4206408689	0.0032986170
5192.3494482420	0.0033315206
5194.2782556150	0.0033346210
5196.2070629880	0.0033582035
5198.1358703611	0.0033171810
5200.0646777341	0.0033079190
5201.9934851072	0.0033073509
5203.9222924802	0.0033161151
5205.8510998533	0.0032809936
5207.7799072263	0.0032175756
5209.7087145994	0.0032457805
5211.6375219724	0.0032398421
5213.5663293455	0.0032438170
5215.4951367185	0.0032661438
5217.4239440916	0.0032769586
5219.3527514646	0.0032123039
5221.2815588377	0.0032760967
5223.2103662107	0.0032860199
5225.1391735837	0.0030957514
5227.0679809568	0.0031446642
5228.9967883298	0.0031264001
5230.9255957029	0.0031209176
5232.8544030759	0.0032355401
5234.7832104490	0.0031016285
5236.7120178220	0.0030733990
5238.6408251951	0.0031427641
5240.5696325681	0.0030686827
5242.4984399412	0.0030526344
5244.4272473142	0.0030926955
5246.3560546873	0.0030957088
5248.2848620603	0.0030132912
5250.2136694334	0.0029917606
5252.1424768064	0.0031286785
5254.0712841795	0.0030698571
5256.0000915525	0.0029843925
5257.9288989255	0.0030533418
5259.8577062986	0.0030170730
5261.7865136716	0.0029776194
5263.7153210447	0.0029467987
5265.6441284177	0.0029455270
5267.5729357908	0.0029837568
5269.5017431638	0.0030040527
5271.4305505369	0.0029861340
5273.3593579099	0.0029196022
5275.2881652830	0.0029547217
5277.2169726560	0.0029668587
5279.1457800291	0.0028574611
5281.0745874021	0.0028777167
5283.0033947752	0.0029136066
5284.9322021482	0.0028281636
5286.8610095212	0.0029533505
5288.7898168943	0.0029498846
5290.7186242673	0.0028489833
5292.6474316404	0.0028924835
5294.5762390134	0.0027648420
5296.5050463865	0.0028696975
5298.4338537595	0.0028872774
5300.3626611326	0.0027811339
5302.2914685056	0.0028536636
5304.2202758787	0.0028219558
5306.1490832517	0.0028137711
5308.0778906248	0.0026898230
5310.0066979978	0.0027362225
5311.9355053709	0.0027870960
5313.8643127439	0.0027210005
5315.7931201169	0.0027506906
5317.7219274900	0.0026852377
5319.6507348630	0.0027216962
5321.5795422361	0.0027256552
5323.5083496091	0.0027737457
5325.4371569822	0.0027041468
5327.3659643552	0.0026309765
5329.2947717283	0.0027076537
5331.2235791013	0.0026758963
5333.1523864744	0.0026934445
5335.0811938474	0.0026413426
5337.0100012205	0.0027114879
5338.9388085935	0.0026306577
5340.8676159666	0.0026182975
5342.7964233396	0.0026964247
5344.7252307126	0.0025115763
5346.6540380857	0.0026604952
5348.5828454587	0.0026354536
5350.5116528318	0.0025748562
5352.4404602048	0.0026136604
5354.3692675779	0.0025341068
5356.2980749509	0.0026237520
5358.2268823240	0.0025780455
5360.1556896970	0.0025637820
5362.0844970701	0.0025589485
5364.0133044431	0.0025831242
5365.9421118162	0.0025300963
5367.8709191892	0.0024711597
5369.7997265623	0.0025781526
5371.7285339353	0.0025105220
5373.6573413083	0.0025378899
5375.5861486814	0.0024957834
5377.5149560544	0.0024164617
5379.4437634275	0.0024869810
5381.3725708005	0.0024999585
5383.3013781736	0.0025109975
5385.2301855466	0.0024493868
5387.1589929197	0.0023909360
5389.0878002927	0.0024178983
5391.0166076658	0.0024671555
5392.9454150388	0.0023734868
5394.8742224119	0.0023482449
5396.8030297849	0.0023929747
5398.7318371580	0.0023271753
5400.6606445310	0.0024095532
5402.5894519041	0.0024274567
5404.5182592771	0.0024060572
5406.4470666501	0.0024298518
5408.3758740232	0.0023410721
5410.3046813962	0.0023230715
5412.2334887693	0.0023304513
5414.1622961423	0.0022871778
5416.0911035154	0.0022862495
5418.0199108884	0.0023085866
5419.9487182615	0.0023061582
5421.8775256345	0.0023357342
5423.8063330076	0.0023959270
5425.7351403806	0.0023429166
5427.6639477537	0.0022300114
5429.5927551267	0.0022477438
5431.5215624998	0.0023008219
5433.4503698728	0.0023141573
5435.3791772458	0.0022989598
5437.3079846189	0.0022784341
5439.2367919919	0.0022914098
5441.1655993650	0.0022641555
5443.0944067380	0.0022838577
5445.0232141111	0.0022263825
5446.9520214841	0.0021978114
5448.8808288572	0.0022471035
5450.8096362302	0.0021616961
5452.7384436033	0.0022266596
5454.6672509763	0.0022589988
5456.5960583494	0.0022048603
5458.5248657224	0.0021741118
5460.4536730955	0.0021152156
5462.3824804685	0.0021829710
5464.3112878415	0.0021605887
5466.2400952146	0.0021296041
5468.1689025876	0.0021739169
5470.0977099607	0.0021719092
5472.0265173337	0.0021612947
5473.9553247068	0.0021615913
5475.8841320798	0.0021032654
5477.8129394529	0.0020750696
5479.7417468259	0.0021869387
5481.6705541990	0.0020921659
5483.5993615720	0.0020522880
5485.5281689451	0.0021249889
5487.4569763181	0.0020945161
5489.3857836912	0.0021593049
5491.3145910642	0.0020421192
5493.2433984372	0.0020232913
5495.1722058103	0.0021498133
5497.1010131833	0.0020732055
5499.0298205564	0.0020367797
5500.9586279294	0.0020100330
5502.8874353025	0.0020140978
5504.8162426755	0.0020470354
5506.7450500486	0.0020274369
5508.6738574216	0.0020304765
5510.6026647947	0.0020472351
5512.5314721677	0.0020121434
5514.4602795408	0.0019260731
5516.3890869138	0.0019712667
5518.3178942869	0.0020191907
5520.2467016599	0.0019350391
5522.1755090330	0.0019120858
5524.1043164060	0.0019405351
5526.0331237790	0.0019252861
5527.9619311521	0.0019255138
5529.8907385251	0.0019543697
5531.8195458982	0.0019212341
5533.7483532712	0.0018973823
5535.6771606443	0.0019256922
5537.6059680173	0.0019550512
5539.5347753904	0.0019709351
5541.4635827634	0.0019046462
5543.3923901365	0.0018927159
5545.3211975095	0.0019275657
5547.2500048826	0.0018793170
5549.1788122556	0.0019150706
5551.1076196287	0.0019568163
5553.0364270017	0.0018680466
5554.9652343747	0.0018208849
5556.8940417478	0.0018477197
5558.8228491208	0.0018772194
5560.7516564939	0.0019053409
5562.6804638669	0.0019041451
5564.6092712400	0.0018864241
5566.5380786130	0.0018573087
5568.4668859861	0.0018555012
5570.3956933591	0.0018240375
5572.3245007322	0.0017717361
5574.2533081052	0.0018439698
5576.1821154783	0.0018264130
5578.1109228513	0.0017901594
5580.0397302244	0.0018094770
5581.9685375974	0.0017634720
5583.8973449704	0.0017926719
5585.8261523435	0.0017527550
5587.7549597165	0.0017468643
5589.6837670896	0.0017586907
5591.6125744626	0.0017600545
5593.5413818357	0.0018456657
5595.4701892087	0.0018025730
5597.3989965818	0.0017904525
5599.3278039548	0.0017311331
5601.2566113279	0.0017149902
5603.1854187009	0.0017568725
5605.1142260740	0.0017035146
5607.0430334470	0.0017444497
5608.9718408201	0.0017155574
5610.9006481931	0.0017151544
5612.8294555661	0.0017368878
5614.7582629392	0.0017528808
5616.6870703122	0.0017441157
5618.6158776853	0.0017070686
5620.5446850583	0.0017418498
5622.4734924314	0.0016399603
5624.4022998044	0.0016867542
5626.3311071775	0.0017535696
5628.2599145505	0.0016682680
5630.1887219236	0.0016233989
5632.1175292966	0.0016453877
5634.0463366697	0.0016797294
5635.9751440427	0.0016118370
5637.9039514158	0.0017179372
5639.8327587888	0.0016621611
5641.7615661619	0.0015584736
5643.6903735349	0.0016556201
5645.6191809079	0.0016199101
5647.5479882810	0.0016527059
5649.4767956540	0.0016174577
5651.4056030271	0.0016072819
5653.3344104001	0.0015732429
5655.2632177732	0.0015221370
5657.1920251462	0.0015899115
5659.1208325193	0.0015230433
5661.0496398923	0.0015891807
5662.9784472654	0.0015599288
5664.9072546384	0.0015093362
5666.8360620115	0.0016486910
5668.7648693845	0.0015712242
5670.6936767576	0.0014982786
5672.6224841306	0.0015442137
5674.5512915036	0.0015461823
5676.4800988767	0.0015511368
5678.4089062497	0.0015762695
5680.3377136228	0.0015301816
5682.2665209958	0.0014796900
5684.1953283689	0.0015158230
5686.1241357419	0.0015364904
5688.0529431150	0.0015282298
5689.9817504880	0.0015106901
5691.9105578611	0.0015258224
5693.8393652341	0.0015379871
5695.7681726072	0.0014689828
5697.6969799802	0.0014142751
5699.6257873533	0.0014812257
5701.5545947263	0.0015239702
5703.4834020993	0.0014860698
5705.4122094724	0.0015031187
5707.3410168454	0.0014755966
5709.2698242185	0.0014302994
5711.1986315915	0.0014207022
5713.1274389646	0.0013738270
5715.0562463376	0.0014469868
5716.9850537107	0.0014970590
5718.9138610837	0.0013919045
5720.8426684568	0.0014298665
5722.7714758298	0.0014362369
5724.7002832029	0.0013322339
5726.6290905759	0.0013729180
5728.5578979490	0.0014183597
5730.4867053220	0.0014035024
5732.4155126950	0.0013546998
5734.3443200681	0.0013514955
5736.2731274411	0.0013606600
5738.2019348142	0.0013489269
5740.1307421872	0.0013972811
5742.0595495603	0.0013929713
5743.9883569333	0.0013436207
5745.9171643064	0.0012966752
5747.8459716794	0.0013450586
5749.7747790525	0.0013185318
5751.7035864255	0.0012960614
5753.6323937986	0.0014186034
5755.5612011716	0.0013389766
5757.4900085447	0.0012740546
5759.4188159177	0.0012724829
5761.3476232907	0.0013010881
5763.2764306638	0.0013485177
5765.2052380368	0.0012726601
5767.1340454099	0.0012807630
5769.0628527829	0.0013063392
5770.9916601560	0.0013454779
5772.9204675290	0.0013127727
5774.8492749021	0.0012986748
5776.7780822751	0.0013576142
5778.7068896482	0.0013143884
5780.6356970212	0.0013239118
5782.5645043943	0.0012876659
5784.4933117673	0.0012623186
5786.4221191404	0.0012060856
5788.3509265134	0.0011931329
5790.2797338865	0.0012544685
5792.2085412595	0.0011586769
5794.1373486325	0.0012108847
5796.0661560056	0.0011709935
5797.9949633786	0.0011470370
5799.9237707517	0.0013285838
5801.8525781247	0.0012411425
5803.7813854978	0.0012581330
5805.7101928708	0.0012855881
5807.6390002439	0.0011197007
5809.5678076169	0.0011336646
5811.4966149900	0.0011801871
5813.4254223630	0.0012218789
5815.3542297361	0.0011782737
5817.2830371091	0.0011564980
5819.2118444822	0.0012168708
5821.1406518552	0.0011419988
5823.0694592282	0.0011710362
5824.9982666013	0.0011481146
5826.9270739743	0.0010995440
5828.8558813474	0.0011177321
5830.7846887204	0.0010526557
5832.7134960935	0.0011739889
5834.6423034665	0.0011763304
5836.5711108396	0.0011044974
5838.4999182126	0.0011854335
5840.4287255857	0.0010954308
5842.3575329587	0.0010757040
5844.2863403318	0.0011594284
5846.2151477048	0.0011635004
5848.1439550779	0.0011849189
5850.0727624509	0.0011409109
5852.0015698239	0.0010999548
5853.9303771970	0.0011131610
5855.8591845700	0.0010239230
5857.7879919431	0.0010489683
5859.7167993161	0.0011542316
5861.6456066892	0.0011085528
5863.5744140622	0.0010836232
5865.5032214353	0.0010369028
5867.4320288083	0.0010462923
5869.3608361814	0.0011226931
5871.2896435544	0.0011148737
5873.2184509275	0.0010607851
5875.1472583005	0.0010198180
5877.0760656736	0.0010573493
5879.0048730466	0.0010533843
5880.9336804196	0.0011085215
5882.8624877927	0.0011323816
5884.7912951657	0.0010388244
5886.7201025388	0.0010350405
5888.6489099118	0.0010522085
5890.5777172849	0.0010497137
5892.5065246579	0.0010057748
5894.4353320310	0.0010315622
5896.3641394040	0.0010183412
5898.2929467771	0.0009339436
5900.2217541501	0.0010083290
5902.1505615232	0.0010556453
5904.0793688962	0.0010078888
5906.0081762693	0.0010136024
5907.9369836423	0.0010233140
5909.8657910154	0.0009733816
5911.7945983884	0.0010017563
5913.7234057614	0.0010034037
5915.6522131345	0.0010238873
5917.5810205075	0.0010712505
5919.5098278806	0.0009696897
5921.4386352536	0.0010193156
5923.3674426267	0.0010249474
5925.2962499997	0.0009514114
5927.2250573728	0.0010056748
5929.1538647458	0.0009762415
5931.0826721189	0.0009539453
5933.0114794919	0.0009576218
5934.9402868650	0.0009297782
5936.8690942380	0.0009340784
5938.7979016111	0.0009697753
5940.7267089841	0.0009203106
5942.6555163571	0.0009134202
5944.5843237302	0.0009499972
5946.5131311032	0.0008940814
5948.4419384763	0.0009125119
5950.3707458493	0.0008805220
5952.2995532224	0.0008541134
5954.2283605954	0.0008877557
5956.1571679685	0.0008945288
5958.0859753415	0.0009872508
5960.0147827146	0.0009777591
5961.9435900876	0.0008269288
5963.8723974607	0.0008879765
5965.8012048337	0.0010131503
5967.7300122068	0.0008861673
5969.6588195798	0.0008476975
5971.5876269528	0.0008778854
5973.5164343259	0.0008807300
5975.4452416989	0.0009208916
5977.3740490720	0.0008822230
5979.3028564450	0.0008777182
5981.2316638181	0.0008394837
5983.1604711911	0.0008833022
5985.0892785642	0.0008951861
5987.0180859372	0.0008090727
5988.9468933103	0.0008269437
5990.8757006833	0.0008079372
5992.8045080564	0.0008205891
5994.7333154294	0.0008399007
5996.6621228025	0.0008779949
5998.5909301755	0.0008745915
6000.5197375485	0.0008628363
