399.2631262207	0.0005135849
401.1919335938	0.0001463094
403.1207409668	0.0002149457
405.0495483398	0.0001418365
406.9783557129	0.0001844200
408.9071630859	0.0002149211
410.8359704590	0.0001159306
412.7647778320	0.0005572477
414.6935852051	0.0005364169
416.6223925781	0.0001547638
418.5511999512	0.0002772315
420.4800073242	0.0005475268
422.4088146973	0.0002402047
424.3376220703	0.0001575689
426.2664294434	0.0004119380
428.1952368164	0.0004009422
430.1240441895	0.0004562179
432.0528515625	0.0002554853
433.9816589355	0.0003200014
435.9104663086	0.0003639304
437.8392736816	-0.0000698739
439.7680810547	0.0001985539
441.6968884277	0.0004903965
443.6256958008	0.0004143241
445.5545031738	0.0003323086
447.4833105469	0.0000070442
449.4121179199	-0.0000177623
451.3409252930	0.0002984472
453.2697326660	0.0001241407
455.1985400391	0.0000283666
457.1273474121	0.0003974708
459.0561547852	0.0003404572
460.9849621582	0.0001817739
462.9137695313	0.0003140548
464.8425769043	0.0003800528
466.7713842773	0.0001809136
468.7001916504	0.0002479274
470.6289990234	0.0001616929
472.5578063965	0.0002155296
474.4866137695	0.0004304723
476.4154211426	-0.0000887635
478.3442285156	0.0001635614
480.2730358887	0.0004189729
482.2018432617	0.0001994895
484.1306506348	0.0002520868
486.0594580078	0.0000208055
487.9882653809	0.0001559935
489.9170727539	0.0001025115
491.8458801270	0.0000952724
493.7746875000	0.0003989734
495.7034948730	0.0001278952
497.6323022461	0.0000243102
499.5611096191	0.0001065877
501.4899169922	0.0001808969
503.4187243652	0.0001954938
505.3475317383	0.0001292274
507.2763391113	0.0001141922
509.2051464844	0.0000241814
511.1339538574	0.0000330921
513.0627612305	-0.0000387783
514.9915686035	-0.0000331433
516.9203759766	0.0000392825
518.8491833496	0.0003995222
520.7779907227	0.0004664076
522.7067980957	0.0001320426
524.6356054688	0.0002980613
526.5644128418	0.0003412009
528.4932202148	0.0004231783
530.4220275879	0.0002518700
532.3508349609	-0.0000662359
534.2796423340	0.0001417240
536.2084497070	-0.0001530309
538.1372570801	-0.0001735918
540.0660644531	0.0003439034
541.9948718262	0.0001101729
543.9236791992	0.0002955046
545.8524865723	0.0006364895
547.7812939453	0.0002591141
549.7101013184	0.0004846089
551.6389086914	0.0002691420
553.5677160645	-0.0001034393
555.4965234375	0.0003100453
557.4253308105	0.0002231937
559.3541381836	0.0003306308
561.2829455566	0.0003489081
563.2117529297	0.0002951420
565.1405603027	0.0003353230
567.0693676758	0.0001394836
568.9981750488	0.0003822041
570.9269824219	0.0001008254
572.8557897949	0.0001121643
574.7845971680	0.0001972294
576.7134045410	-0.0001242198
578.6422119141	0.0002773092
580.5710192871	0.0001223037
582.4998266602	-0.0000789070
584.4286340332	0.0001383882
586.3574414063	0.0000444307
588.2862487793	0.0001607012
590.2150561523	0.0001621456
592.1438635254	0.0000979084
594.0726708984	0.0000880043
596.0014782715	0.0001003557
597.9302856445	0.0004410612
599.8590930176	0.0004388629
601.7879003906	0.0003023042
603.7167077637	0.0002878757
605.6455151367	0.0001656001
607.5743225098	0.0002208239
609.5031298828	0.0003381523
611.4319372559	0.0001965563
613.3607446289	0.0001542928
615.2895520020	0.0002563333
617.2183593750	0.0001967685
619.1471667480	0.0000476872
621.0759741211	0.0000721415
623.0047814941	0.0004275673
624.9335888672	0.0001284065
626.8623962402	-0.0001357202
628.7912036133	0.0001886119
630.7200109863	0.0002582220
632.6488183594	0.0004243197
634.5776257324	0.0005552497
636.5064331055	0.0003231411
638.4352404785	0.0002105764
640.3640478516	0.0003985707
642.2928552246	0.0004980652
644.2216625977	0.0005181881
646.1504699707	0.0004913186
648.0792773438	0.0004883613
650.0080847168	0.0007726882
651.9368920898	0.0006550736
653.8656994629	0.0004056494
655.7945068359	0.0005002063
657.7233142090	0.0003952177
659.6521215820	0.0005127119
661.5809289551	0.0006570311
663.5097363281	0.0005942289
665.4385437012	0.0006105831
667.3673510742	0.0005585814
669.2961584473	0.0008265765
671.2249658203	0.0010155117
673.1537731934	0.0008941896
675.0825805664	0.0008317620
677.0113879395	0.0007778238
678.9401953125	0.0006932127
680.8690026855	0.0005130139
682.7978100586	0.0008029609
684.7266174316	0.0010332778
686.6554248047	0.0007904889
688.5842321777	0.0007093792
690.5130395508	0.0007189904
692.4418469238	0.0010234145
694.3706542969	0.0010392617
696.2994616699	0.0008137786
698.2282690430	0.0010928017
700.1570764160	0.0012685668
702.0858837891	0.0010591360
704.0146911621	0.0007944269
705.9434985352	0.0007598312
707.8723059082	0.0007452497
709.8011132813	0.0007023428
711.7299206543	0.0006243201
713.6587280273	0.0003822630
715.5875354004	0.0002296347
717.5163427734	0.0003274490
719.4451501465	0.0004746140
721.3739575195	0.0001586004
723.3027648926	0.0001049193
725.2315722656	0.0002204249
727.1603796387	0.0003163650
729.0891870117	0.0002540390
731.0179943848	-0.0000314207
732.9468017578	0.0004101140
734.8756091309	0.0005093479
736.8044165039	0.0004159886
738.7332238770	0.0003221508
740.6620312500	0.0001235025
742.5908386230	0.0001324192
744.5196459961	0.0003423208
746.4484533691	0.0003338998
748.3772607422	0.0001060210
750.3060681152	0.0000500273
752.2348754883	0.0000657660
754.1636828613	0.0001862579
756.0924902344	0.0003422563
758.0212976074	0.0003387857
759.9501049805	0.0002475016
761.8789123535	0.0003712804
763.8077197266	-0.0001008726
765.7365270996	-0.0002182183
767.6653344727	0.0004681848
769.5941418457	0.0003817200
771.5229492188	0.0005135889
773.4517565918	0.0005155574
775.3805639648	0.0002336714
777.3093713379	0.0004982819
779.2381787109	0.0004421755
781.1669860840	0.0002888285
783.0957934570	0.0002649462
785.0246008301	0.0003290449
786.9534082031	0.0002476344
788.8822155762	-0.0000348200
790.8110229492	0.0002899337
792.7398303223	0.0004947128
794.6686376953	0.0001437519
796.5974450684	0.0002143029
798.5262524414	0.0004098635
800.4550598145	0.0001090194
802.3838671875	0.0000255974
804.3126745605	0.0002880683
806.2414819336	0.0002090714
808.1702893066	0.0002361019
810.0990966797	0.0003412058
812.0279040527	0.0002038848
813.9567114258	0.0001818135
815.8855187988	0.0000754610
817.8143261719	0.0001761980
819.7431335449	0.0003548332
821.6719409180	0.0001244874
823.6007482910	0.0000770868
825.5295556641	0.0001643458
827.4583630371	0.0001650915
829.3871704102	0.0003054466
831.3159777832	0.0004162807
833.2447851563	0.0004138351
835.1735925293	0.0004708137
837.1023999023	0.0004904933
839.0312072754	0.0004192337
840.9600146484	0.0005206271
842.8888220215	0.0004565758
844.8176293945	0.0003663182
846.7464367676	0.0005208972
848.6752441406	0.0004199664
850.6040515137	0.0003491212
852.5328588867	0.0002879535
854.4616662598	0.0004064534
856.3904736328	0.0005534196
858.3192810059	0.0003067616
860.2480883789	0.0004692806
862.1768957520	0.0005609122
864.1057031250	0.0003237691
866.0345104980	0.0001070632
867.9633178711	0.0002474414
869.8921252441	0.0005064296
871.8209326172	0.0002902696
873.7497399902	0.0004083350
875.6785473633	0.0003768486
877.6073547363	0.0004348106
879.5361621094	0.0006141816
881.4649694824	0.0003191884
883.3937768555	0.0002520277
885.3225842285	0.0002686093
887.2513916016	0.0004598312
889.1801989746	0.0003360195
891.1090063477	0.0003144512
893.0378137207	0.0005251196
894.9666210938	0.0005709390
896.8954284668	0.0007853383
898.8242358398	0.0004614760
900.7530432129	0.0004072204
902.6818505859	0.0006599638
904.6106579590	0.0007167687
906.5394653320	0.0005718358
908.4682727051	0.0002534046
910.3970800781	0.0004998678
912.3258874512	0.0006646657
914.2546948242	0.0006906420
916.1835021973	0.0008396701
918.1123095703	0.0008149520
920.0411169434	0.0006250807
921.9699243164	0.0005974969
923.8987316895	0.0007253699
925.8275390625	0.0007035191
927.7563464355	0.0009365611
929.6851538086	0.0008601008
931.6139611816	0.0005850661
933.5427685547	0.0007740088
935.4715759277	0.0010393560
937.4003833008	0.0010875643
939.3291906738	0.0009168936
941.2579980469	0.0009285437
943.1868054199	0.0008637251
945.1156127930	0.0007901656
947.0444201660	0.0007539769
948.9732275391	0.0007828115
950.9020349121	0.0009978183
952.8308422852	0.0008520508
954.7596496582	0.0009069885
956.6884570313	0.0009408691
958.6172644043	0.0008033353
960.5460717773	0.0009456280
962.4748791504	0.0009476166
964.4036865234	0.0008848601
966.3324938965	0.0007984787
968.2613012695	0.0009265152
970.1901086426	0.0009344241
972.1189160156	0.0008064255
974.0477233887	0.0009438244
975.9765307617	0.0009299900
977.9053381348	0.0011359582
979.8341455078	0.0012064099
981.7629528809	0.0010658741
983.6917602539	0.0011962660
985.6205676270	0.0012061450
987.5493750000	0.0013848329
989.4781823730	0.0014923830
991.4069897461	0.0015982606
993.3357971191	0.0016786857
995.2646044922	0.0014975005
997.1934118652	0.0016842942
999.1222192383	0.0018903292
1001.0510266113	0.0021736594
1002.9798339844	0.0023016315
1004.9086413574	0.0022176357
1006.8374487305	0.0024051620
1008.7662561035	0.0023740306
1010.6950634766	0.0024750533
1012.6238708496	0.0027281651
1014.5526782227	0.0029308328
1016.4814855957	0.0031134938
1018.4102929688	0.0032129197
1020.3391003418	0.0033603804
1022.2679077148	0.0034057614
1024.1967150879	0.0034632972
1026.1255224609	0.0035660327
1028.0543298340	0.0038379417
1029.9831372070	0.0039306190
1031.9119445801	0.0038676420
1033.8407519531	0.0039786585
1035.7695593262	0.0039931368
1037.6983666992	0.0041957926
1039.6271740723	0.0041109449
1041.5559814453	0.0039698989
1043.4847888184	0.0042225155
1045.4135961914	0.0041617705
1047.3424035645	0.0040853810
1049.2712109375	0.0040240143
1051.2000183105	0.0040006186
1053.1288256836	0.0040251352
1055.0576330566	0.0037636496
1056.9864404297	0.0037321998
1058.9152478027	0.0036862046
1060.8440551758	0.0034996273
1062.7728625488	0.0034691247
1064.7016699219	0.0030962615
1066.6304772949	0.0029269424
1068.5592846680	0.0031216904
1070.4880920410	0.0029518583
1072.4168994141	0.0028611519
1074.3457067871	0.0028845561
1076.2745141602	0.0027052099
1078.2033215332	0.0024647117
1080.1321289062	0.0024576164
1082.0609362793	0.0025367618
1083.9897436523	0.0022421475
1085.9185510254	0.0021866425
1087.8473583984	0.0023726248
1089.7761657715	0.0024220839
1091.7049731445	0.0022081407
1093.6337805176	0.0017855039
1095.5625878906	0.0019664285
1097.4913952637	0.0020823521
1099.4202026367	0.0018395266
1101.3490100098	0.0019242147
1103.2778173828	0.0019658103
1105.2066247559	0.0017609588
1107.1354321289	0.0017422538
1109.0642395019	0.0019644594
1110.9930468750	0.0018502907
1112.9218542480	0.0018121069
1114.8506616211	0.0018138997
1116.7794689941	0.0016806955
1118.7082763672	0.0018275210
1120.6370837402	0.0019244798
1122.5658911133	0.0020141217
1124.4946984863	0.0018691798
1126.4235058594	0.0017758217
1128.3523132324	0.0018602735
1130.2811206055	0.0019774316
1132.2099279785	0.0020667252
1134.1387353516	0.0020368961
1136.0675427246	0.0022565543
1137.9963500977	0.0020442256
1139.9251574707	0.0021972430
1141.8539648437	0.0025412417
1143.7827722168	0.0022882489
1145.7115795898	0.0024986197
1147.6403869629	0.0026853224
1149.5691943359	0.0027370169
1151.4980017090	0.0028531356
1153.4268090820	0.0030666320
1155.3556164551	0.0030595986
1157.2844238281	0.0030929348
1159.2132312012	0.0034884331
1161.1420385742	0.0033702087
1163.0708459473	0.0034596748
1164.9996533203	0.0035718677
1166.9284606934	0.0036973010
1168.8572680664	0.0039558322
1170.7860754394	0.0038298457
1172.7148828125	0.0039916858
1174.6436901855	0.0041964222
1176.5724975586	0.0045043295
1178.5013049316	0.0046277037
1180.4301123047	0.0046567409
1182.3589196777	0.0049591092
1184.2877270508	0.0050673112
1186.2165344238	0.0052512242
1188.1453417969	0.0054317955
1190.0741491699	0.0056859343
1192.0029565430	0.0058528911
1193.9317639160	0.0060349647
1195.8605712891	0.0063442728
1197.7893786621	0.0067765326
1199.7181860351	0.0072049685
1201.6469934082	0.0072117606
1203.5758007812	0.0076133041
1205.5046081543	0.0077532134
1207.4334155273	0.0077972673
1209.3622229004	0.0082635684
1211.2910302734	0.0084501766
1213.2198376465	0.0089034811
1215.1486450195	0.0089870561
1217.0774523926	0.0090574715
1219.0062597656	0.0093701594
1220.9350671387	0.0092985053
1222.8638745117	0.0094805453
1224.7926818848	0.0097064022
1226.7214892578	0.0098364754
1228.6502966308	0.0098003587
1230.5791040039	0.0097495625
1232.5079113769	0.0098068910
1234.4367187500	0.0097417552
1236.3655261230	0.0096255476
1238.2943334961	0.0095677581
1240.2231408691	0.0096630324
1242.1519482422	0.0096528605
1244.0807556152	0.0096561946
1246.0095629883	0.0096423002
1247.9383703613	0.0098274406
1249.8671777344	0.0098581854
1251.7959851074	0.0094166379
1253.7247924805	0.0094214845
1255.6535998535	0.0093006827
1257.5824072266	0.0091086049
1259.5112145996	0.0092918649
1261.4400219726	0.0091227293
1263.3688293457	0.0088338461
1265.2976367187	0.0087920176
1267.2264440918	0.0088093933
1269.1552514648	0.0087660849
1271.0840588379	0.0086032487
1273.0128662109	0.0083311126
1274.9416735840	0.0082972199
1276.8704809570	0.0081321411
1278.7992883301	0.0078228069
1280.7280957031	0.0078351954
1282.6569030762	0.0075613540
1284.5857104492	0.0073085129
1286.5145178223	0.0075103454
1288.4433251953	0.0075975209
1290.3721325683	0.0074172048
1292.3009399414	0.0072640954
1294.2297473144	0.0072426605
1296.1585546875	0.0073530045
1298.0873620605	0.0072994111
1300.0161694336	0.0070656491
1301.9449768066	0.0070869466
1303.8737841797	0.0070542758
1305.8025915527	0.0073479204
1307.7313989258	0.0076240068
1309.6602062988	0.0075169401
1311.5890136719	0.0077658622
1313.5178210449	0.0077658333
1315.4466284180	0.0079925302
1317.3754357910	0.0083193295
1319.3042431640	0.0082787508
1321.2330505371	0.0086043309
1323.1618579101	0.0087122619
1325.0906652832	0.0089244992
1327.0194726562	0.0093887560
1328.9482800293	0.0094164293
1330.8770874023	0.0095829219
1332.8058947754	0.0099564735
1334.7347021484	0.0099733975
1336.6635095215	0.0101138437
1338.5923168945	0.0101588704
1340.5211242676	0.0101063075
1342.4499316406	0.0106532965
1344.3787390137	0.0106067136
1346.3075463867	0.0105060041
1348.2363537597	0.0107225738
1350.1651611328	0.0105029410
1352.0939685058	0.0105984723
1354.0227758789	0.0104037654
1355.9515832519	0.0102421734
1357.8803906250	0.0102898795
1359.8091979980	0.0100946538
1361.7380053711	0.0098912530
1363.6668127441	0.0096221687
1365.5956201172	0.0099254660
1367.5244274902	0.0099346545
1369.4532348633	0.0097958203
1371.3820422363	0.0099342251
1373.3108496094	0.0095592886
1375.2396569824	0.0095841875
1377.1684643555	0.0097307265
1379.0972717285	0.0097477026
1381.0260791015	0.0097596673
1382.9548864746	0.0095016286
1384.8836938476	0.0095749144
1386.8125012207	0.0093487436
1388.7413085937	0.0093671456
1390.6701159668	0.0101804622
1392.5989233398	0.0098932125
1394.5277307129	0.0094209909
1396.4565380859	0.0099126007
1398.3853454590	0.0097008990
1400.3141528320	0.0097883772
1402.2429602051	0.0103990529
1404.1717675781	0.0099182865
1406.1005749512	0.0099561512
1408.0293823242	0.0102626309
1409.9581896972	0.0100286100
1411.8869970703	0.0100886840
1413.8158044433	0.0099268854
1415.7446118164	0.0099735232
1417.6734191894	0.0092051234
1419.6022265625	0.0085131135
1421.5310339355	0.0094060078
1423.4598413086	0.0091757569
1425.3886486816	0.0089132208
1427.3174560547	0.0090534184
1429.2462634277	0.0082121147
1431.1750708008	0.0081910435
1433.1038781738	0.0084790420
1435.0326855469	0.0077691018
1436.9614929199	0.0071101459
1438.8903002929	0.0074874125
1440.8191076660	0.0074960734
1442.7479150390	0.0072294446
1444.6767224121	0.0074544195
1446.6055297851	0.0070686545
1448.5343371582	0.0071184663
1450.4631445312	0.0072062938
1452.3919519043	0.0072605759
1454.3207592773	0.0077323699
1456.2495666504	0.0068599437
1458.1783740234	0.0069585503
1460.1071813965	0.0086820321
1462.0359887695	0.0090740444
1463.9647961426	0.0090736412
1465.8936035156	0.0095265163
1467.8224108886	0.0102546383
1469.7512182617	0.0108581763
1471.6800256347	0.0101138530
1473.6088330078	0.0104580875
1475.5376403808	0.0119181387
1477.4664477539	0.0125912912
1479.3952551269	0.0135536510
1481.3240625000	0.0139529072
1483.2528698730	0.0145312101
1485.1816772461	0.0149905737
1487.1104846191	0.0147584071
1489.0392919922	0.0148796719
1490.9680993652	0.0151496530
1492.8969067383	0.0170948897
1494.8257141113	0.0168163292
1496.7545214843	0.0154378731
1498.6833288574	0.0171810240
1500.6121362304	0.0174270459
1502.5409436035	0.0184606500
1504.4697509765	0.0177051239
1506.3985583496	0.0139026204
1508.3273657226	0.0163996629
1510.2561730957	0.0184696503
1512.1849804687	0.0180170164
1514.1137878418	0.0191003047
1516.0425952148	0.0177226812
1517.9714025879	0.0184519142
1519.9002099609	0.0177872833
1521.8290173340	0.0160277039
1523.7578247070	0.0188120883
1525.6866320801	0.0186014622
1527.6154394531	0.0184084401
1529.5442468261	0.0199838988
1531.4730541992	0.0193711165
1533.4018615722	0.0179492086
1535.3306689453	0.0189607181
1537.2594763183	0.0199061297
1539.1882836914	0.0153323486
1541.1170910644	0.0159835406
1543.0458984375	0.0184584968
1544.9747058105	0.0179849342
1546.9035131836	0.0203586593
1548.8323205566	0.0192786902
1550.7611279297	0.0198740177
1552.6899353027	0.0195913427
1554.6187426758	0.0182521604
1556.5475500488	0.0191667788
1558.4763574218	0.0144747011
1560.4051647949	0.0157419257
1562.3339721679	0.0204890911
1564.2627795410	0.0194025841
1566.1915869140	0.0200649463
1568.1203942871	0.0197878201
1570.0492016601	0.0181028135
1571.9780090332	0.0203273650
1573.9068164062	0.0203289203
1575.8356237793	0.0169321913
1577.7644311523	0.0188925937
1579.6932385254	0.0205292627
1581.6220458984	0.0195956752
1583.5508532715	0.0204656459
1585.4796606445	0.0201328769
1587.4084680175	0.0201685857
1589.3372753906	0.0200577602
1591.2660827636	0.0200016722
1593.1948901367	0.0200896095
1595.1236975097	0.0197768956
1597.0525048828	0.0200230554
1598.9813122558	0.0199329481
1600.9101196289	0.0201500989
1602.8389270019	0.0198491924
1604.7677343750	0.0200094711
1606.6965417480	0.0198138058
1608.6253491211	0.0197687317
1610.5541564941	0.0198694542
1612.4829638672	0.0199032612
1614.4117712402	0.0199890360
1616.3405786132	0.0171348527
1618.2693859863	0.0184148401
1620.1981933593	0.0205350555
1622.1270007324	0.0185785517
1624.0558081054	0.0189273618
1625.9846154785	0.0195136182
1627.9134228515	0.0194579363
1629.8422302246	0.0193361007
1631.7710375976	0.0203258414
1633.6998449707	0.0191035271
1635.6286523437	0.0163616762
1637.5574597168	0.0187000763
1639.4862670898	0.0201554336
1641.4150744629	0.0196056962
1643.3438818359	0.0199873950
1645.2726892090	0.0182562992
1647.2014965820	0.0168830529
1649.1303039550	0.0201186500
1651.0591113281	0.0187574401
1652.9879187011	0.0134201124
1654.9167260742	0.0171965770
1656.8455334472	0.0203497093
1658.7743408203	0.0195438005
1660.7031481933	0.0200558528
1662.6319555664	0.0187288933
1664.5607629394	0.0197695121
1666.4895703125	0.0206075367
1668.4183776855	0.0184293613
1670.3471850586	0.0183274560
1672.2759924316	0.0199842118
1674.2047998047	0.0187584683
1676.1336071777	0.0182786305
1678.0624145507	0.0201743804
1679.9912219238	0.0197055265
1681.9200292968	0.0195385478
1683.8488366699	0.0164141357
1685.7776440429	0.0164938346
1687.7064514160	0.0210296921
1689.6352587890	0.0187711120
1691.5640661621	0.0205698311
1693.4928735351	0.0205249246
1695.4216809082	0.0160282478
1697.3504882812	0.0191979595
1699.2792956543	0.0171737783
1701.2081030273	0.0158925448
1703.1369104004	0.0202169400
1705.0657177734	0.0187778138
1706.9945251464	0.0190673098
1708.9233325195	0.0203191899
1710.8521398925	0.0195134263
1712.7809472656	0.0199199393
1714.7097546386	0.0188719090
1716.6385620117	0.0171598960
1718.5673693847	0.0170108527
1720.4961767578	0.0194587074
1722.4249841308	0.0198998675
1724.3537915039	0.0188765526
1726.2825988769	0.0200318582
1728.2114062500	0.0187818557
1730.1402136230	0.0190647617
1732.0690209961	0.0185049418
1733.9978283691	0.0150911417
1735.9266357421	0.0179345850
1737.8554431152	0.0192627087
1739.7842504882	0.0175244175
1741.7130578613	0.0188315697
1743.6418652343	0.0189927667
1745.5706726074	0.0190313254
1747.4994799804	0.0192105994
1749.4282873535	0.0184898414
1751.3570947265	0.0179154519
1753.2859020996	0.0192977525
1755.2147094726	0.0200098753
1757.1435168457	0.0187172368
1759.0723242187	0.0200374722
1761.0011315918	0.0192020386
1762.9299389648	0.0188320968
1764.8587463379	0.0206804108
1766.7875537109	0.0189500935
1768.7163610839	0.0192993879
1770.6451684570	0.0191348437
1772.5739758300	0.0175571032
1774.5027832031	0.0191889815
1776.4315905761	0.0200067014
1778.3603979492	0.0197906662
1780.2892053222	0.0195308588
1782.2180126953	0.0197016932
1784.1468200683	0.0197715871
1786.0756274414	0.0194048025
1788.0044348144	0.0201761313
1789.9332421875	0.0197514817
1791.8620495605	0.0183259360
1793.7908569336	0.0189716555
1795.7196643066	0.0199042223
1797.6484716796	0.0197140537
1799.5772790527	0.0195312314
1801.5060864257	0.0191916041
1803.4348937988	0.0197813734
1805.3637011718	0.0200800225
1807.2925085449	0.0198471621
1809.2213159179	0.0200704839
1811.1501232910	0.0194931366
1813.0789306640	0.0198888108
1815.0077380371	0.0200464800
1816.9365454101	0.0198837407
1818.8653527832	0.0199562460
1820.7941601562	0.0197831206
1822.7229675293	0.0200192146
1824.6517749023	0.0189897753
1826.5805822753	0.0195872374
1828.5093896484	0.0195784941
1830.4381970214	0.0186823271
1832.3670043945	0.0200397670
1834.2958117675	0.0197380036
1836.2246191406	0.0197398607
1838.1534265136	0.0197292045
1840.0822338867	0.0198070593
1842.0110412597	0.0198555626
1843.9398486328	0.0179910529
1845.8686560058	0.0189821422
1847.7974633789	0.0197600741
1849.7262707519	0.0192246512
1851.6550781250	0.0198253207
1853.5838854980	0.0195287000
1855.5126928710	0.0195898749
1857.4415002441	0.0196793843
1859.3703076171	0.0195783749
1861.2991149902	0.0196373053
1863.2279223632	0.0194343999
1865.1567297363	0.0194630660
1867.0855371093	0.0190485120
1869.0143444824	0.0185167063
1870.9431518554	0.0190444961
1872.8719592285	0.0196106005
1874.8007666015	0.0192649737
1876.7295739746	0.0192858409
1878.6583813476	0.0193505026
1880.5871887207	0.0192829613
1882.5159960937	0.0193824694
1884.4448034667	0.0191084910
1886.3736108398	0.0192135405
1888.3024182128	0.0189360194
1890.2312255859	0.0186988078
1892.1600329589	0.0192414969
1894.0888403320	0.0189781096
1896.0176477050	0.0187290609
1897.9464550781	0.0189387724
1899.8752624511	0.0189455487
1901.8040698242	0.0189873390
1903.7328771972	0.0189081728
1905.6616845703	0.0189070031
1907.5904919433	0.0187249091
1909.5192993164	0.0186622739
1911.4481066894	0.0188302770
1913.3769140625	0.0188010782
1915.3057214355	0.0188901313
1917.2345288085	0.0182844847
1919.1633361816	0.0181781352
1921.0921435546	0.0187639184
1923.0209509277	0.0184384584
1924.9497583007	0.0186179336
1926.8785656738	0.0187738948
1928.8073730468	0.0186579451
1930.7361804199	0.0188228078
1932.6649877929	0.0185528398
1934.5937951660	0.0185497459
1936.5226025390	0.0185142346
1938.4514099121	0.0185998715
1940.3802172851	0.0186146609
1942.3090246582	0.0181681588
1944.2378320312	0.0182476938
1946.1666394042	0.0184118636
1948.0954467773	0.0185057148
1950.0242541503	0.0185732562
1951.9530615234	0.0184270628
1953.8818688964	0.0183480866
1955.8106762695	0.0183989964
1957.7394836425	0.0184740387
1959.6682910156	0.0183704179
1961.5970983886	0.0183291547
1963.5259057617	0.0183336269
1965.4547131347	0.0182241052
1967.3835205078	0.0181330852
1969.3123278808	0.0182491932
1971.2411352539	0.0184130203
1973.1699426269	0.0182898939
1975.0987499999	0.0182444733
1977.0275573730	0.0182428397
1978.9563647460	0.0180281512
1980.8851721191	0.0180003308
1982.8139794921	0.0181479715
1984.7427868652	0.0180870518
1986.6715942382	0.0179786608
1988.6004016113	0.0179570504
1990.5292089843	0.0178566221
1992.4580163574	0.0177554674
1994.3868237304	0.0178116970
1996.3156311035	0.0179783162
1998.2444384765	0.0179114826
2000.1732458496	0.0177667569
2002.1020532226	0.0178294703
2004.0308605956	0.0177900083
2005.9596679687	0.0176992882
2007.8884753417	0.0176881924
2009.8172827148	0.0176221784
2011.7460900878	0.0175848976
2013.6748974609	0.0175911020
2015.6037048339	0.0174673386
2017.5325122070	0.0173852071
2019.4613195800	0.0174762532
2021.3901269531	0.0174991526
2023.3189343261	0.0174195990
2025.2477416992	0.0173593573
2027.1765490722	0.0173528269
2029.1053564453	0.0172352009
2031.0341638183	0.0171540398
2032.9629711914	0.0172548927
2034.8917785644	0.0172488410
2036.8205859374	0.0171755049
2038.7493933105	0.0170425270
2040.6782006835	0.0169312470
2042.6070080566	0.0169380046
2044.5358154296	0.0169363581
2046.4646228027	0.0169847161
2048.3934301757	0.0168844406
2050.3222375488	0.0168054104
2052.2510449218	0.0169768240
2054.1798522949	0.0168759227
2056.1086596679	0.0165989809
2058.0374670410	0.0166035034
2059.9662744140	0.0167176574
2061.8950817871	0.0167340711
2063.8238891601	0.0166269690
2065.7526965331	0.0165622067
2067.6815039062	0.0165947136
2069.6103112792	0.0166088976
2071.5391186523	0.0165842511
2073.4679260253	0.0164431203
2075.3967333984	0.0164422560
2077.3255407714	0.0164581500
2079.2543481445	0.0163058769
2081.1831555175	0.0164350905
2083.1119628906	0.0164783821
2085.0407702636	0.0163515396
2086.9695776367	0.0163745992
2088.8983850097	0.0163170043
2090.8271923828	0.0163293108
2092.7559997558	0.0162697881
2094.6848071288	0.0161465742
2096.6136145019	0.0161675457
2098.5424218749	0.0160958171
2100.4712292480	0.0160407498
2102.4000366210	0.0160500370
2104.3288439941	0.0160639007
2106.2576513671	0.0160225406
2108.1864587402	0.0158886202
2110.1152661132	0.0159041919
2112.0440734863	0.0160378423
2113.9728808593	0.0159383267
2115.9016882324	0.0157668944
2117.8304956054	0.0158403330
2119.7593029785	0.0157872997
2121.6881103515	0.0157078616
2123.6169177245	0.0157742873
2125.5457250976	0.0157256387
2127.4745324706	0.0157230049
2129.4033398437	0.0157030486
2131.3321472167	0.0157273039
2133.2609545898	0.0157537125
2135.1897619628	0.0155606894
2137.1185693359	0.0155113600
2139.0473767089	0.0156716630
2140.9761840820	0.0155812390
2142.9049914550	0.0153971603
2144.8337988281	0.0156191532
2146.7626062011	0.0156841576
2148.6914135742	0.0155176017
2150.6202209472	0.0154799502
2152.5490283203	0.0153849684
2154.4778356933	0.0154520739
2156.4066430663	0.0154328616
2158.3354504394	0.0153390765
2160.2642578124	0.0153425233
2162.1930651855	0.0153702488
2164.1218725585	0.0153950490
2166.0506799316	0.0152194258
2167.9794873046	0.0152776735
2169.9082946777	0.0153406691
2171.8371020507	0.0153494217
2173.7659094238	0.0154111274
2175.6947167968	0.0151713639
2177.6235241699	0.0151205566
2179.5523315429	0.0151495263
2181.4811389160	0.0151390443
2183.4099462890	0.0151338633
2185.3387536620	0.0151395593
2187.2675610351	0.0152689060
2189.1963684081	0.0151405092
2191.1251757812	0.0150876250
2193.0539831542	0.0151281953
2194.9827905273	0.0150498934
2196.9115979003	0.0150324982
2198.8404052734	0.0150406137
2200.7692126464	0.0150278807
2202.6980200195	0.0148968436
2204.6268273925	0.0149835600
2206.5556347656	0.0150401322
2208.4844421386	0.0149404211
2210.4132495117	0.0150203500
2212.3420568847	0.0149092209
2214.2708642577	0.0149189327
2216.1996716308	0.0149662681
2218.1284790038	0.0147531061
2220.0572863769	0.0148075297
2221.9860937499	0.0148434620
2223.9149011230	0.0147698857
2225.8437084960	0.0147768110
2227.7725158691	0.0147193093
2229.7013232421	0.0147132166
2231.6301306152	0.0146540422
2233.5589379882	0.0145418625
2235.4877453613	0.0145157333
2237.4165527343	0.0145890117
2239.3453601074	0.0146247949
2241.2741674804	0.0146200974
2243.2029748534	0.0146723259
2245.1317822265	0.0145772975
2247.0605895995	0.0144579485
2248.9893969726	0.0143927857
2250.9182043456	0.0144888870
2252.8470117187	0.0145992953
2254.7758190917	0.0144521119
2256.7046264648	0.0143989678
2258.6334338378	0.0143547785
2260.5622412109	0.0143678598
2262.4910485839	0.0143146440
2264.4198559570	0.0142531600
2266.3486633300	0.0143867228
2268.2774707031	0.0142175835
2270.2062780761	0.0141823944
2272.1350854491	0.0142486040
2274.0638928222	0.0141930683
2275.9927001952	0.0141857425
2277.9215075683	0.0141628645
2279.8503149413	0.0143218972
2281.7791223144	0.0142259477
2283.7079296874	0.0140987076
2285.6367370605	0.0141377337
2287.5655444335	0.0140821710
2289.4943518066	0.0140482420
2291.4231591796	0.0140157212
2293.3519665527	0.0140693728
2295.2807739257	0.0139240101
2297.2095812988	0.0137989875
2299.1383886718	0.0137253515
2301.0671960449	0.0135911759
2302.9960034179	0.0136747528
2304.9248107909	0.0136120506
2306.8536181640	0.0134534547
2308.7824255370	0.0133250318
2310.7112329101	0.0132395700
2312.6400402831	0.0131475460
2314.5688476562	0.0129628163
2316.4976550292	0.0127763394
2318.4264624023	0.0126081901
2320.3552697753	0.0124566983
2322.2840771484	0.0122221401
2324.2128845214	0.0121260174
2326.1416918945	0.0119604338
2328.0704992675	0.0118115563
2329.9993066406	0.0116981873
2331.9281140136	0.0114803407
2333.8569213866	0.0116022620
2335.7857287597	0.0115657859
2337.7145361327	0.0114718378
2339.6433435058	0.0113761537
2341.5721508788	0.0113407644
2343.5009582519	0.0116947684
2345.4297656249	0.0118782017
2347.3585729980	0.0124252662
2349.2873803710	0.0128366137
2351.2161877441	0.0123479040
2353.1449951171	0.0116717611
2355.0738024902	0.0111885909
2357.0026098632	0.0109417373
2358.9314172363	0.0106207319
2360.8602246093	0.0105104214
2362.7890319823	0.0105298990
2364.7178393554	0.0105461590
2366.6466467284	0.0107764788
2368.5754541015	0.0109715993
2370.5042614745	0.0113396272
2372.4330688476	0.0116145751
2374.3618762206	0.0118883345
2376.2906835937	0.0122826155
2378.2194909667	0.0124978349
2380.1482983398	0.0128167495
2382.0771057128	0.0128972949
2384.0059130859	0.0129090399
2385.9347204589	0.0131194387
2387.8635278320	0.0131220054
2389.7923352050	0.0130810151
2391.7211425780	0.0130690271
2393.6499499511	0.0131476969
2395.5787573241	0.0131355803
2397.5075646972	0.0129712652
2399.4363720702	0.0130342301
2401.3651794433	0.0130236940
2403.2939868163	0.0129930014
2405.2227941894	0.0130294384
2407.1516015624	0.0129487440
2409.0804089355	0.0129741356
2411.0092163085	0.0128257424
2412.9380236816	0.0127563048
2414.8668310546	0.0129738422
2416.7956384277	0.0129109919
2418.7244458007	0.0127752246
2420.6532531738	0.0127855018
2422.5820605468	0.0128320735
2424.5108679198	0.0127522182
2426.4396752929	0.0126715135
2428.3684826659	0.0128269410
2430.2972900390	0.0128145125
2432.2260974120	0.0127125941
2434.1549047851	0.0126879551
2436.0837121581	0.0126174670
2438.0125195312	0.0125820432
2439.9413269042	0.0124708284
2441.8701342773	0.0125171850
2443.7989416503	0.0125596337
2445.7277490234	0.0124523733
2447.6565563964	0.0126367817
2449.5853637695	0.0125870844
2451.5141711425	0.0124327242
2453.4429785155	0.0125728399
2455.3717858886	0.0124998204
2457.3005932616	0.0124165844
2459.2294006347	0.0123415515
2461.1582080077	0.0123846969
2463.0870153808	0.0125049045
2465.0158227538	0.0124375168
2466.9446301269	0.0125009306
2468.8734374999	0.0123951398
2470.8022448730	0.0123146549
2472.7310522460	0.0123445159
2474.6598596191	0.0122292805
2476.5886669921	0.0122573543
2478.5174743652	0.0122967558
2480.4462817382	0.0122825745
2482.3750891112	0.0122172628
2484.3038964843	0.0122376475
2486.2327038573	0.0121978121
2488.1615112304	0.0121873980
2490.0903186034	0.0123241758
2492.0191259765	0.0121947266
2493.9479333495	0.0121372063
2495.8767407226	0.0121147856
2497.8055480956	0.0120924823
2499.7343554687	0.0120418984
2501.6631628417	0.0119865574
2503.5919702148	0.0121105444
2505.5207775878	0.0119792651
2507.4495849609	0.0120227225
2509.3783923339	0.0120318979
2511.3071997069	0.0118458550
2513.2360070800	0.0119609768
2515.1648144530	0.0119616073
2517.0936218261	0.0119216554
2519.0224291991	0.0119218547
2520.9512365722	0.0118955020
2522.8800439452	0.0118969679
2524.8088513183	0.0119769536
2526.7376586913	0.0119848670
2528.6664660644	0.0118215811
2530.5952734374	0.0118312929
2532.5240808105	0.0117959203
2534.4528881835	0.0117512792
2536.3816955566	0.0117509486
2538.3105029296	0.0116798598
2540.2393103027	0.0117378002
2542.1681176757	0.0117406705
2544.0969250487	0.0116883107
2546.0257324218	0.0117470203
2547.9545397948	0.0117163640
2549.8833471679	0.0115649709
2551.8121545409	0.0116034690
2553.7409619140	0.0116279954
2555.6697692870	0.0116474871
2557.5985766601	0.0116820019
2559.5273840331	0.0114589371
2561.4561914062	0.0114607327
2563.3849987792	0.0115004536
2565.3138061523	0.0114673153
2567.2426135253	0.0115435058
2569.1714208984	0.0114681702
2571.1002282714	0.0115193510
2573.0290356444	0.0115397470
2574.9578430175	0.0114820544
2576.8866503905	0.0114694424
2578.8154577636	0.0113672875
2580.7442651366	0.0113250054
2582.6730725097	0.0113008609
2584.6018798827	0.0113731902
2586.5306872558	0.0113781709
2588.4594946288	0.0112757478
2590.3883020019	0.0113106109
2592.3171093749	0.0112525169
2594.2459167480	0.0112566557
2596.1747241210	0.0113102300
2598.1035314941	0.0111625306
2600.0323388671	0.0111489268
2601.9611462401	0.0111687910
2603.8899536132	0.0111529473
2605.8187609862	0.0112627838
2607.7475683593	0.0111616571
2609.6763757323	0.0110535789
2611.6051831054	0.0111492611
2613.5339904784	0.0111176744
2615.4627978515	0.0110816248
2617.3916052245	0.0110563915
2619.3204125976	0.0110262604
2621.2492199706	0.0111416671
2623.1780273437	0.0110890884
2625.1068347167	0.0109712481
2627.0356420898	0.0109802019
2628.9644494628	0.0109823085
2630.8932568358	0.0110019157
2632.8220642089	0.0108814603
2634.7508715819	0.0108761434
2636.6796789550	0.0109357052
2638.6084863280	0.0108617861
2640.5372937011	0.0108755119
2642.4661010741	0.0108159781
2644.3949084472	0.0108489050
2646.3237158202	0.0107500115
2648.2525231933	0.0106683830
2650.1813305663	0.0108588506
2652.1101379394	0.0108010750
2654.0389453124	0.0108172065
2655.9677526855	0.0107478928
2657.8965600585	0.0106359748
2659.8253674315	0.0107193422
2661.7541748046	0.0107013024
2663.6829821776	0.0106644668
2665.6117895507	0.0105446242
2667.5405969237	0.0106653674
2669.4694042968	0.0107173957
2671.3982116698	0.0106097534
2673.3270190429	0.0106023382
2675.2558264159	0.0105441883
2677.1846337890	0.0106637366
2679.1134411620	0.0105004134
2681.0422485351	0.0104480274
2682.9710559081	0.0105875731
2684.8998632812	0.0104386024
2686.8286706542	0.0105047887
2688.7574780273	0.0105054826
2690.6862854003	0.0104871951
2692.6150927733	0.0104801767
2694.5439001464	0.0103671905
2696.4727075194	0.0103994198
2698.4015148925	0.0104518449
2700.3303222655	0.0105387298
2702.2591296386	0.0104539860
2704.1879370116	0.0103489682
2706.1167443847	0.0103468057
2708.0455517577	0.0103010125
2709.9743591308	0.0103288572
2711.9031665038	0.0103185903
2713.8319738769	0.0103128515
2715.7607812499	0.0103216106
2717.6895886230	0.0102956928
2719.6183959960	0.0102167912
2721.5472033690	0.0101505574
2723.4760107421	0.0101932809
2725.4048181151	0.0102839740
2727.3336254882	0.0103738178
2729.2624328612	0.0102008637
2731.1912402343	0.0100844931
2733.1200476073	0.0101721920
2735.0488549804	0.0100775324
2736.9776623534	0.0101569640
2738.9064697265	0.0101732034
2740.8352770995	0.0100120092
2742.7640844726	0.0100908875
2744.6928918456	0.0100425538
2746.6216992187	0.0100285942
2748.5505065917	0.0100157373
2750.4793139647	0.0099309543
2752.4081213378	0.0100221308
2754.3369287108	0.0098727196
2756.2657360839	0.0098968688
2758.1945434569	0.0099994633
2760.1233508300	0.0098576229
2762.0521582030	0.0099754911
2763.9809655761	0.0099411309
2765.9097729491	0.0098398980
2767.8385803222	0.0098378705
2769.7673876952	0.0097527625
2771.6961950683	0.0097921798
2773.6250024413	0.0098179867
2775.5538098144	0.0098175649
2777.4826171874	0.0097200926
2779.4114245604	0.0096803214
2781.3402319335	0.0096740779
2783.2690393065	0.0096422490
2785.1978466796	0.0096992292
2787.1266540526	0.0095575005
2789.0554614257	0.0096481033
2790.9842687987	0.0096886866
2792.9130761718	0.0095200595
2794.8418835448	0.0096402820
2796.7706909179	0.0095682815
2798.6994982909	0.0095515065
2800.6283056640	0.0095239896
2802.5571130370	0.0094006667
2804.4859204101	0.0094743902
2806.4147277831	0.0094021559
2808.3435351562	0.0094443159
2810.2723425292	0.0094589759
2812.2011499022	0.0093910210
2814.1299572753	0.0093932403
2816.0587646483	0.0093609244
2817.9875720214	0.0093358792
2819.9163793944	0.0092688594
2821.8451867675	0.0094011743
2823.7739941405	0.0093411114
2825.7028015136	0.0092890877
2827.6316088866	0.0094084125
2829.5604162597	0.0092671867
2831.4892236327	0.0092788693
2833.4180310058	0.0092157070
2835.3468383788	0.0091791786
2837.2756457519	0.0091848159
2839.2044531249	0.0091004092
2841.1332604979	0.0091370028
2843.0620678710	0.0089799846
2844.9908752440	0.0089906650
2846.9196826171	0.0089728739
2848.8484899901	0.0089223180
2850.7772973632	0.0089780036
2852.7061047362	0.0088092685
2854.6349121093	0.0089124907
2856.5637194823	0.0089323558
2858.4925268554	0.0087958947
2860.4213342284	0.0088219941
2862.3501416015	0.0087407185
2864.2789489745	0.0087879840
2866.2077563476	0.0088264681
2868.1365637206	0.0087041315
2870.0653710936	0.0087656900
2871.9941784667	0.0088080214
2873.9229858397	0.0087179765
2875.8517932128	0.0088341059
2877.7806005858	0.0087738503
2879.7094079589	0.0086477436
2881.6382153319	0.0086997636
2883.5670227050	0.0085754171
2885.4958300780	0.0086794412
2887.4246374511	0.0087167006
2889.3534448241	0.0084955776
2891.2822521972	0.0085256547
2893.2110595702	0.0086155813
2895.1398669433	0.0085880617
2897.0686743163	0.0085499967
2898.9974816893	0.0086006559
2900.9262890624	0.0085072741
2902.8550964354	0.0084200315
2904.7839038085	0.0084341764
2906.7127111815	0.0084356889
2908.6415185546	0.0084803198
2910.5703259276	0.0083479173
2912.4991333007	0.0083333869
2914.4279406737	0.0083399368
2916.3567480468	0.0081821904
2918.2855554198	0.0081249867
2920.2143627929	0.0081126206
2922.1431701659	0.0081366366
2924.0719775390	0.0081593515
2926.0007849120	0.0082241753
2927.9295922851	0.0081403125
2929.8583996581	0.0080491211
2931.7872070311	0.0081798648
2933.7160144042	0.0081796702
2935.6448217772	0.0080876676
2937.5736291503	0.0081228074
2939.5024365233	0.0081865275
2941.4312438964	0.0080768773
2943.3600512694	0.0080823135
2945.2888586425	0.0081425738
2947.2176660155	0.0080638546
2949.1464733886	0.0080636814
2951.0752807616	0.0079736151
2953.0040881347	0.0079613607
2954.9328955077	0.0080165584
2956.8617028808	0.0080214702
2958.7905102538	0.0080098324
2960.7193176268	0.0079659522
2962.6481249999	0.0080127586
2964.5769323729	0.0079578627
2966.5057397460	0.0079263989
2968.4345471190	0.0078845052
2970.3633544921	0.0078745410
2972.2921618651	0.0079548452
2974.2209692382	0.0078999810
2976.1497766112	0.0078908233
2978.0785839843	0.0078273984
2980.0073913573	0.0078506265
2981.9361987304	0.0079034660
2983.8650061034	0.0078555020
2985.7938134765	0.0078887427
2987.7226208495	0.0078372052
2989.6514282225	0.0078279562
2991.5802355956	0.0078328885
2993.5090429686	0.0078268219
2995.4378503417	0.0078346906
2997.3666577147	0.0078546098
2999.2954650878	0.0078304559
3001.2242724608	0.0077168364
3003.1530798339	0.0077371281
3005.0818872069	0.0077105649
3007.0106945800	0.0077873114
3008.9395019530	0.0078181289
3010.8683093261	0.0077000326
3012.7971166991	0.0077272085
3014.7259240722	0.0076838452
3016.6547314452	0.0077292724
3018.5835388182	0.0076629929
3020.5123461913	0.0076055811
3022.4411535643	0.0076525472
3024.3699609374	0.0075520845
3026.2987683104	0.0077057313
3028.2275756835	0.0077029192
3030.1563830565	0.0074890219
3032.0851904296	0.0074770991
3034.0139978026	0.0075825052
3035.9428051757	0.0076097795
3037.8716125487	0.0075348224
3039.8004199218	0.0076138023
3041.7292272948	0.0075359917
3043.6580346679	0.0074773203
3045.5868420409	0.0075159185
3047.5156494139	0.0073882625
3049.4444567870	0.0074542598
3051.3732641600	0.0074429284
3053.3020715331	0.0073466320
3055.2308789061	0.0074351532
3057.1596862792	0.0073892935
3059.0884936522	0.0073238499
3061.0173010253	0.0073561589
3062.9461083983	0.0072721634
3064.8749157714	0.0072590499
3066.8037231444	0.0072853947
3068.7325305175	0.0072799968
3070.6613378905	0.0073533226
3072.5901452636	0.0072217193
3074.5189526366	0.0072200405
3076.4477600097	0.0072612194
3078.3765673827	0.0070838667
3080.3053747557	0.0071736784
3082.2341821288	0.0071991747
3084.1629895018	0.0072066458
3086.0917968749	0.0072399862
3088.0206042479	0.0070631048
3089.9494116210	0.0070512211
3091.8782189940	0.0070578502
3093.8070263671	0.0070455535
3095.7358337401	0.0070818937
3097.6646411132	0.0070555145
3099.5934484862	0.0070489720
3101.5222558593	0.0070974263
3103.4510632323	0.0070842551
3105.3798706054	0.0069998745
3107.3086779784	0.0069760359
3109.2374853514	0.0068889209
3111.1662927245	0.0069240914
3113.0951000975	0.0069252979
3115.0239074706	0.0068121580
3116.9527148436	0.0069153411
3118.8815222167	0.0068285791
3120.8103295897	0.0068189655
3122.7391369628	0.0069462298
3124.6679443358	0.0067940941
3126.5967517089	0.0067699454
3128.5255590819	0.0068160440
3130.4543664550	0.0067438954
3132.3831738280	0.0066543985
3134.3119812011	0.0066928482
3136.2407885741	0.0067380774
3138.1695959471	0.0066605220
3140.0984033202	0.0066862563
3142.0272106932	0.0066140546
3143.9560180663	0.0065905047
3145.8848254393	0.0066114636
3147.8136328124	0.0065252995
3149.7424401854	0.0066911802
3151.6712475585	0.0067001954
3153.6000549315	0.0065125059
3155.5288623046	0.0065402025
3157.4576696776	0.0065837135
3159.3864770507	0.0065055490
3161.3152844237	0.0063952999
3163.2440917968	0.0064018141
3165.1728991698	0.0064048958
3167.1017065428	0.0063877963
3169.0305139159	0.0063818847
3170.9593212889	0.0063581243
3172.8881286620	0.0064228261
3174.8169360350	0.0063902140
3176.7457434081	0.0062865159
3178.6745507811	0.0062852176
3180.6033581542	0.0063185198
3182.5321655272	0.0063304501
3184.4609729003	0.0062559182
3186.3897802733	0.0061868345
3188.3185876464	0.0062431321
3190.2473950194	0.0062141158
3192.1762023925	0.0061524110
3194.1050097655	0.0062078731
3196.0338171386	0.0061786277
3197.9626245116	0.0062283529
3199.8914318846	0.0061437073
3201.8202392577	0.0059796860
3203.7490466307	0.0061188126
3205.6778540038	0.0060881418
3207.6066613768	0.0060992534
3209.5354687499	0.0060973242
3211.4642761229	0.0059931558
3213.3930834960	0.0061093606
3215.3218908690	0.0059865438
3217.2506982421	0.0059524570
3219.1795056151	0.0060867630
3221.1083129882	0.0059905527
3223.0371203612	0.0059155454
3224.9659277343	0.0059760730
3226.8947351073	0.0060155718
3228.8235424803	0.0059561175
3230.7523498534	0.0059473719
3232.6811572264	0.0058747958
3234.6099645995	0.0058450205
3236.5387719725	0.0058467938
3238.4675793456	0.0058335522
3240.3963867186	0.0059176842
3242.3251940917	0.0058779232
3244.2540014647	0.0058912956
3246.1828088378	0.0058618691
3248.1116162108	0.0058445530
3250.0404235839	0.0058183176
3251.9692309569	0.0056940983
3253.8980383300	0.0058152257
3255.8268457030	0.0057476438
3257.7556530760	0.0056801410
3259.6844604491	0.0058271103
3261.6132678221	0.0058130212
3263.5420751952	0.0057672141
3265.4708825682	0.0057674153
3267.3996899413	0.0058283065
3269.3284973143	0.0057580303
3271.2573046874	0.0056985496
3273.1861120604	0.0057918155
3275.1149194335	0.0058091832
3277.0437268065	0.0057360176
3278.9725341796	0.0056895847
3280.9013415526	0.0057601351
3282.8301489257	0.0057205353
3284.7589562987	0.0056908145
3286.6877636717	0.0057558091
3288.6165710448	0.0056412760
3290.5453784178	0.0055410047
3292.4741857909	0.0056048157
3294.4029931639	0.0056471662
3296.3318005370	0.0056432397
3298.2606079100	0.0056989593
3300.1894152831	0.0056877518
3302.1182226561	0.0056080725
3304.0470300292	0.0055975337
3305.9758374022	0.0056303157
3307.9046447753	0.0056826533
3309.8334521483	0.0056584766
3311.7622595214	0.0056244675
3313.6910668944	0.0056710048
3315.6198742675	0.0055571059
3317.5486816405	0.0054785954
3319.4774890135	0.0055944361
3321.4062963866	0.0054835635
3323.3351037596	0.0054824902
3325.2639111327	0.0055704913
3327.1927185057	0.0054438822
3329.1215258788	0.0055659111
3331.0503332518	0.0056032855
3332.9791406249	0.0054556662
3334.9079479979	0.0053783571
3336.8367553710	0.0053980239
3338.7655627440	0.0054679941
3340.6943701171	0.0053740465
3342.6231774901	0.0054401774
3344.5519848632	0.0054151490
3346.4807922362	0.0054222429
3348.4095996092	0.0055613825
3350.3384069823	0.0053849630
3352.2672143553	0.0054140696
3354.1960217284	0.0054305801
3356.1248291014	0.0053922427
3358.0536364745	0.0054013864
3359.9824438475	0.0052771885
3361.9112512206	0.0053944532
3363.8400585936	0.0052894987
3365.7688659667	0.0052430392
3367.6976733397	0.0054230951
3369.6264807128	0.0053000683
3371.5552880858	0.0052994164
3373.4840954589	0.0053010993
3375.4129028319	0.0052967090
3377.3417102049	0.0053429324
3379.2705175780	0.0053029563
3381.1993249510	0.0053584464
3383.1281323241	0.0052457973
3385.0569396971	0.0052364636
3386.9857470702	0.0053227176
3388.9145544432	0.0052161738
3390.8433618163	0.0051826281
3392.7721691893	0.0051221503
3394.7009765624	0.0051362528
3396.6297839354	0.0051357863
3398.5585913085	0.0050895107
3400.4873986815	0.0051685995
3402.4162060546	0.0051629725
3404.3450134276	0.0051772371
3406.2738208006	0.0051406943
3408.2026281737	0.0050575314
3410.1314355467	0.0050945953
3412.0602429198	0.0051550800
3413.9890502928	0.0050983615
3415.9178576659	0.0049811108
3417.8466650389	0.0050488985
3419.7754724120	0.0050867628
3421.7042797850	0.0050887093
3423.6330871581	0.0051242993
3425.5618945311	0.0050291200
3427.4907019042	0.0049690558
3429.4195092772	0.0049984669
3431.3483166503	0.0049949931
3433.2771240233	0.0050222850
3435.2059313963	0.0050761322
3437.1347387694	0.0049175853
3439.0635461424	0.0049525667
3440.9923535155	0.0050464128
3442.9211608885	0.0048397616
3444.8499682616	0.0048777740
3446.7787756346	0.0048448490
3448.7075830077	0.0048238421
3450.6363903807	0.0049187467
3452.5651977538	0.0048229191
3454.4940051268	0.0049256841
3456.4228124999	0.0049137697
3458.3516198729	0.0048542684
3460.2804272460	0.0049258303
3462.2092346190	0.0048516821
3464.1380419921	0.0048370892
3466.0668493651	0.0048411889
3467.9956567381	0.0048434148
3469.9244641112	0.0048451349
3471.8532714842	0.0047969855
3473.7820788573	0.0047919252
3475.7108862303	0.0048253564
3477.6396936034	0.0049092527
3479.5685009764	0.0049217558
3481.4973083495	0.0048131980
3483.4261157225	0.0047754403
3485.3549230956	0.0047765905
3487.2837304686	0.0047883959
3489.2125378417	0.0048299809
3491.1413452147	0.0048327222
3493.0701525878	0.0048483592
3494.9989599608	0.0047482154
3496.9277673338	0.0047616190
3498.8565747069	0.0048747864
3500.7853820799	0.0047349208
3502.7141894530	0.0047178087
3504.6429968260	0.0047945548
3506.5718041991	0.0048030792
3508.5006115721	0.0047510685
3510.4294189452	0.0046754950
3512.3582263182	0.0047389288
3514.2870336913	0.0047269985
3516.2158410643	0.0047363057
3518.1446484374	0.0047723409
3520.0734558104	0.0047732331
3522.0022631835	0.0048053293
3523.9310705565	0.0047386112
3525.8598779295	0.0046662167
3527.7886853026	0.0046739159
3529.7174926756	0.0047338754
3531.6463000487	0.0047131358
3533.5751074217	0.0047049616
3535.5039147948	0.0046931943
3537.4327221678	0.0046605514
3539.3615295409	0.0047864057
3541.2903369139	0.0047695865
3543.2191442870	0.0046734894
3545.1479516600	0.0046277493
3547.0767590331	0.0045733768
3549.0055664061	0.0046285838
3550.9343737792	0.0046594618
3552.8631811522	0.0046841027
3554.7919885252	0.0046777609
3556.7207958983	0.0047010914
3558.6496032713	0.0047788038
3560.5784106444	0.0045938911
3562.5072180174	0.0044868076
3564.4360253905	0.0046120989
3566.3648327635	0.0043840935
3568.2936401366	0.0042275442
3570.2224475096	0.0045869378
3572.1512548827	0.0046831365
3574.0800622557	0.0045913644
3576.0088696288	0.0046800124
3577.9376770018	0.0045676022
3579.8664843749	0.0045194905
3581.7952917479	0.0046328614
3583.7240991210	0.0046225581
3585.6529064940	0.0044935392
3587.5817138670	0.0043122871
3589.5105212401	0.0044311248
3591.4393286131	0.0046572424
3593.3681359862	0.0045902012
3595.2969433592	0.0045604850
3597.2257507323	0.0045987354
3599.1545581053	0.0045226151
3601.0833654784	0.0045884657
3603.0121728514	0.0046282010
3604.9409802245	0.0045303861
3606.8697875975	0.0045036413
3608.7985949706	0.0043319217
3610.7274023436	0.0043892693
3612.6562097167	0.0044576395
3614.5850170897	0.0043824818
3616.5138244627	0.0046054199
3618.4426318358	0.0042494833
3620.3714392088	0.0041822419
3622.3002465819	0.0045765885
3624.2290539549	0.0044962047
3626.1578613280	0.0046345736
3628.0866687010	0.0040600058
3630.0154760741	0.0037692490
3631.9442834471	0.0045308536
3633.8730908202	0.0045673223
3635.8018981932	0.0044904430
3637.7307055663	0.0045908764
3639.6595129393	0.0045566810
3641.5883203124	0.0044889478
3643.5171276854	0.0044864789
3645.4459350584	0.0045035756
3647.3747424315	0.0041810479
3649.3035498045	0.0038526314
3651.2323571776	0.0039587631
3653.1611645506	0.0046011284
3655.0899719237	0.0044530770
3657.0187792967	0.0041318936
3658.9475866698	0.0046149548
3660.8763940428	0.0045638317
3662.8052014159	0.0045240764
3664.7340087889	0.0044775554
3666.6628161620	0.0045558224
3668.5916235350	0.0043799039
3670.5204309081	0.0037830728
3672.4492382811	0.0043985555
3674.3780456541	0.0040920461
3676.3068530272	0.0035825940
3678.2356604002	0.0043820906
3680.1644677733	0.0043713236
3682.0932751463	0.0044266586
3684.0220825194	0.0045526912
3685.9508898924	0.0043291771
3687.8796972655	0.0040558307
3689.8085046385	0.0038069186
3691.7373120116	0.0041355072
3693.6661193846	0.0042976895
3695.5949267577	0.0044580214
3697.5237341307	0.0044661826
3699.4525415038	0.0043384321
3701.3813488768	0.0043018106
3703.3101562499	0.0042025764
3705.2389636229	0.0044311322
3707.1677709959	0.0042335279
3709.0965783690	0.0041391551
3711.0253857420	0.0039554397
3712.9541931151	0.0037750280
3714.8830004881	0.0042892788
3716.8118078612	0.0041995184
3718.7406152342	0.0042166635
3720.6694226073	0.0041800197
3722.5982299803	0.0040168571
3724.5270373534	0.0042054863
3726.4558447264	0.0040223217
3728.3846520995	0.0040996158
3730.3134594725	0.0040836520
3732.2422668456	0.0039913328
3734.1710742186	0.0038738432
3736.0998815916	0.0036965040
3738.0286889647	0.0038141930
3739.9574963377	0.0040766178
3741.8863037108	0.0042960662
3743.8151110838	0.0034587188
3745.7439184569	0.0033535836
3747.6727258299	0.0040226327
3749.6015332030	0.0035374577
3751.5303405760	0.0034806032
3753.4591479491	0.0037841462
3755.3879553221	0.0040017804
3757.3167626952	0.0041454611
3759.2455700682	0.0038433573
3761.1743774413	0.0040446664
3763.1031848143	0.0041956846
3765.0319921873	0.0039197057
3766.9607995604	0.0040185433
3768.8896069334	0.0039475085
3770.8184143065	0.0038144565
3772.7472216795	0.0040449146
3774.6760290526	0.0040679988
3776.6048364256	0.0040955483
3778.5336437987	0.0040068920
3780.4624511717	0.0039010271
3782.3912585448	0.0040147053
3784.3200659178	0.0039858036
3786.2488732909	0.0040260279
3788.1776806639	0.0040542954
3790.1064880370	0.0039965981
3792.0352954100	0.0038957498
3793.9641027830	0.0040482897
3795.8929101561	0.0039126277
3797.8217175291	0.0038972397
3799.7505249022	0.0040751300
3801.6793322752	0.0033619083
3803.6081396483	0.0037941886
3805.5369470213	0.0039857626
3807.4657543944	0.0034594384
3809.3945617674	0.0040235287
3811.3233691405	0.0039055902
3813.2521765135	0.0039491178
3815.1809838866	0.0036528455
3817.1097912596	0.0034481366
3819.0385986327	0.0039777206
3820.9674060057	0.0034085058
3822.8962133787	0.0035955883
3824.8250207518	0.0039099692
3826.7538281248	0.0036562353
3828.6826354979	0.0038332017
3830.6114428709	0.0037054969
3832.5402502440	0.0036526832
3834.4690576170	0.0037574098
3836.3978649901	0.0036045508
3838.3266723631	0.0033322959
3840.2554797362	0.0035624413
3842.1842871092	0.0036831480
3844.1130944823	0.0035342798
3846.0419018553	0.0038210526
3847.9707092284	0.0038957384
3849.8995166014	0.0037670347
3851.8283239745	0.0033177065
3853.7571313475	0.0027552193
3855.6859387205	0.0031710383
3857.6147460936	0.0037573013
3859.5435534666	0.0035675592
3861.4723608397	0.0036236322
3863.4011682127	0.0036037031
3865.3299755858	0.0033435761
3867.2587829588	0.0036384428
3869.1875903319	0.0033315904
3871.1163977049	0.0032815775
3873.0452050780	0.0036758552
3874.9740124510	0.0034406437
3876.9028198241	0.0037568260
3878.8316271971	0.0037229618
3880.7604345702	0.0033274437
3882.6892419432	0.0036091101
3884.6180493162	0.0034167557
3886.5468566893	0.0032805076
3888.4756640623	0.0036496487
3890.4044714354	0.0034136418
3892.3332788084	0.0032423390
3894.2620861815	0.0035339566
3896.1908935545	0.0035917214
3898.1197009276	0.0035270439
3900.0485083006	0.0033324808
3901.9773156737	0.0032976619
3903.9061230467	0.0032700016
3905.8349304198	0.0033180194
3907.7637377928	0.0036179398
3909.6925451659	0.0034586985
3911.6213525389	0.0034729890
3913.5501599119	0.0035486342
3915.4789672850	0.0033910568
3917.4077746580	0.0034241094
3919.3365820311	0.0034014999
3921.2653894041	0.0034721033
3923.1941967772	0.0034388676
3925.1230041502	0.0033970089
3927.0518115233	0.0034380970
3928.9806188963	0.0034385161
3930.9094262694	0.0033745142
3932.8382336424	0.0032756221
3934.7670410155	0.0034480565
3936.6958483885	0.0034661083
3938.6246557616	0.0034397119
3940.5534631346	0.0034277891
3942.4822705076	0.0033041963
3944.4110778807	0.0033451971
3946.3398852537	0.0033633518
3948.2686926268	0.0033865776
3950.1974999998	0.0033253066
3952.1263073729	0.0033634624
3954.0551147459	0.0034455240
3955.9839221190	0.0033474632
3957.9127294920	0.0033934419
3959.8415368651	0.0033841105
3961.7703442381	0.0033229075
3963.6991516112	0.0033775547
3965.6279589842	0.0033839177
3967.5567663573	0.0032947622
3969.4855737303	0.0032513039
3971.4143811034	0.0032537121
3973.3431884764	0.0032344242
3975.2719958494	0.0032493065
3977.2008032225	0.0032462077
3979.1296105955	0.0032789498
3981.0584179686	0.0032865060
3982.9872253416	0.0032684682
3984.9160327147	0.0031875386
3986.8448400877	0.0031907866
3988.7736474608	0.0032921829
3990.7024548338	0.0031621456
3992.6312622069	0.0031776656
3994.5600695799	0.0031837849
3996.4888769530	0.0032124550
3998.4176843260	0.0033225608
4000.3464916991	0.0031488258
4002.2752990721	0.0032135609
4004.2041064451	0.0032018274
4006.1329138182	0.0031371750
4008.0617211912	0.0032215971
4009.9905285643	0.0031831916
4011.9193359373	0.0032639746
4013.8481433104	0.0031367706
4015.7769506834	0.0031121997
4017.7057580565	0.0031366558
4019.6345654295	0.0030676648
4021.5633728026	0.0032239025
4023.4921801756	0.0031078295
4025.4209875487	0.0030694059
4027.3497949217	0.0031136565
4029.2786022948	0.0030343754
4031.2074096678	0.0031231835
4033.1362170408	0.0031029887
4035.0650244139	0.0030601055
4036.9938317869	0.0030757790
4038.9226391600	0.0030275141
4040.8514465330	0.0030498293
4042.7802539061	0.0031161208
4044.7090612791	0.0030331630
4046.6378686522	0.0030157007
4048.5666760252	0.0030398136
4050.4954833983	0.0029393197
4052.4242907713	0.0030054776
4054.3530981444	0.0030598687
4056.2819055174	0.0029981954
4058.2107128905	0.0030304915
4060.1395202635	0.0031104712
4062.0683276365	0.0030400050
4063.9971350096	0.0029640426
4065.9259423826	0.0029650168
4067.8547497557	0.0029082857
4069.7835571287	0.0029904363
4071.7123645018	0.0029379819
4073.6411718748	0.0028798676
4075.5699792479	0.0029397872
4077.4987866209	0.0028476468
4079.4275939940	0.0029303520
4081.3564013670	0.0029812625
4083.2852087401	0.0028520450
4085.2140161131	0.0028526606
4087.1428234862	0.0029800963
4089.0716308592	0.0029323385
4091.0004382323	0.0027780933
4092.9292456053	0.0027772684
4094.8580529783	0.0028363373
4096.7868603514	0.0028987862
4098.7156677244	0.0028608863
4100.6444750975	0.0029057399
4102.5732824705	0.0029294644
4104.5020898436	0.0028383208
4106.4308972166	0.0028593813
4108.3597045897	0.0029414138
4110.2885119627	0.0029247915
4112.2173193358	0.0027656793
4114.1461267088	0.0028718808
4116.0749340819	0.0028559205
4118.0037414549	0.0027130796
4119.9325488280	0.0028430829
4121.8613562010	0.0027943631
4123.7901635740	0.0027503073
4125.7189709471	0.0028083939
4127.6477783201	0.0028156051
4129.5765856932	0.0027167920
4131.5053930662	0.0027135913
4133.4342004393	0.0027967743
4135.3630078123	0.0027363987
4137.2918151854	0.0027281791
4139.2206225584	0.0026821271
4141.1494299315	0.0026990767
4143.0782373045	0.0026991330
4145.0070446776	0.0027166943
4146.9358520506	0.0027312287
4148.8646594237	0.0027101706
4150.7934667967	0.0028181355
4152.7222741697	0.0027446272
4154.6510815428	0.0027697142
4156.5798889158	0.0027274312
4158.5086962889	0.0026421456
4160.4375036619	0.0027486437
4162.3663110350	0.0027003805
4164.2951184080	0.0026668813
4166.2239257811	0.0026462548
4168.1527331541	0.0026770695
4170.0815405272	0.0026249113
4172.0103479002	0.0025680489
4173.9391552733	0.0025891424
4175.8679626463	0.0025814644
4177.7967700194	0.0026354725
4179.7255773924	0.0026055914
4181.6543847654	0.0026248975
4183.5831921385	0.0025104480
4185.5119995115	0.0025137402
4187.4408068846	0.0026728176
4189.3696142576	0.0025736652
4191.2984216307	0.0025473011
4193.2272290037	0.0025904176
4195.1560363768	0.0025549002
4197.0848437498	0.0025044796
4199.0136511229	0.0026092667
4200.9424584959	0.0025435383
4202.8712658690	0.0024367550
4204.8000732420	0.0025881208
4206.7288806151	0.0025502017
4208.6576879881	0.0024934174
4210.5864953611	0.0024634684
4212.5153027342	0.0024375422
4214.4441101072	0.0024371375
4216.3729174803	0.0024923254
4218.3017248533	0.0025010463
4220.2305322264	0.0024206094
4222.1593395994	0.0025287948
4224.0881469725	0.0024787437
4226.0169543455	0.0024402295
4227.9457617186	0.0024487693
4229.8745690916	0.0024261472
4231.8033764647	0.0024532084
4233.7321838377	0.0023774626
4235.6609912108	0.0024569309
4237.5897985838	0.0024614101
4239.5186059569	0.0024453201
4241.4474133299	0.0023910278
4243.3762207029	0.0023344103
4245.3050280760	0.0024727765
4247.2338354490	0.0024217707
4249.1626428221	0.0023954804
4251.0914501951	0.0023752428
4253.0202575682	0.0023312140
4254.9490649412	0.0023688339
4256.8778723143	0.0023485683
4258.8066796873	0.0023859297
4260.7354870604	0.0023076523
4262.6642944334	0.0022370303
4264.5931018065	0.0023872375
4266.5219091795	0.0023947144
4268.4507165526	0.0022903604
4270.3795239256	0.0023450945
4272.3083312986	0.0023373622
4274.2371386717	0.0022806709
4276.1659460447	0.0023076518
4278.0947534178	0.0023494724
4280.0235607908	0.0023303926
4281.9523681639	0.0022541345
4283.8811755369	0.0023008604
4285.8099829100	0.0023306692
4287.7387902830	0.0023006797
4289.6675976561	0.0022978582
4291.5964050291	0.0023042657
4293.5252124022	0.0022581925
4295.4540197752	0.0022421703
4297.3828271483	0.0023359242
4299.3116345213	0.0022639176
4301.2404418943	0.0022177342
4303.1692492674	0.0022557951
4305.0980566404	0.0022489903
4307.0268640135	0.0022089614
4308.9556713865	0.0022378829
4310.8844787596	0.0023212642
4312.8132861326	0.0021619869
4314.7420935057	0.0021481782
4316.6709008787	0.0021578190
4318.5997082518	0.0021021748
4320.5285156248	0.0021730140
4322.4573229979	0.0021587070
4324.3861303709	0.0021992666
4326.3149377440	0.0021011727
4328.2437451170	0.0021097083
4330.1725524900	0.0021908921
4332.1013598631	0.0021143213
4334.0301672361	0.0021984384
4335.9589746092	0.0022028391
4337.8877819822	0.0021288567
4339.8165893553	0.0021265661
4341.7453967283	0.0021743178
4343.6742041014	0.0021292865
4345.6030114744	0.0020611251
4347.5318188475	0.0021069082
4349.4606262205	0.0020589572
4351.3894335936	0.0019771659
4353.3182409666	0.0020611433
4355.2470483397	0.0022015087
4357.1758557127	0.0020956532
4359.1046630858	0.0020710104
4361.0334704588	0.0021148021
4362.9622778318	0.0020461471
4364.8910852049	0.0020787413
4366.8198925779	0.0020364723
4368.7486999510	0.0020664781
4370.6775073240	0.0020896774
4372.6063146971	0.0020823395
4374.5351220701	0.0020428128
4376.4639294432	0.0019483294
4378.3927368162	0.0020586830
4380.3215441893	0.0020564510
4382.2503515623	0.0020083818
4384.1791589354	0.0019781003
4386.1079663084	0.0019829380
4388.0367736815	0.0020389676
4389.9655810545	0.0019818745
4391.8943884275	0.0020744754
4393.8231958006	0.0020618304
4395.7520031736	0.0019663225
4397.6808105467	0.0020261738
4399.6096179197	0.0020242617
4401.5384252928	0.0020166012
4403.4672326658	0.0020065899
4405.3960400389	0.0019707808
4407.3248474119	0.0019700613
4409.2536547850	0.0019762581
4411.1824621580	0.0019396476
4413.1112695311	0.0019311646
4415.0400769041	0.0019735077
4416.9688842772	0.0019684799
4418.8976916502	0.0019400248
4420.8264990232	0.0019208484
4422.7553063963	0.0018971178
4424.6841137693	0.0019238200
4426.6129211424	0.0019593230
4428.5417285154	0.0019040245
4430.4705358885	0.0018948864
4432.3993432615	0.0019448451
4434.3281506346	0.0019333404
4436.2569580076	0.0018983858
4438.1857653807	0.0019027464
4440.1145727537	0.0018846028
4442.0433801268	0.0018741802
4443.9721874998	0.0019529052
4445.9009948729	0.0019152927
4447.8298022459	0.0019150837
4449.7586096189	0.0019742339
4451.6874169920	0.0018492998
4453.6162243650	0.0018371184
4455.5450317381	0.0019088734
4457.4738391111	0.0018264693
4459.4026464842	0.0018243832
4461.3314538572	0.0019324204
4463.2602612303	0.0018248364
4465.1890686033	0.0017722906
4467.1178759764	0.0018568190
4469.0466833494	0.0017707271
4470.9754907225	0.0017577772
4472.9042980955	0.0017686076
4474.8331054686	0.0018500537
4476.7619128416	0.0019321863
4478.6907202147	0.0017927182
4480.6195275877	0.0017310604
4482.5483349607	0.0017553295
4484.4771423338	0.0018137103
4486.4059497068	0.0017844646
4488.3347570799	0.0017101595
4490.2635644529	0.0017605042
4492.1923718260	0.0018020703
4494.1211791990	0.0017431248
4496.0499865721	0.0017156773
4497.9787939451	0.0017754989
4499.9076013182	0.0016800500
4501.8364086912	0.0016927801
4503.7652160643	0.0017498917
4505.6940234373	0.0017384733
4507.6228308104	0.0018264299
4509.5516381834	0.0017275047
4511.4804455564	0.0016708169
4513.4092529295	0.0016516868
4515.3380603025	0.0017117250
4517.2668676756	0.0017594214
4519.1956750486	0.0016336530
4521.1244824217	0.0017360423
4523.0532897947	0.0016729503
4524.9820971678	0.0016753112
4526.9109045408	0.0018179140
4528.8397119139	0.0016312201
4530.7685192869	0.0016085478
4532.6973266600	0.0017018693
4534.6261340330	0.0016815455
4536.5549414061	0.0016766964
4538.4837487791	0.0017149791
4540.4125561521	0.0016859418
4542.3413635252	0.0016336776
4544.2701708982	0.0016970893
4546.1989782713	0.0017280257
4548.1277856443	0.0016898310
4550.0565930174	0.0016078219
4551.9854003904	0.0016027692
4553.9142077635	0.0015761354
4555.8430151365	0.0015565935
4557.7718225096	0.0016073396
4559.7006298826	0.0015538014
4561.6294372557	0.0016227458
4563.5582446287	0.0016467521
4565.4870520018	0.0015797175
4567.4158593748	0.0015949856
4569.3446667478	0.0015993605
4571.2734741209	0.0016381980
4573.2022814939	0.0016027332
4575.1310888670	0.0015897932
4577.0598962400	0.0015842152
4578.9887036131	0.0015634196
4580.9175109861	0.0015659801
4582.8463183592	0.0015138716
4584.7751257322	0.0015753750
4586.7039331053	0.0015641656
4588.6327404783	0.0015630939
4590.5615478514	0.0016256727
4592.4903552244	0.0014845565
4594.4191625975	0.0015263082
4596.3479699705	0.0016116446
4598.2767773435	0.0015059540
4600.2055847166	0.0015224442
4602.1343920896	0.0014967136
4604.0631994627	0.0015088385
4605.9920068357	0.0015651110
4607.9208142088	0.0014748037
4609.8496215818	0.0015184523
4611.7784289549	0.0015686913
4613.7072363279	0.0014852419
4615.6360437010	0.0014393702
4617.5648510740	0.0015198226
4619.4936584471	0.0015801128
4621.4224658201	0.0014717693
4623.3512731932	0.0014956256
4625.2800805662	0.0015123651
4627.2088879393	0.0014242874
4629.1376953123	0.0014565371
4631.0665026853	0.0014654684
4632.9953100584	0.0014726380
4634.9241174314	0.0014784681
4636.8529248045	0.0014499277
4638.7817321775	0.0014234658
4640.7105395506	0.0014009033
4642.6393469236	0.0014550651
4644.5681542967	0.0015329795
4646.4969616697	0.0014549857
4648.4257690428	0.0013703619
4650.3545764158	0.0014664134
4652.2833837889	0.0014545349
4654.2121911619	0.0014467608
4656.1409985350	0.0014136597
4658.0698059080	0.0013081535
4659.9986132810	0.0014549398
4661.9274206541	0.0014627230
4663.8562280271	0.0014027506
4665.7850354002	0.0014238511
4667.7138427732	0.0013334579
4669.6426501463	0.0013658773
4671.5714575193	0.0013337501
4673.5002648924	0.0012733049
4675.4290722654	0.0013895048
4677.3578796385	0.0014400391
4679.2866870115	0.0013965089
4681.2154943846	0.0013628646
4683.1443017576	0.0013535667
4685.0731091307	0.0013692102
4687.0019165037	0.0013738553
4688.9307238767	0.0013967959
4690.8595312498	0.0014196003
4692.7883386228	0.0013826638
4694.7171459959	0.0013828662
4696.6459533689	0.0013323117
4698.5747607420	0.0012852475
4700.5035681150	0.0013369599
4702.4323754881	0.0013227530
4704.3611828611	0.0013151745
4706.2899902342	0.0013171489
4708.2187976072	0.0013060649
4710.1476049803	0.0012798568
4712.0764123533	0.0013086584
4714.0052197264	0.0013322539
4715.9340270994	0.0012353910
4717.8628344724	0.0012874120
4719.7916418455	0.0013165677
4721.7204492185	0.0013126065
4723.6492565916	0.0013586057
4725.5780639646	0.0012916296
4727.5068713377	0.0013129420
4729.4356787107	0.0012942466
4731.3644860838	0.0013027005
4733.2932934568	0.0013556546
4735.2221008299	0.0012012525
4737.1509082029	0.0011590263
4739.0797155760	0.0012974009
4741.0085229490	0.0013081932
4742.9373303221	0.0012696825
4744.8661376951	0.0013533607
4746.7949450682	0.0013181525
4748.7237524412	0.0012938417
4750.6525598142	0.0013412787
4752.5813671873	0.0012381966
4754.5101745603	0.0013044740
4756.4389819334	0.0012820311
4758.3677893064	0.0011767724
4760.2965966795	0.0012903488
4762.2254040525	0.0012505414
4764.1542114256	0.0012359121
4766.0830187986	0.0012573074
4768.0118261717	0.0012329370
4769.9406335447	0.0012567065
4771.8694409178	0.0011869867
4773.7982482908	0.0011796600
4775.7270556639	0.0011888621
4777.6558630369	0.0012317046
4779.5846704099	0.0012581268
4781.5134777830	0.0012049852
4783.4422851560	0.0012679156
4785.3710925291	0.0012251080
4787.2998999021	0.0011677227
4789.2287072752	0.0012180571
4791.1575146482	0.0011801658
4793.0863220213	0.0011982641
4795.0151293943	0.0012394374
4796.9439367674	0.0011735370
4798.8727441404	0.0011241897
4800.8015515135	0.0011211082
4802.7303588865	0.0011581334
4804.6591662596	0.0011659379
4806.5879736326	0.0011119810
4808.5167810056	0.0011818397
4810.4455883787	0.0011862675
4812.3743957517	0.0011401034
4814.3032031248	0.0012389263
4816.2320104978	0.0011907115
4818.1608178709	0.0011189717
4820.0896252439	0.0011377861
4822.0184326170	0.0011558321
4823.9472399900	0.0011714543
4825.8760473631	0.0011520975
4827.8048547361	0.0011346004
4829.7336621092	0.0010804689
4831.6624694822	0.0011402543
4833.5912768553	0.0011623933
4835.5200842283	0.0011101160
4837.4488916013	0.0011538485
4839.3776989744	0.0011401768
4841.3065063474	0.0010987474
4843.2353137205	0.0011006654
4845.1641210935	0.0011739419
4847.0929284666	0.0011221825
4849.0217358396	0.0011055289
4850.9505432127	0.0011428454
4852.8793505857	0.0010095956
4854.8081579588	0.0010461564
4856.7369653318	0.0010825361
4858.6657727049	0.0010593217
4860.5945800779	0.0010283939
4862.5233874510	0.0010393929
4864.4521948240	0.0011469815
4866.3810021971	0.0010801326
4868.3098095701	0.0010659733
4870.2386169431	0.0009855984
4872.1674243162	0.0010260795
4874.0962316892	0.0012119373
4876.0250390623	0.0010522020
4877.9538464353	0.0010372201
4879.8826538084	0.0011274930
4881.8114611814	0.0011005298
4883.7402685545	0.0011128488
4885.6690759275	0.0010411732
4887.5978833006	0.0010148162
4889.5266906736	0.0010793735
4891.4554980467	0.0011111574
4893.3843054197	0.0010391047
4895.3131127928	0.0009807292
4897.2419201658	0.0010211905
4899.1707275388	0.0009966196
4901.0995349119	0.0009934807
4903.0283422849	0.0010742941
4904.9571496580	0.0010208834
4906.8859570310	0.0009518897
4908.8147644041	0.0010194608
4910.7435717771	0.0010224161
4912.6723791502	0.0009389169
4914.6011865232	0.0009607944
4916.5299938963	0.0009982870
4918.4588012693	0.0009664401
4920.3876086424	0.0010551315
4922.3164160154	0.0010161141
4924.2452233885	0.0009157112
4926.1740307615	0.0009892380
4928.1028381345	0.0009816067
4930.0316455076	0.0010211703
4931.9604528806	0.0010142401
4933.8892602537	0.0010238902
4935.8180676267	0.0010000571
4937.7468749998	0.0008757107
4939.6756823728	0.0010113624
4941.6044897459	0.0009845074
4943.5332971189	0.0009937555
4945.4621044920	0.0010405259
4947.3909118650	0.0008764279
4949.3197192381	0.0009790800
4951.2485266111	0.0009901602
4953.1773339842	0.0009396225
4955.1061413572	0.0009766828
4957.0349487302	0.0009354178
4958.9637561033	0.0009421894
4960.8925634763	0.0009436251
4962.8213708494	0.0009231205
4964.7501782224	0.0008378328
4966.6789855955	0.0008771229
4968.6077929685	0.0009010271
4970.5366003416	0.0008540940
4972.4654077146	0.0009341422
4974.3942150877	0.0009503136
4976.3230224607	0.0009800084
4978.2518298338	0.0009063133
4980.1806372068	0.0008345569
4982.1094445799	0.0009053957
4984.0382519529	0.0008965614
4985.9670593259	0.0009351975
4987.8958666990	0.0009228658
4989.8246740720	0.0009149687
4991.7534814451	0.0009669568
4993.6822888181	0.0009130710
4995.6110961912	0.0009042282
4997.5399035642	0.0009246474
4999.4687109373	0.0009387222
5001.3975183103	0.0009413271
5003.3263256834	0.0009417724
5005.2551330564	0.0009296684
5007.1839404295	0.0008765510
5009.1127478025	0.0009140902
5011.0415551756	0.0008970603
5012.9703625486	0.0008751558
5014.8991699217	0.0009074602
5016.8279772947	0.0008430154
5018.7567846677	0.0008688357
5020.6855920408	0.0009041270
5022.6143994138	0.0008646074
5024.5432067869	0.0008324251
5026.4720141599	0.0008386635
5028.4008215330	0.0008831536
5030.3296289060	0.0008376740
5032.2584362791	0.0008380288
5034.1872436521	0.0008465417
5036.1160510252	0.0008825157
5038.0448583982	0.0009331994
5039.9736657713	0.0007770552
5041.9024731443	0.0008042777
5043.8312805174	0.0009219680
5045.7600878904	0.0008345363
5047.6888952634	0.0008553190
5049.6177026365	0.0008449048
5051.5465100095	0.0008084856
5053.4753173826	0.0008927458
5055.4041247556	0.0008475822
5057.3329321287	0.0008560454
5059.2617395017	0.0009068007
5061.1905468748	0.0008355561
5063.1193542478	0.0008712519
5065.0481616209	0.0008683715
5066.9769689939	0.0007989138
5068.9057763670	0.0007615758
5070.8345837400	0.0007570634
5072.7633911131	0.0008306184
5074.6921984861	0.0008157861
5076.6210058591	0.0007886571
5078.5498132322	0.0007710729
5080.4786206052	0.0007693378
5082.4074279783	0.0008409310
5084.3362353513	0.0008475108
5086.2650427244	0.0008370096
5088.1938500974	0.0008296701
5090.1226574705	0.0007994696
5092.0514648435	0.0007886849
5093.9802722166	0.0008325226
5095.9090795896	0.0007617078
5097.8378869627	0.0007048337
5099.7666943357	0.0008234775
5101.6955017088	0.0007653037
5103.6243090818	0.0007356110
5105.5531164548	0.0007916465
5107.4819238279	0.0007284188
5109.4107312009	0.0007172553
5111.3395385740	0.0007453077
5113.2683459470	0.0007722601
5115.1971533201	0.0007676433
5117.1259606931	0.0008171570
5119.0547680662	0.0007847265
5120.9835754392	0.0007119295
5122.9123828123	0.0007622777
5124.8411901853	0.0006995233
5126.7699975584	0.0007366884
5128.6988049314	0.0008098779
5130.6276123045	0.0007546793
5132.5564196775	0.0007327187
5134.4852270506	0.0006649061
5136.4140344236	0.0006800500
5138.3428417966	0.0007486489
5140.2716491697	0.0007605178
5142.2004565427	0.0007517802
5144.1292639158	0.0007113275
5146.0580712888	0.0007118734
5147.9868786619	0.0006989427
5149.9156860349	0.0006699965
5151.8444934080	0.0007165596
5153.7733007810	0.0007376091
5155.7021081541	0.0006903103
5157.6309155271	0.0007113965
5159.5597229002	0.0007155850
5161.4885302732	0.0006781254
5163.4173376463	0.0007301865
5165.3461450193	0.0007097376
5167.2749523923	0.0006833677
5169.2037597654	0.0007475106
5171.1325671384	0.0006925507
5173.0613745115	0.0006601912
5174.9901818845	0.0007199169
5176.9189892576	0.0007528551
5178.8477966306	0.0007630337
5180.7766040037	0.0006778864
5182.7054113767	0.0006917230
5184.6342187498	0.0007333502
5186.5630261228	0.0006246914
5188.4918334959	0.0006489495
5190.4206408689	0.0006796806
5192.3494482420	0.0006248168
5194.2782556150	0.0006057073
5196.2070629880	0.0006304958
5198.1358703611	0.0007012549
5200.0646777341	0.0006625488
5201.9934851072	0.0006353863
5203.9222924802	0.0007000817
5205.8510998533	0.0007217897
5207.7799072263	0.0006239518
5209.7087145994	0.0005824078
5211.6375219724	0.0006585087
5213.5663293455	0.0006021773
5215.4951367185	0.0006306765
5217.4239440916	0.0006714578
5219.3527514646	0.0006050682
5221.2815588377	0.0006121824
5223.2103662107	0.0006262799
5225.1391735837	0.0006735803
5227.0679809568	0.0006036658
5228.9967883298	0.0005984348
5230.9255957029	0.0006621093
5232.8544030759	0.0006100467
5234.7832104490	0.0006898266
5236.7120178220	0.0006964164
5238.6408251951	0.0006240805
5240.5696325681	0.0006376753
5242.4984399412	0.0006497340
5244.4272473142	0.0005963614
5246.3560546873	0.0005803833
5248.2848620603	0.0006438798
5250.2136694334	0.0005960708
5252.1424768064	0.0006116619
5254.0712841795	0.0006052857
5256.0000915525	0.0005682996
5257.9288989255	0.0006208539
5259.8577062986	0.0006021927
5261.7865136716	0.0006545334
5263.7153210447	0.0006354293
5265.6441284177	0.0006119615
5267.5729357908	0.0006596267
5269.5017431638	0.0005885771
5271.4305505369	0.0005797452
5273.3593579099	0.0005740881
5275.2881652830	0.0005967150
5277.2169726560	0.0006248940
5279.1457800291	0.0005606643
5281.0745874021	0.0005927998
5283.0033947752	0.0005975622
5284.9322021482	0.0005814851
5286.8610095212	0.0006281954
5288.7898168943	0.0005917340
5290.7186242673	0.0005828664
5292.6474316404	0.0005871532
5294.5762390134	0.0005382877
5296.5050463865	0.0005708616
5298.4338537595	0.0006305809
5300.3626611326	0.0005759487
5302.2914685056	0.0005245793
5304.2202758787	0.0006350020
5306.1490832517	0.0005883320
5308.0778906248	0.0005248393
5310.0066979978	0.0006368259
5311.9355053709	0.0005530525
5313.8643127439	0.0005344229
5315.7931201169	0.0005268435
5317.7219274900	0.0005388543
5319.6507348630	0.0006225144
5321.5795422361	0.0005032801
5323.5083496091	0.0005925702
5325.4371569822	0.0006015532
5327.3659643552	0.0005554530
5329.2947717283	0.0006405701
5331.2235791013	0.0004869063
5333.1523864744	0.0005053709
5335.0811938474	0.0005764747
5337.0100012205	0.0005538151
5338.9388085935	0.0005885849
5340.8676159666	0.0005728590
5342.7964233396	0.0005250176
5344.7252307126	0.0004869894
5346.6540380857	0.0005624455
5348.5828454587	0.0005900498
5350.5116528318	0.0006025613
5352.4404602048	0.0005903961
5354.3692675779	0.0004947178
5356.2980749509	0.0004894619
5358.2268823240	0.0005397915
5360.1556896970	0.0005466117
5362.0844970701	0.0004860679
5364.0133044431	0.0005217188
5365.9421118162	0.0005309811
5367.8709191892	0.0005090499
5369.7997265623	0.0005623069
5371.7285339353	0.0005592603
5373.6573413083	0.0005706040
5375.5861486814	0.0005420640
5377.5149560544	0.0005159486
5379.4437634275	0.0005440531
5381.3725708005	0.0005685720
5383.3013781736	0.0005384731
5385.2301855466	0.0005286608
5387.1589929197	0.0005895849
5389.0878002927	0.0005401417
5391.0166076658	0.0005286852
5392.9454150388	0.0005209008
5394.8742224119	0.0004696815
5396.8030297849	0.0005238393
5398.7318371580	0.0005015539
5400.6606445310	0.0004317990
5402.5894519041	0.0005025946
5404.5182592771	0.0005297230
5406.4470666501	0.0004475771
5408.3758740232	0.0004619153
5410.3046813962	0.0004550178
5412.2334887693	0.0004734043
5414.1622961423	0.0005137282
5416.0911035154	0.0004752513
5418.0199108884	0.0004501283
5419.9487182615	0.0004415154
5421.8775256345	0.0005639250
5423.8063330076	0.0005197453
5425.7351403806	0.0004407784
5427.6639477537	0.0005012516
5429.5927551267	0.0004805428
5431.5215624998	0.0005619687
5433.4503698728	0.0005026641
5435.3791772458	0.0004414082
5437.3079846189	0.0004623425
5439.2367919919	0.0004319504
5441.1655993650	0.0004967764
5443.0944067380	0.0004768218
5445.0232141111	0.0004548121
5446.9520214841	0.0004397166
5448.8808288572	0.0004941580
5450.8096362302	0.0004914869
5452.7384436033	0.0003979232
5454.6672509763	0.0004825715
5456.5960583494	0.0004983685
5458.5248657224	0.0003978551
5460.4536730955	0.0003608805
5462.3824804685	0.0005023377
5464.3112878415	0.0005024229
5466.2400952146	0.0003527424
5468.1689025876	0.0003764093
5470.0977099607	0.0004202352
5472.0265173337	0.0004859447
5473.9553247068	0.0004858941
5475.8841320798	0.0004551534
5477.8129394529	0.0003772253
5479.7417468259	0.0003878793
5481.6705541990	0.0005275117
5483.5993615720	0.0004784036
5485.5281689451	0.0004910214
5487.4569763181	0.0004928458
5489.3857836912	0.0004392184
5491.3145910642	0.0003803797
5493.2433984372	0.0003593981
5495.1722058103	0.0004101479
5497.1010131833	0.0003290123
5499.0298205564	0.0004421661
5500.9586279294	0.0004360310
5502.8874353025	0.0003372220
5504.8162426755	0.0004654752
5506.7450500486	0.0003726392
5508.6738574216	0.0003891920
5510.6026647947	0.0004978763
5512.5314721677	0.0004579793
5514.4602795408	0.0004723546
5516.3890869138	0.0003948821
5518.3178942869	0.0003406676
5520.2467016599	0.0004173179
5522.1755090330	0.0004577957
5524.1043164060	0.0004339376
5526.0331237790	0.0004327677
5527.9619311521	0.0003956711
5529.8907385251	0.0003070118
5531.8195458982	0.0003885478
5533.7483532712	0.0004634974
5535.6771606443	0.0003530231
5537.6059680173	0.0003425444
5539.5347753904	0.0003958822
5541.4635827634	0.0004231319
5543.3923901365	0.0004184844
5545.3211975095	0.0003533299
5547.2500048826	0.0003973535
5549.1788122556	0.0003944047
5551.1076196287	0.0003995761
5553.0364270017	0.0004523923
5554.9652343747	0.0004029194
5556.8940417478	0.0004343541
5558.8228491208	0.0003802737
5560.7516564939	0.0003797502
5562.6804638669	0.0004749014
5564.6092712400	0.0003513072
5566.5380786130	0.0002980868
5568.4668859861	0.0003342429
5570.3956933591	0.0003321348
5572.3245007322	0.0003714830
5574.2533081052	0.0004178612
5576.1821154783	0.0003992710
5578.1109228513	0.0003444232
5580.0397302244	0.0003826427
5581.9685375974	0.0004158737
5583.8973449704	0.0004127061
5585.8261523435	0.0004039152
5587.7549597165	0.0003603171
5589.6837670896	0.0003697515
5591.6125744626	0.0003966707
5593.5413818357	0.0003906285
5595.4701892087	0.0003708708
5597.3989965818	0.0003450806
5599.3278039548	0.0003345280
5601.2566113279	0.0003311099
5603.1854187009	0.0003553805
5605.1142260740	0.0003538403
5607.0430334470	0.0003651437
5608.9718408201	0.0004135415
5610.9006481931	0.0002938260
5612.8294555661	0.0002887506
5614.7582629392	0.0004186539
5616.6870703122	0.0003401107
5618.6158776853	0.0003699904
5620.5446850583	0.0004076099
5622.4734924314	0.0003521653
5624.4022998044	0.0003752292
5626.3311071775	0.0003170543
5628.2599145505	0.0003354916
5630.1887219236	0.0003618913
5632.1175292966	0.0003226731
5634.0463366697	0.0003564445
5635.9751440427	0.0003674519
5637.9039514158	0.0003779102
5639.8327587888	0.0003630229
5641.7615661619	0.0003072126
5643.6903735349	0.0003063189
5645.6191809079	0.0003174598
5647.5479882810	0.0002970941
5649.4767956540	0.0003485322
5651.4056030271	0.0003616490
5653.3344104001	0.0002993535
5655.2632177732	0.0003410252
5657.1920251462	0.0003595007
5659.1208325193	0.0003441931
5661.0496398923	0.0003941561
5662.9784472654	0.0003898171
5664.9072546384	0.0003075216
5666.8360620115	0.0003270985
5668.7648693845	0.0003441718
5670.6936767576	0.0002942815
5672.6224841306	0.0004016924
5674.5512915036	0.0003624951
5676.4800988767	0.0002783042
5678.4089062497	0.0003998287
5680.3377136228	0.0003246104
5682.2665209958	0.0002709486
5684.1953283689	0.0003770247
5686.1241357419	0.0003146327
5688.0529431150	0.0002777947
5689.9817504880	0.0003540410
5691.9105578611	0.0003178842
5693.8393652341	0.0002644095
5695.7681726072	0.0002655230
5697.6969799802	0.0002810247
5699.6257873533	0.0002882664
5701.5545947263	0.0002882673
5703.4834020993	0.0003352810
5705.4122094724	0.0002733541
5707.3410168454	0.0002618317
5709.2698242185	0.0003231680
5711.1986315915	0.0003174327
5713.1274389646	0.0003917313
5715.0562463376	0.0003456129
5716.9850537107	0.0002731982
5718.9138610837	0.0002601311
5720.8426684568	0.0002517666
5722.7714758298	0.0002863938
5724.7002832029	0.0002654054
5726.6290905759	0.0003436404
5728.5578979490	0.0003442548
5730.4867053220	0.0002933602
5732.4155126950	0.0003514401
5734.3443200681	0.0003140039
5736.2731274411	0.0002748467
5738.2019348142	0.0002606217
5740.1307421872	0.0002447099
5742.0595495603	0.0002752286
5743.9883569333	0.0002837608
5745.9171643064	0.0002488485
5747.8459716794	0.0003288320
5749.7747790525	0.0003630949
5751.7035864255	0.0002669655
5753.6323937986	0.0002936992
5755.5612011716	0.0002380085
5757.4900085447	0.0002278874
5759.4188159177	0.0002765980
5761.3476232907	0.0002267006
5763.2764306638	0.0003495346
5765.2052380368	0.0003497641
5767.1340454099	0.0002469330
5769.0628527829	0.0002581280
5770.9916601560	0.0002118983
5772.9204675290	0.0002650711
5774.8492749021	0.0003430789
5776.7780822751	0.0002806658
5778.7068896482	0.0002282056
5780.6356970212	0.0002204971
5782.5645043943	0.0002522480
5784.4933117673	0.0003128002
5786.4221191404	0.0002755789
5788.3509265134	0.0002331368
5790.2797338865	0.0002830155
5792.2085412595	0.0002897531
5794.1373486325	0.0002770304
5796.0661560056	0.0002698730
5797.9949633786	0.0002172241
5799.9237707517	0.0002413939
5801.8525781247	0.0003130643
5803.7813854978	0.0002747492
5805.7101928708	0.0002435241
5807.6390002439	0.0002326945
5809.5678076169	0.0002449227
5811.4966149900	0.0003225362
5813.4254223630	0.0002955060
5815.3542297361	0.0002730772
5817.2830371091	0.0002731811
5819.2118444822	0.0002635953
5821.1406518552	0.0003235741
5823.0694592282	0.0002429986
5824.9982666013	0.0001606998
5826.9270739743	0.0002535062
5828.8558813474	0.0003087811
5830.7846887204	0.0002903431
5832.7134960935	0.0002627726
5834.6423034665	0.0002611264
5836.5711108396	0.0002818795
5838.4999182126	0.0002724789
5840.4287255857	0.0002388713
5842.3575329587	0.0002270781
5844.2863403318	0.0002578252
5846.2151477048	0.0002641255
5848.1439550779	0.0002389190
5850.0727624509	0.0002567903
5852.0015698239	0.0003041538
5853.9303771970	0.0002559675
5855.8591845700	0.0002036874
5857.7879919431	0.0002770102
5859.7167993161	0.0002281551
5861.6456066892	0.0001833864
5863.5744140622	0.0002248305
5865.5032214353	0.0001638066
5867.4320288083	0.0002149714
5869.3608361814	0.0002467091
5871.2896435544	0.0002402188
5873.2184509275	0.0002258810
5875.1472583005	0.0002006907
5877.0760656736	0.0003036177
5879.0048730466	0.0002343514
5880.9336804196	0.0002677669
5882.8624877927	0.0002806225
5884.7912951657	0.0001653826
5886.7201025388	0.0002845919
5888.6489099118	0.0002130325
5890.5777172849	0.0002228871
5892.5065246579	0.0002861767
5894.4353320310	0.0001823389
5896.3641394040	0.0002138668
5898.2929467771	0.0001840105
5900.2217541501	0.0002277160
5902.1505615232	0.0002921203
5904.0793688962	0.0002787222
5906.0081762693	0.0002465684
5907.9369836423	0.0002257057
5909.8657910154	0.0002972453
5911.7945983884	0.0002651007
5913.7234057614	0.0002434663
5915.6522131345	0.0002276876
5917.5810205075	0.0002032073
5919.5098278806	0.0002197104
5921.4386352536	0.0001698030
5923.3674426267	0.0001937119
5925.2962499997	0.0002516786
5927.2250573728	0.0002083666
5929.1538647458	0.0001769933
5931.0826721189	0.0002422778
5933.0114794919	0.0001873659
5934.9402868650	0.0001466989
5936.8690942380	0.0002450807
5938.7979016111	0.0002368426
5940.7267089841	0.0002489762
5942.6555163571	0.0002842059
5944.5843237302	0.0002069199
5946.5131311032	0.0001210992
5948.4419384763	0.0002049438
5950.3707458493	0.0002549122
5952.2995532224	0.0001474628
5954.2283605954	0.0001859817
5956.1571679685	0.0002051319
5958.0859753415	0.0001656244
5960.0147827146	0.0002209070
5961.9435900876	0.0002160572
5963.8723974607	0.0001642135
5965.8012048337	0.0001597210
5967.7300122068	0.0002227756
5969.6588195798	0.0002813627
5971.5876269528	0.0002409326
5973.5164343259	0.0002093559
5975.4452416989	0.0002070605
5977.3740490720	0.0001778158
5979.3028564450	0.0002681916
5981.2316638181	0.0002437025
5983.1604711911	0.0001356614
5985.0892785642	0.0002256019
5987.0180859372	0.0001954911
5988.9468933103	0.0001592980
5990.8757006833	0.0001880369
5992.8045080564	0.0001563064
5994.7333154294	0.0002197219
5996.6621228025	0.0002171142
5998.5909301755	0.0001821563
6000.5197375485	0.0002179960
