399.2631262207	0.0015573596
401.1919335938	0.0016512114
403.1207409668	0.0016950137
405.0495483398	0.0018848662
406.9783557129	0.0022739300
408.9071630859	0.0024057638
410.8359704590	0.0028053327
412.7647778320	0.0020017924
414.6935852051	0.0020352239
416.6223925781	0.0022148138
418.5511999512	0.0023873714
420.4800073242	0.0030016964
422.4088146973	0.0025261538
424.3376220703	0.0029980200
426.2664294434	0.0027168205
428.1952368164	0.0026831464
430.1240441895	0.0029106599
432.0528515625	0.0023338543
433.9816589355	0.0027332164
435.9104663086	0.0026156362
437.8392736816	0.0025548262
439.7680810547	0.0024587419
441.6968884277	0.0024802531
443.6256958008	0.0022928133
445.5545031738	0.0020819337
447.4833105469	0.0025279806
449.4121179199	0.0020132065
451.3409252930	0.0019796917
453.2697326660	0.0019573015
455.1985400391	0.0016433592
457.1273474121	0.0017201898
459.0561547852	0.0015899281
460.9849621582	0.0015679006
462.9137695313	0.0012382210
464.8425769043	0.0009564145
466.7713842773	0.0010876496
468.7001916504	0.0011644225
470.6289990234	0.0009684765
472.5578063965	0.0010393034
474.4866137695	0.0008267519
476.4154211426	0.0006970622
478.3442285156	0.0009531883
480.2730358887	0.0005603025
482.2018432617	0.0008121434
484.1306506348	0.0009451292
486.0594580078	0.0006819457
487.9882653809	0.0006415846
489.9170727539	0.0005152207
491.8458801270	0.0008875623
493.7746875000	0.0007341885
495.7034948730	0.0005397027
497.6323022461	0.0007302794
499.5611096191	0.0006080911
501.4899169922	0.0008330516
503.4187243652	0.0009478611
505.3475317383	0.0006150081
507.2763391113	0.0005307785
509.2051464844	0.0007862962
511.1339538574	0.0004911607
513.0627612305	0.0002909091
514.9915686035	0.0008168847
516.9203759766	0.0005162710
518.8491833496	0.0006692150
520.7779907227	0.0012658176
522.7067980957	0.0004119026
524.6356054688	0.0002078090
526.5644128418	0.0007119885
528.4932202148	0.0005565231
530.4220275879	0.0004401365
532.3508349609	0.0003102681
534.2796423340	0.0005547932
536.2084497070	0.0008154960
538.1372570801	0.0007195210
540.0660644531	0.0005125533
541.9948718262	0.0001601950
543.9236791992	0.0002979873
545.8524865723	0.0004216055
547.7812939453	0.0004761792
549.7101013184	0.0004466553
551.6389086914	0.0004666045
553.5677160645	0.0008229911
555.4965234375	0.0004243396
557.4253308105	0.0003825852
559.3541381836	0.0007174155
561.2829455566	0.0003264326
563.2117529297	0.0002311264
565.1405603027	0.0006173191
567.0693676758	0.0005602912
568.9981750488	0.0001426314
570.9269824219	0.0004927625
572.8557897949	0.0004778128
574.7845971680	0.0000957298
576.7134045410	0.0004881397
578.6422119141	0.0004736280
580.5710192871	0.0004628528
582.4998266602	0.0008290558
584.4286340332	0.0008834433
586.3574414063	0.0007029856
588.2862487793	0.0005677784
590.2150561523	0.0006311717
592.1438635254	0.0005181267
594.0726708984	0.0003396337
596.0014782715	0.0005533583
597.9302856445	0.0007748168
599.8590930176	0.0002855808
601.7879003906	0.0002026645
603.7167077637	0.0006773430
605.6455151367	0.0006723209
607.5743225098	0.0007403776
609.5031298828	0.0003750699
611.4319372559	0.0000975209
613.3607446289	0.0006711736
615.2895520020	0.0006435594
617.2183593750	0.0002998735
619.1471667480	0.0005321795
621.0759741211	0.0003737889
623.0047814941	0.0002871049
624.9335888672	0.0003616177
626.8623962402	0.0001774443
628.7912036133	0.0000137580
630.7200109863	0.0003995832
632.6488183594	0.0015903604
634.5776257324	0.0016655151
636.5064331055	0.0016329848
638.4352404785	0.0016773592
640.3640478516	0.0018633744
642.2928552246	0.0025361676
644.2216625977	0.0022096874
646.1504699707	0.0026799086
648.0792773438	0.0026197438
650.0080847168	0.0025582244
651.9368920898	0.0035311200
653.8656994629	0.0033622936
655.7945068359	0.0033594221
657.7233142090	0.0034888294
659.6521215820	0.0036442077
661.5809289551	0.0036475619
663.5097363281	0.0038838568
665.4385437012	0.0043868315
667.3673510742	0.0037629034
669.2961584473	0.0041675009
671.2249658203	0.0047942651
673.1537731934	0.0045406586
675.0825805664	0.0050468347
677.0113879395	0.0052780686
678.9401953125	0.0052289488
680.8690026855	0.0053205723
682.7978100586	0.0050073015
684.7266174316	0.0049046660
686.6554248047	0.0051525128
688.5842321777	0.0053069061
690.5130395508	0.0052646557
692.4418469238	0.0055044023
694.3706542969	0.0060886005
696.2994616699	0.0066309106
698.2282690430	0.0078426953
700.1570764160	0.0085724555
702.0858837891	0.0078744898
704.0146911621	0.0072751641
705.9434985352	0.0064889300
707.8723059082	0.0055335816
709.8011132813	0.0046098819
711.7299206543	0.0031435636
713.6587280273	0.0019924501
715.5875354004	0.0012039823
717.5163427734	0.0005871211
719.4451501465	0.0005685883
721.3739575195	0.0005035435
723.3027648926	0.0003858518
725.2315722656	0.0005682852
727.1603796387	0.0003041961
729.0891870117	0.0001657371
731.0179943848	0.0004055754
732.9468017578	0.0003884909
734.8756091309	0.0005524267
736.8044165039	0.0003686785
738.7332238770	0.0002961119
740.6620312500	0.0004181739
742.5908386230	-0.0000655717
744.5196459961	0.0001215085
746.4484533691	0.0003323045
748.3772607422	0.0003007194
750.3060681152	0.0005441189
752.2348754883	0.0002345179
754.1636828613	0.0003946655
756.0924902344	0.0006283280
758.0212976074	0.0004204572
759.9501049805	0.0006847900
761.8789123535	0.0006682592
763.8077197266	0.0005382987
765.7365270996	0.0005498286
767.6653344727	0.0002466490
769.5941418457	0.0004422906
771.5229492188	0.0007756392
773.4517565918	0.0006584013
775.3805639648	0.0005934598
777.3093713379	0.0005678577
779.2381787109	0.0005151979
781.1669860840	0.0005207008
783.0957934570	0.0008827689
785.0246008301	0.0006854013
786.9534082031	0.0003693384
788.8822155762	0.0007789982
790.8110229492	0.0005672093
792.7398303223	0.0005813282
794.6686376953	0.0007551243
796.5974450684	0.0008115745
798.5262524414	0.0013595400
800.4550598145	0.0011925222
802.3838671875	0.0008079652
804.3126745605	0.0007626165
806.2414819336	0.0006773748
808.1702893066	0.0004861506
810.0990966797	0.0004632683
812.0279040527	0.0006530178
813.9567114258	0.0006235666
815.8855187988	0.0006046889
817.8143261719	0.0004988230
819.7431335449	0.0006650005
821.6719409180	0.0005807275
823.6007482910	0.0003754159
825.5295556641	0.0008525023
827.4583630371	0.0008664670
829.3871704102	0.0010546742
831.3159777832	0.0012168419
833.2447851563	0.0012285636
835.1735925293	0.0018004929
837.1023999023	0.0016667033
839.0312072754	0.0017062357
840.9600146484	0.0016762848
842.8888220215	0.0013299685
844.8176293945	0.0016965509
846.7464367676	0.0012615749
848.6752441406	0.0010425084
850.6040515137	0.0013720924
852.5328588867	0.0009367497
854.4616662598	0.0009980029
856.3904736328	0.0009304816
858.3192810059	0.0007624986
860.2480883789	0.0010681020
862.1768957520	0.0006132824
864.1057031250	0.0001586833
866.0345104980	0.0002427049
867.9633178711	0.0004778956
869.8921252441	0.0005651859
871.8209326172	0.0006444731
873.7497399902	0.0007787657
875.6785473633	0.0003125950
877.6073547363	0.0003203256
879.5361621094	0.0005912161
881.4649694824	0.0004685532
883.3937768555	0.0006959806
885.3225842285	0.0007512785
887.2513916016	0.0005675445
889.1801989746	0.0004537552
891.1090063477	0.0005281225
893.0378137207	0.0004445927
894.9666210938	0.0004854675
896.8954284668	0.0005958824
898.8242358398	0.0002483040
900.7530432129	0.0004665598
902.6818505859	0.0006357499
904.6106579590	0.0005042286
906.5394653320	0.0005068533
908.4682727051	0.0006124707
910.3970800781	0.0008286714
912.3258874512	0.0007448357
914.2546948242	0.0009017276
916.1835021973	0.0011417177
918.1123095703	0.0011425971
920.0411169434	0.0011305896
921.9699243164	0.0013118297
923.8987316895	0.0013922288
925.8275390625	0.0016269282
927.7563464355	0.0017874585
929.6851538086	0.0015691819
931.6139611816	0.0020443993
933.5427685547	0.0022526025
935.4715759277	0.0023132907
937.4003833008	0.0023769864
939.3291906738	0.0024939191
941.2579980469	0.0028404505
943.1868054199	0.0024167993
945.1156127930	0.0027688772
947.0444201660	0.0028031860
948.9732275391	0.0022871764
950.9020349121	0.0024476410
952.8308422852	0.0022908743
954.7596496582	0.0023136477
956.6884570313	0.0023363379
958.6172644043	0.0025710384
960.5460717773	0.0027092069
962.4748791504	0.0025793170
964.4036865234	0.0026061842
966.3324938965	0.0025996370
968.2613012695	0.0026940308
970.1901086426	0.0026993877
972.1189160156	0.0030339030
974.0477233887	0.0031678574
975.9765307617	0.0035467236
977.9053381348	0.0040537454
979.8341455078	0.0040310919
981.7629528809	0.0044067912
983.6917602539	0.0047601135
985.6205676270	0.0053015212
987.5493750000	0.0060546095
989.4781823730	0.0068907882
991.4069897461	0.0075712171
993.3357971191	0.0080952812
995.2646044922	0.0090160985
997.1934118652	0.0094863046
999.1222192383	0.0101192696
1001.0510266113	0.0111434152
1002.9798339844	0.0119666457
1004.9086413574	0.0129012223
1006.8374487305	0.0136859268
1008.7662561035	0.0145239774
1010.6950634766	0.0153697785
1012.6238708496	0.0158760920
1014.5526782227	0.0168227591
1016.4814855957	0.0176899564
1018.4102929688	0.0181817524
1020.3391003418	0.0193760376
1022.2679077148	0.0201730635
1024.1967150879	0.0209580120
1026.1255224609	0.0220914707
1028.0543298340	0.0225689597
1029.9831372070	0.0231737904
1031.9119445801	0.0237521045
1033.8407519531	0.0244479664
1035.7695593262	0.0247544162
1037.6983666992	0.0248514861
1039.6271740723	0.0251975916
1041.5559814453	0.0249768160
1043.4847888184	0.0250274651
1045.4135961914	0.0246287659
1047.3424035645	0.0240699463
1049.2712109375	0.0237956196
1051.2000183105	0.0231382269
1053.1288256836	0.0230885223
1055.0576330566	0.0227574408
1056.9864404297	0.0219420027
1058.9152478027	0.0213563070
1060.8440551758	0.0207133330
1062.7728625488	0.0202300958
1064.7016699219	0.0196803771
1066.6304772949	0.0189191904
1068.5592846680	0.0182099752
1070.4880920410	0.0174759533
1072.4168994141	0.0164684430
1074.3457067871	0.0156254247
1076.2745141602	0.0151770171
1078.2033215332	0.0143005829
1080.1321289062	0.0134070497
1082.0609362793	0.0130251013
1083.9897436523	0.0123887016
1085.9185510254	0.0119133163
1087.8473583984	0.0114926063
1089.7761657715	0.0108019225
1091.7049731445	0.0103818290
1093.6337805176	0.0098193167
1095.5625878906	0.0094658434
1097.4913952637	0.0093013952
1099.4202026367	0.0089831855
1101.3490100098	0.0087976065
1103.2778173828	0.0085274940
1105.2066247559	0.0084138541
1107.1354321289	0.0084516695
1109.0642395019	0.0082847979
1110.9930468750	0.0080773197
1112.9218542480	0.0079360735
1114.8506616211	0.0076197209
1116.7794689941	0.0077124769
1118.7082763672	0.0080080591
1120.6370837402	0.0078624599
1122.5658911133	0.0078767044
1124.4946984863	0.0077868896
1126.4235058594	0.0078573767
1128.3523132324	0.0082025621
1130.2811206055	0.0084831836
1132.2099279785	0.0087852245
1134.1387353516	0.0088493992
1136.0675427246	0.0092767775
1137.9963500977	0.0098716002
1139.9251574707	0.0102956910
1141.8539648437	0.0111469747
1143.7827722168	0.0119723324
1145.7115795898	0.0124277454
1147.6403869629	0.0132717565
1149.5691943359	0.0140892789
1151.4980017090	0.0145936534
1153.4268090820	0.0155251520
1155.3556164551	0.0162022412
1157.2844238281	0.0165723879
1159.2132312012	0.0173707437
1161.1420385742	0.0182333067
1163.0708459473	0.0187423434
1164.9996533203	0.0194137339
1166.9284606934	0.0201822557
1168.8572680664	0.0207965896
1170.7860754394	0.0216680132
1172.7148828125	0.0224652980
1174.6436901855	0.0234866012
1176.5724975586	0.0243156254
1178.5013049316	0.0249550156
1180.4301123047	0.0260754395
1182.3589196777	0.0270978212
1184.2877270508	0.0281822290
1186.2165344238	0.0293617994
1188.1453417969	0.0308775883
1190.0741491699	0.0323419571
1192.0029565430	0.0336657017
1193.9317639160	0.0353269689
1195.8605712891	0.0369654000
1197.7893786621	0.0385687873
1199.7181860351	0.0401038080
1201.6469934082	0.0420364514
1203.5758007812	0.0438844636
1205.5046081543	0.0455787852
1207.4334155273	0.0473070182
1209.3622229004	0.0488322079
1211.2910302734	0.0503983274
1213.2198376465	0.0516250022
1215.1486450195	0.0530266464
1217.0774523926	0.0543289110
1219.0062597656	0.0551964343
1220.9350671387	0.0559217706
1222.8638745117	0.0566752478
1224.7926818848	0.0572796315
1226.7214892578	0.0574915409
1228.6502966308	0.0580028370
1230.5791040039	0.0581487752
1232.5079113769	0.0580701120
1234.4367187500	0.0582904816
1236.3655261230	0.0582634583
1238.2943334961	0.0580338202
1240.2231408691	0.0580436885
1242.1519482422	0.0578210726
1244.0807556152	0.0572744794
1246.0095629883	0.0571303144
1247.9383703613	0.0566793680
1249.8671777344	0.0565569438
1251.7959851074	0.0561467782
1253.7247924805	0.0553670153
1255.6535998535	0.0549793690
1257.5824072266	0.0538973957
1259.5112145996	0.0531986505
1261.4400219726	0.0523404181
1263.3688293457	0.0515183434
1265.2976367187	0.0510728434
1267.2264440918	0.0503180139
1269.1552514648	0.0496898629
1271.0840588379	0.0488247052
1273.0128662109	0.0480702966
1274.9416735840	0.0470349863
1276.8704809570	0.0462787002
1278.7992883301	0.0453645959
1280.7280957031	0.0442097038
1282.6569030762	0.0435640961
1284.5857104492	0.0426286906
1286.5145178223	0.0419148915
1288.4433251953	0.0411568061
1290.3721325683	0.0406694822
1292.3009399414	0.0402971581
1294.2297473144	0.0400991887
1296.1585546875	0.0398741812
1298.0873620605	0.0395310223
1300.0161694336	0.0398479626
1301.9449768066	0.0398407131
1303.8737841797	0.0403416380
1305.8025915527	0.0407311171
1307.7313989258	0.0410609543
1309.6602062988	0.0419068113
1311.5890136719	0.0425411537
1313.5178210449	0.0433707088
1315.4466284180	0.0443096608
1317.3754357910	0.0456317440
1319.3042431640	0.0465283990
1321.2330505371	0.0480383560
1323.1618579101	0.0496415086
1325.0906652832	0.0509077087
1327.0194726562	0.0527312420
1328.9482800293	0.0536505133
1330.8770874023	0.0550619736
1332.8058947754	0.0565121733
1334.7347021484	0.0574903414
1336.6635095215	0.0581815951
1338.5923168945	0.0580114648
1340.5211242676	0.0589217544
1342.4499316406	0.0606019422
1344.3787390137	0.0610894486
1346.3075463867	0.0610313192
1348.2363537597	0.0609366409
1350.1651611328	0.0605096854
1352.0939685058	0.0605718046
1354.0227758789	0.0597121418
1355.9515832519	0.0591784269
1357.8803906250	0.0591981858
1359.8091979980	0.0581615493
1361.7380053711	0.0563535541
1363.6668127441	0.0551665425
1365.5956201172	0.0572252907
1367.5244274902	0.0562733114
1369.4532348633	0.0554395169
1371.3820422363	0.0565492809
1373.3108496094	0.0537566133
1375.2396569824	0.0542014986
1377.1684643555	0.0549956486
1379.0972717285	0.0547286421
1381.0260791015	0.0551390201
1382.9548864746	0.0546315275
1384.8836938476	0.0549046434
1386.8125012207	0.0528055727
1388.7413085937	0.0534068570
1390.6701159668	0.0572564602
1392.5989233398	0.0563737899
1394.5277307129	0.0534409434
1396.4565380859	0.0554281101
1398.3853454590	0.0555968061
1400.3141528320	0.0551088974
1402.2429602051	0.0586883090
1404.1717675781	0.0560875759
1406.1005749512	0.0564325973
1408.0293823242	0.0581371412
1409.9581896972	0.0564170107
1411.8869970703	0.0574776754
1413.8158044433	0.0553233474
1415.7446118164	0.0560093224
1417.6734191894	0.0518079773
1419.6022265625	0.0472390056
1421.5310339355	0.0523493588
1423.4598413086	0.0510770641
1425.3886486816	0.0493805185
1427.3174560547	0.0496576652
1429.2462634277	0.0466717854
1431.1750708008	0.0449958444
1433.1038781738	0.0453499779
1435.0326855469	0.0418715253
1436.9614929199	0.0364930630
1438.8903002929	0.0398839787
1440.8191076660	0.0405520797
1442.7479150390	0.0381462798
1444.6767224121	0.0392506942
1446.6055297851	0.0366336145
1448.5343371582	0.0368053764
1450.4631445312	0.0380290113
1452.3919519043	0.0388156474
1454.3207592773	0.0402190462
1456.2495666504	0.0349948332
1458.1783740234	0.0363840871
1460.1071813965	0.0462744683
1462.0359887695	0.0489654951
1463.9647961426	0.0493749827
1465.8936035156	0.0517669171
1467.8224108886	0.0578530952
1469.7512182617	0.0621101186
1471.6800256347	0.0573791787
1473.6088330078	0.0602693334
1475.5376403808	0.0677510649
1477.4664477539	0.0725919381
1479.3952551269	0.0787240267
1481.3240625000	0.0807325095
1483.2528698730	0.0853103697
1485.1816772461	0.0881178677
1487.1104846191	0.0879688561
1489.0392919922	0.0883730203
1490.9680993652	0.0893623531
1492.8969067383	0.1009741873
1494.8257141113	0.0997110456
1496.7545214843	0.0918874517
1498.6833288574	0.1020616591
1500.6121362304	0.1048797369
1502.5409436035	0.1111713201
1504.4697509765	0.1071496606
1506.3985583496	0.0832920447
1508.3273657226	0.0977678597
1510.2561730957	0.1117869243
1512.1849804687	0.1085499823
1514.1137878418	0.1160336137
1516.0425952148	0.1071202382
1517.9714025879	0.1112023517
1519.9002099609	0.1078406423
1521.8290173340	0.0963224322
1523.7578247070	0.1131468564
1525.6866320801	0.1117239147
1527.6154394531	0.1113672107
1529.5442468261	0.1205075681
1531.4730541992	0.1172666699
1533.4018615722	0.1093008816
1535.3306689453	0.1140080169
1537.2594763183	0.1208453327
1539.1882836914	0.0926578119
1541.1170910644	0.0954845250
1543.0458984375	0.1108934656
1544.9747058105	0.1069725677
1546.9035131836	0.1222797409
1548.8323205566	0.1161353141
1550.7611279297	0.1189676374
1552.6899353027	0.1184561774
1554.6187426758	0.1093915403
1556.5475500488	0.1158659607
1558.4763574218	0.0883886367
1560.4051647949	0.0925948322
1562.3339721679	0.1230273843
1564.2627795410	0.1181248128
1566.1915869140	0.1202665865
1568.1203942871	0.1195813119
1570.0492016601	0.1087147743
1571.9780090332	0.1212937385
1573.9068164062	0.1231138110
1575.8356237793	0.1015928686
1577.7644311523	0.1116583347
1579.6932385254	0.1242383793
1581.6220458984	0.1193040162
1583.5508532715	0.1219531819
1585.4796606445	0.1203138828
1587.4084680175	0.1211988628
1589.3372753906	0.1203474551
1591.2660827636	0.1200895905
1593.1948901367	0.1205521375
1595.1236975097	0.1191544309
1597.0525048828	0.1207411736
1598.9813122558	0.1197648346
1600.9101196289	0.1206396818
1602.8389270019	0.1187724173
1604.7677343750	0.1202685237
1606.6965417480	0.1193019599
1608.6253491211	0.1187530458
1610.5541564941	0.1187585071
1612.4829638672	0.1189905331
1614.4117712402	0.1207247972
1616.3405786132	0.1024445966
1618.2693859863	0.1089559644
1620.1981933593	0.1239348426
1622.1270007324	0.1124076173
1624.0558081054	0.1129468828
1625.9846154785	0.1168127060
1627.9134228515	0.1169213802
1629.8422302246	0.1159989163
1631.7710375976	0.1221845523
1633.6998449707	0.1151683331
1635.6286523437	0.0983536541
1637.5574597168	0.1112931296
1639.4862670898	0.1200683340
1641.4150744629	0.1176039949
1643.3438818359	0.1200639307
1645.2726892090	0.1105570197
1647.2014965820	0.1001219079
1649.1303039550	0.1188305914
1651.0591113281	0.1141685396
1652.9879187011	0.0800106227
1654.9167260742	0.1015581340
1656.8455334472	0.1228748709
1658.7743408203	0.1178036854
1660.7031481933	0.1213268414
1662.6319555664	0.1122637391
1664.5607629394	0.1167742461
1666.4895703125	0.1239282042
1668.4183776855	0.1115433499
1670.3471850586	0.1088548154
1672.2759924316	0.1200178042
1674.2047998047	0.1128933579
1676.1336071777	0.1088558435
1678.0624145507	0.1219163835
1679.9912219238	0.1181304157
1681.9200292968	0.1176882833
1683.8488366699	0.0998216271
1685.7776440429	0.0977201536
1687.7064514160	0.1272457689
1689.6352587890	0.1134494692
1691.5640661621	0.1216232926
1693.4928735351	0.1244622022
1695.4216809082	0.0961261690
1697.3504882812	0.1135817170
1699.2792956543	0.1035889909
1701.2081030273	0.0942578316
1703.1369104004	0.1209657490
1705.0657177734	0.1132331938
1706.9945251464	0.1131639928
1708.9233325195	0.1213822216
1710.8521398925	0.1171708778
1712.7809472656	0.1190037504
1714.7097546386	0.1122077107
1716.6385620117	0.1023932472
1718.5673693847	0.1009327620
1720.4961767578	0.1156513244
1722.4249841308	0.1192030311
1724.3537915039	0.1119916067
1726.2825988769	0.1197072268
1728.2114062500	0.1121587008
1730.1402136230	0.1130124927
1732.0690209961	0.1106011942
1733.9978283691	0.0887964889
1735.9266357421	0.1049958020
1737.8554431152	0.1145743802
1739.7842504882	0.1042758897
1741.7130578613	0.1116537899
1743.6418652343	0.1135875732
1745.5706726074	0.1134772152
1747.4994799804	0.1146399379
1749.4282873535	0.1109577492
1751.3570947265	0.1066963226
1753.2859020996	0.1158020794
1755.2147094726	0.1204558760
1757.1435168457	0.1119991988
1759.0723242187	0.1205153912
1761.0011315918	0.1150580719
1762.9299389648	0.1115594804
1764.8587463379	0.1240357310
1766.7875537109	0.1143655181
1768.7163610839	0.1149652377
1770.6451684570	0.1146110892
1772.5739758300	0.1050639972
1774.5027832031	0.1144922003
1776.4315905761	0.1199561357
1778.3603979492	0.1183524430
1780.2892053222	0.1173156500
1782.2180126953	0.1178969666
1784.1468200683	0.1178451926
1786.0756274414	0.1158891022
1788.0044348144	0.1205212995
1789.9332421875	0.1185552180
1791.8620495605	0.1093450785
1793.7908569336	0.1128631532
1795.7196643066	0.1194464415
1797.6484716796	0.1180211082
1799.5772790527	0.1168591082
1801.5060864257	0.1151635200
1803.4348937988	0.1178562343
1805.3637011718	0.1200690418
1807.2925085449	0.1186389923
1809.2213159179	0.1190576628
1811.1501232910	0.1165517569
1813.0789306640	0.1193266064
1815.0077380371	0.1198262274
1816.9365454101	0.1186643988
1818.8653527832	0.1194593012
1820.7941601562	0.1188704520
1822.7229675293	0.1205256283
1824.6517749023	0.1143910587
1826.5805822753	0.1174296737
1828.5093896484	0.1177648902
1830.4381970214	0.1116329432
1832.3670043945	0.1191842109
1834.2958117675	0.1187892854
1836.2246191406	0.1186389327
1838.1534265136	0.1182820424
1840.0822338867	0.1188060194
1842.0110412597	0.1190131456
1843.9398486328	0.1082350314
1845.8686560058	0.1136339307
1847.7974633789	0.1186760664
1849.7262707519	0.1164958775
1851.6550781250	0.1192673370
1853.5838854980	0.1172457337
1855.5126928710	0.1180554479
1857.4415002441	0.1176604331
1859.3703076171	0.1167375296
1861.2991149902	0.1174156293
1863.2279223632	0.1165098697
1865.1567297363	0.1174381822
1867.0855371093	0.1145951375
1869.0143444824	0.1107315570
1870.9431518554	0.1139118373
1872.8719592285	0.1172023565
1874.8007666015	0.1157194972
1876.7295739746	0.1162639707
1878.6583813476	0.1159287542
1880.5871887207	0.1153461039
1882.5159960937	0.1160775200
1884.4448034667	0.1146455258
1886.3736108398	0.1157223955
1888.3024182128	0.1137640178
1890.2312255859	0.1120693088
1892.1600329589	0.1152365655
1894.0888403320	0.1140410230
1896.0176477050	0.1135038435
1897.9464550781	0.1144791245
1899.8752624511	0.1138788760
1901.8040698242	0.1140819192
1903.7328771972	0.1134294495
1905.6616845703	0.1137450039
1907.5904919433	0.1130668297
1909.5192993164	0.1123749614
1911.4481066894	0.1128379330
1913.3769140625	0.1128290296
1915.3057214355	0.1137652397
1917.2345288085	0.1098871082
1919.1633361816	0.1096606478
1921.0921435546	0.1130502373
1923.0209509277	0.1103273332
1924.9497583007	0.1119159460
1926.8785656738	0.1127938330
1928.8073730468	0.1116497964
1930.7361804199	0.1125179753
1932.6649877929	0.1114083454
1934.5937951660	0.1122814268
1936.5226025390	0.1115482450
1938.4514099121	0.1117730439
1940.3802172851	0.1117802039
1942.3090246582	0.1090170890
1944.2378320312	0.1104056761
1946.1666394042	0.1115685478
1948.0954467773	0.1113464534
1950.0242541503	0.1113243178
1951.9530615234	0.1111618131
1953.8818688964	0.1113077924
1955.8106762695	0.1108646095
1957.7394836425	0.1110171974
1959.6682910156	0.1109944880
1961.5970983886	0.1106727868
1963.5259057617	0.1108485907
1965.4547131347	0.1104131341
1967.3835205078	0.1094936281
1969.3123278808	0.1102244258
1971.2411352539	0.1107168943
1973.1699426269	0.1102370322
1975.0987499999	0.1104920506
1977.0275573730	0.1100653857
1978.9563647460	0.1100859493
1980.8851721191	0.1099331379
1982.8139794921	0.1095947623
1984.7427868652	0.1099008322
1986.6715942382	0.1092264205
1988.6004016113	0.1092149243
1990.5292089843	0.1084940881
1992.4580163574	0.1073823571
1994.3868237304	0.1085510850
1996.3156311035	0.1087499410
1998.2444384765	0.1082232893
2000.1732458496	0.1084156632
2002.1020532226	0.1080159992
2004.0308605956	0.1079445928
2005.9596679687	0.1076551080
2007.8884753417	0.1073254198
2009.8172827148	0.1072502136
2011.7460900878	0.1068894416
2013.6748974609	0.1069485247
2015.6037048339	0.1062839404
2017.5325122070	0.1056968197
2019.4613195800	0.1058963388
2021.3901269531	0.1058308035
2023.3189343261	0.1057205424
2025.2477416992	0.1054960936
2027.1765490722	0.1052251086
2029.1053564453	0.1050311476
2031.0341638183	0.1049683690
2032.9629711914	0.1046143398
2034.8917785644	0.1043505967
2036.8205859374	0.1043507010
2038.7493933105	0.1040741205
2040.6782006835	0.1036548465
2042.6070080566	0.1034107208
2044.5358154296	0.1034441739
2046.4646228027	0.1032188833
2048.3934301757	0.1031273305
2050.3222375488	0.1027416885
2052.2510449218	0.1024478376
2054.1798522949	0.1025388911
2056.1086596679	0.1022061184
2058.0374670410	0.1019692570
2059.9662744140	0.1016755104
2061.8950817871	0.1017708778
2063.8238891601	0.1013556868
2065.7526965331	0.1009654850
2067.6815039062	0.1013072953
2069.6103112792	0.1009448469
2071.5391186523	0.1007236540
2073.4679260253	0.1004738510
2075.3967333984	0.1003896743
2077.3255407714	0.1003218591
2079.2543481445	0.0999929607
2081.1831555175	0.0998831242
2083.1119628906	0.0995948762
2085.0407702636	0.0994745344
2086.9695776367	0.0992269665
2088.8983850097	0.0989984050
2090.8271923828	0.0988989547
2092.7559997558	0.0988744348
2094.6848071288	0.0986593887
2096.6136145019	0.0983490944
2098.5424218749	0.0982149839
2100.4712292480	0.0978980884
2102.4000366210	0.0978793129
2104.3288439941	0.0977251232
2106.2576513671	0.0975406468
2108.1864587402	0.0973953307
2110.1152661132	0.0972332507
2112.0440734863	0.0972078890
2113.9728808593	0.0970140025
2115.9016882324	0.0967708528
2117.8304956054	0.0965731889
2119.7593029785	0.0966179073
2121.6881103515	0.0963253081
2123.6169177245	0.0962493345
2125.5457250976	0.0961298347
2127.4745324706	0.0959754363
2129.4033398437	0.0960570276
2131.3321472167	0.0955825746
2133.2609545898	0.0956724435
2135.1897619628	0.0955507904
2137.1185693359	0.0953655094
2139.0473767089	0.0953550488
2140.9761840820	0.0950723588
2142.9049914550	0.0951109231
2144.8337988281	0.0948898941
2146.7626062011	0.0948770568
2148.6914135742	0.0946889073
2150.6202209472	0.0945940837
2152.5490283203	0.0945837945
2154.4778356933	0.0943481475
2156.4066430663	0.0943186432
2158.3354504394	0.0940642953
2160.2642578124	0.0939881504
2162.1930651855	0.0938645452
2164.1218725585	0.0937891304
2166.0506799316	0.0935148597
2167.9794873046	0.0934810713
2169.9082946777	0.0935487896
2171.8371020507	0.0931276605
2173.7659094238	0.0932864249
2175.6947167968	0.0931374133
2177.6235241699	0.0928548574
2179.5523315429	0.0927407146
2181.4811389160	0.0926842466
2183.4099462890	0.0927027315
2185.3387536620	0.0923550501
2187.2675610351	0.0923889428
2189.1963684081	0.0923321992
2191.1251757812	0.0921568722
2193.0539831542	0.0921676308
2194.9827905273	0.0919349417
2196.9115979003	0.0917502716
2198.8404052734	0.0917950273
2200.7692126464	0.0916113853
2202.6980200195	0.0914961323
2204.6268273925	0.0915055871
2206.5556347656	0.0912798345
2208.4844421386	0.0913113803
2210.4132495117	0.0911638662
2212.3420568847	0.0910224915
2214.2708642577	0.0908279270
2216.1996716308	0.0906479508
2218.1284790038	0.0907490402
2220.0572863769	0.0905343220
2221.9860937499	0.0904133543
2223.9149011230	0.0902566016
2225.8437084960	0.0902482867
2227.7725158691	0.0900855064
2229.7013232421	0.0899419188
2231.6301306152	0.0899133906
2233.5589379882	0.0896286666
2235.4877453613	0.0895681977
2237.4165527343	0.0892642289
2239.3453601074	0.0892951936
2241.2741674804	0.0891435072
2243.2029748534	0.0889341384
2245.1317822265	0.0888939351
2247.0605895995	0.0885625780
2248.9893969726	0.0886428729
2250.9182043456	0.0883744210
2252.8470117187	0.0882948041
2254.7758190917	0.0881412327
2256.7046264648	0.0879563391
2258.6334338378	0.0879981741
2260.5622412109	0.0877017528
2262.4910485839	0.0876974612
2264.4198559570	0.0875033140
2266.3486633300	0.0874513388
2268.2774707031	0.0873318836
2270.2062780761	0.0873204619
2272.1350854491	0.0872358978
2274.0638928222	0.0868575722
2275.9927001952	0.0869775787
2277.9215075683	0.0867867991
2279.8503149413	0.0868043303
2281.7791223144	0.0867729113
2283.7079296874	0.0865597576
2285.6367370605	0.0864246190
2287.5655444335	0.0861634910
2289.4943518066	0.0860758573
2291.4231591796	0.0858236700
2293.3519665527	0.0856446028
2295.2807739257	0.0852739364
2297.2095812988	0.0850663185
2299.1383886718	0.0847722813
2301.0671960449	0.0843950287
2302.9960034179	0.0841607749
2304.9248107909	0.0836411864
2306.8536181640	0.0833703727
2308.7824255370	0.0826159045
2310.7112329101	0.0820189863
2312.6400402831	0.0814036205
2314.5688476562	0.0803542510
2316.4976550292	0.0797107369
2318.4264624023	0.0787616223
2320.3552697753	0.0777317062
2322.2840771484	0.0766281337
2324.2128845214	0.0758291259
2326.1416918945	0.0752241760
2328.0704992675	0.0743324012
2329.9993066406	0.0734193623
2331.9281140136	0.0726958215
2333.8569213866	0.0726537108
2335.7857287597	0.0722602457
2337.7145361327	0.0720094591
2339.6433435058	0.0721297562
2341.5721508788	0.0723148435
2343.5009582519	0.0733162686
2345.4297656249	0.0744828433
2347.3585729980	0.0774095505
2349.2873803710	0.0797259361
2351.2161877441	0.0772442296
2353.1449951171	0.0736359954
2355.0738024902	0.0709965080
2357.0026098632	0.0689251125
2358.9314172363	0.0677834600
2360.8602246093	0.0669303238
2362.7890319823	0.0669251755
2364.7178393554	0.0672856867
2366.6466467284	0.0680012181
2368.5754541015	0.0693055317
2370.5042614745	0.0707774162
2372.4330688476	0.0727853477
2374.3618762206	0.0746513456
2376.2906835937	0.0764070824
2378.2194909667	0.0778870881
2380.1482983398	0.0790375769
2382.0771057128	0.0800092295
2384.0059130859	0.0803574026
2385.9347204589	0.0806038529
2387.8635278320	0.0806804970
2389.7923352050	0.0806723237
2391.7211425780	0.0805758089
2393.6499499511	0.0804324299
2395.5787573241	0.0803520605
2397.5075646972	0.0802463219
2399.4363720702	0.0802262425
2401.3651794433	0.0800425485
2403.2939868163	0.0799943209
2405.2227941894	0.0798494220
2407.1516015624	0.0797598958
2409.0804089355	0.0796994790
2411.0092163085	0.0795363337
2412.9380236816	0.0795033723
2414.8668310546	0.0792839900
2416.7956384277	0.0792381018
2418.7244458007	0.0790477172
2420.6532531738	0.0789747760
2422.5820605468	0.0790459365
2424.5108679198	0.0788688958
2426.4396752929	0.0787095279
2428.3684826659	0.0785386488
2430.2972900390	0.0784858540
2432.2260974120	0.0782712698
2434.1549047851	0.0783270374
2436.0837121581	0.0781928599
2438.0125195312	0.0780295059
2439.9413269042	0.0781656951
2441.8701342773	0.0778957903
2443.7989416503	0.0779727101
2445.7277490234	0.0777728707
2447.6565563964	0.0775168315
2449.5853637695	0.0774557516
2451.5141711425	0.0772161931
2453.4429785155	0.0773095340
2455.3717858886	0.0771020949
2457.3005932616	0.0770591795
2459.2294006347	0.0770366043
2461.1582080077	0.0767610222
2463.0870153808	0.0767946392
2465.0158227538	0.0766835436
2466.9446301269	0.0764965490
2468.8734374999	0.0763584897
2470.8022448730	0.0762771368
2472.7310522460	0.0762631968
2474.6598596191	0.0760797635
2476.5886669921	0.0760169551
2478.5174743652	0.0760204270
2480.4462817382	0.0757975131
2482.3750891112	0.0757460296
2484.3038964843	0.0756112635
2486.2327038573	0.0755350813
2488.1615112304	0.0756089836
2490.0903186034	0.0753595084
2492.0191259765	0.0753210038
2493.9479333495	0.0751915574
2495.8767407226	0.0750309676
2497.8055480956	0.0749848783
2499.7343554687	0.0748886615
2501.6631628417	0.0749249309
2503.5919702148	0.0746512264
2505.5207775878	0.0745699257
2507.4495849609	0.0745646507
2509.3783923339	0.0743891746
2511.3071997069	0.0743486285
2513.2360070800	0.0742054731
2515.1648144530	0.0740939379
2517.0936218261	0.0740244091
2519.0224291991	0.0739480555
2520.9512365722	0.0738118887
2522.8800439452	0.0737534612
2524.8088513183	0.0736906379
2526.7376586913	0.0735445917
2528.6664660644	0.0734642893
2530.5952734374	0.0733737051
2532.5240808105	0.0733524263
2534.4528881835	0.0732679218
2536.3816955566	0.0730847046
2538.3105029296	0.0729488581
2540.2393103027	0.0728484392
2542.1681176757	0.0727024823
2544.0969250487	0.0727440640
2546.0257324218	0.0727115348
2547.9545397948	0.0724744499
2549.8833471679	0.0724699646
2551.8121545409	0.0724055544
2553.7409619140	0.0722980201
2555.6697692870	0.0721795112
2557.5985766601	0.0721062422
2559.5273840331	0.0720107481
2561.4561914062	0.0718768314
2563.3849987792	0.0718513429
2565.3138061523	0.0716752037
2567.2426135253	0.0716460794
2569.1714208984	0.0714422166
2571.1002282714	0.0712095499
2573.0290356444	0.0712256730
2574.9578430175	0.0711603761
2576.8866503905	0.0711598396
2578.8154577636	0.0710233375
2580.7442651366	0.0709564239
2582.6730725097	0.0708085150
2584.6018798827	0.0706238449
2586.5306872558	0.0706648529
2588.4594946288	0.0705483407
2590.3883020019	0.0704545081
2592.3171093749	0.0703452229
2594.2459167480	0.0701104552
2596.1747241210	0.0700183511
2598.1035314941	0.0700177997
2600.0323388671	0.0699624717
2601.9611462401	0.0698857903
2603.8899536132	0.0697809011
2605.8187609862	0.0697699040
2607.7475683593	0.0696277320
2609.6763757323	0.0694991052
2611.6051831054	0.0694811791
2613.5339904784	0.0692806169
2615.4627978515	0.0693652034
2617.3916052245	0.0691581219
2619.3204125976	0.0688431114
2621.2492199706	0.0688588023
2623.1780273437	0.0687711686
2625.1068347167	0.0687650293
2627.0356420898	0.0684988648
2628.9644494628	0.0684690624
2630.8932568358	0.0684774220
2632.8220642089	0.0682582781
2634.7508715819	0.0682467371
2636.6796789550	0.0681123585
2638.6084863280	0.0680377409
2640.5372937011	0.0679238811
2642.4661010741	0.0678806305
2644.3949084472	0.0678384751
2646.3237158202	0.0677717179
2648.2525231933	0.0676101297
2650.1813305663	0.0673746616
2652.1101379394	0.0674442872
2654.0389453124	0.0672370121
2655.9677526855	0.0671473220
2657.8965600585	0.0671875179
2659.8253674315	0.0669992864
2661.7541748046	0.0669193789
2663.6829821776	0.0668270886
2665.6117895507	0.0668253154
2667.5405969237	0.0667463392
2669.4694042968	0.0665717274
2671.3982116698	0.0665099695
2673.3270190429	0.0664307773
2675.2558264159	0.0662902296
2677.1846337890	0.0662671030
2679.1134411620	0.0661576539
2681.0422485351	0.0660148710
2682.9710559081	0.0660402998
2684.8998632812	0.0659536421
2686.8286706542	0.0658059418
2688.7574780273	0.0655642152
2690.6862854003	0.0655267537
2692.6150927733	0.0654887035
2694.5439001464	0.0652441904
2696.4727075194	0.0652032569
2698.4015148925	0.0652314052
2700.3303222655	0.0651815608
2702.2591296386	0.0649820045
2704.1879370116	0.0649470240
2706.1167443847	0.0647905022
2708.0455517577	0.0647183508
2709.9743591308	0.0648063123
2711.9031665038	0.0645345524
2713.8319738769	0.0644749701
2715.7607812499	0.0642682910
2717.6895886230	0.0641172156
2719.6183959960	0.0641767830
2721.5472033690	0.0640369952
2723.4760107421	0.0640720427
2725.4048181151	0.0639639646
2727.3336254882	0.0637661889
2729.2624328612	0.0636679679
2731.1912402343	0.0635610074
2733.1200476073	0.0634541735
2735.0488549804	0.0633977801
2736.9776623534	0.0633449107
2738.9064697265	0.0632760748
2740.8352770995	0.0632399619
2742.7640844726	0.0630367175
2744.6928918456	0.0628473163
2746.6216992187	0.0627236962
2748.5505065917	0.0626157448
2750.4793139647	0.0626065433
2752.4081213378	0.0625648573
2754.3369287108	0.0624169558
2756.2657360839	0.0623335242
2758.1945434569	0.0622315444
2760.1233508300	0.0621315986
2762.0521582030	0.0620915405
2763.9809655761	0.0618812889
2765.9097729491	0.0618045144
2767.8385803222	0.0616479702
2769.7673876952	0.0615798049
2771.6961950683	0.0615375936
2773.6250024413	0.0612830780
2775.5538098144	0.0613496676
2777.4826171874	0.0611717850
2779.4114245604	0.0611064807
2781.3402319335	0.0610590130
2783.2690393065	0.0607620552
2785.1978466796	0.0607870668
2787.1266540526	0.0606704354
2789.0554614257	0.0606254488
2790.9842687987	0.0605620891
2792.9130761718	0.0604260713
2794.8418835448	0.0603380054
2796.7706909179	0.0601307750
2798.6994982909	0.0599624217
2800.6283056640	0.0598253682
2802.5571130370	0.0597885288
2804.4859204101	0.0596921742
2806.4147277831	0.0595871806
2808.3435351562	0.0594392046
2810.2723425292	0.0594035089
2812.2011499022	0.0594274178
2814.1299572753	0.0592342131
2816.0587646483	0.0590644330
2817.9875720214	0.0589635447
2819.9163793944	0.0589059442
2821.8451867675	0.0587155446
2823.7739941405	0.0586131215
2825.7028015136	0.0585548989
2827.6316088866	0.0584048629
2829.5604162597	0.0582303479
2831.4892236327	0.0581321120
2833.4180310058	0.0581408590
2835.3468383788	0.0578574650
2837.2756457519	0.0577565432
2839.2044531249	0.0576281250
2841.1332604979	0.0573505238
2843.0620678710	0.0572324544
2844.9908752440	0.0569305979
2846.9196826171	0.0566584989
2848.8484899901	0.0563528314
2850.7772973632	0.0561798848
2852.7061047362	0.0561704487
2854.6349121093	0.0560770631
2856.5637194823	0.0559579954
2858.4925268554	0.0559245571
2860.4213342284	0.0559326559
2862.3501416015	0.0558543056
2864.2789489745	0.0558342561
2866.2077563476	0.0556609705
2868.1365637206	0.0555222444
2870.0653710936	0.0554988459
2871.9941784667	0.0554210320
2873.9229858397	0.0552465133
2875.8517932128	0.0551398583
2877.7806005858	0.0551968366
2879.7094079589	0.0550505444
2881.6382153319	0.0550200418
2883.5670227050	0.0549858883
2885.4958300780	0.0548881441
2887.4246374511	0.0548418127
2889.3534448241	0.0547403060
2891.2822521972	0.0545910671
2893.2110595702	0.0543884709
2895.1398669433	0.0543526635
2897.0686743163	0.0541624203
2898.9974816893	0.0540802255
2900.9262890624	0.0539352857
2902.8550964354	0.0537765995
2904.7839038085	0.0537887737
2906.7127111815	0.0535138249
2908.6415185546	0.0533658117
2910.5703259276	0.0530643538
2912.4991333007	0.0528830290
2914.4279406737	0.0526060537
2916.3567480468	0.0522339121
2918.2855554198	0.0522864833
2920.2143627929	0.0520539843
2922.1431701659	0.0519931763
2924.0719775390	0.0518951342
2926.0007849120	0.0517965220
2927.9295922851	0.0519282073
2929.8583996581	0.0518218614
2931.7872070311	0.0517907850
2933.7160144042	0.0518168397
2935.6448217772	0.0518429354
2937.5736291503	0.0517527014
2939.5024365233	0.0517963991
2941.4312438964	0.0517360941
2943.3600512694	0.0516080521
2945.2888586425	0.0516602471
2947.2176660155	0.0514169782
2949.1464733886	0.0513541512
2951.0752807616	0.0513125807
2953.0040881347	0.0512557253
2954.9328955077	0.0512519926
2956.8617028808	0.0508780256
2958.7905102538	0.0506871268
2960.7193176268	0.0506395102
2962.6481249999	0.0504278913
2964.5769323729	0.0503471494
2966.5057397460	0.0503182784
2968.4345471190	0.0502706394
2970.3633544921	0.0503699034
2972.2921618651	0.0503953025
2974.2209692382	0.0503920726
2976.1497766112	0.0505057201
2978.0785839843	0.0505441241
2980.0073913573	0.0504748523
2981.9361987304	0.0504368506
2983.8650061034	0.0504772477
2985.7938134765	0.0503722057
2987.7226208495	0.0503076017
2989.6514282225	0.0503568351
2991.5802355956	0.0502699390
2993.5090429686	0.0501285270
2995.4378503417	0.0500324517
2997.3666577147	0.0499115065
2999.2954650878	0.0499132201
3001.2242724608	0.0499099009
3003.1530798339	0.0496067330
3005.0818872069	0.0496512577
3007.0106945800	0.0497158356
3008.9395019530	0.0495068915
3010.8683093261	0.0493664667
3012.7971166991	0.0490632206
3014.7259240722	0.0490616821
3016.6547314452	0.0490469374
3018.5835388182	0.0489327051
3020.5123461913	0.0489889532
3022.4411535643	0.0488936231
3024.3699609374	0.0486792549
3026.2987683104	0.0484864041
3028.2275756835	0.0485888347
3030.1563830565	0.0483716205
3032.0851904296	0.0480648912
3034.0139978026	0.0481467471
3035.9428051757	0.0480949357
3037.8716125487	0.0480303615
3039.8004199218	0.0477956831
3041.7292272948	0.0476453379
3043.6580346679	0.0477598980
3045.5868420409	0.0476734899
3047.5156494139	0.0475087315
3049.4444567870	0.0473348573
3051.3732641600	0.0472973101
3053.3020715331	0.0473136082
3055.2308789061	0.0470602289
3057.1596862792	0.0470135435
3059.0884936522	0.0470123366
3061.0173010253	0.0467743129
3062.9461083983	0.0467161238
3064.8749157714	0.0465959683
3066.8037231444	0.0465561301
3068.7325305175	0.0465775728
3070.6613378905	0.0465251021
3072.5901452636	0.0464833677
3074.5189526366	0.0463142619
3076.4477600097	0.0462010801
3078.3765673827	0.0459427275
3080.3053747557	0.0458567366
3082.2341821288	0.0459210947
3084.1629895018	0.0458082855
3086.0917968749	0.0456747897
3088.0206042479	0.0456916317
3089.9494116210	0.0457455330
3091.8782189940	0.0454120524
3093.8070263671	0.0453928225
3095.7358337401	0.0453101993
3097.6646411132	0.0450518876
3099.5934484862	0.0450340323
3101.5222558593	0.0448654965
3103.4510632323	0.0449816100
3105.3798706054	0.0448319241
3107.3086779784	0.0446469188
3109.2374853514	0.0446755886
3111.1662927245	0.0445353650
3113.0951000975	0.0444379151
3115.0239074706	0.0441887416
3116.9527148436	0.0440897122
3118.8815222167	0.0440508351
3120.8103295897	0.0439962596
3122.7391369628	0.0438340642
3124.6679443358	0.0437706858
3126.5967517089	0.0436979644
3128.5255590819	0.0434263162
3130.4543664550	0.0434864834
3132.3831738280	0.0432971343
3134.3119812011	0.0431843549
3136.2407885741	0.0431710370
3138.1695959471	0.0429912135
3140.0984033202	0.0429934487
3142.0272106932	0.0428261124
3143.9560180663	0.0427128524
3145.8848254393	0.0425818898
3147.8136328124	0.0425143763
3149.7424401854	0.0424306020
3151.6712475585	0.0421642438
3153.6000549315	0.0421118364
3155.5288623046	0.0420466885
3157.4576696776	0.0418912545
3159.3864770507	0.0417994708
3161.3152844237	0.0416827761
3163.2440917968	0.0415993407
3165.1728991698	0.0415931717
3167.1017065428	0.0414135009
3169.0305139159	0.0412920713
3170.9593212889	0.0411054641
3172.8881286620	0.0409664661
3174.8169360350	0.0410967097
3176.7457434081	0.0408018604
3178.6745507811	0.0406448022
3180.6033581542	0.0406803191
3182.5321655272	0.0405126922
3184.4609729003	0.0404467434
3186.3897802733	0.0403620750
3188.3185876464	0.0402691066
3190.2473950194	0.0401429161
3192.1762023925	0.0400897637
3194.1050097655	0.0399612486
3196.0338171386	0.0398142859
3197.9626245116	0.0397187099
3199.8914318846	0.0396636799
3201.8202392577	0.0397177860
3203.7490466307	0.0395064726
3205.6778540038	0.0393787473
3207.6066613768	0.0393548086
3209.5354687499	0.0392268412
3211.4642761229	0.0392333046
3213.3930834960	0.0391289368
3215.3218908690	0.0389048085
3217.2506982421	0.0389080867
3219.1795056151	0.0389189608
3221.1083129882	0.0387213901
3223.0371203612	0.0386949927
3224.9659277343	0.0387325846
3226.8947351073	0.0385893136
3228.8235424803	0.0384273790
3230.7523498534	0.0384432636
3232.6811572264	0.0384681746
3234.6099645995	0.0384060144
3236.5387719725	0.0383934826
3238.4675793456	0.0382277220
3240.3963867186	0.0381672159
3242.3251940917	0.0381581187
3244.2540014647	0.0379697829
3246.1828088378	0.0379551426
3248.1116162108	0.0379524007
3250.0404235839	0.0378028005
3251.9692309569	0.0378118381
3253.8980383300	0.0377465412
3255.8268457030	0.0375896469
3257.7556530760	0.0376938134
3259.6844604491	0.0375868753
3261.6132678221	0.0375052914
3263.5420751952	0.0375497490
3265.4708825682	0.0374207199
3267.3996899413	0.0374515951
3269.3284973143	0.0374100842
3271.2573046874	0.0372904018
3273.1861120604	0.0371911898
3275.1149194335	0.0371586382
3277.0437268065	0.0371059477
3278.9725341796	0.0371757597
3280.9013415526	0.0372212641
3282.8301489257	0.0369549021
3284.7589562987	0.0370276384
3286.6877636717	0.0370300189
3288.6165710448	0.0368679799
3290.5453784178	0.0367864743
3292.4741857909	0.0368197598
3294.4029931639	0.0368597023
3296.3318005370	0.0366400406
3298.2606079100	0.0367126539
3300.1894152831	0.0366170108
3302.1182226561	0.0365156159
3304.0470300292	0.0365876406
3305.9758374022	0.0364827067
3307.9046447753	0.0363676958
3309.8334521483	0.0361976177
3311.7622595214	0.0363660716
3313.6910668944	0.0363783538
3315.6198742675	0.0362274572
3317.5486816405	0.0361733288
3319.4774890135	0.0360392407
3321.4062963866	0.0361044854
3323.3351037596	0.0361379981
3325.2639111327	0.0359749645
3327.1927185057	0.0358502418
3329.1215258788	0.0359077752
3331.0503332518	0.0357580744
3332.9791406249	0.0356940478
3334.9079479979	0.0356515199
3336.8367553710	0.0354554094
3338.7655627440	0.0355234183
3340.6943701171	0.0354610533
3342.6231774901	0.0354015306
3344.5519848632	0.0353632085
3346.4807922362	0.0353671610
3348.4095996092	0.0352813974
3350.3384069823	0.0351287872
3352.2672143553	0.0351938084
3354.1960217284	0.0350529514
3356.1248291014	0.0350336879
3358.0536364745	0.0350121446
3359.9824438475	0.0348450169
3361.9112512206	0.0347992517
3363.8400585936	0.0347589888
3365.7688659667	0.0347125754
3367.6976733397	0.0346855856
3369.6264807128	0.0346156433
3371.5552880858	0.0344736725
3373.4840954589	0.0344548225
3375.4129028319	0.0343091264
3377.3417102049	0.0343045257
3379.2705175780	0.0343355015
3381.1993249510	0.0341624692
3383.1281323241	0.0341187827
3385.0569396971	0.0339525715
3386.9857470702	0.0339333862
3388.9145544432	0.0340048000
3390.8433618163	0.0339085311
3392.7721691893	0.0337223262
3394.7009765624	0.0336478055
3396.6297839354	0.0336416364
3398.5585913085	0.0335249268
3400.4873986815	0.0334567502
3402.4162060546	0.0333908796
3404.3450134276	0.0334146768
3406.2738208006	0.0332592130
3408.2026281737	0.0332812071
3410.1314355467	0.0333637521
3412.0602429198	0.0331931785
3413.9890502928	0.0331658497
3415.9178576659	0.0330301896
3417.8466650389	0.0330673233
3419.7754724120	0.0328734852
3421.7042797850	0.0326511785
3423.6330871581	0.0328507014
3425.5618945311	0.0327870660
3427.4907019042	0.0326684639
3429.4195092772	0.0326614529
3431.3483166503	0.0325625651
3433.2771240233	0.0324986912
3435.2059313963	0.0325025320
3437.1347387694	0.0322429836
3439.0635461424	0.0322637558
3440.9923535155	0.0321524739
3442.9211608885	0.0319279432
3444.8499682616	0.0321374089
3446.7787756346	0.0317131430
3448.7075830077	0.0317951292
3450.6363903807	0.0321330354
3452.5651977538	0.0319403559
3454.4940051268	0.0320377052
3456.4228124999	0.0319195017
3458.3516198729	0.0318485834
3460.2804272460	0.0317963511
3462.2092346190	0.0316947103
3464.1380419921	0.0316599607
3466.0668493651	0.0317013487
3467.9956567381	0.0316931233
3469.9244641112	0.0315219760
3471.8532714842	0.0316212103
3473.7820788573	0.0315520130
3475.7108862303	0.0314000808
3477.6396936034	0.0314205140
3479.5685009764	0.0313518234
3481.4973083495	0.0311087184
3483.4261157225	0.0311747901
3485.3549230956	0.0313921198
3487.2837304686	0.0311683305
3489.2125378417	0.0311363898
3491.1413452147	0.0312507227
3493.0701525878	0.0312820673
3494.9989599608	0.0311908834
3496.9277673338	0.0310421418
3498.8565747069	0.0310908481
3500.7853820799	0.0310904868
3502.7141894530	0.0307619274
3504.6429968260	0.0307303332
3506.5718041991	0.0311404690
3508.5006115721	0.0308084562
3510.4294189452	0.0306780934
3512.3582263182	0.0309971776
3514.2870336913	0.0310152099
3516.2158410643	0.0310383290
3518.1446484374	0.0308823474
3520.0734558104	0.0309690777
3522.0022631835	0.0308195390
3523.9310705565	0.0304973312
3525.8598779295	0.0305601396
3527.7886853026	0.0305476077
3529.7174926756	0.0305327810
3531.6463000487	0.0307535864
3533.5751074217	0.0309421532
3535.5039147948	0.0306280963
3537.4327221678	0.0305299498
3539.3615295409	0.0307730660
3541.2903369139	0.0307696033
3543.2191442870	0.0305526219
3545.1479516600	0.0300359260
3547.0767590331	0.0297922119
3549.0055664061	0.0304741506
3550.9343737792	0.0305990260
3552.8631811522	0.0300444961
3554.7919885252	0.0304389596
3556.7207958983	0.0305247717
3558.6496032713	0.0304785781
3560.5784106444	0.0304021798
3562.5072180174	0.0301795285
3564.4360253905	0.0303629339
3566.3648327635	0.0288415216
3568.2936401366	0.0282374844
3570.2224475096	0.0299513172
3572.1512548827	0.0304228272
3574.0800622557	0.0301498137
3576.0088696288	0.0303619895
3577.9376770018	0.0303049237
3579.8664843749	0.0301399194
3581.7952917479	0.0301087108
3583.7240991210	0.0302214175
3585.6529064940	0.0297310613
3587.5817138670	0.0279744491
3589.5105212401	0.0285415575
3591.4393286131	0.0303412452
3593.3681359862	0.0297290664
3595.2969433592	0.0293410923
3597.2257507323	0.0297544152
3599.1545581053	0.0299313739
3601.0833654784	0.0296992194
3603.0121728514	0.0299048238
3604.9409802245	0.0303422567
3606.8697875975	0.0295034423
3608.7985949706	0.0281284396
3610.7274023436	0.0285281166
3612.6562097167	0.0290863495
3614.5850170897	0.0285275578
3616.5138244627	0.0299952105
3618.4426318358	0.0282576531
3620.3714392088	0.0274803806
3622.3002465819	0.0301839299
3624.2290539549	0.0295391679
3626.1578613280	0.0304860678
3628.0866687010	0.0268344395
3630.0154760741	0.0248961896
3631.9442834471	0.0297805034
3633.8730908202	0.0292045474
3635.8018981932	0.0295509789
3637.7307055663	0.0300736651
3639.6595129393	0.0296237655
3641.5883203124	0.0299062207
3643.5171276854	0.0295345988
3645.4459350584	0.0297877789
3647.3747424315	0.0274285600
3649.3035498045	0.0256422516
3651.2323571776	0.0259670652
3653.1611645506	0.0296136737
3655.0899719237	0.0292819180
3657.0187792967	0.0268243477
3658.9475866698	0.0299672205
3660.8763940428	0.0293606445
3662.8052014159	0.0297074318
3664.7340087889	0.0296957120
3666.6628161620	0.0293555204
3668.5916235350	0.0289034080
3670.5204309081	0.0245473310
3672.4492382811	0.0283316299
3674.3780456541	0.0274893306
3676.3068530272	0.0236268118
3678.2356604002	0.0282093138
3680.1644677733	0.0288177207
3682.0932751463	0.0287616514
3684.0220825194	0.0293907467
3685.9508898924	0.0290618986
3687.8796972655	0.0266385730
3689.8085046385	0.0248630401
3691.7373120116	0.0277876854
3693.6661193846	0.0282791033
3695.5949267577	0.0287686475
3697.5237341307	0.0287214424
3699.4525415038	0.0284251682
3701.3813488768	0.0280373469
3703.3101562499	0.0271585025
3705.2389636229	0.0293003619
3707.1677709959	0.0280488655
3709.0965783690	0.0275646802
3711.0253857420	0.0263563637
3712.9541931151	0.0249079652
3714.8830004881	0.0282837301
3716.8118078612	0.0278498530
3718.7406152342	0.0281018373
3720.6694226073	0.0276587103
3722.5982299803	0.0268557668
3724.5270373534	0.0277067944
3726.4558447264	0.0259898398
3728.3846520995	0.0277206153
3730.3134594725	0.0274390932
3732.2422668456	0.0256766044
3734.1710742186	0.0251889080
3736.0998815916	0.0241789706
3738.0286889647	0.0252760220
3739.9574963377	0.0268749800
3741.8863037108	0.0279298462
3743.8151110838	0.0228255000
3745.7439184569	0.0218954626
3747.6727258299	0.0267792400
3749.6015332030	0.0236863755
3751.5303405760	0.0222685840
3753.4591479491	0.0247400142
3755.3879553221	0.0262624379
3757.3167626952	0.0270798709
3759.2455700682	0.0254634246
3761.1743774413	0.0261873025
3763.1031848143	0.0273434408
3765.0319921873	0.0259044804
3766.9607995604	0.0264496580
3768.8896069334	0.0261169653
3770.8184143065	0.0251692347
3772.7472216795	0.0268373135
3774.6760290526	0.0267279819
3776.6048364256	0.0267370008
3778.5336437987	0.0261701457
3780.4624511717	0.0253458880
3782.3912585448	0.0266737007
3784.3200659178	0.0262354091
3786.2488732909	0.0260885544
3788.1776806639	0.0264294893
3790.1064880370	0.0264203735
3792.0352954100	0.0261797756
3793.9641027830	0.0264874063
3795.8929101561	0.0253004245
3797.8217175291	0.0250245668
3799.7505249022	0.0260801837
3801.6793322752	0.0217546187
3803.6081396483	0.0245881472
3805.5369470213	0.0260834508
3807.4657543944	0.0222429633
3809.3945617674	0.0259024911
3811.3233691405	0.0255634952
3813.2521765135	0.0262351334
3815.1809838866	0.0240811482
3817.1097912596	0.0218239501
3819.0385986327	0.0260892138
3820.9674060057	0.0222995132
3822.8962133787	0.0231215805
3824.8250207518	0.0259601194
3826.7538281248	0.0240818411
3828.6826354979	0.0253621060
3830.6114428709	0.0247024186
3832.5402502440	0.0240181834
3834.4690576170	0.0243235938
3836.3978649901	0.0233412813
3838.3266723631	0.0215564668
3840.2554797362	0.0230194181
3842.1842871092	0.0244059041
3844.1130944823	0.0235127043
3846.0419018553	0.0249578692
3847.9707092284	0.0246399231
3849.8995166014	0.0246259756
3851.8283239745	0.0227485858
3853.7571313475	0.0181340501
3855.6859387205	0.0205584951
3857.6147460936	0.0247523952
3859.5435534666	0.0240527689
3861.4723608397	0.0239255782
3863.4011682127	0.0234940052
3865.3299755858	0.0221964680
3867.2587829588	0.0241567791
3869.1875903319	0.0225438401
3871.1163977049	0.0212919414
3873.0452050780	0.0241241250
3874.9740124510	0.0227639470
3876.9028198241	0.0239236206
3878.8316271971	0.0243781358
3880.7604345702	0.0217157081
3882.6892419432	0.0240059402
3884.6180493162	0.0228730552
3886.5468566893	0.0213312022
3888.4756640623	0.0242181346
3890.4044714354	0.0230010673
3892.3332788084	0.0219717845
3894.2620861815	0.0235456266
3896.1908935545	0.0236852132
3898.1197009276	0.0230533928
3900.0485083006	0.0219516214
3901.9773156737	0.0218767151
3903.9061230467	0.0216073021
3905.8349304198	0.0218324549
3907.7637377928	0.0234587602
3909.6925451659	0.0232687779
3911.6213525389	0.0232180133
3913.5501599119	0.0234110150
3915.4789672850	0.0227826051
3917.4077746580	0.0223720782
3919.3365820311	0.0222119354
3921.2653894041	0.0227971971
3923.1941967772	0.0227469932
3925.1230041502	0.0224363729
3927.0518115233	0.0226978958
3928.9806188963	0.0228060596
3930.9094262694	0.0224041883
3932.8382336424	0.0220096633
3934.7670410155	0.0225827564
3936.6958483885	0.0227461159
3938.6246557616	0.0225425363
3940.5534631346	0.0225801002
3942.4822705076	0.0220833942
3944.4110778807	0.0221307892
3946.3398852537	0.0224359110
3948.2686926268	0.0220268853
3950.1974999998	0.0220454149
3952.1263073729	0.0222306997
3954.0551147459	0.0222323164
3955.9839221190	0.0222723782
3957.9127294920	0.0220774822
3959.8415368651	0.0220745932
3961.7703442381	0.0218933895
3963.6991516112	0.0219040345
3965.6279589842	0.0220214240
3967.5567663573	0.0218559429
3969.4855737303	0.0219078399
3971.4143811034	0.0217640325
3973.3431884764	0.0217936337
3975.2719958494	0.0217454024
3977.2008032225	0.0217072442
3979.1296105955	0.0217399783
3981.0584179686	0.0215613917
3982.9872253416	0.0216191858
3984.9160327147	0.0214748457
3986.8448400877	0.0215033554
3988.7736474608	0.0214406736
3990.7024548338	0.0213300083
3992.6312622069	0.0214573927
3994.5600695799	0.0213434920
3996.4888769530	0.0213440806
3998.4176843260	0.0213276036
4000.3464916991	0.0212814100
4002.2752990721	0.0211167615
4004.2041064451	0.0210822150
4006.1329138182	0.0211006403
4008.0617211912	0.0209753197
4009.9905285643	0.0210133307
4011.9193359373	0.0208813474
4013.8481433104	0.0208171457
4015.7769506834	0.0208283477
4017.7057580565	0.0208066851
4019.6345654295	0.0207743533
4021.5633728026	0.0207599699
4023.4921801756	0.0207071565
4025.4209875487	0.0206209607
4027.3497949217	0.0206772704
4029.2786022948	0.0205460861
4031.2074096678	0.0204814263
4033.1362170408	0.0204571635
4035.0650244139	0.0204687640
4036.9938317869	0.0204807539
4038.9226391600	0.0203653425
4040.8514465330	0.0203386545
4042.7802539061	0.0202034526
4044.7090612791	0.0202100482
4046.6378686522	0.0201900601
4048.5666760252	0.0201660283
4050.4954833983	0.0202276725
4052.4242907713	0.0201414004
4054.3530981444	0.0200806130
4056.2819055174	0.0199793112
4058.2107128905	0.0199463740
4060.1395202635	0.0198708512
4062.0683276365	0.0198365487
4063.9971350096	0.0198675804
4065.9259423826	0.0197593234
4067.8547497557	0.0197082479
4069.7835571287	0.0197453797
4071.7123645018	0.0197599418
4073.6411718748	0.0196253434
4075.5699792479	0.0195260830
4077.4987866209	0.0195542350
4079.4275939940	0.0194446109
4081.3564013670	0.0193222836
4083.2852087401	0.0194749460
4085.2140161131	0.0194307640
4087.1428234862	0.0192591399
4089.0716308592	0.0193134230
4091.0004382323	0.0192147903
4092.9292456053	0.0192069225
4094.8580529783	0.0192274135
4096.7868603514	0.0191059187
4098.7156677244	0.0190475322
4100.6444750975	0.0190774202
4102.5732824705	0.0190678649
4104.5020898436	0.0189426094
4106.4308972166	0.0189265311
4108.3597045897	0.0188722163
4110.2885119627	0.0188618265
4112.2173193358	0.0188117437
4114.1461267088	0.0187484026
4116.0749340819	0.0187629443
4118.0037414549	0.0186532587
4119.9325488280	0.0186766870
4121.8613562010	0.0186187141
4123.7901635740	0.0185404010
4125.7189709471	0.0185371600
4127.6477783201	0.0184694752
4129.5765856932	0.0184363462
4131.5053930662	0.0184181109
4133.4342004393	0.0183753204
4135.3630078123	0.0182378739
4137.2918151854	0.0182379466
4139.2206225584	0.0182140004
4141.1494299315	0.0181306936
4143.0782373045	0.0181632563
4145.0070446776	0.0181704182
4146.9358520506	0.0181197263
4148.8646594237	0.0180458315
4150.7934667967	0.0179815777
4152.7222741697	0.0179558191
4154.6510815428	0.0180262215
4156.5798889158	0.0179049075
4158.5086962889	0.0178308822
4160.4375036619	0.0178247318
4162.3663110350	0.0177361183
4164.2951184080	0.0178145282
4166.2239257811	0.0177592263
4168.1527331541	0.0177097581
4170.0815405272	0.0176674183
4172.0103479002	0.0176190361
4173.9391552733	0.0175262801
4175.8679626463	0.0174210928
4177.7967700194	0.0175052211
4179.7255773924	0.0173859410
4181.6543847654	0.0173274968
4183.5831921385	0.0173724853
4185.5119995115	0.0173184574
4187.4408068846	0.0172334462
4189.3696142576	0.0171907581
4191.2984216307	0.0171905588
4193.2272290037	0.0171312429
4195.1560363768	0.0171551444
4197.0848437498	0.0170812532
4199.0136511229	0.0170370303
4200.9424584959	0.0170021467
4202.8712658690	0.0169122145
4204.8000732420	0.0169345178
4206.7288806151	0.0169178657
4208.6576879881	0.0168363154
4210.5864953611	0.0167830549
4212.5153027342	0.0167911761
4214.4441101072	0.0166837592
4216.3729174803	0.0167377293
4218.3017248533	0.0167846084
4220.2305322264	0.0166745894
4222.1593395994	0.0166369714
4224.0881469725	0.0165603235
4226.0169543455	0.0165905915
4227.9457617186	0.0164909475
4229.8745690916	0.0164653882
4231.8033764647	0.0164682008
4233.7321838377	0.0163485743
4235.6609912108	0.0163569674
4237.5897985838	0.0163058639
4239.5186059569	0.0163648911
4241.4474133299	0.0163455233
4243.3762207029	0.0162519868
4245.3050280760	0.0162075497
4247.2338354490	0.0161849335
4249.1626428221	0.0162450746
4251.0914501951	0.0161400139
4253.0202575682	0.0160330050
4254.9490649412	0.0160504766
4256.8778723143	0.0160312951
4258.8066796873	0.0159795694
4260.7354870604	0.0159613974
4262.6642944334	0.0158638470
4264.5931018065	0.0158916730
4266.5219091795	0.0158473738
4268.4507165526	0.0157060213
4270.3795239256	0.0158316121
4272.3083312986	0.0157398116
4274.2371386717	0.0156198777
4276.1659460447	0.0156010063
4278.0947534178	0.0156274587
4280.0235607908	0.0156411957
4281.9523681639	0.0155341178
4283.8811755369	0.0155523550
4285.8099829100	0.0154674975
4287.7387902830	0.0154535640
4289.6675976561	0.0154072037
4291.5964050291	0.0153722968
4293.5252124022	0.0153420623
4295.4540197752	0.0152579900
4297.3828271483	0.0153931510
4299.3116345213	0.0152586717
4301.2404418943	0.0151699744
4303.1692492674	0.0151723437
4305.0980566404	0.0150466310
4307.0268640135	0.0151225235
4308.9556713865	0.0151830334
4310.8844787596	0.0150653590
4312.8132861326	0.0150157362
4314.7420935057	0.0150162643
4316.6709008787	0.0148677649
4318.5997082518	0.0148891620
4320.5285156248	0.0148605537
4322.4573229979	0.0148190213
4324.3861303709	0.0147984568
4326.3149377440	0.0147089288
4328.2437451170	0.0147415046
4330.1725524900	0.0145943277
4332.1013598631	0.0146268774
4334.0301672361	0.0145957340
4335.9589746092	0.0145762302
4337.8877819822	0.0146081839
4339.8165893553	0.0144608971
4341.7453967283	0.0146034230
4343.6742041014	0.0144657539
4345.6030114744	0.0144090913
4347.5318188475	0.0144624449
4349.4606262205	0.0143252090
4351.3894335936	0.0143539384
4353.3182409666	0.0143020945
4355.2470483397	0.0143454224
4357.1758557127	0.0143049378
4359.1046630858	0.0141867436
4361.0334704588	0.0141411107
4362.9622778318	0.0141683137
4364.8910852049	0.0142067252
4366.8198925779	0.0141471336
4368.7486999510	0.0140706394
4370.6775073240	0.0139514729
4372.6063146971	0.0139714666
4374.5351220701	0.0138530508
4376.4639294432	0.0138893146
4378.3927368162	0.0139603224
4380.3215441893	0.0137981260
4382.2503515623	0.0139408521
4384.1791589354	0.0138405059
4386.1079663084	0.0137222111
4388.0367736815	0.0138142165
4389.9655810545	0.0137642017
4391.8943884275	0.0137605388
4393.8231958006	0.0136352526
4395.7520031736	0.0136242118
4397.6808105467	0.0136360154
4399.6096179197	0.0134865064
4401.5384252928	0.0135437725
4403.4672326658	0.0135493279
4405.3960400389	0.0134486873
4407.3248474119	0.0134281022
4409.2536547850	0.0133579718
4411.1824621580	0.0133816972
4413.1112695311	0.0134045538
4415.0400769041	0.0133418683
4416.9688842772	0.0133307949
4418.8976916502	0.0132542038
4420.8264990232	0.0132167730
4422.7553063963	0.0132740317
4424.6841137693	0.0131965205
4426.6129211424	0.0131129827
4428.5417285154	0.0132080056
4430.4705358885	0.0131056551
4432.3993432615	0.0129953455
4434.3281506346	0.0130533436
4436.2569580076	0.0129544549
4438.1857653807	0.0129771894
4440.1145727537	0.0129377972
4442.0433801268	0.0128537454
4443.9721874998	0.0128933378
4445.9009948729	0.0128107313
4447.8298022459	0.0127782067
4449.7586096189	0.0127710151
4451.6874169920	0.0127726551
4453.6162243650	0.0127050560
4455.5450317381	0.0126241883
4457.4738391111	0.0126289511
4459.4026464842	0.0125869755
4461.3314538572	0.0125521440
4463.2602612303	0.0125362631
4465.1890686033	0.0125665683
4467.1178759764	0.0125590116
4469.0466833494	0.0125020407
4470.9754907225	0.0124903303
4472.9042980955	0.0124908183
4474.8331054686	0.0124384956
4476.7619128416	0.0124717001
4478.6907202147	0.0124159828
4480.6195275877	0.0122733545
4482.5483349607	0.0123436479
4484.4771423338	0.0122772399
4486.4059497068	0.0122444965
4488.3347570799	0.0122197662
4490.2635644529	0.0121656395
4492.1923718260	0.0121946968
4494.1211791990	0.0120804841
4496.0499865721	0.0121108359
4497.9787939451	0.0120740216
4499.9076013182	0.0120640006
4501.8364086912	0.0119964248
4503.7652160643	0.0119084213
4505.6940234373	0.0120255351
4507.6228308104	0.0118812881
4509.5516381834	0.0119137941
4511.4804455564	0.0119248200
4513.4092529295	0.0117937597
4515.3380603025	0.0118338838
4517.2668676756	0.0117721483
4519.1956750486	0.0117495591
4521.1244824217	0.0117572248
4523.0532897947	0.0117537137
4524.9820971678	0.0117219836
4526.9109045408	0.0116758309
4528.8397119139	0.0115745589
4530.7685192869	0.0115547953
4532.6973266600	0.0116174659
4534.6261340330	0.0115650669
4536.5549414061	0.0115389545
4538.4837487791	0.0114965513
4540.4125561521	0.0114551820
4542.3413635252	0.0113736307
4544.2701708982	0.0114168348
4546.1989782713	0.0114018396
4548.1277856443	0.0112817474
4550.0565930174	0.0113476757
4551.9854003904	0.0113095772
4553.9142077635	0.0113003738
4555.8430151365	0.0112288203
4557.7718225096	0.0111790132
4559.7006298826	0.0112244282
4561.6294372557	0.0111682741
4563.5582446287	0.0111448932
4565.4870520018	0.0110877324
4567.4158593748	0.0110747628
4569.3446667478	0.0109806862
4571.2734741209	0.0109749185
4573.2022814939	0.0110025890
4575.1310888670	0.0109562650
4577.0598962400	0.0109805241
4578.9887036131	0.0109267235
4580.9175109861	0.0109726507
4582.8463183592	0.0108735245
4584.7751257322	0.0108201299
4586.7039331053	0.0108409505
4588.6327404783	0.0107333958
4590.5615478514	0.0107916929
4592.4903552244	0.0107474215
4594.4191625975	0.0107556600
4596.3479699705	0.0107247308
4598.2767773435	0.0106035508
4600.2055847166	0.0106626740
4602.1343920896	0.0106471702
4604.0631994627	0.0106293056
4605.9920068357	0.0105566513
4607.9208142088	0.0104521168
4609.8496215818	0.0104814153
4611.7784289549	0.0104779080
4613.7072363279	0.0104534123
4615.6360437010	0.0104721403
4617.5648510740	0.0104323300
4619.4936584471	0.0103665423
4621.4224658201	0.0103281680
4623.3512731932	0.0102960849
4625.2800805662	0.0103273233
4627.2088879393	0.0102635175
4629.1376953123	0.0101930508
4631.0665026853	0.0102853291
4632.9953100584	0.0102548013
4634.9241174314	0.0101724453
4636.8529248045	0.0101798605
4638.7817321775	0.0101209553
4640.7105395506	0.0100922007
4642.6393469236	0.0101410057
4644.5681542967	0.0100855883
4646.4969616697	0.0099869892
4648.4257690428	0.0099942125
4650.3545764158	0.0100084879
4652.2833837889	0.0100119915
4654.2121911619	0.0099523496
4656.1409985350	0.0098610148
4658.0698059080	0.0099328384
4659.9986132810	0.0099476688
4661.9274206541	0.0099278959
4663.8562280271	0.0098950546
4665.7850354002	0.0097760782
4667.7138427732	0.0097867148
4669.6426501463	0.0097554950
4671.5714575193	0.0097784977
4673.5002648924	0.0098039974
4675.4290722654	0.0097266417
4677.3578796385	0.0096962936
4679.2866870115	0.0096474085
4681.2154943846	0.0096932054
4683.1443017576	0.0096237073
4685.0731091307	0.0095980316
4687.0019165037	0.0095917080
4688.9307238767	0.0094688842
4690.8595312498	0.0095317140
4692.7883386228	0.0094724707
4694.7171459959	0.0094331093
4696.6459533689	0.0094898585
4698.5747607420	0.0094537344
4700.5035681150	0.0094287861
4702.4323754881	0.0094041647
4704.3611828611	0.0093414802
4706.2899902342	0.0093115792
4708.2187976072	0.0093727019
4710.1476049803	0.0093104746
4712.0764123533	0.0092668608
4714.0052197264	0.0091739474
4715.9340270994	0.0091435332
4717.8628344724	0.0092173424
4719.7916418455	0.0091283061
4721.7204492185	0.0092110410
4723.6492565916	0.0092338901
4725.5780639646	0.0091433935
4727.5068713377	0.0091269948
4729.4356787107	0.0091360323
4731.3644860838	0.0090821814
4733.2932934568	0.0090426737
4735.2221008299	0.0090891533
4737.1509082029	0.0089905141
4739.0797155760	0.0090127233
4741.0085229490	0.0089219045
4742.9373303221	0.0089090420
4744.8661376951	0.0089947283
4746.7949450682	0.0088756084
4748.7237524412	0.0089118043
4750.6525598142	0.0088220090
4752.5813671873	0.0088501917
4754.5101745603	0.0088350587
4756.4389819334	0.0088038091
4758.3677893064	0.0088835098
4760.2965966795	0.0087140929
4762.2254040525	0.0087299459
4764.1542114256	0.0086559132
4766.0830187986	0.0086471643
4768.0118261717	0.0087183956
4769.9406335447	0.0086307302
4771.8694409178	0.0086371088
4773.7982482908	0.0086139739
4775.7270556639	0.0086437156
4777.6558630369	0.0085457861
4779.5846704099	0.0084861349
4781.5134777830	0.0085290242
4783.4422851560	0.0085460711
4785.3710925291	0.0085417293
4787.2998999021	0.0084411912
4789.2287072752	0.0084469859
4791.1575146482	0.0084147798
4793.0863220213	0.0083693918
4795.0151293943	0.0084247859
4796.9439367674	0.0084318733
4798.8727441404	0.0083069541
4800.8015515135	0.0082966359
4802.7303588865	0.0083053932
4804.6591662596	0.0082405284
4806.5879736326	0.0082851341
4808.5167810056	0.0081779212
4810.4455883787	0.0082260501
4812.3743957517	0.0082631167
4814.3032031248	0.0081403768
4816.2320104978	0.0081405025
4818.1608178709	0.0080899941
4820.0896252439	0.0081420057
4822.0184326170	0.0081055276
4823.9472399900	0.0080529563
4825.8760473631	0.0080696326
4827.8048547361	0.0080209468
4829.7336621092	0.0080164969
4831.6624694822	0.0079838559
4833.5912768553	0.0079879537
4835.5200842283	0.0079818033
4837.4488916013	0.0079444125
4839.3776989744	0.0078817159
4841.3065063474	0.0078987898
4843.2353137205	0.0079603214
4845.1641210935	0.0079068393
4847.0929284666	0.0078070518
4849.0217358396	0.0078027751
4850.9505432127	0.0079018660
4852.8793505857	0.0078570005
4854.8081579588	0.0077928649
4856.7369653318	0.0077342400
4858.6657727049	0.0077491892
4860.5945800779	0.0077301962
4862.5233874510	0.0076069408
4864.4521948240	0.0076903496
4866.3810021971	0.0076153064
4868.3098095701	0.0076297792
4870.2386169431	0.0076901820
4872.1674243162	0.0074854624
4874.0962316892	0.0075702858
4876.0250390623	0.0076372679
4877.9538464353	0.0075392886
4879.8826538084	0.0075888447
4881.8114611814	0.0075484612
4883.7402685545	0.0074497545
4885.6690759275	0.0074721915
4887.5978833006	0.0074444166
4889.5266906736	0.0073989984
4891.4554980467	0.0073930994
4893.3843054197	0.0074030254
4895.3131127928	0.0074236849
4897.2419201658	0.0073473351
4899.1707275388	0.0073727649
4901.0995349119	0.0073569552
4903.0283422849	0.0072957398
4904.9571496580	0.0073270509
4906.8859570310	0.0072170440
4908.8147644041	0.0072083129
4910.7435717771	0.0072666630
4912.6723791502	0.0072366172
4914.6011865232	0.0071931463
4916.5299938963	0.0071415594
4918.4588012693	0.0071887495
4920.3876086424	0.0071621733
4922.3164160154	0.0070543527
4924.2452233885	0.0071014501
4926.1740307615	0.0070970198
4928.1028381345	0.0070380750
4930.0316455076	0.0071371347
4931.9604528806	0.0070829387
4933.8892602537	0.0070336051
4935.8180676267	0.0070724366
4937.7468749998	0.0069670156
4939.6756823728	0.0069888541
4941.6044897459	0.0069647664
4943.5332971189	0.0069225347
4945.4621044920	0.0069503901
4947.3909118650	0.0068784677
4949.3197192381	0.0068501555
4951.2485266111	0.0068164552
4953.1773339842	0.0068739797
4955.1061413572	0.0069132885
4957.0349487302	0.0067860200
4958.9637561033	0.0067391414
4960.8925634763	0.0067892447
4962.8213708494	0.0068167071
4964.7501782224	0.0067721279
4966.6789855955	0.0067261024
4968.6077929685	0.0066857785
4970.5366003416	0.0066954987
4972.4654077146	0.0067305635
4974.3942150877	0.0066533210
4976.3230224607	0.0066538421
4978.2518298338	0.0066863392
4980.1806372068	0.0066109356
4982.1094445799	0.0066131270
4984.0382519529	0.0066090589
4985.9670593259	0.0065236511
4987.8958666990	0.0065284753
4989.8246740720	0.0065647122
4991.7534814451	0.0064802868
4993.6822888181	0.0064560832
4995.6110961912	0.0064912625
4997.5399035642	0.0064515071
4999.4687109373	0.0065335492
5001.3975183103	0.0065042740
5003.3263256834	0.0063657514
5005.2551330564	0.0063870074
5007.1839404295	0.0063801864
5009.1127478025	0.0063719940
5011.0415551756	0.0063687218
5012.9703625486	0.0063923728
5014.8991699217	0.0063405288
5016.8279772947	0.0063057784
5018.7567846677	0.0063560670
5020.6855920408	0.0062543838
5022.6143994138	0.0062894756
5024.5432067869	0.0062723272
5026.4720141599	0.0062211333
5028.4008215330	0.0062575666
5030.3296289060	0.0061705345
5032.2584362791	0.0061854552
5034.1872436521	0.0061477749
5036.1160510252	0.0061561214
5038.0448583982	0.0061348826
5039.9736657713	0.0060698707
5041.9024731443	0.0061257225
5043.8312805174	0.0060475315
5045.7600878904	0.0061046369
5047.6888952634	0.0060946615
5049.6177026365	0.0059708524
5051.5465100095	0.0060071829
5053.4753173826	0.0059623104
5055.4041247556	0.0059133796
5057.3329321287	0.0059683500
5059.2617395017	0.0060295472
5061.1905468748	0.0059520886
5063.1193542478	0.0059297155
5065.0481616209	0.0059845569
5066.9769689939	0.0059207920
5068.9057763670	0.0058915168
5070.8345837400	0.0058961981
5072.7633911131	0.0058990773
5074.6921984861	0.0058372309
5076.6210058591	0.0057947943
5078.5498132322	0.0058504730
5080.4786206052	0.0058053406
5082.4074279783	0.0057064639
5084.3362353513	0.0057069035
5086.2650427244	0.0058196485
5088.1938500974	0.0058422396
5090.1226574705	0.0057395957
5092.0514648435	0.0057724249
5093.9802722166	0.0057349522
5095.9090795896	0.0055971956
5097.8378869627	0.0057170410
5099.7666943357	0.0057189250
5101.6955017088	0.0055890372
5103.6243090818	0.0056534163
5105.5531164548	0.0056198905
5107.4819238279	0.0055846367
5109.4107312009	0.0055960165
5111.3395385740	0.0056084674
5113.2683459470	0.0055978158
5115.1971533201	0.0054924218
5117.1259606931	0.0055055115
5119.0547680662	0.0054590711
5120.9835754392	0.0055124275
5122.9123828123	0.0056000450
5124.8411901853	0.0054513551
5126.7699975584	0.0055205696
5128.6988049314	0.0055637937
5130.6276123045	0.0054264553
5132.5564196775	0.0054040155
5134.4852270506	0.0054118661
5136.4140344236	0.0054202136
5138.3428417966	0.0054002646
5140.2716491697	0.0053265644
5142.2004565427	0.0053130239
5144.1292639158	0.0054085506
5146.0580712888	0.0053918008
5147.9868786619	0.0053345021
5149.9156860349	0.0052964799
5151.8444934080	0.0053075915
5153.7733007810	0.0053528808
5155.7021081541	0.0051761125
5157.6309155271	0.0052211592
5159.5597229002	0.0052832752
5161.4885302732	0.0051516900
5163.4173376463	0.0052154334
5165.3461450193	0.0052159624
5167.2749523923	0.0052530854
5169.2037597654	0.0052390182
5171.1325671384	0.0051539810
5173.0613745115	0.0051429374
5174.9901818845	0.0051266057
5176.9189892576	0.0051708575
5178.8477966306	0.0051534651
5180.7766040037	0.0051575936
5182.7054113767	0.0050825044
5184.6342187498	0.0050055403
5186.5630261228	0.0049954415
5188.4918334959	0.0050247423
5190.4206408689	0.0050605913
5192.3494482420	0.0049917484
5194.2782556150	0.0050732451
5196.2070629880	0.0049913507
5198.1358703611	0.0049725636
5200.0646777341	0.0050515840
5201.9934851072	0.0049633346
5203.9222924802	0.0050377315
5205.8510998533	0.0049238633
5207.7799072263	0.0048361365
5209.7087145994	0.0048657637
5211.6375219724	0.0048946477
5213.5663293455	0.0049473052
5215.4951367185	0.0048414050
5217.4239440916	0.0048523014
5219.3527514646	0.0048497319
5221.2815588377	0.0048473598
5223.2103662107	0.0048303334
5225.1391735837	0.0047603333
5227.0679809568	0.0048249168
5228.9967883298	0.0047931746
5230.9255957029	0.0046667373
5232.8544030759	0.0046897507
5234.7832104490	0.0047546243
5236.7120178220	0.0047392379
5238.6408251951	0.0047596404
5240.5696325681	0.0046913438
5242.4984399412	0.0047068046
5244.4272473142	0.0046717632
5246.3560546873	0.0046116030
5248.2848620603	0.0047050351
5250.2136694334	0.0045630550
5252.1424768064	0.0046260105
5254.0712841795	0.0045963526
5256.0000915525	0.0044864444
5257.9288989255	0.0046373196
5259.8577062986	0.0045759901
5261.7865136716	0.0045949444
5263.7153210447	0.0044993348
5265.6441284177	0.0044919346
5267.5729357908	0.0046077818
5269.5017431638	0.0044582905
5271.4305505369	0.0044926517
5273.3593579099	0.0045655277
5275.2881652830	0.0045164893
5277.2169726560	0.0044922247
5279.1457800291	0.0044833459
5281.0745874021	0.0044873180
5283.0033947752	0.0045404369
5284.9322021482	0.0044866074
5286.8610095212	0.0044668121
5288.7898168943	0.0044598337
5290.7186242673	0.0043247053
5292.6474316404	0.0044088503
5294.5762390134	0.0044039162
5296.5050463865	0.0043864027
5298.4338537595	0.0044148164
5300.3626611326	0.0043737041
5302.2914685056	0.0043948432
5304.2202758787	0.0043203118
5306.1490832517	0.0043297131
5308.0778906248	0.0042682607
5310.0066979978	0.0042853011
5311.9355053709	0.0043113651
5313.8643127439	0.0042485772
5315.7931201169	0.0043169074
5317.7219274900	0.0042600902
5319.6507348630	0.0042756740
5321.5795422361	0.0042000636
5323.5083496091	0.0041583721
5325.4371569822	0.0042582825
5327.3659643552	0.0041519571
5329.2947717283	0.0041276291
5331.2235791013	0.0041609732
5333.1523864744	0.0041195210
5335.0811938474	0.0041325586
5337.0100012205	0.0041359598
5338.9388085935	0.0040365094
5340.8676159666	0.0041153831
5342.7964233396	0.0041537080
5344.7252307126	0.0040383385
5346.6540380857	0.0041031195
5348.5828454587	0.0040735798
5350.5116528318	0.0040730536
5352.4404602048	0.0041000489
5354.3692675779	0.0040180106
5356.2980749509	0.0039993608
5358.2268823240	0.0040168921
5360.1556896970	0.0040324666
5362.0844970701	0.0040032696
5364.0133044431	0.0040029865
5365.9421118162	0.0039756689
5367.8709191892	0.0039803479
5369.7997265623	0.0040228842
5371.7285339353	0.0040271301
5373.6573413083	0.0039811032
5375.5861486814	0.0038856999
5377.5149560544	0.0038886464
5379.4437634275	0.0039265696
5381.3725708005	0.0039504450
5383.3013781736	0.0039231461
5385.2301855466	0.0038674423
5387.1589929197	0.0038271616
5389.0878002927	0.0039092079
5391.0166076658	0.0039188089
5392.9454150388	0.0037479866
5394.8742224119	0.0038264317
5396.8030297849	0.0038229558
5398.7318371580	0.0037574004
5400.6606445310	0.0038946378
5402.5894519041	0.0038384937
5404.5182592771	0.0037376070
5406.4470666501	0.0038152807
5408.3758740232	0.0038031186
5410.3046813962	0.0037047709
5412.2334887693	0.0037426334
5414.1622961423	0.0036796944
5416.0911035154	0.0036802706
5418.0199108884	0.0037773610
5419.9487182615	0.0036976510
5421.8775256345	0.0037209443
5423.8063330076	0.0037498337
5425.7351403806	0.0037342838
5427.6639477537	0.0036508422
5429.5927551267	0.0035190126
5431.5215624998	0.0036160708
5433.4503698728	0.0036607143
5435.3791772458	0.0035606506
5437.3079846189	0.0036016852
5439.2367919919	0.0035803113
5441.1655993650	0.0035157832
5443.0944067380	0.0035952574
5445.0232141111	0.0034844035
5446.9520214841	0.0034901081
5448.8808288572	0.0035945275
5450.8096362302	0.0035039859
5452.7384436033	0.0035365834
5454.6672509763	0.0034617914
5456.5960583494	0.0035166417
5458.5248657224	0.0036153011
5460.4536730955	0.0034181168
5462.3824804685	0.0034747741
5464.3112878415	0.0035547873
5466.2400952146	0.0034816568
5468.1689025876	0.0035288474
5470.0977099607	0.0034589935
5472.0265173337	0.0034343908
5473.9553247068	0.0035181879
5475.8841320798	0.0033899210
5477.8129394529	0.0033983476
5479.7417468259	0.0034491397
5481.6705541990	0.0033579143
5483.5993615720	0.0034668413
5485.5281689451	0.0034855932
5487.4569763181	0.0033638750
5489.3857836912	0.0033577117
5491.3145910642	0.0033644126
5493.2433984372	0.0032759148
5495.1722058103	0.0032965334
5497.1010131833	0.0033677295
5499.0298205564	0.0032793642
5500.9586279294	0.0032619105
5502.8874353025	0.0032835503
5504.8162426755	0.0033383463
5506.7450500486	0.0033357288
5508.6738574216	0.0032756112
5510.6026647947	0.0032585682
5512.5314721677	0.0032063695
5514.4602795408	0.0032576304
5516.3890869138	0.0032544299
5518.3178942869	0.0032510813
5520.2467016599	0.0032780943
5522.1755090330	0.0032450864
5524.1043164060	0.0032424119
5526.0331237790	0.0032381751
5527.9619311521	0.0031739217
5529.8907385251	0.0031035845
5531.8195458982	0.0032288150
5533.7483532712	0.0032312081
5535.6771606443	0.0031576082
5537.6059680173	0.0031405832
5539.5347753904	0.0030908126
5541.4635827634	0.0031756684
5543.3923901365	0.0031480249
5545.3211975095	0.0030996702
5547.2500048826	0.0031323228
5549.1788122556	0.0031732148
5551.1076196287	0.0031190161
5553.0364270017	0.0030481776
5554.9652343747	0.0030860598
5556.8940417478	0.0030425068
5558.8228491208	0.0030966438
5560.7516564939	0.0030679663
5562.6804638669	0.0030551367
5564.6092712400	0.0031284722
5566.5380786130	0.0030395654
5568.4668859861	0.0030733044
5570.3956933591	0.0030481773
5572.3245007322	0.0029580579
5574.2533081052	0.0030312575
5576.1821154783	0.0030937572
5578.1109228513	0.0030538207
5580.0397302244	0.0030228077
5581.9685375974	0.0029896069
5583.8973449704	0.0029433032
5585.8261523435	0.0029744520
5587.7549597165	0.0029874840
5589.6837670896	0.0029716128
5591.6125744626	0.0029656640
5593.5413818357	0.0029867510
5595.4701892087	0.0029161281
5597.3989965818	0.0029287930
5599.3278039548	0.0029784881
5601.2566113279	0.0028897338
5603.1854187009	0.0029823007
5605.1142260740	0.0029926240
5607.0430334470	0.0029561468
5608.9718408201	0.0029102962
5610.9006481931	0.0028526275
5612.8294555661	0.0029458040
5614.7582629392	0.0028570145
5616.6870703122	0.0028818347
5618.6158776853	0.0029106459
5620.5446850583	0.0028154696
5622.4734924314	0.0028466447
5624.4022998044	0.0027953070
5626.3311071775	0.0027794086
5628.2599145505	0.0028285785
5630.1887219236	0.0028331527
5632.1175292966	0.0028025033
5634.0463366697	0.0027736665
5635.9751440427	0.0027298001
5637.9039514158	0.0027896189
5639.8327587888	0.0028625857
5641.7615661619	0.0027728765
5643.6903735349	0.0027670187
5645.6191809079	0.0027377589
5647.5479882810	0.0027520568
5649.4767956540	0.0028326162
5651.4056030271	0.0027851956
5653.3344104001	0.0026961775
5655.2632177732	0.0026310480
5657.1920251462	0.0027258834
5659.1208325193	0.0027660965
5661.0496398923	0.0027221744
5662.9784472654	0.0026900116
5664.9072546384	0.0026251599
5666.8360620115	0.0026807373
5668.7648693845	0.0027014958
5670.6936767576	0.0026769482
5672.6224841306	0.0026814276
5674.5512915036	0.0026857634
5676.4800988767	0.0026421109
5678.4089062497	0.0025316086
5680.3377136228	0.0026053600
5682.2665209958	0.0026270472
5684.1953283689	0.0025346808
5686.1241357419	0.0026216870
5688.0529431150	0.0026201680
5689.9817504880	0.0026070850
5691.9105578611	0.0026493969
5693.8393652341	0.0025629150
5695.7681726072	0.0025572963
5697.6969799802	0.0025547205
5699.6257873533	0.0025175950
5701.5545947263	0.0025434061
5703.4834020993	0.0025140317
5705.4122094724	0.0024905661
5707.3410168454	0.0025162473
5709.2698242185	0.0025159817
5711.1986315915	0.0024654425
5713.1274389646	0.0024690293
5715.0562463376	0.0025349450
5716.9850537107	0.0025228315
5718.9138610837	0.0024909182
5720.8426684568	0.0024761755
5722.7714758298	0.0024502808
5724.7002832029	0.0024564723
5726.6290905759	0.0023995759
5728.5578979490	0.0023639831
5730.4867053220	0.0024371089
5732.4155126950	0.0024229335
5734.3443200681	0.0024261398
5736.2731274411	0.0024640488
5738.2019348142	0.0024185074
5740.1307421872	0.0023959572
5742.0595495603	0.0023689729
5743.9883569333	0.0023661084
5745.9171643064	0.0024112554
5747.8459716794	0.0023915828
5749.7747790525	0.0023409030
5751.7035864255	0.0023984381
5753.6323937986	0.0024307622
5755.5612011716	0.0023630050
5757.4900085447	0.0023457580
5759.4188159177	0.0023206288
5761.3476232907	0.0023286054
5763.2764306638	0.0023251758
5765.2052380368	0.0022726338
5767.1340454099	0.0022881350
5769.0628527829	0.0022942964
5770.9916601560	0.0023163399
5772.9204675290	0.0023139510
5774.8492749021	0.0022322354
5776.7780822751	0.0022344037
5778.7068896482	0.0022677095
5780.6356970212	0.0022156416
5782.5645043943	0.0022117598
5784.4933117673	0.0022364301
5786.4221191404	0.0022471335
5788.3509265134	0.0022173238
5790.2797338865	0.0021688608
5792.2085412595	0.0022372892
5794.1373486325	0.0022355393
5796.0661560056	0.0022122487
5797.9949633786	0.0022021646
5799.9237707517	0.0021896842
5801.8525781247	0.0022363090
5803.7813854978	0.0021642507
5805.7101928708	0.0021221768
5807.6390002439	0.0021402512
5809.5678076169	0.0021637534
5811.4966149900	0.0021215908
5813.4254223630	0.0020895195
5815.3542297361	0.0021316153
5817.2830371091	0.0020726309
5819.2118444822	0.0021085325
5821.1406518552	0.0021484327
5823.0694592282	0.0021348686
5824.9982666013	0.0020612660
5826.9270739743	0.0020354916
5828.8558813474	0.0021546751
5830.7846887204	0.0021259994
5832.7134960935	0.0021118494
5834.6423034665	0.0021157651
5836.5711108396	0.0020766903
5838.4999182126	0.0020178747
5840.4287255857	0.0019943186
5842.3575329587	0.0020083881
5844.2863403318	0.0020676653
5846.2151477048	0.0021311394
5848.1439550779	0.0019681805
5850.0727624509	0.0020521015
5852.0015698239	0.0020883407
5853.9303771970	0.0019653402
5855.8591845700	0.0020527104
5857.7879919431	0.0019845502
5859.7167993161	0.0020087492
5861.6456066892	0.0019939772
5863.5744140622	0.0019603341
5865.5032214353	0.0020448840
5867.4320288083	0.0019789950
5869.3608361814	0.0019614203
5871.2896435544	0.0019716546
5873.2184509275	0.0019556698
5875.1472583005	0.0019451797
5877.0760656736	0.0019360106
5879.0048730466	0.0018992141
5880.9336804196	0.0019588042
5882.8624877927	0.0019600112
5884.7912951657	0.0019048497
5886.7201025388	0.0019560808
5888.6489099118	0.0018585110
5890.5777172849	0.0019037445
5892.5065246579	0.0019305260
5894.4353320310	0.0018831852
5896.3641394040	0.0019473220
5898.2929467771	0.0018920460
5900.2217541501	0.0019320020
5902.1505615232	0.0019180152
5904.0793688962	0.0018543870
5906.0081762693	0.0018801270
5907.9369836423	0.0018745337
5909.8657910154	0.0018586265
5911.7945983884	0.0018432426
5913.7234057614	0.0018637469
5915.6522131345	0.0018335276
5917.5810205075	0.0018294924
5919.5098278806	0.0018840114
5921.4386352536	0.0018425103
5923.3674426267	0.0017907432
5925.2962499997	0.0018709479
5927.2250573728	0.0018633198
5929.1538647458	0.0018244334
5931.0826721189	0.0018359250
5933.0114794919	0.0017607047
5934.9402868650	0.0018202951
5936.8690942380	0.0018232997
5938.7979016111	0.0017681932
5940.7267089841	0.0017870429
5942.6555163571	0.0018036324
5944.5843237302	0.0018403379
5946.5131311032	0.0017983271
5948.4419384763	0.0018276769
5950.3707458493	0.0017487418
5952.2995532224	0.0016637226
5954.2283605954	0.0017478276
5956.1571679685	0.0017058291
5958.0859753415	0.0016937057
5960.0147827146	0.0017650353
5961.9435900876	0.0017188272
5963.8723974607	0.0016612835
5965.8012048337	0.0017479013
5967.7300122068	0.0017255130
5969.6588195798	0.0016700457
5971.5876269528	0.0016887285
5973.5164343259	0.0016541348
5975.4452416989	0.0016766267
5977.3740490720	0.0017034435
5979.3028564450	0.0017516152
5981.2316638181	0.0016624103
5983.1604711911	0.0016357951
5985.0892785642	0.0017678908
5987.0180859372	0.0016947205
5988.9468933103	0.0016388209
5990.8757006833	0.0016569135
5992.8045080564	0.0016505952
5994.7333154294	0.0016145153
5996.6621228025	0.0016616827
5998.5909301755	0.0016736764
6000.5197375485	0.0015791386
