399.2631262207	0.0012868857
401.1919335938	0.0016790105
403.1207409668	0.0021417963
405.0495483398	0.0020122547
406.9783557129	0.0022919099
408.9071630859	0.0021383436
410.8359704590	0.0017798911
412.7647778320	0.0022158248
414.6935852051	0.0027856408
416.6223925781	0.0025162569
418.5511999512	0.0020530839
420.4800073242	0.0023383028
422.4088146973	0.0025637741
424.3376220703	0.0025891310
426.2664294434	0.0026528807
428.1952368164	0.0027089841
430.1240441895	0.0029859538
432.0528515625	0.0024762901
433.9816589355	0.0016789739
435.9104663086	0.0024876029
437.8392736816	0.0025952607
439.7680810547	0.0022378361
441.6968884277	0.0030024040
443.6256958008	0.0025658109
445.5545031738	0.0020528794
447.4833105469	0.0020267228
449.4121179199	0.0023695121
451.3409252930	0.0021232031
453.2697326660	0.0013088702
455.1985400391	0.0020354334
457.1273474121	0.0017527384
459.0561547852	0.0015924704
460.9849621582	0.0018718302
462.9137695313	0.0016645282
464.8425769043	0.0019551469
466.7713842773	0.0015624014
468.7001916504	0.0014709109
470.6289990234	0.0010353777
472.5578063965	0.0013502445
474.4866137695	0.0020734677
476.4154211426	0.0011842947
478.3442285156	0.0010119884
480.2730358887	0.0010881787
482.2018432617	0.0013785365
484.1306506348	0.0017814670
486.0594580078	0.0012668156
487.9882653809	0.0012357564
489.9170727539	0.0010530617
491.8458801270	0.0007234067
493.7746875000	0.0007291611
495.7034948730	0.0005362301
497.6323022461	0.0012156004
499.5611096191	0.0008521669
501.4899169922	0.0006645547
503.4187243652	0.0018461591
505.3475317383	0.0008504605
507.2763391113	0.0009554549
509.2051464844	0.0011160634
511.1339538574	0.0004540916
513.0627612305	0.0015302507
514.9915686035	0.0007500947
516.9203759766	0.0007323810
518.8491833496	0.0012920301
520.7779907227	0.0007243580
522.7067980957	0.0010116303
524.6356054688	0.0007969063
526.5644128418	0.0011146560
528.4932202148	0.0009166904
530.4220275879	0.0004083874
532.3508349609	0.0008752380
534.2796423340	0.0009760861
536.2084497070	0.0012723997
538.1372570801	0.0011893844
540.0660644531	0.0006541027
541.9948718262	0.0007920681
543.9236791992	0.0010649017
545.8524865723	0.0006916915
547.7812939453	0.0005536426
549.7101013184	0.0009294562
551.6389086914	0.0013715553
553.5677160645	0.0014654669
555.4965234375	0.0011360713
557.4253308105	0.0009035814
559.3541381836	0.0006340411
561.2829455566	0.0011700023
563.2117529297	0.0011665233
565.1405603027	0.0008907375
567.0693676758	0.0011988003
568.9981750488	0.0005402557
570.9269824219	0.0011742131
572.8557897949	0.0014375779
574.7845971680	0.0005806553
576.7134045410	0.0010151808
578.6422119141	0.0007547808
580.5710192871	0.0007489246
582.4998266602	0.0012353230
584.4286340332	0.0008301922
586.3574414063	0.0008177300
588.2862487793	0.0008285825
590.2150561523	0.0007832081
592.1438635254	0.0010622189
594.0726708984	0.0006192481
596.0014782715	0.0007237558
597.9302856445	0.0012669063
599.8590930176	0.0005757986
601.7879003906	0.0005477936
603.7167077637	0.0010651390
605.6455151367	0.0010610539
607.5743225098	0.0010371209
609.5031298828	0.0008860568
611.4319372559	0.0009107314
613.3607446289	0.0009926029
615.2895520020	0.0009378047
617.2183593750	0.0007070216
619.1471667480	0.0006086427
621.0759741211	0.0006765473
623.0047814941	0.0007841148
624.9335888672	0.0008528469
626.8623962402	0.0005465283
628.7912036133	0.0007349610
630.7200109863	0.0010610571
632.6488183594	0.0009255214
634.5776257324	0.0012306911
636.5064331055	0.0016061424
638.4352404785	0.0017056020
640.3640478516	0.0020587200
642.2928552246	0.0023806903
644.2216625977	0.0024812943
646.1504699707	0.0029169032
648.0792773438	0.0032688929
650.0080847168	0.0029842590
651.9368920898	0.0029945676
653.8656994629	0.0032073879
655.7945068359	0.0032120035
657.7233142090	0.0034408639
659.6521215820	0.0036324665
661.5809289551	0.0034961239
663.5097363281	0.0037425975
665.4385437012	0.0041551758
667.3673510742	0.0035985741
669.2961584473	0.0040377681
671.2249658203	0.0048095034
673.1537731934	0.0043403050
675.0825805664	0.0046712910
677.0113879395	0.0048549492
678.9401953125	0.0049717859
680.8690026855	0.0052193864
682.7978100586	0.0046718959
684.7266174316	0.0046234042
686.6554248047	0.0049823262
688.5842321777	0.0049733287
690.5130395508	0.0050843041
692.4418469238	0.0056115072
694.3706542969	0.0056973277
696.2994616699	0.0061985534
698.2282690430	0.0072812103
700.1570764160	0.0080759879
702.0858837891	0.0078359172
704.0146911621	0.0068651503
705.9434985352	0.0066348473
707.8723059082	0.0054251980
709.8011132813	0.0044017816
711.7299206543	0.0033579578
713.6587280273	0.0015994819
715.5875354004	0.0013446931
717.5163427734	0.0009626977
719.4451501465	0.0007143660
721.3739575195	0.0004946896
723.3027648926	0.0004829023
725.2315722656	0.0005877734
727.1603796387	0.0003068598
729.0891870117	0.0008113770
731.0179943848	0.0005961295
732.9468017578	0.0004421092
734.8756091309	0.0007163937
736.8044165039	0.0005521343
738.7332238770	0.0004949076
740.6620312500	0.0006935628
742.5908386230	0.0006453634
744.5196459961	0.0007863997
746.4484533691	0.0008849219
748.3772607422	0.0006528303
750.3060681152	0.0007404306
752.2348754883	0.0008494193
754.1636828613	0.0007351665
756.0924902344	0.0006744518
758.0212976074	0.0007802993
759.9501049805	0.0008316868
761.8789123535	0.0007450359
763.8077197266	0.0010381748
765.7365270996	0.0006942655
767.6653344727	0.0004777457
769.5941418457	0.0008245521
771.5229492188	0.0005316845
773.4517565918	0.0009306574
775.3805639648	0.0008788417
777.3093713379	0.0007310127
779.2381787109	0.0008006459
781.1669860840	0.0005488140
783.0957934570	0.0008263910
785.0246008301	0.0006528315
786.9534082031	0.0009298354
788.8822155762	0.0007020639
790.8110229492	0.0006381810
792.7398303223	0.0010110338
794.6686376953	0.0007943972
796.5974450684	0.0012180492
798.5262524414	0.0012219471
800.4550598145	0.0012507037
802.3838671875	0.0010316650
804.3126745605	0.0008375529
806.2414819336	0.0009179555
808.1702893066	0.0007504914
810.0990966797	0.0008480990
812.0279040527	0.0005879855
813.9567114258	0.0007145354
815.8855187988	0.0006791839
817.8143261719	0.0005557011
819.7431335449	0.0005491215
821.6719409180	0.0006055150
823.6007482910	0.0007617511
825.5295556641	0.0007530331
827.4583630371	0.0011970537
829.3871704102	0.0009448063
831.3159777832	0.0012115159
833.2447851563	0.0016382486
835.1735925293	0.0014377706
837.1023999023	0.0015762879
839.0312072754	0.0015106699
840.9600146484	0.0016049872
842.8888220215	0.0015301415
844.8176293945	0.0015483171
846.7464367676	0.0014827829
848.6752441406	0.0014775791
850.6040515137	0.0013176135
852.5328588867	0.0008364194
854.4616662598	0.0010852907
856.3904736328	0.0009270229
858.3192810059	0.0006999634
860.2480883789	0.0009110481
862.1768957520	0.0009137820
864.1057031250	0.0004827345
866.0345104980	0.0004554231
867.9633178711	0.0009142664
869.8921252441	0.0006759641
871.8209326172	0.0007057070
873.7497399902	0.0008450276
875.6785473633	0.0006086309
877.6073547363	0.0005533277
879.5361621094	0.0005146709
881.4649694824	0.0005689818
883.3937768555	0.0007470487
885.3225842285	0.0007257387
887.2513916016	0.0004248048
889.1801989746	0.0005296108
891.1090063477	0.0006503619
893.0378137207	0.0005693011
894.9666210938	0.0006042815
896.8954284668	0.0006724228
898.8242358398	0.0007440227
900.7530432129	0.0006655668
902.6818505859	0.0006116300
904.6106579590	0.0004449961
906.5394653320	0.0003711130
908.4682727051	0.0005712185
910.3970800781	0.0009147616
912.3258874512	0.0009591253
914.2546948242	0.0008949247
916.1835021973	0.0008570891
918.1123095703	0.0008073394
920.0411169434	0.0012249944
921.9699243164	0.0009736748
923.8987316895	0.0011107326
925.8275390625	0.0016378314
927.7563464355	0.0015286780
929.6851538086	0.0018857383
931.6139611816	0.0018145673
933.5427685547	0.0019868796
935.4715759277	0.0023095589
937.4003833008	0.0021490986
939.3291906738	0.0024350574
941.2579980469	0.0025568181
943.1868054199	0.0026386057
945.1156127930	0.0025575713
947.0444201660	0.0023661726
948.9732275391	0.0024456140
950.9020349121	0.0026254584
952.8308422852	0.0026020617
954.7596496582	0.0021386622
956.6884570313	0.0022926913
958.6172644043	0.0026203734
960.5460717773	0.0023170563
962.4748791504	0.0022382594
964.4036865234	0.0023423093
966.3324938965	0.0025069609
968.2613012695	0.0027074334
970.1901086426	0.0027020283
972.1189160156	0.0027881563
974.0477233887	0.0029888870
975.9765307617	0.0032572055
977.9053381348	0.0034041891
979.8341455078	0.0037451021
981.7629528809	0.0043022982
983.6917602539	0.0045304275
985.6205676270	0.0050111990
987.5493750000	0.0056395452
989.4781823730	0.0064082420
991.4069897461	0.0071468274
993.3357971191	0.0076358090
995.2646044922	0.0086043486
997.1934118652	0.0092395768
999.1222192383	0.0098283477
1001.0510266113	0.0108677782
1002.9798339844	0.0114768883
1004.9086413574	0.0120593794
1006.8374487305	0.0128742605
1008.7662561035	0.0138991140
1010.6950634766	0.0147715313
1012.6238708496	0.0152078234
1014.5526782227	0.0161374956
1016.4814855957	0.0172215328
1018.4102929688	0.0177991018
1020.3391003418	0.0186267532
1022.2679077148	0.0195250381
1024.1967150879	0.0203411989
1026.1255224609	0.0211527646
1028.0543298340	0.0217107907
1029.9831372070	0.0224649236
1031.9119445801	0.0228647664
1033.8407519531	0.0231920332
1035.7695593262	0.0239287876
1037.6983666992	0.0240169466
1039.6271740723	0.0239543878
1041.5559814453	0.0240569524
1043.4847888184	0.0238540228
1045.4135961914	0.0238411147
1047.3424035645	0.0236413684
1049.2712109375	0.0229343362
1051.2000183105	0.0226172395
1053.1288256836	0.0222672056
1055.0576330566	0.0215406548
1056.9864404297	0.0211397484
1058.9152478027	0.0207667314
1060.8440551758	0.0201895013
1062.7728625488	0.0193389393
1064.7016699219	0.0186838843
1066.6304772949	0.0182080679
1068.5592846680	0.0171649493
1070.4880920410	0.0165298562
1072.4168994141	0.0160904229
1074.3457067871	0.0152145289
1076.2745141602	0.0146581950
1078.2033215332	0.0138984770
1080.1321289062	0.0130941151
1082.0609362793	0.0125401132
1083.9897436523	0.0118572479
1085.9185510254	0.0114378631
1087.8473583984	0.0108388644
1089.7761657715	0.0103386510
1091.7049731445	0.0098639224
1093.6337805176	0.0092369169
1095.5625878906	0.0093668997
1097.4913952637	0.0091300830
1099.4202026367	0.0085385777
1101.3490100098	0.0082266368
1103.2778173828	0.0081478814
1105.2066247559	0.0082986010
1107.1354321289	0.0079044141
1109.0642395019	0.0076706070
1110.9930468750	0.0075267009
1112.9218542480	0.0074815815
1114.8506616211	0.0077168597
1116.7794689941	0.0075466949
1118.7082763672	0.0075745666
1120.6370837402	0.0075223064
1122.5658911133	0.0074526081
1124.4946984863	0.0076664654
1126.4235058594	0.0076806396
1128.3523132324	0.0079601360
1130.2811206055	0.0083288047
1132.2099279785	0.0082641467
1134.1387353516	0.0085418485
1136.0675427246	0.0090421261
1137.9963500977	0.0093896464
1139.9251574707	0.0100621842
1141.8539648437	0.0105702206
1143.7827722168	0.0113151185
1145.7115795898	0.0119771287
1147.6403869629	0.0123696504
1149.5691943359	0.0134373670
1151.4980017090	0.0142021086
1153.4268090820	0.0148515161
1155.3556164551	0.0156134404
1157.2844238281	0.0160304476
1159.2132312012	0.0165369250
1161.1420385742	0.0173736252
1163.0708459473	0.0180958733
1164.9996533203	0.0184921976
1166.9284606934	0.0193514265
1168.8572680664	0.0201553591
1170.7860754394	0.0208404195
1172.7148828125	0.0216206312
1174.6436901855	0.0222169310
1176.5724975586	0.0230706800
1178.5013049316	0.0240349229
1180.4301123047	0.0250644833
1182.3589196777	0.0260668620
1184.2877270508	0.0273302719
1186.2165344238	0.0287303329
1188.1453417969	0.0298019368
1190.0741491699	0.0311573409
1192.0029565430	0.0326363072
1193.9317639160	0.0340155326
1195.8605712891	0.0356439874
1197.7893786621	0.0372005031
1199.7181860351	0.0389106013
1201.6469934082	0.0407913700
1203.5758007812	0.0423645675
1205.5046081543	0.0440104678
1207.4334155273	0.0453769937
1209.3622229004	0.0468782410
1211.2910302734	0.0484223291
1213.2198376465	0.0497777537
1215.1486450195	0.0514201261
1217.0774523926	0.0521438867
1219.0062597656	0.0529870391
1220.9350671387	0.0539857410
1222.8638745117	0.0545834973
1224.7926818848	0.0551756918
1226.7214892578	0.0552700907
1228.6502966308	0.0557830259
1230.5791040039	0.0560357645
1232.5079113769	0.0561385863
1234.4367187500	0.0561963730
1236.3655261230	0.0560050681
1238.2943334961	0.0561016910
1240.2231408691	0.0559708253
1242.1519482422	0.0557818338
1244.0807556152	0.0553207099
1246.0095629883	0.0552380532
1247.9383703613	0.0549499840
1249.8671777344	0.0543436036
1251.7959851074	0.0539857559
1253.7247924805	0.0533366129
1255.6535998535	0.0528020151
1257.5824072266	0.0520648286
1259.5112145996	0.0514189750
1261.4400219726	0.0504212528
1263.3688293457	0.0497584976
1265.2976367187	0.0493931696
1267.2264440918	0.0486530885
1269.1552514648	0.0481762961
1271.0840588379	0.0470521599
1273.0128662109	0.0463896319
1274.9416735840	0.0456064045
1276.8704809570	0.0445197746
1278.7992883301	0.0437440537
1280.7280957031	0.0426521152
1282.6569030762	0.0421002395
1284.5857104492	0.0412901901
1286.5145178223	0.0402694270
1288.4433251953	0.0395455807
1290.3721325683	0.0391853228
1292.3009399414	0.0388217978
1294.2297473144	0.0385523103
1296.1585546875	0.0384642407
1298.0873620605	0.0382071435
1300.0161694336	0.0383517593
1301.9449768066	0.0383577310
1303.8737841797	0.0388386548
1305.8025915527	0.0391417742
1307.7313989258	0.0395242311
1309.6602062988	0.0404255837
1311.5890136719	0.0409307554
1313.5178210449	0.0420548618
1315.4466284180	0.0428539217
1317.3754357910	0.0436559767
1319.3042431640	0.0448634550
1321.2330505371	0.0463218726
1323.1618579101	0.0479050688
1325.0906652832	0.0491483472
1327.0194726562	0.0507556647
1328.9482800293	0.0520124063
1330.8770874023	0.0532511957
1332.8058947754	0.0544807240
1334.7347021484	0.0555689409
1336.6635095215	0.0562146902
1338.5923168945	0.0558131859
1340.5211242676	0.0564493313
1342.4499316406	0.0584968254
1344.3787390137	0.0590932369
1346.3075463867	0.0587482303
1348.2363537597	0.0589974970
1350.1651611328	0.0585269704
1352.0939685058	0.0583622418
1354.0227758789	0.0577820241
1355.9515832519	0.0571980588
1357.8803906250	0.0570617393
1359.8091979980	0.0558188148
1361.7380053711	0.0543256886
1363.6668127441	0.0533926636
1365.5956201172	0.0549285449
1367.5244274902	0.0544491634
1369.4532348633	0.0536501259
1371.3820422363	0.0542685539
1373.3108496094	0.0519073270
1375.2396569824	0.0522427186
1377.1684643555	0.0531592816
1379.0972717285	0.0530629605
1381.0260791015	0.0531228036
1382.9548864746	0.0528601184
1384.8836938476	0.0530017614
1386.8125012207	0.0509665832
1388.7413085937	0.0519616157
1390.6701159668	0.0551404804
1392.5989233398	0.0542655550
1394.5277307129	0.0517275184
1396.4565380859	0.0534131601
1398.3853454590	0.0537158251
1400.3141528320	0.0531708524
1402.2429602051	0.0566787720
1404.1717675781	0.0541351698
1406.1005749512	0.0543823689
1408.0293823242	0.0562379658
1409.9581896972	0.0544244200
1411.8869970703	0.0553878509
1413.8158044433	0.0533496216
1415.7446118164	0.0541169830
1417.6734191894	0.0499289595
1419.6022265625	0.0454051867
1421.5310339355	0.0503739864
1423.4598413086	0.0492686853
1425.3886486816	0.0478176773
1427.3174560547	0.0476650000
1429.2462634277	0.0449912250
1431.1750708008	0.0434469804
1433.1038781738	0.0436346456
1435.0326855469	0.0405536890
1436.9614929199	0.0349900424
1438.8903002929	0.0384078436
1440.8191076660	0.0391364917
1442.7479150390	0.0366684869
1444.6767224121	0.0378752053
1446.6055297851	0.0353840217
1448.5343371582	0.0358284935
1450.4631445312	0.0368252471
1452.3919519043	0.0374745540
1454.3207592773	0.0388354622
1456.2495666504	0.0335673392
1458.1783740234	0.0350403413
1460.1071813965	0.0446875542
1462.0359887695	0.0474120975
1463.9647961426	0.0479063801
1465.8936035156	0.0498417653
1467.8224108886	0.0557791963
1469.7512182617	0.0602854751
1471.6800256347	0.0553928912
1473.6088330078	0.0582411848
1475.5376403808	0.0655050725
1477.4664477539	0.0699402988
1479.3952551269	0.0762353539
1481.3240625000	0.0779711083
1483.2528698730	0.0822053701
1485.1816772461	0.0851093084
1487.1104846191	0.0848565400
1489.0392919922	0.0851801261
1490.9680993652	0.0859925151
1492.8969067383	0.0972627997
1494.8257141113	0.0963206068
1496.7545214843	0.0887688398
1498.6833288574	0.0985574052
1500.6121362304	0.1014764234
1502.5409436035	0.1074155271
1504.4697509765	0.1034558713
1506.3985583496	0.0805086643
1508.3273657226	0.0942310244
1510.2561730957	0.1078504398
1512.1849804687	0.1049536020
1514.1137878418	0.1123428568
1516.0425952148	0.1036181003
1517.9714025879	0.1073141620
1519.9002099609	0.1041953713
1521.8290173340	0.0928810760
1523.7578247070	0.1090845913
1525.6866320801	0.1080371588
1527.6154394531	0.1078081578
1529.5442468261	0.1164684296
1531.4730541992	0.1131365001
1533.4018615722	0.1056654304
1535.3306689453	0.1101625487
1537.2594763183	0.1165886968
1539.1882836914	0.0894269422
1541.1170910644	0.0919865817
1543.0458984375	0.1072029024
1544.9747058105	0.1036972255
1546.9035131836	0.1183323711
1548.8323205566	0.1124633998
1550.7611279297	0.1149303243
1552.6899353027	0.1144139171
1554.6187426758	0.1058658212
1556.5475500488	0.1120472774
1558.4763574218	0.0853543282
1560.4051647949	0.0892288387
1562.3339721679	0.1187575758
1564.2627795410	0.1141429096
1566.1915869140	0.1165262088
1568.1203942871	0.1158321276
1570.0492016601	0.1048810929
1571.9780090332	0.1170679033
1573.9068164062	0.1188705266
1575.8356237793	0.0981936753
1577.7644311523	0.1079376191
1579.6932385254	0.1203203201
1581.6220458984	0.1155865639
1583.5508532715	0.1178995371
1585.4796606445	0.1164270192
1587.4084680175	0.1169690862
1589.3372753906	0.1163734198
1591.2660827636	0.1163224131
1593.1948901367	0.1164666265
1595.1236975097	0.1151633114
1597.0525048828	0.1166882142
1598.9813122558	0.1159245297
1600.9101196289	0.1166388243
1602.8389270019	0.1148581132
1604.7677343750	0.1164204925
1606.6965417480	0.1152670830
1608.6253491211	0.1148580685
1610.5541564941	0.1149236262
1612.4829638672	0.1152187511
1614.4117712402	0.1168584526
1616.3405786132	0.0990527347
1618.2693859863	0.1053894758
1620.1981933593	0.1198753268
1622.1270007324	0.1085622609
1624.0558081054	0.1092445254
1625.9846154785	0.1132155508
1627.9134228515	0.1129228026
1629.8422302246	0.1121129692
1631.7710375976	0.1182587147
1633.6998449707	0.1113562956
1635.6286523437	0.0950896591
1637.5574597168	0.1075133905
1639.4862670898	0.1161464751
1641.4150744629	0.1137839705
1643.3438818359	0.1164414585
1645.2726892090	0.1069865078
1647.2014965820	0.0963337123
1649.1303039550	0.1149663627
1651.0591113281	0.1104512513
1652.9879187011	0.0770270973
1654.9167260742	0.0979754105
1656.8455334472	0.1188382953
1658.7743408203	0.1140926778
1660.7031481933	0.1171709001
1662.6319555664	0.1083946899
1664.5607629394	0.1129092425
1666.4895703125	0.1196677983
1668.4183776855	0.1078645512
1670.3471850586	0.1053058356
1672.2759924316	0.1160296351
1674.2047998047	0.1092928648
1676.1336071777	0.1052213013
1678.0624145507	0.1178882867
1679.9912219238	0.1145050973
1681.9200292968	0.1139548048
1683.8488366699	0.0964045376
1685.7776440429	0.0943075567
1687.7064514160	0.1230932847
1689.6352587890	0.1098338068
1691.5640661621	0.1177664399
1693.4928735351	0.1204716638
1695.4216809082	0.0928097293
1697.3504882812	0.1096666604
1699.2792956543	0.0999616459
1701.2081030273	0.0910618305
1703.1369104004	0.1170114130
1705.0657177734	0.1094079912
1706.9945251464	0.1095849425
1708.9233325195	0.1175646707
1710.8521398925	0.1133058071
1712.7809472656	0.1151535511
1714.7097546386	0.1084583402
1716.6385620117	0.0989765748
1718.5673693847	0.0976523757
1720.4961767578	0.1117268652
1722.4249841308	0.1153442264
1724.3537915039	0.1084982902
1726.2825988769	0.1158927307
1728.2114062500	0.1086903512
1730.1402136230	0.1094853133
1732.0690209961	0.1071656048
1733.9978283691	0.0859366655
1735.9266357421	0.1015508026
1737.8554431152	0.1110194549
1739.7842504882	0.1009311229
1741.7130578613	0.1080121249
1743.6418652343	0.1099968255
1745.5706726074	0.1099119261
1747.4994799804	0.1109803617
1749.4282873535	0.1073713005
1751.3570947265	0.1032863632
1753.2859020996	0.1121760607
1755.2147094726	0.1165571064
1757.1435168457	0.1081299186
1759.0723242187	0.1165656149
1761.0011315918	0.1111743301
1762.9299389648	0.1077405736
1764.8587463379	0.1202791780
1766.7875537109	0.1107232720
1768.7163610839	0.1111953706
1770.6451684570	0.1110411659
1772.5739758300	0.1016582921
1774.5027832031	0.1106603444
1776.4315905761	0.1160356849
1778.3603979492	0.1145912036
1780.2892053222	0.1136350334
1782.2180126953	0.1142653301
1784.1468200683	0.1140075028
1786.0756274414	0.1122299582
1788.0044348144	0.1167676449
1789.9332421875	0.1146794111
1791.8620495605	0.1057845429
1793.7908569336	0.1088262722
1795.7196643066	0.1156033799
1797.6484716796	0.1144684628
1799.5772790527	0.1128661484
1801.5060864257	0.1115637571
1803.4348937988	0.1142418981
1805.3637011718	0.1162746847
1807.2925085449	0.1150788814
1809.2213159179	0.1154214591
1811.1501232910	0.1127984896
1813.0789306640	0.1155343652
1815.0077380371	0.1161092520
1816.9365454101	0.1147715896
1818.8653527832	0.1156898141
1820.7941601562	0.1151629239
1822.7229675293	0.1165967658
1824.6517749023	0.1107186973
1826.5805822753	0.1136294380
1828.5093896484	0.1140980870
1830.4381970214	0.1083273441
1832.3670043945	0.1155419052
1834.2958117675	0.1150047109
1836.2246191406	0.1149401516
1838.1534265136	0.1145390645
1840.0822338867	0.1148108244
1842.0110412597	0.1152535453
1843.9398486328	0.1049532145
1845.8686560058	0.1098593771
1847.7974633789	0.1148364544
1849.7262707519	0.1129086539
1851.6550781250	0.1153255254
1853.5838854980	0.1136445031
1855.5126928710	0.1145555228
1857.4415002441	0.1138739809
1859.3703076171	0.1133171767
1861.2991149902	0.1139727682
1863.2279223632	0.1128548235
1865.1567297363	0.1137482747
1867.0855371093	0.1109327599
1869.0143444824	0.1072808504
1870.9431518554	0.1104272455
1872.8719592285	0.1135506034
1874.8007666015	0.1119647399
1876.7295739746	0.1124875695
1878.6583813476	0.1122268289
1880.5871887207	0.1117197722
1882.5159960937	0.1123393178
1884.4448034667	0.1109139025
1886.3736108398	0.1121811792
1888.3024182128	0.1101850420
1890.2312255859	0.1084768847
1892.1600329589	0.1115863770
1894.0888403320	0.1104896069
1896.0176477050	0.1101406366
1897.9464550781	0.1110020280
1899.8752624511	0.1103397161
1901.8040698242	0.1105746180
1903.7328771972	0.1100292280
1905.6616845703	0.1102960110
1907.5904919433	0.1095371991
1909.5192993164	0.1089440286
1911.4481066894	0.1094094515
1913.3769140625	0.1092580259
1915.3057214355	0.1101188660
1917.2345288085	0.1064571887
1919.1633361816	0.1062727720
1921.0921435546	0.1094805226
1923.0209509277	0.1067615226
1924.9497583007	0.1084570289
1926.8785656738	0.1092491001
1928.8073730468	0.1081292331
1930.7361804199	0.1092274487
1932.6649877929	0.1079082191
1934.5937951660	0.1087243035
1936.5226025390	0.1081837788
1938.4514099121	0.1083650440
1940.3802172851	0.1083657220
1942.3090246582	0.1056793332
1944.2378320312	0.1071422175
1946.1666394042	0.1080947518
1948.0954467773	0.1077760607
1950.0242541503	0.1078955531
1951.9530615234	0.1076821014
1953.8818688964	0.1077720076
1955.8106762695	0.1074493676
1957.7394836425	0.1076257974
1959.6682910156	0.1074719355
1961.5970983886	0.1073069870
1963.5259057617	0.1075052321
1965.4547131347	0.1069528461
1967.3835205078	0.1060796976
1969.3123278808	0.1067379862
1971.2411352539	0.1072646976
1973.1699426269	0.1066699401
1975.0987499999	0.1067581773
1977.0275573730	0.1065440997
1978.9563647460	0.1067131758
1980.8851721191	0.1065181792
1982.8139794921	0.1062157825
1984.7427868652	0.1065533906
1986.6715942382	0.1058846116
1988.6004016113	0.1058740467
1990.5292089843	0.1051704139
1992.4580163574	0.1041203439
1994.3868237304	0.1052412689
1996.3156311035	0.1054693386
1998.2444384765	0.1049193144
2000.1732458496	0.1050965562
2002.1020532226	0.1047572047
2004.0308605956	0.1046486422
2005.9596679687	0.1044054180
2007.8884753417	0.1039485484
2009.8172827148	0.1039096341
2011.7460900878	0.1036264002
2013.6748974609	0.1036915183
2015.6037048339	0.1030550972
2017.5325122070	0.1022902802
2019.4613195800	0.1027231440
2021.3901269531	0.1027348340
2023.3189343261	0.1025232002
2025.2477416992	0.1023193598
2027.1765490722	0.1021173596
2029.1053564453	0.1019741893
2031.0341638183	0.1015550792
2032.9629711914	0.1014333069
2034.8917785644	0.1012474597
2036.8205859374	0.1009964645
2038.7493933105	0.1009505838
2040.6782006835	0.1004620790
2042.6070080566	0.1002749056
2044.5358154296	0.1003939360
2046.4646228027	0.1000024676
2048.3934301757	0.0998638645
2050.3222375488	0.0996394902
2052.2510449218	0.0993971229
2054.1798522949	0.0993388668
2056.1086596679	0.0990942121
2058.0374670410	0.0989839137
2059.9662744140	0.0987424254
2061.8950817871	0.0986375362
2063.8238891601	0.0983321667
2065.7526965331	0.0980667025
2067.6815039062	0.0980294198
2069.6103112792	0.0977999866
2071.5391186523	0.0977562815
2073.4679260253	0.0975960642
2075.3967333984	0.0974703804
2077.3255407714	0.0971203521
2079.2543481445	0.0969189554
2081.1831555175	0.0969631076
2083.1119628906	0.0967415422
2085.0407702636	0.0965540260
2086.9695776367	0.0962632746
2088.8983850097	0.0961089134
2090.8271923828	0.0958694369
2092.7559997558	0.0957652330
2094.6848071288	0.0956664979
2096.6136145019	0.0953896791
2098.5424218749	0.0952955335
2100.4712292480	0.0951967686
2102.4000366210	0.0950105637
2104.3288439941	0.0947322100
2106.2576513671	0.0946966335
2108.1864587402	0.0944968909
2110.1152661132	0.0945554376
2112.0440734863	0.0943564698
2113.9728808593	0.0938930288
2115.9016882324	0.0941073895
2117.8304956054	0.0938611478
2119.7593029785	0.0937086493
2121.6881103515	0.0935811698
2123.6169177245	0.0934040844
2125.5457250976	0.0933885798
2127.4745324706	0.0932211503
2129.4033398437	0.0931753218
2131.3321472167	0.0929370522
2133.2609545898	0.0929349437
2135.1897619628	0.0927127376
2137.1185693359	0.0924826711
2139.0473767089	0.0923496187
2140.9761840820	0.0922334641
2142.9049914550	0.0923342556
2144.8337988281	0.0921012387
2146.7626062011	0.0920681357
2148.6914135742	0.0918559656
2150.6202209472	0.0916753933
2152.5490283203	0.0917218700
2154.4778356933	0.0915856585
2156.4066430663	0.0912985355
2158.3354504394	0.0911656618
2160.2642578124	0.0912505984
2162.1930651855	0.0910379440
2164.1218725585	0.0910683647
2166.0506799316	0.0909359679
2167.9794873046	0.0908714309
2169.9082946777	0.0908139721
2171.8371020507	0.0905704051
2173.7659094238	0.0905675218
2175.6947167968	0.0902542770
2177.6235241699	0.0901991576
2179.5523315429	0.0900482684
2181.4811389160	0.0899312943
2183.4099462890	0.0898624137
2185.3387536620	0.0897076651
2187.2675610351	0.0898027271
2189.1963684081	0.0896689594
2191.1251757812	0.0896181166
2193.0539831542	0.0893259645
2194.9827905273	0.0892832726
2196.9115979003	0.0893850401
2198.8404052734	0.0891223028
2200.7692126464	0.0889517218
2202.6980200195	0.0888931900
2204.6268273925	0.0888662785
2206.5556347656	0.0886987299
2208.4844421386	0.0886000097
2210.4132495117	0.0883774757
2212.3420568847	0.0884245858
2214.2708642577	0.0883486718
2216.1996716308	0.0882081985
2218.1284790038	0.0880691037
2220.0572863769	0.0876704454
2221.9860937499	0.0878890008
2223.9149011230	0.0877044052
2225.8437084960	0.0874834135
2227.7725158691	0.0873689651
2229.7013232421	0.0873018727
2231.6301306152	0.0873103738
2233.5589379882	0.0869081840
2235.4877453613	0.0870098025
2237.4165527343	0.0867895856
2239.3453601074	0.0866737366
2241.2741674804	0.0866230577
2243.2029748534	0.0864266232
2245.1317822265	0.0864048153
2247.0605895995	0.0860866159
2248.9893969726	0.0860232413
2250.9182043456	0.0857706517
2252.8470117187	0.0857703239
2254.7758190917	0.0856857449
2256.7046264648	0.0855122954
2258.6334338378	0.0854476467
2260.5622412109	0.0851134956
2262.4910485839	0.0851036757
2264.4198559570	0.0849659592
2266.3486633300	0.0849889666
2268.2774707031	0.0847802609
2270.2062780761	0.0846468881
2272.1350854491	0.0847252607
2274.0638928222	0.0845624804
2275.9927001952	0.0845399499
2277.9215075683	0.0843592882
2279.8503149413	0.0843371153
2281.7791223144	0.0841233283
2283.7079296874	0.0840972960
2285.6367370605	0.0838792250
2287.5655444335	0.0835977867
2289.4943518066	0.0837221220
2291.4231591796	0.0833407342
2293.3519665527	0.0832202286
2295.2807739257	0.0829224363
2297.2095812988	0.0826128572
2299.1383886718	0.0824009478
2301.0671960449	0.0820209309
2302.9960034179	0.0817918926
2304.9248107909	0.0812733471
2306.8536181640	0.0809174329
2308.7824255370	0.0804106593
2310.7112329101	0.0797732174
2312.6400402831	0.0790986568
2314.5688476562	0.0784058422
2316.4976550292	0.0775089338
2318.4264624023	0.0764089972
2320.3552697753	0.0757170469
2322.2840771484	0.0747243464
2324.2128845214	0.0736975372
2326.1416918945	0.0729050487
2328.0704992675	0.0722054318
2329.9993066406	0.0713411719
2331.9281140136	0.0706857741
2333.8569213866	0.0706060901
2335.7857287597	0.0701755583
2337.7145361327	0.0701189265
2339.6433435058	0.0701652318
2341.5721508788	0.0701887310
2343.5009582519	0.0711272955
2345.4297656249	0.0725202560
2347.3585729980	0.0752931237
2349.2873803710	0.0774827227
2351.2161877441	0.0751316398
2353.1449951171	0.0714646950
2355.0738024902	0.0692993104
2357.0026098632	0.0671325326
2358.9314172363	0.0658601224
2360.8602246093	0.0653251708
2362.7890319823	0.0651401430
2364.7178393554	0.0654716864
2366.6466467284	0.0661561266
2368.5754541015	0.0674877986
2370.5042614745	0.0688764453
2372.4330688476	0.0707003474
2374.3618762206	0.0725017637
2376.2906835937	0.0741998702
2378.2194909667	0.0757965073
2380.1482983398	0.0768742561
2382.0771057128	0.0778034776
2384.0059130859	0.0781482011
2385.9347204589	0.0784346983
2387.8635278320	0.0784172714
2389.7923352050	0.0783274621
2391.7211425780	0.0784303695
2393.6499499511	0.0782382265
2395.5787573241	0.0781321377
2397.5075646972	0.0779382661
2399.4363720702	0.0779621378
2401.3651794433	0.0778333694
2403.2939868163	0.0777050704
2405.2227941894	0.0776452124
2407.1516015624	0.0774718523
2409.0804089355	0.0774389207
2411.0092163085	0.0771914795
2412.9380236816	0.0771891475
2414.8668310546	0.0770776570
2416.7956384277	0.0770042837
2418.7244458007	0.0770141631
2420.6532531738	0.0768564641
2422.5820605468	0.0767274648
2424.5108679198	0.0764885396
2426.4396752929	0.0765266940
2428.3684826659	0.0763185471
2430.2972900390	0.0762043595
2432.2260974120	0.0762690306
2434.1549047851	0.0760865360
2436.0837121581	0.0760284811
2438.0125195312	0.0759057105
2439.9413269042	0.0757945850
2441.8701342773	0.0756782591
2443.7989416503	0.0755853578
2445.7277490234	0.0753867626
2447.6565563964	0.0753064379
2449.5853637695	0.0752905607
2451.5141711425	0.0751570687
2453.4429785155	0.0751722530
2455.3717858886	0.0749582946
2457.3005932616	0.0748737007
2459.2294006347	0.0749072284
2461.1582080077	0.0747545883
2463.0870153808	0.0746425018
2465.0158227538	0.0745805949
2466.9446301269	0.0744701177
2468.8734374999	0.0743443817
2470.8022448730	0.0743188187
2472.7310522460	0.0741888359
2474.6598596191	0.0740588456
2476.5886669921	0.0739111751
2478.5174743652	0.0738021284
2480.4462817382	0.0737559050
2482.3750891112	0.0737226605
2484.3038964843	0.0735895857
2486.2327038573	0.0733540505
2488.1615112304	0.0733851790
2490.0903186034	0.0732578486
2492.0191259765	0.0731845945
2493.9479333495	0.0730711594
2495.8767407226	0.0727732405
2497.8055480956	0.0728550553
2499.7343554687	0.0728924572
2501.6631628417	0.0728533268
2503.5919702148	0.0726729482
2505.5207775878	0.0725129396
2507.4495849609	0.0724993795
2509.3783923339	0.0723152161
2511.3071997069	0.0723112673
2513.2360070800	0.0722750723
2515.1648144530	0.0720756501
2517.0936218261	0.0720183253
2519.0224291991	0.0719115138
2520.9512365722	0.0717286617
2522.8800439452	0.0717055500
2524.8088513183	0.0716868117
2526.7376586913	0.0714905635
2528.6664660644	0.0713498294
2530.5952734374	0.0714081749
2532.5240808105	0.0713555962
2534.4528881835	0.0711752623
2536.3816955566	0.0710900873
2538.3105029296	0.0710454881
2540.2393103027	0.0709503964
2542.1681176757	0.0707207918
2544.0969250487	0.0708022565
2546.0257324218	0.0708024949
2547.9545397948	0.0703942776
2549.8833471679	0.0703915805
2551.8121545409	0.0704644322
2553.7409619140	0.0702882111
2555.6697692870	0.0701428056
2557.5985766601	0.0700885504
2559.5273840331	0.0699560046
2561.4561914062	0.0699074119
2563.3849987792	0.0699149594
2565.3138061523	0.0697087944
2567.2426135253	0.0696671307
2569.1714208984	0.0695707500
2571.1002282714	0.0695112795
2573.0290356444	0.0694377646
2574.9578430175	0.0692370310
2576.8866503905	0.0692300200
2578.8154577636	0.0691093653
2580.7442651366	0.0689809322
2582.6730725097	0.0688444972
2584.6018798827	0.0687410384
2586.5306872558	0.0686696321
2588.4594946288	0.0685774460
2590.3883020019	0.0684650913
2592.3171093749	0.0683403909
2594.2459167480	0.0683678985
2596.1747241210	0.0682778209
2598.1035314941	0.0681337118
2600.0323388671	0.0679572895
2601.9611462401	0.0679887757
2603.8899536132	0.0679885149
2605.8187609862	0.0677771419
2607.7475683593	0.0676792562
2609.6763757323	0.0674942136
2611.6051831054	0.0675030649
2613.5339904784	0.0674266070
2615.4627978515	0.0673307329
2617.3916052245	0.0672477484
2619.3204125976	0.0671346486
2621.2492199706	0.0671630427
2623.1780273437	0.0668375194
2625.1068347167	0.0667704195
2627.0356420898	0.0668224394
2628.9644494628	0.0666530430
2630.8932568358	0.0665790439
2632.8220642089	0.0664941072
2634.7508715819	0.0664410889
2636.6796789550	0.0663326606
2638.6084863280	0.0662403107
2640.5372937011	0.0661441386
2642.4661010741	0.0660979897
2644.3949084472	0.0660129860
2646.3237158202	0.0658439547
2648.2525231933	0.0656928420
2650.1813305663	0.0656954274
2652.1101379394	0.0656506270
2654.0389453124	0.0653726161
2655.9677526855	0.0653634816
2657.8965600585	0.0653276742
2659.8253674315	0.0652368218
2661.7541748046	0.0651553497
2663.6829821776	0.0650668591
2665.6117895507	0.0649950802
2667.5405969237	0.0648067594
2669.4694042968	0.0647869110
2671.3982116698	0.0646239519
2673.3270190429	0.0646219403
2675.2558264159	0.0646205693
2677.1846337890	0.0644114763
2679.1134411620	0.0643665791
2681.0422485351	0.0642973185
2682.9710559081	0.0642790124
2684.8998632812	0.0641101971
2686.8286706542	0.0640082359
2688.7574780273	0.0638483614
2690.6862854003	0.0637147278
2692.6150927733	0.0637323260
2694.5439001464	0.0636351556
2696.4727075194	0.0636941642
2698.4015148925	0.0634639710
2700.3303222655	0.0633014739
2702.2591296386	0.0633375719
2704.1879370116	0.0631783679
2706.1167443847	0.0630712211
2708.0455517577	0.0629651695
2709.9743591308	0.0628884286
2711.9031665038	0.0628377944
2713.8319738769	0.0627725273
2715.7607812499	0.0626239181
2717.6895886230	0.0625440106
2719.6183959960	0.0624754913
2721.5472033690	0.0624093413
2723.4760107421	0.0622587688
2725.4048181151	0.0620791912
2727.3336254882	0.0621240586
2729.2624328612	0.0619310439
2731.1912402343	0.0618501604
2733.1200476073	0.0618770793
2735.0488549804	0.0616803542
2736.9776623534	0.0615564361
2738.9064697265	0.0614908598
2740.8352770995	0.0614185818
2742.7640844726	0.0613467023
2744.6928918456	0.0612964146
2746.6216992187	0.0610610247
2748.5505065917	0.0610273518
2750.4793139647	0.0610242859
2752.4081213378	0.0607981272
2754.3369287108	0.0607883036
2756.2657360839	0.0607252792
2758.1945434569	0.0606245399
2760.1233508300	0.0605691150
2762.0521582030	0.0604849309
2763.9809655761	0.0602875575
2765.9097729491	0.0601550005
2767.8385803222	0.0601030514
2769.7673876952	0.0599447265
2771.6961950683	0.0599000901
2773.6250024413	0.0597913638
2775.5538098144	0.0596270338
2777.4826171874	0.0595731512
2779.4114245604	0.0595329329
2781.3402319335	0.0593178421
2783.2690393065	0.0592542216
2785.1978466796	0.0592274591
2787.1266540526	0.0590108782
2789.0554614257	0.0589768514
2790.9842687987	0.0588347614
2792.9130761718	0.0587600209
2794.8418835448	0.0586155951
2796.7706909179	0.0585603267
2798.6994982909	0.0586364642
2800.6283056640	0.0583845712
2802.5571130370	0.0583157837
2804.4859204101	0.0581962541
2806.4147277831	0.0580707490
2808.3435351562	0.0578843951
2810.2723425292	0.0577728450
2812.2011499022	0.0578033589
2814.1299572753	0.0575750247
2816.0587646483	0.0575528443
2817.9875720214	0.0573845990
2819.9163793944	0.0572464615
2821.8451867675	0.0572002195
2823.7739941405	0.0570328459
2825.7028015136	0.0569694676
2827.6316088866	0.0568318702
2829.5604162597	0.0567731336
2831.4892236327	0.0566554815
2833.4180310058	0.0566681102
2835.3468383788	0.0565418303
2837.2756457519	0.0562443063
2839.2044531249	0.0562188178
2841.1332604979	0.0560121536
2843.0620678710	0.0557930097
2844.9908752440	0.0555850267
2846.9196826171	0.0551861003
2848.8484899901	0.0549481586
2850.7772973632	0.0548609048
2852.7061047362	0.0547354147
2854.6349121093	0.0547572337
2856.5637194823	0.0547369570
2858.4925268554	0.0545998439
2860.4213342284	0.0545522124
2862.3501416015	0.0544176996
2864.2789489745	0.0543173328
2866.2077563476	0.0542243384
2868.1365637206	0.0541844070
2870.0653710936	0.0540804677
2871.9941784667	0.0539411008
2873.9229858397	0.0539581552
2875.8517932128	0.0537852533
2877.7806005858	0.0536931343
2879.7094079589	0.0536188446
2881.6382153319	0.0535102375
2883.5670227050	0.0535782203
2885.4958300780	0.0534805954
2887.4246374511	0.0533115864
2889.3534448241	0.0532638654
2891.2822521972	0.0531896688
2893.2110595702	0.0530240461
2895.1398669433	0.0528471246
2897.0686743163	0.0527494028
2898.9974816893	0.0527147651
2900.9262890624	0.0525275543
2902.8550964354	0.0524101518
2904.7839038085	0.0522975624
2906.7127111815	0.0520455055
2908.6415185546	0.0519088432
2910.5703259276	0.0516474023
2912.4991333007	0.0514434278
2914.4279406737	0.0511857904
2916.3567480468	0.0509175546
2918.2855554198	0.0508797169
2920.2143627929	0.0507821999
2922.1431701659	0.0507277921
2924.0719775390	0.0506094471
2926.0007849120	0.0505784377
2927.9295922851	0.0505399853
2929.8583996581	0.0504108034
2931.7872070311	0.0504552461
2933.7160144042	0.0504831225
2935.6448217772	0.0504563190
2937.5736291503	0.0504075997
2939.5024365233	0.0504072160
2941.4312438964	0.0503633991
2943.3600512694	0.0502952784
2945.2888586425	0.0502414778
2947.2176660155	0.0501795933
2949.1464733886	0.0500791743
2951.0752807616	0.0500383079
2953.0040881347	0.0499884412
2954.9328955077	0.0496691428
2956.8617028808	0.0496054441
2958.7905102538	0.0495181233
2960.7193176268	0.0492804423
2962.6481249999	0.0492362268
2964.5769323729	0.0491326265
2966.5057397460	0.0491317660
2968.4345471190	0.0491204672
2970.3633544921	0.0490823984
2972.2921618651	0.0491122231
2974.2209692382	0.0492085218
2976.1497766112	0.0491800904
2978.0785839843	0.0491397083
2980.0073913573	0.0491889603
2981.9361987304	0.0490353480
2983.8650061034	0.0491218045
2985.7938134765	0.0491670668
2987.7226208495	0.0490250140
2989.6514282225	0.0490026884
2991.5802355956	0.0489569530
2993.5090429686	0.0488656759
2995.4378503417	0.0487755165
2997.3666577147	0.0487798564
2999.2954650878	0.0486451685
3001.2242724608	0.0485458523
3003.1530798339	0.0484436117
3005.0818872069	0.0483491272
3007.0106945800	0.0482873619
3008.9395019530	0.0481253713
3010.8683093261	0.0480964482
3012.7971166991	0.0478785709
3014.7259240722	0.0477623567
3016.6547314452	0.0477377549
3018.5835388182	0.0476171896
3020.5123461913	0.0476219878
3022.4411535643	0.0475471392
3024.3699609374	0.0474139825
3026.2987683104	0.0472306609
3028.2275756835	0.0471988283
3030.1563830565	0.0470615551
3032.0851904296	0.0468900055
3034.0139978026	0.0468565002
3035.9428051757	0.0467908718
3037.8716125487	0.0468839332
3039.8004199218	0.0466702431
3041.7292272948	0.0464408845
3043.6580346679	0.0465084240
3045.5868420409	0.0464046225
3047.5156494139	0.0462260395
3049.4444567870	0.0461602397
3051.3732641600	0.0461289063
3053.3020715331	0.0459921360
3055.2308789061	0.0459004641
3057.1596862792	0.0458130166
3059.0884936522	0.0457270592
3061.0173010253	0.0457074493
3062.9461083983	0.0455568284
3064.8749157714	0.0454387590
3066.8037231444	0.0454103500
3068.7325305175	0.0453045331
3070.6613378905	0.0452329479
3072.5901452636	0.0451438725
3074.5189526366	0.0450271331
3076.4477600097	0.0450142771
3078.3765673827	0.0449152440
3080.3053747557	0.0447685979
3082.2341821288	0.0447077118
3084.1629895018	0.0447044931
3086.0917968749	0.0446474366
3088.0206042479	0.0445335470
3089.9494116210	0.0444149189
3091.8782189940	0.0443327203
3093.8070263671	0.0442812480
3095.7358337401	0.0440606996
3097.6646411132	0.0441096239
3099.5934484862	0.0440395623
3101.5222558593	0.0437120423
3103.4510632323	0.0437660627
3105.3798706054	0.0436438844
3107.3086779784	0.0434555560
3109.2374853514	0.0433228463
3111.1662927245	0.0433473773
3113.0951000975	0.0433352664
3115.0239074706	0.0430369116
3116.9527148436	0.0430603251
3118.8815222167	0.0429747850
3120.8103295897	0.0428596660
3122.7391369628	0.0427739695
3124.6679443358	0.0426625758
3126.5967517089	0.0426488072
3128.5255590819	0.0424986705
3130.4543664550	0.0424900092
3132.3831738280	0.0423064008
3134.3119812011	0.0421617478
3136.2407885741	0.0421188995
3138.1695959471	0.0419318788
3140.0984033202	0.0418078490
3142.0272106932	0.0415829718
3143.9560180663	0.0415197350
3145.8848254393	0.0415222794
3147.8136328124	0.0413637683
3149.7424401854	0.0412242375
3151.6712475585	0.0411997624
3153.6000549315	0.0411196649
3155.5288623046	0.0409292355
3157.4576696776	0.0408535786
3159.3864770507	0.0407463461
3161.3152844237	0.0406570993
3163.2440917968	0.0406984389
3165.1728991698	0.0405512825
3167.1017065428	0.0403106660
3169.0305139159	0.0403475165
3170.9593212889	0.0402657278
3172.8881286620	0.0400912538
3174.8169360350	0.0400109179
3176.7457434081	0.0398134366
3178.6745507811	0.0397681296
3180.6033581542	0.0396646000
3182.5321655272	0.0395185500
3184.4609729003	0.0394354686
3186.3897802733	0.0393539146
3188.3185876464	0.0393025205
3190.2473950194	0.0391035341
3192.1762023925	0.0390478894
3194.1050097655	0.0390196666
3196.0338171386	0.0388642624
3197.9626245116	0.0387486964
3199.8914318846	0.0387013257
3201.8202392577	0.0385963470
3203.7490466307	0.0385216698
3205.6778540038	0.0385322496
3207.6066613768	0.0383036397
3209.5354687499	0.0382140055
3211.4642761229	0.0381882265
3213.3930834960	0.0380725525
3215.3218908690	0.0380611904
3217.2506982421	0.0379109532
3219.1795056151	0.0378206111
3221.1083129882	0.0377528146
3223.0371203612	0.0376876444
3224.9659277343	0.0377403945
3226.8947351073	0.0376469642
3228.8235424803	0.0375476852
3230.7523498534	0.0375657268
3232.6811572264	0.0374754444
3234.6099645995	0.0373995304
3236.5387719725	0.0373699442
3238.4675793456	0.0373165160
3240.3963867186	0.0372488946
3242.3251940917	0.0370922759
3244.2540014647	0.0370273553
3246.1828088378	0.0369713008
3248.1116162108	0.0370085761
3250.0404235839	0.0369617641
3251.9692309569	0.0367539003
3253.8980383300	0.0368292704
3255.8268457030	0.0368144102
3257.7556530760	0.0366951674
3259.6844604491	0.0367148630
3261.6132678221	0.0367952622
3263.5420751952	0.0366923958
3265.4708825682	0.0365492627
3267.3996899413	0.0365393311
3269.3284973143	0.0364264771
3271.2573046874	0.0364236534
3273.1861120604	0.0363049060
3275.1149194335	0.0362566225
3277.0437268065	0.0362186357
3278.9725341796	0.0361584723
3280.9013415526	0.0363193303
3282.8301489257	0.0361193828
3284.7589562987	0.0360652357
3286.6877636717	0.0360962935
3288.6165710448	0.0359775051
3290.5453784178	0.0359840356
3292.4741857909	0.0358429626
3294.4029931639	0.0357941389
3296.3318005370	0.0358104557
3298.2606079100	0.0357612744
3300.1894152831	0.0356984660
3302.1182226561	0.0356060117
3304.0470300292	0.0355669782
3305.9758374022	0.0356019884
3307.9046447753	0.0354216918
3309.8334521483	0.0352900214
3311.7622595214	0.0354320630
3313.6910668944	0.0353961438
3315.6198742675	0.0353381187
3317.5486816405	0.0353513062
3319.4774890135	0.0353369415
3321.4062963866	0.0351680517
3323.3351037596	0.0351658985
3325.2639111327	0.0350958705
3327.1927185057	0.0348880216
3329.1215258788	0.0350600109
3331.0503332518	0.0348733701
3332.9791406249	0.0348121487
3334.9079479979	0.0348052755
3336.8367553710	0.0346249044
3338.7655627440	0.0347228870
3340.6943701171	0.0345937386
3342.6231774901	0.0346753150
3344.5519848632	0.0345766246
3346.4807922362	0.0344215669
3348.4095996092	0.0345188491
3350.3384069823	0.0342906192
3352.2672143553	0.0342121832
3354.1960217284	0.0342622474
3356.1248291014	0.0342364199
3358.0536364745	0.0341473296
3359.9824438475	0.0340245292
3361.9112512206	0.0339875966
3363.8400585936	0.0339714251
3365.7688659667	0.0338114649
3367.6976733397	0.0337381549
3369.6264807128	0.0337574556
3371.5552880858	0.0337041020
3373.4840954589	0.0336928070
3375.4129028319	0.0335656479
3377.3417102049	0.0335687324
3379.2705175780	0.0334843099
3381.1993249510	0.0334737264
3383.1281323241	0.0334634669
3385.0569396971	0.0332020000
3386.9857470702	0.0332451873
3388.9145544432	0.0332381353
3390.8433618163	0.0331766605
3392.7721691893	0.0329358988
3394.7009765624	0.0328603610
3396.6297839354	0.0328930691
3398.5585913085	0.0326919779
3400.4873986815	0.0327448994
3402.4162060546	0.0325465575
3404.3450134276	0.0325854756
3406.2738208006	0.0327167585
3408.2026281737	0.0324952975
3410.1314355467	0.0324038044
3412.0602429198	0.0324081890
3413.9890502928	0.0323579982
3415.9178576659	0.0322231241
3417.8466650389	0.0323039033
3419.7754724120	0.0321402773
3421.7042797850	0.0319787227
3423.6330871581	0.0319886729
3425.5618945311	0.0319727287
3427.4907019042	0.0319267660
3429.4195092772	0.0317474604
3431.3483166503	0.0318626612
3433.2771240233	0.0318132341
3435.2059313963	0.0317103714
3437.1347387694	0.0315736644
3439.0635461424	0.0315119997
3440.9923535155	0.0315154418
3442.9211608885	0.0313354917
3444.8499682616	0.0313897170
3446.7787756346	0.0310983155
3448.7075830077	0.0311550181
3450.6363903807	0.0314240530
3452.5651977538	0.0312518477
3454.4940051268	0.0312245414
3456.4228124999	0.0311259292
3458.3516198729	0.0310393944
3460.2804272460	0.0309682190
3462.2092346190	0.0309134461
3464.1380419921	0.0308248922
3466.0668493651	0.0308259558
3467.9956567381	0.0308395810
3469.9244641112	0.0308759436
3471.8532714842	0.0309611149
3473.7820788573	0.0307782777
3475.7108862303	0.0307337493
3477.6396936034	0.0307375100
3479.5685009764	0.0306782611
3481.4973083495	0.0304711889
3483.4261157225	0.0305156466
3485.3549230956	0.0305774137
3487.2837304686	0.0303980447
3489.2125378417	0.0305466000
3491.1413452147	0.0304496568
3493.0701525878	0.0304958783
3494.9989599608	0.0304866619
3496.9277673338	0.0302982703
3498.8565747069	0.0304129552
3500.7853820799	0.0303773321
3502.7141894530	0.0300996415
3504.6429968260	0.0300245881
3506.5718041991	0.0304313116
3508.5006115721	0.0301980264
3510.4294189452	0.0300483480
3512.3582263182	0.0302696675
3514.2870336913	0.0301279109
3516.2158410643	0.0302419513
3518.1446484374	0.0302069932
3520.0734558104	0.0302306078
3522.0022631835	0.0300006121
3523.9310705565	0.0296925828
3525.8598779295	0.0298601817
3527.7886853026	0.0298750456
3529.7174926756	0.0298548397
3531.6463000487	0.0300019179
3533.5751074217	0.0302239433
3535.5039147948	0.0299970619
3537.4327221678	0.0298665911
3539.3615295409	0.0301420223
3541.2903369139	0.0301103890
3543.2191442870	0.0298580583
3545.1479516600	0.0293706320
3547.0767590331	0.0291282162
3549.0055664061	0.0297793206
3550.9343737792	0.0299114138
3552.8631811522	0.0293769166
3554.7919885252	0.0297583099
3556.7207958983	0.0298836324
3558.6496032713	0.0297062509
3560.5784106444	0.0296021961
3562.5072180174	0.0295219980
3564.4360253905	0.0296937823
3566.3648327635	0.0282532126
3568.2936401366	0.0276430640
3570.2224475096	0.0292730704
3572.1512548827	0.0297836177
3574.0800622557	0.0295453072
3576.0088696288	0.0296481978
3577.9376770018	0.0295277629
3579.8664843749	0.0295482613
3581.7952917479	0.0294375978
3583.7240991210	0.0295371376
3585.6529064940	0.0291953497
3587.5817138670	0.0272782110
3589.5105212401	0.0278560892
3591.4393286131	0.0297320560
3593.3681359862	0.0291115604
3595.2969433592	0.0287352093
3597.2257507323	0.0290879980
3599.1545581053	0.0292736199
3601.0833654784	0.0289692394
3603.0121728514	0.0290597230
3604.9409802245	0.0296379104
3606.8697875975	0.0289590508
3608.7985949706	0.0275462382
3610.7274023436	0.0279271360
3612.6562097167	0.0284589380
3614.5850170897	0.0278951526
3616.5138244627	0.0293721966
3618.4426318358	0.0276769102
3620.3714392088	0.0269253924
3622.3002465819	0.0294534359
3624.2290539549	0.0288375616
3626.1578613280	0.0297944620
3628.0866687010	0.0261931047
3630.0154760741	0.0244201608
3631.9442834471	0.0291584693
3633.8730908202	0.0286163390
3635.8018981932	0.0289074890
3637.7307055663	0.0293332636
3639.6595129393	0.0290490519
3641.5883203124	0.0293442160
3643.5171276854	0.0289238952
3645.4459350584	0.0291676428
3647.3747424315	0.0268512256
3649.3035498045	0.0250099674
3651.2323571776	0.0253360309
3653.1611645506	0.0289012380
3655.0899719237	0.0285295807
3657.0187792967	0.0261788070
3658.9475866698	0.0292264298
3660.8763940428	0.0288010184
3662.8052014159	0.0290527754
3664.7340087889	0.0289405789
3666.6628161620	0.0287152752
3668.5916235350	0.0280646868
3670.5204309081	0.0239770245
3672.4492382811	0.0277241692
3674.3780456541	0.0267534889
3676.3068530272	0.0231575165
3678.2356604002	0.0275665745
3680.1644677733	0.0281001404
3682.0932751463	0.0281091407
3684.0220825194	0.0287829228
3685.9508898924	0.0284297597
3687.8796972655	0.0260520019
3689.8085046385	0.0243795365
3691.7373120116	0.0271166451
3693.6661193846	0.0276475362
3695.5949267577	0.0281861871
3697.5237341307	0.0281136185
3699.4525415038	0.0279033557
3701.3813488768	0.0274537988
3703.3101562499	0.0264616571
3705.2389636229	0.0285179522
3707.1677709959	0.0273850858
3709.0965783690	0.0269598067
3711.0253857420	0.0257421657
3712.9541931151	0.0243210196
3714.8830004881	0.0276237503
3716.8118078612	0.0273271669
3718.7406152342	0.0275804624
3720.6694226073	0.0270210933
3722.5982299803	0.0262204669
3724.5270373534	0.0269614644
3726.4558447264	0.0253793895
3728.3846520995	0.0272264779
3730.3134594725	0.0267622471
3732.2422668456	0.0250345580
3734.1710742186	0.0247627776
3736.0998815916	0.0237426907
3738.0286889647	0.0246904530
3739.9574963377	0.0263515264
3741.8863037108	0.0274479650
3743.8151110838	0.0222002529
3745.7439184569	0.0212946944
3747.6727258299	0.0263441484
3749.6015332030	0.0232706293
3751.5303405760	0.0217577852
3753.4591479491	0.0242280159
3755.3879553221	0.0257321373
3757.3167626952	0.0265053436
3759.2455700682	0.0249116179
3761.1743774413	0.0255763121
3763.1031848143	0.0267600063
3765.0319921873	0.0253645331
3766.9607995604	0.0258262325
3768.8896069334	0.0255827494
3770.8184143065	0.0246540084
3772.7472216795	0.0261815675
3774.6760290526	0.0261674374
3776.6048364256	0.0262029544
3778.5336437987	0.0255813599
3780.4624511717	0.0249027200
3782.3912585448	0.0261544771
3784.3200659178	0.0256382152
3786.2488732909	0.0255748667
3788.1776806639	0.0258258544
3790.1064880370	0.0258440860
3792.0352954100	0.0256427489
3793.9641027830	0.0259907991
3795.8929101561	0.0248691514
3797.8217175291	0.0244857483
3799.7505249022	0.0255731307
3801.6793322752	0.0212016180
3803.6081396483	0.0240166392
3805.5369470213	0.0256570242
3807.4657543944	0.0217791200
3809.3945617674	0.0254436247
3811.3233691405	0.0250598453
3813.2521765135	0.0256699026
3815.1809838866	0.0235545989
3817.1097912596	0.0213017836
3819.0385986327	0.0255588554
3820.9674060057	0.0217578523
3822.8962133787	0.0226393063
3824.8250207518	0.0253852047
3826.7538281248	0.0234930962
3828.6826354979	0.0248750709
3830.6114428709	0.0241319276
3832.5402502440	0.0235000383
3834.4690576170	0.0238256790
3836.3978649901	0.0228447299
3838.3266723631	0.0211586058
3840.2554797362	0.0225542486
3842.1842871092	0.0239372887
3844.1130944823	0.0229959041
3846.0419018553	0.0243365653
3847.9707092284	0.0242541693
3849.8995166014	0.0242094733
3851.8283239745	0.0220962018
3853.7571313475	0.0177020840
3855.6859387205	0.0201440081
3857.6147460936	0.0242670141
3859.5435534666	0.0236483105
3861.4723608397	0.0235047601
3863.4011682127	0.0231025945
3865.3299755858	0.0216934122
3867.2587829588	0.0236153156
3869.1875903319	0.0219888054
3871.1163977049	0.0208242908
3873.0452050780	0.0236714818
3874.9740124510	0.0221545957
3876.9028198241	0.0234338045
3878.8316271971	0.0238229968
3880.7604345702	0.0212235078
3882.6892419432	0.0235464592
3884.6180493162	0.0223435257
3886.5468566893	0.0208661444
3888.4756640623	0.0236184429
3890.4044714354	0.0225634389
3892.3332788084	0.0215270892
3894.2620861815	0.0231805667
3896.1908935545	0.0233655013
3898.1197009276	0.0224341378
3900.0485083006	0.0214649513
3901.9773156737	0.0213120151
3903.9061230467	0.0211040303
3905.8349304198	0.0214944519
3907.7637377928	0.0230481178
3909.6925451659	0.0228811800
3911.6213525389	0.0226661079
3913.5501599119	0.0229436755
3915.4789672850	0.0224302709
3917.4077746580	0.0219016485
3919.3365820311	0.0218047071
3921.2653894041	0.0225281008
3923.1941967772	0.0222969446
3925.1230041502	0.0218604691
3927.0518115233	0.0222296696
3928.9806188963	0.0223116856
3930.9094262694	0.0219587162
3932.8382336424	0.0215278007
3934.7670410155	0.0221583582
3936.6958483885	0.0223091692
3938.6246557616	0.0220698491
3940.5534631346	0.0222151354
3942.4822705076	0.0215374529
3944.4110778807	0.0216729343
3946.3398852537	0.0219796430
3948.2686926268	0.0215021595
3950.1974999998	0.0215859748
3952.1263073729	0.0216675084
3954.0551147459	0.0217153728
3955.9839221190	0.0217536800
3957.9127294920	0.0216844343
3959.8415368651	0.0217133537
3961.7703442381	0.0214601438
3963.6991516112	0.0214769952
3965.6279589842	0.0215439722
3967.5567663573	0.0214189999
3969.4855737303	0.0214685313
3971.4143811034	0.0214201715
3973.3431884764	0.0213682987
3975.2719958494	0.0212403610
3977.2008032225	0.0212243833
3979.1296105955	0.0212485604
3981.0584179686	0.0211806800
3982.9872253416	0.0211525895
3984.9160327147	0.0210448913
3986.8448400877	0.0210967958
3988.7736474608	0.0210413747
3990.7024548338	0.0209692325
3992.6312622069	0.0209072828
3994.5600695799	0.0207652319
3996.4888769530	0.0208423696
3998.4176843260	0.0208542012
4000.3464916991	0.0207981132
4002.2752990721	0.0207678992
4004.2041064451	0.0207430273
4006.1329138182	0.0206465535
4008.0617211912	0.0205142237
4009.9905285643	0.0204622149
4011.9193359373	0.0204756409
4013.8481433104	0.0204758830
4015.7769506834	0.0204557441
4017.7057580565	0.0204448849
4019.6345654295	0.0203097388
4021.5633728026	0.0203222223
4023.4921801756	0.0202594548
4025.4209875487	0.0201923549
4027.3497949217	0.0202399679
4029.2786022948	0.0201005302
4031.2074096678	0.0201256424
4033.1362170408	0.0200389177
4035.0650244139	0.0199229270
4036.9938317869	0.0199547522
4038.9226391600	0.0199385248
4040.8514465330	0.0199372414
4042.7802539061	0.0198585913
4044.7090612791	0.0198183730
4046.6378686522	0.0198174100
4048.5666760252	0.0198197365
4050.4954833983	0.0197598971
4052.4242907713	0.0197081342
4054.3530981444	0.0196068157
4056.2819055174	0.0195842069
4058.2107128905	0.0195894539
4060.1395202635	0.0194908120
4062.0683276365	0.0195666142
4063.9971350096	0.0193969756
4065.9259423826	0.0193428900
4067.8547497557	0.0194421671
4069.7835571287	0.0193452500
4071.7123645018	0.0193501096
4073.6411718748	0.0192208886
4075.5699792479	0.0191534683
4077.4987866209	0.0191864297
4079.4275939940	0.0191597920
4081.3564013670	0.0190524813
4083.2852087401	0.0190529358
4085.2140161131	0.0190846045
4087.1428234862	0.0189211480
4089.0716308592	0.0189616531
4091.0004382323	0.0189536456
4092.9292456053	0.0188780427
4094.8580529783	0.0188784432
4096.7868603514	0.0187338293
4098.7156677244	0.0186715759
4100.6444750975	0.0187853053
4102.5732824705	0.0187174752
4104.5020898436	0.0185529292
4106.4308972166	0.0185994506
4108.3597045897	0.0185589008
4110.2885119627	0.0185146257
4112.2173193358	0.0184829719
4114.1461267088	0.0183870196
4116.0749340819	0.0183489770
4118.0037414549	0.0183269940
4119.9325488280	0.0183012225
4121.8613562010	0.0182174742
4123.7901635740	0.0182433240
4125.7189709471	0.0182400979
4127.6477783201	0.0181876179
4129.5765856932	0.0180883408
4131.5053930662	0.0180236734
4133.4342004393	0.0181092620
4135.3630078123	0.0180573650
4137.2918151854	0.0179081261
4139.2206225584	0.0178064108
4141.1494299315	0.0178913306
4143.0782373045	0.0178343765
4145.0070446776	0.0177783296
4146.9358520506	0.0178472586
4148.8646594237	0.0177229643
4150.7934667967	0.0176686309
4152.7222741697	0.0176211707
4154.6510815428	0.0176134445
4156.5798889158	0.0175275262
4158.5086962889	0.0175141916
4160.4375036619	0.0175249390
4162.3663110350	0.0173953958
4164.2951184080	0.0174650494
4166.2239257811	0.0174190179
4168.1527331541	0.0173789095
4170.0815405272	0.0173299387
4172.0103479002	0.0172728822
4173.9391552733	0.0172257759
4175.8679626463	0.0171250049
4177.7967700194	0.0172060914
4179.7255773924	0.0171198733
4181.6543847654	0.0170231480
4183.5831921385	0.0170475654
4185.5119995115	0.0170633513
4187.4408068846	0.0169698335
4189.3696142576	0.0168737769
4191.2984216307	0.0168938786
4193.2272290037	0.0168386698
4195.1560363768	0.0168511253
4197.0848437498	0.0167970881
4199.0136511229	0.0167661309
4200.9424584959	0.0167784877
4202.8712658690	0.0166901201
4204.8000732420	0.0166114178
4206.7288806151	0.0165869594
4208.6576879881	0.0165701415
4210.5864953611	0.0165288486
4212.5153027342	0.0165059064
4214.4441101072	0.0164121725
4216.3729174803	0.0164461806
4218.3017248533	0.0163991861
4220.2305322264	0.0163632445
4222.1593395994	0.0163789913
4224.0881469725	0.0162564553
4226.0169543455	0.0162452012
4227.9457617186	0.0161807276
4229.8745690916	0.0162835959
4231.8033764647	0.0162157323
4233.7321838377	0.0161205288
4235.6609912108	0.0161846392
4237.5897985838	0.0160230789
4239.5186059569	0.0160280243
4241.4474133299	0.0160009339
4243.3762207029	0.0160007030
4245.3050280760	0.0159147307
4247.2338354490	0.0158858746
4249.1626428221	0.0159150325
4251.0914501951	0.0157742482
4253.0202575682	0.0158466399
4254.9490649412	0.0157977119
4256.8778723143	0.0157823134
4258.8066796873	0.0157067347
4260.7354870604	0.0156327821
4262.6642944334	0.0155992303
4264.5931018065	0.0154978167
4266.5219091795	0.0155797601
4268.4507165526	0.0155185172
4270.3795239256	0.0155400336
4272.3083312986	0.0154335890
4274.2371386717	0.0153563898
4276.1659460447	0.0154250935
4278.0947534178	0.0153731927
4280.0235607908	0.0153407175
4281.9523681639	0.0152137857
4283.8811755369	0.0152879367
4285.8099829100	0.0152596720
4287.7387902830	0.0151907187
4289.6675976561	0.0151611604
4291.5964050291	0.0151207838
4293.5252124022	0.0151690627
4295.4540197752	0.0150561789
4297.3828271483	0.0150505304
4299.3116345213	0.0149557767
4301.2404418943	0.0148794111
4303.1692492674	0.0148637127
4305.0980566404	0.0148994438
4307.0268640135	0.0149117243
4308.9556713865	0.0147634596
4310.8844787596	0.0148251820
4312.8132861326	0.0147764683
4314.7420935057	0.0147298556
4316.6709008787	0.0146766566
4318.5997082518	0.0146483285
4320.5285156248	0.0146778729
4322.4573229979	0.0146007957
4324.3861303709	0.0146190785
4326.3149377440	0.0144958049
4328.2437451170	0.0145111242
4330.1725524900	0.0145293688
4332.1013598631	0.0144275296
4334.0301672361	0.0144271962
4335.9589746092	0.0143999094
4337.8877819822	0.0143853724
4339.8165893553	0.0143544134
4341.7453967283	0.0143241212
4343.6742041014	0.0142345969
4345.6030114744	0.0142295882
4347.5318188475	0.0141437855
4349.4606262205	0.0141105466
4351.3894335936	0.0141548514
4353.3182409666	0.0140634086
4355.2470483397	0.0140412021
4357.1758557127	0.0139792413
4359.1046630858	0.0140760187
4361.0334704588	0.0140030161
4362.9622778318	0.0139176715
4364.8910852049	0.0139269251
4366.8198925779	0.0138151776
4368.7486999510	0.0138971712
4370.6775073240	0.0137436111
4372.6063146971	0.0137623679
4374.5351220701	0.0137875527
4376.4639294432	0.0136346500
4378.3927368162	0.0137585960
4380.3215441893	0.0136777069
4382.2503515623	0.0135864876
4384.1791589354	0.0135537684
4386.1079663084	0.0135199931
4388.0367736815	0.0135686826
4389.9655810545	0.0135413166
4391.8943884275	0.0134550612
4393.8231958006	0.0134395314
4395.7520031736	0.0134150693
4397.6808105467	0.0133177862
4399.6096179197	0.0133749358
4401.5384252928	0.0133305024
4403.4672326658	0.0132616330
4405.3960400389	0.0132538658
4407.3248474119	0.0132188415
4409.2536547850	0.0132235959
4411.1824621580	0.0131865758
4413.1112695311	0.0131885372
4415.0400769041	0.0131140742
4416.9688842772	0.0130898096
4418.8976916502	0.0130354259
4420.8264990232	0.0130243693
4422.7553063963	0.0130636236
4424.6841137693	0.0129623488
4426.6129211424	0.0129910642
4428.5417285154	0.0128424987
4430.4705358885	0.0128014646
4432.3993432615	0.0128678363
4434.3281506346	0.0127472822
4436.2569580076	0.0128383404
4438.1857653807	0.0128012933
4440.1145727537	0.0127042718
4442.0433801268	0.0127079478
4443.9721874998	0.0126620103
4445.9009948729	0.0126418062
4447.8298022459	0.0126124509
4449.7586096189	0.0125878491
4451.6874169920	0.0125154983
4453.6162243650	0.0125217196
4455.5450317381	0.0125261694
4457.4738391111	0.0125080813
4459.4026464842	0.0124913212
4461.3314538572	0.0123616122
4463.2602612303	0.0123718064
4465.1890686033	0.0123806112
4467.1178759764	0.0123604480
4469.0466833494	0.0123572759
4470.9754907225	0.0122540928
4472.9042980955	0.0122775184
4474.8331054686	0.0122308694
4476.7619128416	0.0121732568
4478.6907202147	0.0122322766
4480.6195275877	0.0121490005
4482.5483349607	0.0120700784
4484.4771423338	0.0120784361
4486.4059497068	0.0120956106
4488.3347570799	0.0120733827
4490.2635644529	0.0120742209
4492.1923718260	0.0120557733
4494.1211791990	0.0120005719
4496.0499865721	0.0119378399
4497.9787939451	0.0118544064
4499.9076013182	0.0119456733
4501.8364086912	0.0119150449
4503.7652160643	0.0117918719
4505.6940234373	0.0117995655
4507.6228308104	0.0117572118
4509.5516381834	0.0117475018
4511.4804455564	0.0117018092
4513.4092529295	0.0116646001
4515.3380603025	0.0116305482
4517.2668676756	0.0116155650
4519.1956750486	0.0115757855
4521.1244824217	0.0115132127
4523.0532897947	0.0115989931
4524.9820971678	0.0115083857
4526.9109045408	0.0114715863
4528.8397119139	0.0115142111
4530.7685192869	0.0114294263
4532.6973266600	0.0114374459
4534.6261340330	0.0113893542
4536.5549414061	0.0113791749
4538.4837487791	0.0113244383
4540.4125561521	0.0112300329
4542.3413635252	0.0112366416
4544.2701708982	0.0112003991
4546.1989782713	0.0112174358
4548.1277856443	0.0112031605
4550.0565930174	0.0111939069
4551.9854003904	0.0111802910
4553.9142077635	0.0111469673
4555.8430151365	0.0111719202
4557.7718225096	0.0110182278
4559.7006298826	0.0109490324
4561.6294372557	0.0110294092
4563.5582446287	0.0109989680
4565.4870520018	0.0109948674
4567.4158593748	0.0109329261
4569.3446667478	0.0108576976
4571.2734741209	0.0108640054
4573.2022814939	0.0108864233
4575.1310888670	0.0108840689
4577.0598962400	0.0108000636
4578.9887036131	0.0107325055
4580.9175109861	0.0107297907
4582.8463183592	0.0107320827
4584.7751257322	0.0106307212
4586.7039331053	0.0106641818
4588.6327404783	0.0106657427
4590.5615478514	0.0105063422
4592.4903552244	0.0105775818
4594.4191625975	0.0105451718
4596.3479699705	0.0105654877
4598.2767773435	0.0105416533
4600.2055847166	0.0103661213
4602.1343920896	0.0104897274
4604.0631994627	0.0104616266
4605.9920068357	0.0104149189
4607.9208142088	0.0103970654
4609.8496215818	0.0103175491
4611.7784289549	0.0103548886
4613.7072363279	0.0103360321
4615.6360437010	0.0102870818
4617.5648510740	0.0102390107
4619.4936584471	0.0103002954
4621.4224658201	0.0101789124
4623.3512731932	0.0101179648
4625.2800805662	0.0101997759
4627.2088879393	0.0100854989
4629.1376953123	0.0100864619
4631.0665026853	0.0100818751
4632.9953100584	0.0101332869
4634.9241174314	0.0100843087
4636.8529248045	0.0100158658
4638.7817321775	0.0100937802
4640.7105395506	0.0099944025
4642.6393469236	0.0099708699
4644.5681542967	0.0099138105
4646.4969616697	0.0098629165
4648.4257690428	0.0098876692
4650.3545764158	0.0098669231
4652.2833837889	0.0098585989
4654.2121911619	0.0098014502
4656.1409985350	0.0097725950
4658.0698059080	0.0097196698
4659.9986132810	0.0097358301
4661.9274206541	0.0097303838
4663.8562280271	0.0096918028
4665.7850354002	0.0097398907
4667.7138427732	0.0097195376
4669.6426501463	0.0097000338
4671.5714575193	0.0096344780
4673.5002648924	0.0095629506
4675.4290722654	0.0095725833
4677.3578796385	0.0095330616
4679.2866870115	0.0095241908
4681.2154943846	0.0095623117
4683.1443017576	0.0095056007
4685.0731091307	0.0094466787
4687.0019165037	0.0094234841
4688.9307238767	0.0094435895
4690.8595312498	0.0094090849
4692.7883386228	0.0093020452
4694.7171459959	0.0093549918
4696.6459533689	0.0093570901
4698.5747607420	0.0093785413
4700.5035681150	0.0093349032
4702.4323754881	0.0091756005
4704.3611828611	0.0092214756
4706.2899902342	0.0091869421
4708.2187976072	0.0092007890
4710.1476049803	0.0091869785
4712.0764123533	0.0091079716
4714.0052197264	0.0091763446
4715.9340270994	0.0091356700
4717.8628344724	0.0090842424
4719.7916418455	0.0089948149
4721.7204492185	0.0090251677
4723.6492565916	0.0091072703
4725.5780639646	0.0089573171
4727.5068713377	0.0089422222
4729.4356787107	0.0090153664
4731.3644860838	0.0089570750
4733.2932934568	0.0089162113
4735.2221008299	0.0089150360
4737.1509082029	0.0089181196
4739.0797155760	0.0089173540
4741.0085229490	0.0088606030
4742.9373303221	0.0088394731
4744.8661376951	0.0088133924
4746.7949450682	0.0087711364
4748.7237524412	0.0087925810
4750.6525598142	0.0088007227
4752.5813671873	0.0087465886
4754.5101745603	0.0087024532
4756.4389819334	0.0087508345
4758.3677893064	0.0086289886
4760.2965966795	0.0085560326
4762.2254040525	0.0086479262
4764.1542114256	0.0086379778
4766.0830187986	0.0086315162
4768.0118261717	0.0085293297
4769.9406335447	0.0084894104
4771.8694409178	0.0084997499
4773.7982482908	0.0085326126
4775.7270556639	0.0085329395
4777.6558630369	0.0084218737
4779.5846704099	0.0084697930
4781.5134777830	0.0084571214
4783.4422851560	0.0084200464
4785.3710925291	0.0083759464
4787.2998999021	0.0083487900
4789.2287072752	0.0083246762
4791.1575146482	0.0082842913
4793.0863220213	0.0083977450
4795.0151293943	0.0082715526
4796.9439367674	0.0081556281
4798.8727441404	0.0082397964
4800.8015515135	0.0082778838
4802.7303588865	0.0082381610
4804.6591662596	0.0081210211
4806.5879736326	0.0080832057
4808.5167810056	0.0081206337
4810.4455883787	0.0081652701
4812.3743957517	0.0080865212
4814.3032031248	0.0080922302
4816.2320104978	0.0080978908
4818.1608178709	0.0080054086
4820.0896252439	0.0080672130
4822.0184326170	0.0080593023
4823.9472399900	0.0079684611
4825.8760473631	0.0079523511
4827.8048547361	0.0079756957
4829.7336621092	0.0079460191
4831.6624694822	0.0079596909
4833.5912768553	0.0079135578
4835.5200842283	0.0078808106
4837.4488916013	0.0078853760
4839.3776989744	0.0077459980
4841.3065063474	0.0078039006
4843.2353137205	0.0077920966
4845.1641210935	0.0077590309
4847.0929284666	0.0078053921
4849.0217358396	0.0077387225
4850.9505432127	0.0076929722
4852.8793505857	0.0076687280
4854.8081579588	0.0077780103
4856.7369653318	0.0076554073
4858.6657727049	0.0076294588
4860.5945800779	0.0077002426
4862.5233874510	0.0075998707
4864.4521948240	0.0076571554
4866.3810021971	0.0075229611
4868.3098095701	0.0075406781
4870.2386169431	0.0075853751
4872.1674243162	0.0074815219
4874.0962316892	0.0075289602
4876.0250390623	0.0074711507
4877.9538464353	0.0074403370
4879.8826538084	0.0074220840
4881.8114611814	0.0074318545
4883.7402685545	0.0074072853
4885.6690759275	0.0073633073
4887.5978833006	0.0073817400
4889.5266906736	0.0073582176
4891.4554980467	0.0073723909
4893.3843054197	0.0073338989
4895.3131127928	0.0072697038
4897.2419201658	0.0072443895
4899.1707275388	0.0072943293
4901.0995349119	0.0072738687
4903.0283422849	0.0072407802
4904.9571496580	0.0072724102
4906.8859570310	0.0071704057
4908.8147644041	0.0071386914
4910.7435717771	0.0071253446
4912.6723791502	0.0071230289
4914.6011865232	0.0071466714
4916.5299938963	0.0070441738
4918.4588012693	0.0070606885
4920.3876086424	0.0071299681
4922.3164160154	0.0070680473
4924.2452233885	0.0069926353
4926.1740307615	0.0069389977
4928.1028381345	0.0069544362
4930.0316455076	0.0069923531
4931.9604528806	0.0070010237
4933.8892602537	0.0069877487
4935.8180676267	0.0069087464
4937.7468749998	0.0069602411
4939.6756823728	0.0069214143
4941.6044897459	0.0068175523
4943.5332971189	0.0069137178
4945.4621044920	0.0068371492
4947.3909118650	0.0068047820
4949.3197192381	0.0068220692
4951.2485266111	0.0067410888
4953.1773339842	0.0067444229
4955.1061413572	0.0067037675
4957.0349487302	0.0066979928
4958.9637561033	0.0067410972
4960.8925634763	0.0067791520
4962.8213708494	0.0067343130
4964.7501782224	0.0067206300
4966.6789855955	0.0066793887
4968.6077929685	0.0065899184
4970.5366003416	0.0066849245
4972.4654077146	0.0066638561
4974.3942150877	0.0065890565
4976.3230224607	0.0066228495
4978.2518298338	0.0066277636
4980.1806372068	0.0065422682
4982.1094445799	0.0065313959
4984.0382519529	0.0065616914
4985.9670593259	0.0064983163
4987.8958666990	0.0065561691
4989.8246740720	0.0064874194
4991.7534814451	0.0064542647
4993.6822888181	0.0065205018
4995.6110961912	0.0064337095
4997.5399035642	0.0064065093
4999.4687109373	0.0063894754
5001.3975183103	0.0064077866
5003.3263256834	0.0063987556
5005.2551330564	0.0064166579
5007.1839404295	0.0063851476
5009.1127478025	0.0062599527
5011.0415551756	0.0062909285
5012.9703625486	0.0062977886
5014.8991699217	0.0062494306
5016.8279772947	0.0062107369
5018.7567846677	0.0062735830
5020.6855920408	0.0062703239
5022.6143994138	0.0061330320
5024.5432067869	0.0061339512
5026.4720141599	0.0061500142
5028.4008215330	0.0061558327
5030.3296289060	0.0061594970
5032.2584362791	0.0061441325
5034.1872436521	0.0061323838
5036.1160510252	0.0060853390
5038.0448583982	0.0060304347
5039.9736657713	0.0060295505
5041.9024731443	0.0060594017
5043.8312805174	0.0060301782
5045.7600878904	0.0059898263
5047.6888952634	0.0059837718
5049.6177026365	0.0059668254
5051.5465100095	0.0059082750
5053.4753173826	0.0059526712
5055.4041247556	0.0059592854
5057.3329321287	0.0059447577
5059.2617395017	0.0060176025
5061.1905468748	0.0059185391
5063.1193542478	0.0058580986
5065.0481616209	0.0058549689
5066.9769689939	0.0058737034
5068.9057763670	0.0058634202
5070.8345837400	0.0058070822
5072.7633911131	0.0058581075
5074.6921984861	0.0057642558
5076.6210058591	0.0057892995
5078.5498132322	0.0058342088
5080.4786206052	0.0057379240
5082.4074279783	0.0057310220
5084.3362353513	0.0057339501
5086.2650427244	0.0058191787
5088.1938500974	0.0057349810
5090.1226574705	0.0057010921
5092.0514648435	0.0057565416
5093.9802722166	0.0055877436
5095.9090795896	0.0055836993
5097.8378869627	0.0056263544
5099.7666943357	0.0055810716
5101.6955017088	0.0056295404
5103.6243090818	0.0056268629
5105.5531164548	0.0055538020
5107.4819238279	0.0055998242
5109.4107312009	0.0055779112
5111.3395385740	0.0054742256
5113.2683459470	0.0055185296
5115.1971533201	0.0054576946
5117.1259606931	0.0054073869
5119.0547680662	0.0054488955
5120.9835754392	0.0054577123
5122.9123828123	0.0054497006
5124.8411901853	0.0053850370
5126.7699975584	0.0054072402
5128.6988049314	0.0053940667
5130.6276123045	0.0053939829
5132.5564196775	0.0053804405
5134.4852270506	0.0053590685
5136.4140344236	0.0054211747
5138.3428417966	0.0053277100
5140.2716491697	0.0052731084
5142.2004565427	0.0052219741
5144.1292639158	0.0052879183
5146.0580712888	0.0053429366
5147.9868786619	0.0052154735
5149.9156860349	0.0053128414
5151.8444934080	0.0052670836
5153.7733007810	0.0052233781
5155.7021081541	0.0052248035
5157.6309155271	0.0051514525
5159.5597229002	0.0052195750
5161.4885302732	0.0051742396
5163.4173376463	0.0052316315
5165.3461450193	0.0051417192
5167.2749523923	0.0050531616
5169.2037597654	0.0051906733
5171.1325671384	0.0050919186
5173.0613745115	0.0050657527
5174.9901818845	0.0051463898
5176.9189892576	0.0051269638
5178.8477966306	0.0050611962
5180.7766040037	0.0051044514
5182.7054113767	0.0050807735
5184.6342187498	0.0049968711
5186.5630261228	0.0049992241
5188.4918334959	0.0049482379
5190.4206408689	0.0050669964
5192.3494482420	0.0050483160
5194.2782556150	0.0049752258
5196.2070629880	0.0049814382
5198.1358703611	0.0049465597
5200.0646777341	0.0049848706
5201.9934851072	0.0048778094
5203.9222924802	0.0049294205
5205.8510998533	0.0048809582
5207.7799072263	0.0047502220
5209.7087145994	0.0048588789
5211.6375219724	0.0048435950
5213.5663293455	0.0048304047
5215.4951367185	0.0048302631
5217.4239440916	0.0047766604
5219.3527514646	0.0047124838
5221.2815588377	0.0048368527
5223.2103662107	0.0049058446
5225.1391735837	0.0047441404
5227.0679809568	0.0047420375
5228.9967883298	0.0047633592
5230.9255957029	0.0047801826
5232.8544030759	0.0047713136
5234.7832104490	0.0047570085
5236.7120178220	0.0047099781
5238.6408251951	0.0046677673
5240.5696325681	0.0047834557
5242.4984399412	0.0047141286
5244.4272473142	0.0045625474
5246.3560546873	0.0046131779
5248.2848620603	0.0046046730
5250.2136694334	0.0045015975
5252.1424768064	0.0046229013
5254.0712841795	0.0045552365
5256.0000915525	0.0044157365
5257.9288989255	0.0045717289
5259.8577062986	0.0045332629
5261.7865136716	0.0045762942
5263.7153210447	0.0045819059
5265.6441284177	0.0044775819
5267.5729357908	0.0045278491
5269.5017431638	0.0044443831
5271.4305505369	0.0044766935
5273.3593579099	0.0045321016
5275.2881652830	0.0044830674
5277.2169726560	0.0045157140
5279.1457800291	0.0044845468
5281.0745874021	0.0044332948
5283.0033947752	0.0044596731
5284.9322021482	0.0044100713
5286.8610095212	0.0043831896
5288.7898168943	0.0044239624
5290.7186242673	0.0044040899
5292.6474316404	0.0044274302
5294.5762390134	0.0043741814
5296.5050463865	0.0043212874
5298.4338537595	0.0043106508
5300.3626611326	0.0043225111
5302.2914685056	0.0043112952
5304.2202758787	0.0043025259
5306.1490832517	0.0043728943
5308.0778906248	0.0042314874
5310.0066979978	0.0042758170
5311.9355053709	0.0042964723
5313.8643127439	0.0042204196
5315.7931201169	0.0043013948
5317.7219274900	0.0041563795
5319.6507348630	0.0042210193
5321.5795422361	0.0042851628
5323.5083496091	0.0041929828
5325.4371569822	0.0041645169
5327.3659643552	0.0041494174
5329.2947717283	0.0041349838
5331.2235791013	0.0040926524
5333.1523864744	0.0041623162
5335.0811938474	0.0040984121
5337.0100012205	0.0041518155
5338.9388085935	0.0040656216
5340.8676159666	0.0040221903
5342.7964233396	0.0041757594
5344.7252307126	0.0039350032
5346.6540380857	0.0040116683
5348.5828454587	0.0040486227
5350.5116528318	0.0039941347
5352.4404602048	0.0040309881
5354.3692675779	0.0038337773
5356.2980749509	0.0039562071
5358.2268823240	0.0040409151
5360.1556896970	0.0040379111
5362.0844970701	0.0040084654
5364.0133044431	0.0039387271
5365.9421118162	0.0039999946
5367.8709191892	0.0039946195
5369.7997265623	0.0040117395
5371.7285339353	0.0039303964
5373.6573413083	0.0039419010
5375.5861486814	0.0039517321
5377.5149560544	0.0037804227
5379.4437634275	0.0038557586
5381.3725708005	0.0039655692
5383.3013781736	0.0038757166
5385.2301855466	0.0038266389
5387.1589929197	0.0038208552
5389.0878002927	0.0038346343
5391.0166076658	0.0038236512
5392.9454150388	0.0037612915
5394.8742224119	0.0038565840
5396.8030297849	0.0038679803
5398.7318371580	0.0037645246
5400.6606445310	0.0037710555
5402.5894519041	0.0037427610
5404.5182592771	0.0037542402
5406.4470666501	0.0038041326
5408.3758740232	0.0037996578
5410.3046813962	0.0037749391
5412.2334887693	0.0037299208
5414.1622961423	0.0036181980
5416.0911035154	0.0036735097
5418.0199108884	0.0038025405
5419.9487182615	0.0037472928
5421.8775256345	0.0037242169
5423.8063330076	0.0036579375
5425.7351403806	0.0036797361
5427.6639477537	0.0036792334
5429.5927551267	0.0035911296
5431.5215624998	0.0036630537
5433.4503698728	0.0036171554
5435.3791772458	0.0035215379
5437.3079846189	0.0035716323
5439.2367919919	0.0036903420
5441.1655993650	0.0035876306
5443.0944067380	0.0034753922
5445.0232141111	0.0034545604
5446.9520214841	0.0034168153
5448.8808288572	0.0035758729
5450.8096362302	0.0035065850
5452.7384436033	0.0035270958
5454.6672509763	0.0035777658
5456.5960583494	0.0033761463
5458.5248657224	0.0035086551
5460.4536730955	0.0035150540
5462.3824804685	0.0033856528
5464.3112878415	0.0034656997
5466.2400952146	0.0034898147
5468.1689025876	0.0034670427
5470.0977099607	0.0034978585
5472.0265173337	0.0034612895
5473.9553247068	0.0033662659
5475.8841320798	0.0034355985
5477.8129394529	0.0034380862
5479.7417468259	0.0034022499
5481.6705541990	0.0034421110
5483.5993615720	0.0034041181
5485.5281689451	0.0034010278
5487.4569763181	0.0033675614
5489.3857836912	0.0032858909
5491.3145910642	0.0033461908
5493.2433984372	0.0033980110
5495.1722058103	0.0032911403
5497.1010131833	0.0033303499
5499.0298205564	0.0033570793
5500.9586279294	0.0032803416
5502.8874353025	0.0033381816
5504.8162426755	0.0033202232
5506.7450500486	0.0033448841
5508.6738574216	0.0033182320
5510.6026647947	0.0032127891
5512.5314721677	0.0032900171
5514.4602795408	0.0032645217
5516.3890869138	0.0032186985
5518.3178942869	0.0032526676
5520.2467016599	0.0031924355
5522.1755090330	0.0031571700
5524.1043164060	0.0031964048
5526.0331237790	0.0032172049
5527.9619311521	0.0031571235
5529.8907385251	0.0031790603
5531.8195458982	0.0032568979
5533.7483532712	0.0031235614
5535.6771606443	0.0031035782
5537.6059680173	0.0032303948
5539.5347753904	0.0031514391
5541.4635827634	0.0031447953
5543.3923901365	0.0031659254
5545.3211975095	0.0031053894
5547.2500048826	0.0031518603
5549.1788122556	0.0031722512
5551.1076196287	0.0031287672
5553.0364270017	0.0030738118
5554.9652343747	0.0030777087
5556.8940417478	0.0030795645
5558.8228491208	0.0030487939
5560.7516564939	0.0030694664
5562.6804638669	0.0030557779
5564.6092712400	0.0030302987
5566.5380786130	0.0030536428
5568.4668859861	0.0030955854
5570.3956933591	0.0030332496
5572.3245007322	0.0029857415
5574.2533081052	0.0030307197
5576.1821154783	0.0030081545
5578.1109228513	0.0029691197
5580.0397302244	0.0029264272
5581.9685375974	0.0029931387
5583.8973449704	0.0030340911
5585.8261523435	0.0029751733
5587.7549597165	0.0029999244
5589.6837670896	0.0029156667
5591.6125744626	0.0028906213
5593.5413818357	0.0029399781
5595.4701892087	0.0029391544
5597.3989965818	0.0029816304
5599.3278039548	0.0028796336
5601.2566113279	0.0028750862
5603.1854187009	0.0029704552
5605.1142260740	0.0029245573
5607.0430334470	0.0029032060
5608.9718408201	0.0028678300
5610.9006481931	0.0028536550
5612.8294555661	0.0028603096
5614.7582629392	0.0028427751
5616.6870703122	0.0028524660
5618.6158776853	0.0028170969
5620.5446850583	0.0028176759
5622.4734924314	0.0028336029
5624.4022998044	0.0027835299
5626.3311071775	0.0027617035
5628.2599145505	0.0028088600
5630.1887219236	0.0028521838
5632.1175292966	0.0027459022
5634.0463366697	0.0027016425
5635.9751440427	0.0028204364
5637.9039514158	0.0027610785
5639.8327587888	0.0027230103
5641.7615661619	0.0027576047
5643.6903735349	0.0027081212
5645.6191809079	0.0027853767
5647.5479882810	0.0027499646
5649.4767956540	0.0026882694
5651.4056030271	0.0027036802
5653.3344104001	0.0026438767
5655.2632177732	0.0027408071
5657.1920251462	0.0027287439
5659.1208325193	0.0026396227
5661.0496398923	0.0026759384
5662.9784472654	0.0026708108
5664.9072546384	0.0026848665
5666.8360620115	0.0026623840
5668.7648693845	0.0026563345
5670.6936767576	0.0026450073
5672.6224841306	0.0026346375
5674.5512915036	0.0026620310
5676.4800988767	0.0026064429
5678.4089062497	0.0025598956
5680.3377136228	0.0025540190
5682.2665209958	0.0026019174
5684.1953283689	0.0025961706
5686.1241357419	0.0025847107
5688.0529431150	0.0026334026
5689.9817504880	0.0026050131
5691.9105578611	0.0025978759
5693.8393652341	0.0025687211
5695.7681726072	0.0025605657
5697.6969799802	0.0025678982
5699.6257873533	0.0025485074
5701.5545947263	0.0025536814
5703.4834020993	0.0024940418
5705.4122094724	0.0025495030
5707.3410168454	0.0025410305
5709.2698242185	0.0024541495
5711.1986315915	0.0025598707
5713.1274389646	0.0025453935
5715.0562463376	0.0024810587
5716.9850537107	0.0025109989
5718.9138610837	0.0024985475
5720.8426684568	0.0024525439
5722.7714758298	0.0024357298
5724.7002832029	0.0024684023
5726.6290905759	0.0024649659
5728.5578979490	0.0025220909
5730.4867053220	0.0024309200
5732.4155126950	0.0023146137
5734.3443200681	0.0024522785
5736.2731274411	0.0024263225
5738.2019348142	0.0024131273
5740.1307421872	0.0024443893
5742.0595495603	0.0024149765
5743.9883569333	0.0024904069
5745.9171643064	0.0024197199
5747.8459716794	0.0023757126
5749.7747790525	0.0023772034
5751.7035864255	0.0023146239
5753.6323937986	0.0023112288
5755.5612011716	0.0023187767
5757.4900085447	0.0023486200
5759.4188159177	0.0023155746
5761.3476232907	0.0022936994
5763.2764306638	0.0023113084
5765.2052380368	0.0022795256
5767.1340454099	0.0022446485
5769.0628527829	0.0022223992
5770.9916601560	0.0022335651
5772.9204675290	0.0022448017
5774.8492749021	0.0022623232
5776.7780822751	0.0023170582
5778.7068896482	0.0023179315
5780.6356970212	0.0022164434
5782.5645043943	0.0021652856
5784.4933117673	0.0022178942
5786.4221191404	0.0022509764
5788.3509265134	0.0021988668
5790.2797338865	0.0021988759
5792.2085412595	0.0022583399
5794.1373486325	0.0022777626
5796.0661560056	0.0023074532
5797.9949633786	0.0021879738
5799.9237707517	0.0021198932
5801.8525781247	0.0021608793
5803.7813854978	0.0021153181
5805.7101928708	0.0021547852
5807.6390002439	0.0021618959
5809.5678076169	0.0021433537
5811.4966149900	0.0021552225
5813.4254223630	0.0021792713
5815.3542297361	0.0021342807
5817.2830371091	0.0021078121
5819.2118444822	0.0021627946
5821.1406518552	0.0021077180
5823.0694592282	0.0021662912
5824.9982666013	0.0021297405
5826.9270739743	0.0021013531
5828.8558813474	0.0021624425
5830.7846887204	0.0020649815
5832.7134960935	0.0021095232
5834.6423034665	0.0021130315
5836.5711108396	0.0020918672
5838.4999182126	0.0020715699
5840.4287255857	0.0020406602
5842.3575329587	0.0020518242
5844.2863403318	0.0020337193
5846.2151477048	0.0020717084
5848.1439550779	0.0019635339
5850.0727624509	0.0019570435
5852.0015698239	0.0020417904
5853.9303771970	0.0020374507
5855.8591845700	0.0020311838
5857.7879919431	0.0020138253
5859.7167993161	0.0020404828
5861.6456066892	0.0019938070
5863.5744140622	0.0019683044
5865.5032214353	0.0019419080
5867.4320288083	0.0019518430
5869.3608361814	0.0020114961
5871.2896435544	0.0020493180
5873.2184509275	0.0020187059
5875.1472583005	0.0019878871
5877.0760656736	0.0020279400
5879.0048730466	0.0019276399
5880.9336804196	0.0020082449
5882.8624877927	0.0019312190
5884.7912951657	0.0018011592
5886.7201025388	0.0019866875
5888.6489099118	0.0019001374
5890.5777172849	0.0019066858
5892.5065246579	0.0019225033
5894.4353320310	0.0018717581
5896.3641394040	0.0019798810
5898.2929467771	0.0019327149
5900.2217541501	0.0018524381
5902.1505615232	0.0018546504
5904.0793688962	0.0019082350
5906.0081762693	0.0018689267
5907.9369836423	0.0018565920
5909.8657910154	0.0018439023
5911.7945983884	0.0017938039
5913.7234057614	0.0018530587
5915.6522131345	0.0018666126
5917.5810205075	0.0018058901
5919.5098278806	0.0017762507
5921.4386352536	0.0018503135
5923.3674426267	0.0018308067
5925.2962499997	0.0018071978
5927.2250573728	0.0017606657
5929.1538647458	0.0017353608
5931.0826721189	0.0018407734
5933.0114794919	0.0018133022
5934.9402868650	0.0018589611
5936.8690942380	0.0018705076
5938.7979016111	0.0018483694
5940.7267089841	0.0018047283
5942.6555163571	0.0017738412
5944.5843237302	0.0018394664
5946.5131311032	0.0017376986
5948.4419384763	0.0018099346
5950.3707458493	0.0017745676
5952.2995532224	0.0016596098
5954.2283605954	0.0017894531
5956.1571679685	0.0017715213
5958.0859753415	0.0017465384
5960.0147827146	0.0017357084
5961.9435900876	0.0017430563
5963.8723974607	0.0017550937
5965.8012048337	0.0017058076
5967.7300122068	0.0017269489
5969.6588195798	0.0017178215
5971.5876269528	0.0017047920
5973.5164343259	0.0017342271
5975.4452416989	0.0016799463
5977.3740490720	0.0016821335
5979.3028564450	0.0017240824
5981.2316638181	0.0016492857
5983.1604711911	0.0017268369
5985.0892785642	0.0017302805
5987.0180859372	0.0016451366
5988.9468933103	0.0016621454
5990.8757006833	0.0016453372
5992.8045080564	0.0017181742
5994.7333154294	0.0016458362
5996.6621228025	0.0015955402
5998.5909301755	0.0015991589
6000.5197375485	0.0015615972
