399.2631262207	0.0001367920
401.1919335938	0.0002758336
403.1207409668	0.0002176381
405.0495483398	0.0003928357
406.9783557129	0.0001315516
408.9071630859	0.0000916081
410.8359704590	0.0004061899
412.7647778320	0.0001215658
414.6935852051	0.0001436434
416.6223925781	0.0002034124
418.5511999512	0.0001438553
420.4800073242	0.0002324768
422.4088146973	0.0002147721
424.3376220703	0.0002763405
426.2664294434	0.0001209127
428.1952368164	0.0000013253
430.1240441895	0.0000173756
432.0528515625	0.0001370080
433.9816589355	0.0001182014
435.9104663086	0.0001002586
437.8392736816	0.0005076074
439.7680810547	0.0004018022
441.6968884277	0.0002538714
443.6256958008	0.0004582467
445.5545031738	0.0003498243
447.4833105469	0.0002622852
449.4121179199	0.0003806211
451.3409252930	0.0003885951
453.2697326660	0.0001616336
455.1985400391	-0.0000137172
457.1273474121	0.0000844943
459.0561547852	0.0004277983
460.9849621582	0.0003481704
462.9137695313	0.0002547316
464.8425769043	0.0004644138
466.7713842773	0.0002304927
468.7001916504	0.0003003714
470.6289990234	0.0003318736
472.5578063965	0.0002874275
474.4866137695	0.0003442082
476.4154211426	0.0001213209
478.3442285156	0.0002305063
480.2730358887	-0.0000439496
482.2018432617	0.0000301393
484.1306506348	0.0003463494
486.0594580078	0.0000903269
487.9882653809	0.0002130131
489.9170727539	0.0002535685
491.8458801270	0.0001010946
493.7746875000	-0.0000848795
495.7034948730	0.0000812870
497.6323022461	0.0002769765
499.5611096191	0.0002542135
501.4899169922	0.0003585160
503.4187243652	0.0002498864
505.3475317383	0.0003823041
507.2763391113	0.0002873700
509.2051464844	0.0003872452
511.1339538574	0.0004186817
513.0627612305	0.0001756066
514.9915686035	0.0005246860
516.9203759766	0.0002529152
518.8491833496	0.0002685229
520.7779907227	0.0004132845
522.7067980957	0.0001107578
524.6356054688	0.0003354653
526.5644128418	0.0002635235
528.4932202148	0.0002925512
530.4220275879	0.0003432113
532.3508349609	0.0001457835
534.2796423340	0.0001852806
536.2084497070	0.0001699588
538.1372570801	0.0001833782
540.0660644531	0.0001433345
541.9948718262	0.0000225421
543.9236791992	0.0001355626
545.8524865723	0.0003478599
547.7812939453	0.0002613636
549.7101013184	0.0002292506
551.6389086914	0.0003686615
553.5677160645	0.0004826048
555.4965234375	0.0004847494
557.4253308105	0.0003936719
559.3541381836	0.0004635908
561.2829455566	0.0003593807
563.2117529297	0.0003636425
565.1405603027	0.0003779025
567.0693676758	0.0002910619
568.9981750488	0.0003849877
570.9269824219	0.0003346321
572.8557897949	0.0004219136
574.7845971680	0.0004854179
576.7134045410	0.0004728285
578.6422119141	0.0003392869
580.5710192871	0.0002564999
582.4998266602	0.0004747116
584.4286340332	0.0003688126
586.3574414063	0.0002423897
588.2862487793	0.0001530654
590.2150561523	0.0001965915
592.1438635254	0.0004589837
594.0726708984	0.0004803360
596.0014782715	0.0004496917
597.9302856445	0.0005024683
599.8590930176	0.0006835524
601.7879003906	0.0003955095
603.7167077637	0.0000656564
605.6455151367	0.0003948537
607.5743225098	0.0003352604
609.5031298828	0.0001937119
611.4319372559	0.0004337601
613.3607446289	0.0004852856
615.2895520020	0.0006084716
617.2183593750	0.0003701564
619.1471667480	0.0002159516
621.0759741211	0.0006368494
623.0047814941	0.0003456304
624.9335888672	0.0003853051
626.8623962402	0.0005655199
628.7912036133	0.0003078731
630.7200109863	0.0006997426
632.6488183594	0.0004322480
634.5776257324	0.0002045812
636.5064331055	0.0003578308
638.4352404785	0.0002625216
640.3640478516	0.0004773495
642.2928552246	0.0004546806
644.2216625977	0.0007057359
646.1504699707	0.0006195551
648.0792773438	0.0003215236
650.0080847168	0.0006894876
651.9368920898	0.0005673566
653.8656994629	0.0004370495
655.7945068359	0.0007694354
657.7233142090	0.0005692289
659.6521215820	0.0003733807
661.5809289551	0.0006661696
663.5097363281	0.0004429354
665.4385437012	0.0004527024
667.3673510742	0.0005925273
669.2961584473	0.0003862636
671.2249658203	0.0006229181
673.1537731934	0.0004611899
675.0825805664	0.0005275274
677.0113879395	0.0005653898
678.9401953125	0.0003038133
680.8690026855	0.0006609969
682.7978100586	0.0005478582
684.7266174316	0.0005879235
686.6554248047	0.0007492908
688.5842321777	0.0004964167
690.5130395508	0.0005256820
692.4418469238	0.0005420204
694.3706542969	0.0006552670
696.2994616699	0.0006635706
698.2282690430	0.0005919912
700.1570764160	0.0007751929
702.0858837891	0.0007261261
704.0146911621	0.0006714134
705.9434985352	0.0007399203
707.8723059082	0.0004762958
709.8011132813	0.0006747785
711.7299206543	0.0009330107
713.6587280273	0.0005513877
715.5875354004	0.0006067321
717.5163427734	0.0005490136
719.4451501465	0.0003825674
721.3739575195	0.0004915514
723.3027648926	0.0003782893
725.2315722656	0.0004592193
727.1603796387	0.0005364792
729.0891870117	0.0005191263
731.0179943848	0.0005076277
732.9468017578	0.0005628671
734.8756091309	0.0006326911
736.8044165039	0.0005932814
738.7332238770	0.0004103485
740.6620312500	0.0001881025
742.5908386230	0.0005309551
744.5196459961	0.0006321555
746.4484533691	0.0004282944
748.3772607422	0.0005684359
750.3060681152	0.0005225783
752.2348754883	0.0005166161
754.1636828613	0.0006765968
756.0924902344	0.0006156377
758.0212976074	0.0004143612
759.9501049805	0.0004159866
761.8789123535	0.0004568979
763.8077197266	0.0004211229
765.7365270996	0.0004281657
767.6653344727	0.0005433249
769.5941418457	0.0006879522
771.5229492188	0.0005436380
773.4517565918	0.0005505508
775.3805639648	0.0006272963
777.3093713379	0.0006199740
779.2381787109	0.0007643697
781.1669860840	0.0006728190
783.0957934570	0.0004248414
785.0246008301	0.0003790250
786.9534082031	0.0005381622
788.8822155762	0.0005823298
790.8110229492	0.0006055566
792.7398303223	0.0005481551
794.6686376953	0.0005436947
796.5974450684	0.0006723721
798.5262524414	0.0005321042
800.4550598145	0.0006809427
802.3838671875	0.0006536741
804.3126745605	0.0005004302
806.2414819336	0.0006413905
808.1702893066	0.0004519511
810.0990966797	0.0005312259
812.0279040527	0.0006117182
813.9567114258	0.0005776461
815.8855187988	0.0006328101
817.8143261719	0.0004052331
819.7431335449	0.0005459327
821.6719409180	0.0006910478
823.6007482910	0.0004827130
825.5295556641	0.0006570395
827.4583630371	0.0008253865
829.3871704102	0.0006016296
831.3159777832	0.0006652739
833.2447851563	0.0006156404
835.1735925293	0.0005103912
837.1023999023	0.0008141281
839.0312072754	0.0006713111
840.9600146484	0.0006790798
842.8888220215	0.0008131975
844.8176293945	0.0007298506
846.7464367676	0.0007727200
848.6752441406	0.0005727362
850.6040515137	0.0007629595
852.5328588867	0.0007492828
854.4616662598	0.0006102921
856.3904736328	0.0008810740
858.3192810059	0.0008502711
860.2480883789	0.0008840901
862.1768957520	0.0007116699
864.1057031250	0.0007889988
866.0345104980	0.0009435543
867.9633178711	0.0007835826
869.8921252441	0.0008265588
871.8209326172	0.0006539179
873.7497399902	0.0009909846
875.6785473633	0.0011855005
877.6073547363	0.0009584210
879.5361621094	0.0011357982
881.4649694824	0.0010591096
883.3937768555	0.0008535105
885.3225842285	0.0007944099
887.2513916016	0.0009424811
889.1801989746	0.0010485997
891.1090063477	0.0012359858
893.0378137207	0.0013213709
894.9666210938	0.0013261042
896.8954284668	0.0017061639
898.8242358398	0.0016801080
900.7530432129	0.0015805208
902.6818505859	0.0015246696
904.6106579590	0.0016143506
906.5394653320	0.0018576484
908.4682727051	0.0016903027
910.3970800781	0.0015881755
912.3258874512	0.0015523764
914.2546948242	0.0016263881
916.1835021973	0.0014444538
918.1123095703	0.0012938038
920.0411169434	0.0015455575
921.9699243164	0.0015727631
923.8987316895	0.0014996865
925.8275390625	0.0015106208
927.7563464355	0.0017027459
929.6851538086	0.0016811569
931.6139611816	0.0017907466
933.5427685547	0.0019468826
935.4715759277	0.0018974566
937.4003833008	0.0020166459
939.3291906738	0.0017911175
941.2579980469	0.0018012547
943.1868054199	0.0017923340
945.1156127930	0.0015430540
947.0444201660	0.0014860237
948.9732275391	0.0014164788
950.9020349121	0.0015428625
952.8308422852	0.0013566783
954.7596496582	0.0012177387
956.6884570313	0.0013223200
958.6172644043	0.0013597513
960.5460717773	0.0014823566
962.4748791504	0.0013654463
964.4036865234	0.0011489248
966.3324938965	0.0012100725
968.2613012695	0.0012937691
970.1901086426	0.0011205937
972.1189160156	0.0013278626
974.0477233887	0.0013835228
975.9765307617	0.0011860211
977.9053381348	0.0012960404
979.8341455078	0.0011477740
981.7629528809	0.0012810307
983.6917602539	0.0012860671
985.6205676270	0.0011125894
987.5493750000	0.0011870234
989.4781823730	0.0009685697
991.4069897461	0.0010869128
993.3357971191	0.0012039056
995.2646044922	0.0011315432
997.1934118652	0.0012346834
999.1222192383	0.0012211076
1001.0510266113	0.0012513485
1002.9798339844	0.0010959818
1004.9086413574	0.0011014667
1006.8374487305	0.0014316600
1008.7662561035	0.0012486642
1010.6950634766	0.0010833479
1012.6238708496	0.0013311782
1014.5526782227	0.0013023997
1016.4814855957	0.0010838502
1018.4102929688	0.0012422805
1020.3391003418	0.0015281792
1022.2679077148	0.0012749600
1024.1967150879	0.0013249618
1026.1255224609	0.0015824439
1028.0543298340	0.0014380701
1029.9831372070	0.0016834890
1031.9119445801	0.0015684796
1033.8407519531	0.0014899538
1035.7695593262	0.0017777926
1037.6983666992	0.0015716839
1039.6271740723	0.0016466333
1041.5559814453	0.0016769052
1043.4847888184	0.0015912417
1045.4135961914	0.0017303450
1047.3424035645	0.0017104184
1049.2712109375	0.0016292671
1051.2000183105	0.0016498738
1053.1288256836	0.0017223624
1055.0576330566	0.0015616908
1056.9864404297	0.0016175583
1058.9152478027	0.0016095806
1060.8440551758	0.0014496695
1062.7728625488	0.0016361070
1064.7016699219	0.0014834132
1066.6304772949	0.0013356919
1068.5592846680	0.0014431698
1070.4880920410	0.0014523270
1072.4168994141	0.0015040422
1074.3457067871	0.0014223441
1076.2745141602	0.0014421223
1078.2033215332	0.0014140583
1080.1321289062	0.0012164498
1082.0609362793	0.0013934493
1083.9897436523	0.0015027374
1085.9185510254	0.0014161880
1087.8473583984	0.0014340219
1089.7761657715	0.0014037669
1091.7049731445	0.0014848872
1093.6337805176	0.0014621613
1095.5625878906	0.0014524919
1097.4913952637	0.0016033435
1099.4202026367	0.0016433079
1101.3490100098	0.0016367537
1103.2778173828	0.0015783752
1105.2066247559	0.0015774299
1107.1354321289	0.0016058453
1109.0642395019	0.0017403106
1110.9930468750	0.0016695356
1112.9218542480	0.0014972105
1114.8506616211	0.0016932198
1116.7794689941	0.0015939095
1118.7082763672	0.0013891387
1120.6370837402	0.0013918513
1122.5658911133	0.0014657384
1124.4946984863	0.0015351595
1126.4235058594	0.0013434782
1128.3523132324	0.0013266816
1130.2811206055	0.0014137480
1132.2099279785	0.0012780480
1134.1387353516	0.0012838033
1136.0675427246	0.0013762679
1137.9963500977	0.0012358634
1139.9251574707	0.0012315630
1141.8539648437	0.0011737132
1143.7827722168	0.0010695516
1145.7115795898	0.0013784462
1147.6403869629	0.0013605172
1149.5691943359	0.0012666790
1151.4980017090	0.0013386973
1153.4268090820	0.0012962760
1155.3556164551	0.0014670211
1157.2844238281	0.0015358191
1159.2132312012	0.0014408404
1161.1420385742	0.0014416329
1163.0708459473	0.0016110530
1164.9996533203	0.0016761145
1166.9284606934	0.0017450524
1168.8572680664	0.0017569016
1170.7860754394	0.0016653455
1172.7148828125	0.0018882866
1174.6436901855	0.0018631736
1176.5724975586	0.0017983359
1178.5013049316	0.0018101942
1180.4301123047	0.0018572416
1182.3589196777	0.0019712022
1184.2877270508	0.0017830979
1186.2165344238	0.0019774961
1188.1453417969	0.0022301406
1190.0741491699	0.0023516286
1192.0029565430	0.0023562643
1193.9317639160	0.0023212642
1195.8605712891	0.0026527396
1197.7893786621	0.0025043325
1199.7181860351	0.0026927292
1201.6469934082	0.0030462542
1203.5758007812	0.0027265032
1205.5046081543	0.0028930064
1207.4334155273	0.0029576295
1209.3622229004	0.0029007168
1211.2910302734	0.0031875628
1213.2198376465	0.0031620711
1215.1486450195	0.0031540503
1217.0774523926	0.0032592926
1219.0062597656	0.0032658095
1220.9350671387	0.0033359695
1222.8638745117	0.0035947922
1224.7926818848	0.0036840551
1226.7214892578	0.0035464251
1228.6502966308	0.0036601203
1230.5791040039	0.0036956109
1232.5079113769	0.0035662246
1234.4367187500	0.0036628717
1236.3655261230	0.0037325020
1238.2943334961	0.0036265145
1240.2231408691	0.0036212008
1242.1519482422	0.0034951479
1244.0807556152	0.0034397787
1246.0095629883	0.0036229638
1247.9383703613	0.0034984080
1249.8671777344	0.0034938091
1251.7959851074	0.0034810640
1253.7247924805	0.0034299260
1255.6535998535	0.0035093511
1257.5824072266	0.0033413868
1259.5112145996	0.0035403101
1261.4400219726	0.0034973857
1263.3688293457	0.0032746335
1265.2976367187	0.0033301739
1267.2264440918	0.0032185158
1269.1552514648	0.0033775624
1271.0840588379	0.0032663662
1273.0128662109	0.0031619370
1274.9416735840	0.0032051266
1276.8704809570	0.0031402479
1278.7992883301	0.0032828122
1280.7280957031	0.0029936489
1282.6569030762	0.0029571927
1284.5857104492	0.0031301277
1286.5145178223	0.0029505552
1288.4433251953	0.0029163130
1290.3721325683	0.0029025888
1292.3009399414	0.0028724368
1294.2297473144	0.0027945808
1296.1585546875	0.0028466419
1298.0873620605	0.0028581833
1300.0161694336	0.0027902143
1301.9449768066	0.0028250434
1303.8737841797	0.0029344312
1305.8025915527	0.0031505139
1307.7313989258	0.0030139210
1309.6602062988	0.0029873285
1311.5890136719	0.0031191374
1313.5178210449	0.0031249202
1315.4466284180	0.0032740557
1317.3754357910	0.0032746922
1319.3042431640	0.0033733137
1321.2330505371	0.0033580991
1323.1618579101	0.0033235550
1325.0906652832	0.0035413411
1327.0194726562	0.0035221423
1328.9482800293	0.0036058198
1330.8770874023	0.0036862954
1332.8058947754	0.0037118548
1334.7347021484	0.0038454360
1336.6635095215	0.0038863367
1338.5923168945	0.0038755469
1340.5211242676	0.0037886049
1342.4499316406	0.0039817053
1344.3787390137	0.0041497718
1346.3075463867	0.0040767686
1348.2363537597	0.0040093586
1350.1651611328	0.0039339028
1352.0939685058	0.0040116599
1354.0227758789	0.0039549191
1355.9515832519	0.0039994498
1357.8803906250	0.0040230532
1359.8091979980	0.0038852310
1361.7380053711	0.0038540601
1363.6668127441	0.0037473422
1365.5956201172	0.0038628764
1367.5244274902	0.0037907590
1369.4532348633	0.0037656045
1371.3820422363	0.0038728407
1373.3108496094	0.0037528705
1375.2396569824	0.0038488025
1377.1684643555	0.0037361030
1379.0972717285	0.0037326668
1381.0260791015	0.0036569005
1382.9548864746	0.0035758154
1384.8836938476	0.0039604679
1386.8125012207	0.0037420248
1388.7413085937	0.0035834950
1390.6701159668	0.0040817847
1392.5989233398	0.0041144467
1394.5277307129	0.0036835682
1396.4565380859	0.0036316111
1398.3853454590	0.0037191559
1400.3141528320	0.0039029759
1402.2429602051	0.0040276973
1404.1717675781	0.0038080439
1406.1005749512	0.0039974703
1408.0293823242	0.0039370251
1409.9581896972	0.0038689550
1411.8869970703	0.0039708023
1413.8158044433	0.0037529850
1415.7446118164	0.0039354116
1417.6734191894	0.0036599417
1419.6022265625	0.0033142143
1421.5310339355	0.0034993654
1423.4598413086	0.0036352628
1425.3886486816	0.0036990198
1427.3174560547	0.0035504664
1429.2462634277	0.0034395738
1431.1750708008	0.0033724206
1433.1038781738	0.0034789583
1435.0326855469	0.0032390195
1436.9614929199	0.0030199969
1438.8903002929	0.0032641457
1440.8191076660	0.0030993330
1442.7479150390	0.0032052037
1444.6767224121	0.0033494825
1446.6055297851	0.0031720470
1448.5343371582	0.0031475150
1450.4631445312	0.0029918323
1452.3919519043	0.0030583274
1454.3207592773	0.0032501994
1456.2495666504	0.0030130320
1458.1783740234	0.0030039668
1460.1071813965	0.0034747827
1462.0359887695	0.0036198294
1463.9647961426	0.0035950043
1465.8936035156	0.0037561299
1467.8224108886	0.0040880349
1469.7512182617	0.0042120302
1471.6800256347	0.0040876465
1473.6088330078	0.0042840941
1475.5376403808	0.0044977926
1477.4664477539	0.0048871157
1479.3952551269	0.0051819570
1481.3240625000	0.0052619781
1483.2528698730	0.0055385237
1485.1816772461	0.0055452604
1487.1104846191	0.0056102602
1489.0392919922	0.0055873045
1490.9680993652	0.0056268638
1492.8969067383	0.0061809132
1494.8257141113	0.0060982942
1496.7545214843	0.0057909642
1498.6833288574	0.0062025026
1500.6121362304	0.0062813247
1502.5409436035	0.0066041648
1504.4697509765	0.0065926006
1506.3985583496	0.0053005163
1508.3273657226	0.0059153792
1510.2561730957	0.0068056108
1512.1849804687	0.0065752724
1514.1137878418	0.0069328165
1516.0425952148	0.0064757634
1517.9714025879	0.0067363475
1519.9002099609	0.0065623447
1521.8290173340	0.0059440560
1523.7578247070	0.0069107236
1525.6866320801	0.0067377901
1527.6154394531	0.0067430893
1529.5442468261	0.0073060067
1531.4730541992	0.0070858896
1533.4018615722	0.0066236584
1535.3306689453	0.0068527302
1537.2594763183	0.0072092507
1539.1882836914	0.0057844818
1541.1170910644	0.0059864889
1543.0458984375	0.0068164673
1544.9747058105	0.0065857670
1546.9035131836	0.0072433297
1548.8323205566	0.0069637811
1550.7611279297	0.0070889569
1552.6899353027	0.0070702191
1554.6187426758	0.0068050949
1556.5475500488	0.0070778094
1558.4763574218	0.0055923900
1560.4051647949	0.0058121011
1562.3339721679	0.0073828259
1564.2627795410	0.0070016552
1566.1915869140	0.0070392974
1568.1203942871	0.0073265145
1570.0492016601	0.0068490328
1571.9780090332	0.0072465735
1573.9068164062	0.0073387008
1575.8356237793	0.0064005540
1577.7644311523	0.0067966981
1579.6932385254	0.0074480283
1581.6220458984	0.0072549465
1583.5508532715	0.0072120940
1585.4796606445	0.0072329165
1587.4084680175	0.0073035322
1589.3372753906	0.0073063672
1591.2660827636	0.0073927892
1593.1948901367	0.0073385620
1595.1236975097	0.0073096151
1597.0525048828	0.0072555309
1598.9813122558	0.0072593838
1600.9101196289	0.0074669654
1602.8389270019	0.0071876259
1604.7677343750	0.0072385021
1606.6965417480	0.0072605875
1608.6253491211	0.0072675161
1610.5541564941	0.0073521407
1612.4829638672	0.0072839418
1614.4117712402	0.0073636086
1616.3405786132	0.0065487251
1618.2693859863	0.0067749992
1620.1981933593	0.0074937316
1622.1270007324	0.0070057879
1624.0558081054	0.0070552155
1625.9846154785	0.0072185844
1627.9134228515	0.0072501916
1629.8422302246	0.0072315093
1631.7710375976	0.0074390918
1633.6998449707	0.0071527539
1635.6286523437	0.0063043446
1637.5574597168	0.0069222967
1639.4862670898	0.0074126106
1641.4150744629	0.0071899919
1643.3438818359	0.0073273615
1645.2726892090	0.0066882260
1647.2014965820	0.0062081683
1649.1303039550	0.0073291208
1651.0591113281	0.0070283478
1652.9879187011	0.0054387236
1654.9167260742	0.0064233430
1656.8455334472	0.0075147655
1658.7743408203	0.0074163983
1660.7031481933	0.0074854139
1662.6319555664	0.0069836993
1664.5607629394	0.0071601043
1666.4895703125	0.0075235609
1668.4183776855	0.0069062570
1670.3471850586	0.0068561127
1672.2759924316	0.0073666247
1674.2047998047	0.0069871722
1676.1336071777	0.0069594998
1678.0624145507	0.0074032508
1679.9912219238	0.0071901903
1681.9200292968	0.0073006433
1683.8488366699	0.0062920516
1685.7776440429	0.0062811212
1687.7064514160	0.0078016943
1689.6352587890	0.0069898516
1691.5640661621	0.0074362867
1693.4928735351	0.0076698633
1695.4216809082	0.0062758629
1697.3504882812	0.0070198011
1699.2792956543	0.0064505711
1701.2081030273	0.0061767739
1703.1369104004	0.0074358466
1705.0657177734	0.0070602898
1706.9945251464	0.0072179893
1708.9233325195	0.0074205743
1710.8521398925	0.0072303913
1712.7809472656	0.0074381130
1714.7097546386	0.0070571955
1716.6385620117	0.0064376472
1718.5673693847	0.0064198608
1720.4961767578	0.0072969645
1722.4249841308	0.0072956914
1724.3537915039	0.0070048692
1726.2825988769	0.0073788622
1728.2114062500	0.0070142951
1730.1402136230	0.0071141203
1732.0690209961	0.0067508211
1733.9978283691	0.0058122380
1735.9266357421	0.0067716558
1737.8554431152	0.0071926368
1739.7842504882	0.0066344952
1741.7130578613	0.0070751309
1743.6418652343	0.0071769576
1745.5706726074	0.0070280633
1747.4994799804	0.0071760253
1749.4282873535	0.0070280200
1751.3570947265	0.0069455411
1753.2859020996	0.0073449020
1755.2147094726	0.0074463338
1757.1435168457	0.0071624806
1759.0723242187	0.0074656093
1761.0011315918	0.0072166948
1762.9299389648	0.0070865015
1764.8587463379	0.0076147630
1766.7875537109	0.0072155409
1768.7163610839	0.0072820298
1770.6451684570	0.0072242990
1772.5739758300	0.0066783102
1774.5027832031	0.0072216941
1776.4315905761	0.0075617633
1778.3603979492	0.0073366216
1780.2892053222	0.0073984852
1782.2180126953	0.0075593507
1784.1468200683	0.0073334090
1786.0756274414	0.0072952295
1788.0044348144	0.0075519560
1789.9332421875	0.0073140729
1791.8620495605	0.0069634616
1793.7908569336	0.0071515520
1795.7196643066	0.0075108055
1797.6484716796	0.0073787412
1799.5772790527	0.0072648046
1801.5060864257	0.0072053028
1803.4348937988	0.0073976181
1805.3637011718	0.0076773823
1807.2925085449	0.0073847519
1809.2213159179	0.0073223952
1811.1501232910	0.0074135605
1813.0789306640	0.0075250869
1815.0077380371	0.0075095911
1816.9365454101	0.0074781594
1818.8653527832	0.0073870076
1820.7941601562	0.0073476005
1822.7229675293	0.0075580534
1824.6517749023	0.0071490379
1826.5805822753	0.0073821670
1828.5093896484	0.0073535242
1830.4381970214	0.0069799796
1832.3670043945	0.0075030318
1834.2958117675	0.0074045369
1836.2246191406	0.0074294354
1838.1534265136	0.0073746080
1840.0822338867	0.0074853385
1842.0110412597	0.0074800691
1843.9398486328	0.0068154279
1845.8686560058	0.0071916040
1847.7974633789	0.0073554190
1849.7262707519	0.0073026367
1851.6550781250	0.0074647944
1853.5838854980	0.0074120192
1855.5126928710	0.0073802965
1857.4415002441	0.0072778841
1859.3703076171	0.0073537575
1861.2991149902	0.0072321631
1863.2279223632	0.0073549268
1865.1567297363	0.0074141501
1867.0855371093	0.0071255690
1869.0143444824	0.0069806306
1870.9431518554	0.0071421592
1872.8719592285	0.0074689584
1874.8007666015	0.0073821475
1876.7295739746	0.0074470812
1878.6583813476	0.0073999139
1880.5871887207	0.0073292069
1882.5159960937	0.0073072640
1884.4448034667	0.0070830081
1886.3736108398	0.0072142459
1888.3024182128	0.0071051554
1890.2312255859	0.0070686531
1892.1600329589	0.0071431696
1894.0888403320	0.0070679924
1896.0176477050	0.0071600480
1897.9464550781	0.0071649589
1899.8752624511	0.0071470300
1901.8040698242	0.0071282736
1903.7328771972	0.0071902238
1905.6616845703	0.0071521141
1907.5904919433	0.0071355151
1909.5192993164	0.0071101636
1911.4481066894	0.0070138923
1913.3769140625	0.0071957428
1915.3057214355	0.0070897387
1917.2345288085	0.0068757604
1919.1633361816	0.0070761554
1921.0921435546	0.0071121515
1923.0209509277	0.0069570099
1924.9497583007	0.0070643621
1926.8785656738	0.0070480825
1928.8073730468	0.0069878716
1930.7361804199	0.0070021609
1932.6649877929	0.0069494015
1934.5937951660	0.0071190316
1936.5226025390	0.0070637129
1938.4514099121	0.0069954181
1940.3802172851	0.0069248509
1942.3090246582	0.0068169143
1944.2378320312	0.0070679672
1946.1666394042	0.0070518218
1948.0954467773	0.0070169158
1950.0242541503	0.0070315888
1951.9530615234	0.0070163584
1953.8818688964	0.0070718629
1955.8106762695	0.0069590183
1957.7394836425	0.0069664526
1959.6682910156	0.0069670798
1961.5970983886	0.0070212735
1963.5259057617	0.0070861159
1965.4547131347	0.0070263017
1967.3835205078	0.0069041653
1969.3123278808	0.0068454025
1971.2411352539	0.0069995876
1973.1699426269	0.0069861636
1975.0987499999	0.0069672442
1977.0275573730	0.0069542257
1978.9563647460	0.0069215428
1980.8851721191	0.0069451183
1982.8139794921	0.0068500252
1984.7427868652	0.0068438640
1986.6715942382	0.0068055242
1988.6004016113	0.0068845199
1990.5292089843	0.0069332859
1992.4580163574	0.0067665810
1994.3868237304	0.0068443245
1996.3156311035	0.0069089178
1998.2444384765	0.0067871120
2000.1732458496	0.0067301826
2002.1020532226	0.0067909793
2004.0308605956	0.0067890873
2005.9596679687	0.0067323027
2007.8884753417	0.0066987453
2009.8172827148	0.0066665085
2011.7460900878	0.0067654755
2013.6748974609	0.0066743470
2015.6037048339	0.0065649184
2017.5325122070	0.0066650873
2019.4613195800	0.0066556907
2021.3901269531	0.0066927429
2023.3189343261	0.0066226707
2025.2477416992	0.0066170502
2027.1765490722	0.0067682946
2029.1053564453	0.0066630850
2031.0341638183	0.0065982868
2032.9629711914	0.0065480424
2034.8917785644	0.0065347757
2036.8205859374	0.0066168085
2038.7493933105	0.0064906590
2040.6782006835	0.0064018890
2042.6070080566	0.0064592604
2044.5358154296	0.0065047843
2046.4646228027	0.0064783678
2048.3934301757	0.0064647621
2050.3222375488	0.0064811083
2052.2510449218	0.0064750165
2054.1798522949	0.0064654797
2056.1086596679	0.0064477436
2058.0374670410	0.0064959633
2059.9662744140	0.0064932453
2061.8950817871	0.0064676804
2063.8238891601	0.0063345269
2065.7526965331	0.0063200500
2067.6815039062	0.0065427599
2069.6103112792	0.0063305330
2071.5391186523	0.0062962463
2073.4679260253	0.0065161334
2075.3967333984	0.0062970743
2077.3255407714	0.0062485766
2079.2543481445	0.0062713316
2081.1831555175	0.0062188716
2083.1119628906	0.0063682254
2085.0407702636	0.0063365940
2086.9695776367	0.0062397779
2088.8983850097	0.0062756808
2090.8271923828	0.0062193759
2092.7559997558	0.0063061593
2094.6848071288	0.0063402122
2096.6136145019	0.0061682621
2098.5424218749	0.0062875617
2100.4712292480	0.0062127803
2102.4000366210	0.0061117611
2104.3288439941	0.0062852921
2106.2576513671	0.0061410423
2108.1864587402	0.0061359871
2110.1152661132	0.0061558536
2112.0440734863	0.0061500790
2113.9728808593	0.0063194949
2115.9016882324	0.0061499421
2117.8304956054	0.0060682772
2119.7593029785	0.0061370977
2121.6881103515	0.0061213188
2123.6169177245	0.0061450186
2125.5457250976	0.0060998295
2127.4745324706	0.0061520226
2129.4033398437	0.0061792722
2131.3321472167	0.0059955521
2133.2609545898	0.0059458958
2135.1897619628	0.0061158929
2137.1185693359	0.0061575193
2139.0473767089	0.0061020404
2140.9761840820	0.0060225921
2142.9049914550	0.0059455102
2144.8337988281	0.0059884791
2146.7626062011	0.0060070921
2148.6914135742	0.0060131131
2150.6202209472	0.0059180618
2152.5490283203	0.0058781598
2154.4778356933	0.0059480118
2156.4066430663	0.0058822548
2158.3354504394	0.0059832768
2160.2642578124	0.0060598813
2162.1930651855	0.0059802001
2164.1218725585	0.0059735179
2166.0506799316	0.0058926959
2167.9794873046	0.0059559410
2169.9082946777	0.0060561085
2171.8371020507	0.0059040925
2173.7659094238	0.0059487750
2175.6947167968	0.0060113003
2177.6235241699	0.0058148666
2179.5523315429	0.0058729528
2181.4811389160	0.0059577664
2183.4099462890	0.0058857910
2185.3387536620	0.0058490355
2187.2675610351	0.0058042938
2189.1963684081	0.0058595641
2191.1251757812	0.0058703767
2193.0539831542	0.0058675557
2194.9827905273	0.0058077089
2196.9115979003	0.0057383664
2198.8404052734	0.0058018984
2200.7692126464	0.0058534378
2202.6980200195	0.0058435379
2204.6268273925	0.0056672590
2206.5556347656	0.0057833698
2208.4844421386	0.0059130341
2210.4132495117	0.0057255914
2212.3420568847	0.0058188541
2214.2708642577	0.0058365511
2216.1996716308	0.0057780752
2218.1284790038	0.0058571855
2220.0572863769	0.0057432745
2221.9860937499	0.0056170309
2223.9149011230	0.0057431683
2225.8437084960	0.0058495989
2227.7725158691	0.0057543647
2229.7013232421	0.0057308176
2231.6301306152	0.0056638592
2233.5589379882	0.0056530228
2235.4877453613	0.0057854704
2237.4165527343	0.0057791220
2239.3453601074	0.0056799240
2241.2741674804	0.0055817189
2243.2029748534	0.0056320745
2245.1317822265	0.0056541669
2247.0605895995	0.0056169275
2248.9893969726	0.0056858510
2250.9182043456	0.0056422204
2252.8470117187	0.0055907695
2254.7758190917	0.0056409203
2256.7046264648	0.0055694315
2258.6334338378	0.0054973857
2260.5622412109	0.0055998485
2262.4910485839	0.0056464230
2264.4198559570	0.0056066187
2266.3486633300	0.0055963695
2268.2774707031	0.0055674966
2270.2062780761	0.0055271504
2272.1350854491	0.0055717034
2274.0638928222	0.0055860355
2275.9927001952	0.0055143228
2277.9215075683	0.0055398410
2279.8503149413	0.0055327839
2281.7791223144	0.0055640135
2283.7079296874	0.0055597648
2285.6367370605	0.0054823915
2287.5655444335	0.0055388091
2289.4943518066	0.0054803202
2291.4231591796	0.0054530338
2293.3519665527	0.0054898504
2295.2807739257	0.0054988321
2297.2095812988	0.0054987147
2299.1383886718	0.0054366700
2301.0671960449	0.0053376211
2302.9960034179	0.0052397056
2304.9248107909	0.0054007522
2306.8536181640	0.0054080710
2308.7824255370	0.0052735531
2310.7112329101	0.0052462565
2312.6400402831	0.0051555624
2314.5688476562	0.0052139657
2316.4976550292	0.0051318076
2318.4264624023	0.0050422070
2320.3552697753	0.0050688302
2322.2840771484	0.0048898603
2324.2128845214	0.0048458334
2326.1416918945	0.0049319873
2328.0704992675	0.0046982639
2329.9993066406	0.0045451610
2331.9281140136	0.0047687087
2333.8569213866	0.0047086142
2335.7857287597	0.0046103019
2337.7145361327	0.0046719890
2339.6433435058	0.0046629505
2341.5721508788	0.0047280909
2343.5009582519	0.0047399336
2345.4297656249	0.0048882077
2347.3585729980	0.0050359243
2349.2873803710	0.0050707422
2351.2161877441	0.0049620746
2353.1449951171	0.0046825563
2355.0738024902	0.0045772363
2357.0026098632	0.0045425221
2358.9314172363	0.0044983220
2360.8602246093	0.0043406691
2362.7890319823	0.0043129348
2364.7178393554	0.0044175191
2366.6466467284	0.0044044871
2368.5754541015	0.0045024911
2370.5042614745	0.0045150267
2372.4330688476	0.0045883376
2374.3618762206	0.0048062447
2376.2906835937	0.0049144649
2378.2194909667	0.0049283421
2380.1482983398	0.0049798009
2382.0771057128	0.0051263911
2384.0059130859	0.0051577203
2385.9347204589	0.0052536512
2387.8635278320	0.0052765682
2389.7923352050	0.0051577827
2391.7211425780	0.0052348431
2393.6499499511	0.0051556975
2395.5787573241	0.0050924192
2397.5075646972	0.0052025402
2399.4363720702	0.0050441022
2401.3651794433	0.0050491784
2403.2939868163	0.0051606796
2405.2227941894	0.0050476314
2407.1516015624	0.0051397495
2409.0804089355	0.0050695203
2411.0092163085	0.0049293959
2412.9380236816	0.0050529484
2414.8668310546	0.0049624667
2416.7956384277	0.0049503921
2418.7244458007	0.0051000095
2420.6532531738	0.0050870497
2422.5820605468	0.0050745914
2424.5108679198	0.0051493868
2426.4396752929	0.0051077795
2428.3684826659	0.0050008958
2430.2972900390	0.0050266283
2432.2260974120	0.0049796021
2434.1549047851	0.0049676676
2436.0837121581	0.0050284723
2438.0125195312	0.0050997287
2439.9413269042	0.0051497729
2441.8701342773	0.0049677016
2443.7989416503	0.0049482435
2445.7277490234	0.0050639613
2447.6565563964	0.0049698018
2449.5853637695	0.0049086404
2451.5141711425	0.0049471576
2453.4429785155	0.0048909970
2455.3717858886	0.0048538875
2457.3005932616	0.0049406542
2459.2294006347	0.0048816870
2461.1582080077	0.0048605292
2463.0870153808	0.0049130302
2465.0158227538	0.0048216856
2466.9446301269	0.0048483079
2468.8734374999	0.0048749889
2470.8022448730	0.0048427521
2472.7310522460	0.0049209297
2474.6598596191	0.0049429182
2476.5886669921	0.0048756683
2478.5174743652	0.0048022857
2480.4462817382	0.0047552027
2482.3750891112	0.0047867829
2484.3038964843	0.0048488360
2486.2327038573	0.0048173433
2488.1615112304	0.0047651487
2490.0903186034	0.0047711469
2492.0191259765	0.0048086643
2493.9479333495	0.0048398767
2495.8767407226	0.0047257505
2497.8055480956	0.0046935366
2499.7343554687	0.0047751619
2501.6631628417	0.0047024330
2503.5919702148	0.0047152773
2505.5207775878	0.0047182799
2507.4495849609	0.0047504781
2509.3783923339	0.0048483238
2511.3071997069	0.0046763541
2513.2360070800	0.0046781935
2515.1648144530	0.0046845600
2517.0936218261	0.0046084067
2519.0224291991	0.0047590081
2520.9512365722	0.0046932907
2522.8800439452	0.0047294879
2524.8088513183	0.0047627999
2526.7376586913	0.0046401192
2528.6664660644	0.0047114557
2530.5952734374	0.0046160258
2532.5240808105	0.0046059070
2534.4528881835	0.0046918290
2536.3816955566	0.0046574939
2538.3105029296	0.0045667309
2540.2393103027	0.0044788541
2542.1681176757	0.0046695056
2544.0969250487	0.0046758088
2546.0257324218	0.0046071699
2547.9545397948	0.0046527782
2549.8833471679	0.0045750756
2551.8121545409	0.0047090393
2553.7409619140	0.0047315867
2555.6697692870	0.0045927721
2557.5985766601	0.0046188263
2559.5273840331	0.0047149584
2561.4561914062	0.0047034486
2563.3849987792	0.0045914967
2565.3138061523	0.0045906613
2567.2426135253	0.0045334799
2569.1714208984	0.0045835609
2571.1002282714	0.0045353561
2573.0290356444	0.0043650195
2574.9578430175	0.0045062499
2576.8866503905	0.0045132916
2578.8154577636	0.0045529059
2580.7442651366	0.0046162717
2582.6730725097	0.0045170253
2584.6018798827	0.0045072916
2586.5306872558	0.0044661402
2588.4594946288	0.0044343299
2590.3883020019	0.0044232868
2592.3171093749	0.0045415750
2594.2459167480	0.0045132600
2596.1747241210	0.0044207834
2598.1035314941	0.0044463095
2600.0323388671	0.0043967245
2601.9611462401	0.0045409682
2603.8899536132	0.0044387309
2605.8187609862	0.0043171411
2607.7475683593	0.0043965601
2609.6763757323	0.0043767532
2611.6051831054	0.0044960063
2613.5339904784	0.0044703642
2615.4627978515	0.0045312643
2617.3916052245	0.0045140767
2619.3204125976	0.0043071443
2621.2492199706	0.0043737199
2623.1780273437	0.0043824716
2625.1068347167	0.0043212520
2627.0356420898	0.0042925281
2628.9644494628	0.0043327091
2630.8932568358	0.0043732650
2632.8220642089	0.0043791621
2634.7508715819	0.0043618241
2636.6796789550	0.0043046139
2638.6084863280	0.0043485770
2640.5372937011	0.0042367238
2642.4661010741	0.0041999971
2644.3949084472	0.0043134280
2646.3237158202	0.0042698961
2648.2525231933	0.0042731008
2650.1813305663	0.0043446450
2652.1101379394	0.0042456323
2654.0389453124	0.0041252812
2655.9677526855	0.0042836145
2657.8965600585	0.0043050018
2659.8253674315	0.0042903945
2661.7541748046	0.0043346025
2663.6829821776	0.0041745626
2665.6117895507	0.0042907987
2667.5405969237	0.0043995730
2669.4694042968	0.0042979796
2671.3982116698	0.0042413492
2673.3270190429	0.0041874880
2675.2558264159	0.0041784616
2677.1846337890	0.0041142674
2679.1134411620	0.0041873069
2681.0422485351	0.0042932667
2682.9710559081	0.0041831536
2684.8998632812	0.0041129179
2686.8286706542	0.0041446621
2688.7574780273	0.0041241483
2690.6862854003	0.0041319663
2692.6150927733	0.0041593136
2694.5439001464	0.0041507892
2696.4727075194	0.0042459192
2698.4015148925	0.0041436981
2700.3303222655	0.0040966906
2702.2591296386	0.0042261216
2704.1879370116	0.0040524267
2706.1167443847	0.0040863035
2708.0455517577	0.0041906387
2709.9743591308	0.0040967353
2711.9031665038	0.0041451668
2713.8319738769	0.0041481284
2715.7607812499	0.0041285520
2717.6895886230	0.0040710913
2719.6183959960	0.0040553100
2721.5472033690	0.0040823785
2723.4760107421	0.0039997688
2725.4048181151	0.0040336619
2727.3336254882	0.0041021844
2729.2624328612	0.0041519087
2731.1912402343	0.0041480223
2733.1200476073	0.0040793773
2735.0488549804	0.0041517424
2736.9776623534	0.0040267371
2738.9064697265	0.0038575267
2740.8352770995	0.0040850695
2742.7640844726	0.0040748073
2744.6928918456	0.0039611002
2746.6216992187	0.0041293381
2748.5505065917	0.0040387893
2750.4793139647	0.0039669760
2752.4081213378	0.0040124594
2754.3369287108	0.0039712954
2756.2657360839	0.0039669126
2758.1945434569	0.0039186478
2760.1233508300	0.0040083001
2762.0521582030	0.0040097018
2763.9809655761	0.0039425986
2765.9097729491	0.0039827712
2767.8385803222	0.0039164601
2769.7673876952	0.0039733471
2771.6961950683	0.0040020766
2773.6250024413	0.0038696311
2775.5538098144	0.0038489276
2777.4826171874	0.0039198091
2779.4114245604	0.0038722609
2781.3402319335	0.0038181525
2783.2690393065	0.0039034630
2785.1978466796	0.0038387775
2787.1266540526	0.0038006254
2789.0554614257	0.0038768682
2790.9842687987	0.0038567311
2792.9130761718	0.0038707675
2794.8418835448	0.0038991580
2796.7706909179	0.0039064325
2798.6994982909	0.0038679715
2800.6283056640	0.0038211388
2802.5571130370	0.0037981197
2804.4859204101	0.0037985712
2806.4147277831	0.0038587633
2808.3435351562	0.0038253162
2810.2723425292	0.0037745908
2812.2011499022	0.0037914291
2814.1299572753	0.0037801564
2816.0587646483	0.0037692848
2817.9875720214	0.0037119482
2819.9163793944	0.0037264857
2821.8451867675	0.0037940778
2823.7739941405	0.0037175487
2825.7028015136	0.0037104152
2827.6316088866	0.0036710307
2829.5604162597	0.0036129367
2831.4892236327	0.0037148451
2833.4180310058	0.0037160688
2835.3468383788	0.0037031346
2837.2756457519	0.0036604721
2839.2044531249	0.0036574223
2841.1332604979	0.0036793251
2843.0620678710	0.0036010516
2844.9908752440	0.0036775940
2846.9196826171	0.0036446708
2848.8484899901	0.0035370344
2850.7772973632	0.0035487739
2852.7061047362	0.0036154951
2854.6349121093	0.0036014826
2856.5637194823	0.0035307969
2858.4925268554	0.0036515533
2860.4213342284	0.0035483448
2862.3501416015	0.0034748078
2864.2789489745	0.0035687420
2866.2077563476	0.0034948413
2868.1365637206	0.0034813103
2870.0653710936	0.0034472172
2871.9941784667	0.0034999459
2873.9229858397	0.0035029091
2875.8517932128	0.0034853499
2877.7806005858	0.0035690789
2879.7094079589	0.0035297819
2881.6382153319	0.0035413937
2883.5670227050	0.0034886820
2885.4958300780	0.0034692250
2887.4246374511	0.0034904513
2889.3534448241	0.0034275181
2891.2822521972	0.0034691445
2893.2110595702	0.0034337412
2895.1398669433	0.0033572384
2897.0686743163	0.0034436376
2898.9974816893	0.0035083683
2900.9262890624	0.0034686690
2902.8550964354	0.0034738393
2904.7839038085	0.0033751950
2906.7127111815	0.0033405502
2908.6415185546	0.0034816205
2910.5703259276	0.0034069628
2912.4991333007	0.0033359956
2914.4279406737	0.0033760087
2916.3567480468	0.0033522630
2918.2855554198	0.0033271099
2920.2143627929	0.0032528741
2922.1431701659	0.0032431323
2924.0719775390	0.0033328068
2926.0007849120	0.0032469160
2927.9295922851	0.0032039608
2929.8583996581	0.0033340035
2931.7872070311	0.0032496452
2933.7160144042	0.0031658583
2935.6448217772	0.0032681162
2937.5736291503	0.0033415668
2939.5024365233	0.0032566381
2941.4312438964	0.0032714843
2943.3600512694	0.0033785575
2945.2888586425	0.0032132533
2947.2176660155	0.0032339434
2949.1464733886	0.0032899380
2951.0752807616	0.0032039261
2953.0040881347	0.0032137111
2954.9328955077	0.0031914907
2956.8617028808	0.0032496303
2958.7905102538	0.0031859668
2960.7193176268	0.0032370214
2962.6481249999	0.0032395364
2964.5769323729	0.0030458379
2966.5057397460	0.0031196102
2968.4345471190	0.0031862380
2970.3633544921	0.0031798091
2972.2921618651	0.0031375196
2974.2209692382	0.0032370458
2976.1497766112	0.0032111243
2978.0785839843	0.0031114984
2980.0073913573	0.0032805353
2981.9361987304	0.0031764801
2983.8650061034	0.0031546201
2985.7938134765	0.0031985510
2987.7226208495	0.0031075282
2989.6514282225	0.0031775776
2991.5802355956	0.0032459782
2993.5090429686	0.0031749387
2995.4378503417	0.0030833895
2997.3666577147	0.0032390915
2999.2954650878	0.0031693019
3001.2242724608	0.0030783331
3003.1530798339	0.0031339608
3005.0818872069	0.0030496144
3007.0106945800	0.0031433182
3008.9395019530	0.0030906959
3010.8683093261	0.0030701146
3012.7971166991	0.0031219828
3014.7259240722	0.0030667267
3016.6547314452	0.0030864645
3018.5835388182	0.0031347913
3020.5123461913	0.0031687350
3022.4411535643	0.0030684415
3024.3699609374	0.0031928085
3026.2987683104	0.0030832461
3028.2275756835	0.0029153600
3030.1563830565	0.0031308117
3032.0851904296	0.0029982007
3034.0139978026	0.0029913969
3035.9428051757	0.0030306166
3037.8716125487	0.0029631350
3039.8004199218	0.0030334941
3041.7292272948	0.0029920042
3043.6580346679	0.0030482071
3045.5868420409	0.0029765414
3047.5156494139	0.0029903189
3049.4444567870	0.0030672019
3051.3732641600	0.0029215249
3053.3020715331	0.0029315948
3055.2308789061	0.0029915022
3057.1596862792	0.0030286182
3059.0884936522	0.0030280794
3061.0173010253	0.0029935529
3062.9461083983	0.0029031381
3064.8749157714	0.0028789430
3066.8037231444	0.0030352469
3068.7325305175	0.0030136018
3070.6613378905	0.0029882621
3072.5901452636	0.0030096555
3074.5189526366	0.0029510907
3076.4477600097	0.0029450802
3078.3765673827	0.0028955885
3080.3053747557	0.0029198944
3082.2341821288	0.0029067597
3084.1629895018	0.0028381194
3086.0917968749	0.0029311073
3088.0206042479	0.0028952397
3089.9494116210	0.0028754768
3091.8782189940	0.0029407344
3093.8070263671	0.0028073494
3095.7358337401	0.0028309035
3097.6646411132	0.0028947568
3099.5934484862	0.0028336300
3101.5222558593	0.0029214751
3103.4510632323	0.0028817728
3105.3798706054	0.0027886787
3107.3086779784	0.0028776512
3109.2374853514	0.0028662779
3111.1662927245	0.0027648108
3113.0951000975	0.0027894340
3115.0239074706	0.0028151923
3116.9527148436	0.0027984548
3118.8815222167	0.0028297831
3120.8103295897	0.0027834475
3122.7391369628	0.0027590049
3124.6679443358	0.0028126310
3126.5967517089	0.0027625239
3128.5255590819	0.0026510786
3130.4543664550	0.0026760944
3132.3831738280	0.0027814703
3134.3119812011	0.0027452116
3136.2407885741	0.0027404844
3138.1695959471	0.0027897703
3140.0984033202	0.0027701193
3142.0272106932	0.0027706362
3143.9560180663	0.0027378835
3145.8848254393	0.0026872829
3147.8136328124	0.0026910151
3149.7424401854	0.0026936927
3151.6712475585	0.0026138942
3153.6000549315	0.0025905399
3155.5288623046	0.0026272864
3157.4576696776	0.0026202204
3159.3864770507	0.0026291308
3161.3152844237	0.0026402723
3163.2440917968	0.0026742676
3165.1728991698	0.0026165415
3167.1017065428	0.0025737188
3169.0305139159	0.0025638668
3170.9593212889	0.0025267913
3172.8881286620	0.0025951497
3174.8169360350	0.0025204851
3176.7457434081	0.0025220935
3178.6745507811	0.0025784289
3180.6033581542	0.0024872511
3182.5321655272	0.0025603995
3184.4609729003	0.0025154212
3186.3897802733	0.0024552238
3188.3185876464	0.0025319490
3190.2473950194	0.0024928306
3192.1762023925	0.0025282716
3194.1050097655	0.0024945361
3196.0338171386	0.0024619973
3197.9626245116	0.0026078946
3199.8914318846	0.0025239945
3201.8202392577	0.0023854435
3203.7490466307	0.0024785586
3205.6778540038	0.0025496865
3207.6066613768	0.0025173242
3209.5354687499	0.0024673222
3211.4642761229	0.0024897172
3213.3930834960	0.0024826634
3215.3218908690	0.0024502436
3217.2506982421	0.0025251806
3219.1795056151	0.0024601077
3221.1083129882	0.0023207497
3223.0371203612	0.0023927621
3224.9659277343	0.0024715045
3226.8947351073	0.0024524576
3228.8235424803	0.0024053722
3230.7523498534	0.0023623267
3232.6811572264	0.0024405043
3234.6099645995	0.0024149651
3236.5387719725	0.0023466398
3238.4675793456	0.0024055901
3240.3963867186	0.0023306720
3242.3251940917	0.0023302345
3244.2540014647	0.0023570533
3246.1828088378	0.0023756425
3248.1116162108	0.0024272758
3250.0404235839	0.0023114667
3251.9692309569	0.0023566596
3253.8980383300	0.0023734733
3255.8268457030	0.0023213453
3257.7556530760	0.0023190496
3259.6844604491	0.0022727179
3261.6132678221	0.0023865253
3263.5420751952	0.0023868626
3265.4708825682	0.0023766579
3267.3996899413	0.0024250266
3269.3284973143	0.0023967158
3271.2573046874	0.0024047471
3273.1861120604	0.0023394567
3275.1149194335	0.0023119652
3277.0437268065	0.0023369538
3278.9725341796	0.0024038190
3280.9013415526	0.0024155998
3282.8301489257	0.0022622102
3284.7589562987	0.0022612407
3286.6877636717	0.0023934951
3288.6165710448	0.0023028459
3290.5453784178	0.0022994638
3292.4741857909	0.0024266434
3294.4029931639	0.0022886605
3296.3318005370	0.0022605045
3298.2606079100	0.0022669288
3300.1894152831	0.0023531069
3302.1182226561	0.0024526846
3304.0470300292	0.0022805864
3305.9758374022	0.0023867607
3307.9046447753	0.0023560538
3309.8334521483	0.0023026811
3311.7622595214	0.0024040351
3313.6910668944	0.0022545673
3315.6198742675	0.0022795375
3317.5486816405	0.0023327116
3319.4774890135	0.0023728018
3321.4062963866	0.0022884291
3323.3351037596	0.0022120581
3325.2639111327	0.0022770260
3327.1927185057	0.0022363216
3329.1215258788	0.0023856112
3331.0503332518	0.0023190384
3332.9791406249	0.0022452129
3334.9079479979	0.0023446907
3336.8367553710	0.0022924459
3338.7655627440	0.0023286724
3340.6943701171	0.0022547990
3342.6231774901	0.0022663090
3344.5519848632	0.0022372026
3346.4807922362	0.0021588542
3348.4095996092	0.0022672166
3350.3384069823	0.0021743434
3352.2672143553	0.0022452264
3354.1960217284	0.0023497702
3356.1248291014	0.0022543306
3358.0536364745	0.0022792178
3359.9824438475	0.0022456239
3361.9112512206	0.0022564940
3363.8400585936	0.0022120029
3365.7688659667	0.0021259123
3367.6976733397	0.0022593937
3369.6264807128	0.0022470611
3371.5552880858	0.0022062161
3373.4840954589	0.0022764914
3375.4129028319	0.0021689404
3377.3417102049	0.0021115178
3379.2705175780	0.0021931313
3381.1993249510	0.0022231592
3383.1281323241	0.0022063265
3385.0569396971	0.0021878907
3386.9857470702	0.0022080273
3388.9145544432	0.0021948023
3390.8433618163	0.0021626235
3392.7721691893	0.0022105398
3394.7009765624	0.0022417952
3396.6297839354	0.0022001984
3398.5585913085	0.0021116179
3400.4873986815	0.0021234439
3402.4162060546	0.0021849396
3404.3450134276	0.0020894362
3406.2738208006	0.0021579764
3408.2026281737	0.0022299690
3410.1314355467	0.0021155812
3412.0602429198	0.0021710913
3413.9890502928	0.0021306709
3415.9178576659	0.0020820564
3417.8466650389	0.0021693464
3419.7754724120	0.0021142219
3421.7042797850	0.0020706505
3423.6330871581	0.0021099485
3425.5618945311	0.0021042097
3427.4907019042	0.0020824838
3429.4195092772	0.0021792911
3431.3483166503	0.0021386519
3433.2771240233	0.0020604257
3435.2059313963	0.0021240367
3437.1347387694	0.0020346758
3439.0635461424	0.0020709534
3440.9923535155	0.0021001296
3442.9211608885	0.0019946466
3444.8499682616	0.0020458011
3446.7787756346	0.0020613731
3448.7075830077	0.0020162410
3450.6363903807	0.0020363699
3452.5651977538	0.0021296288
3454.4940051268	0.0021072659
3456.4228124999	0.0021078452
3458.3516198729	0.0021299180
3460.2804272460	0.0019938354
3462.2092346190	0.0020385021
3464.1380419921	0.0020291670
3466.0668493651	0.0020035203
3467.9956567381	0.0021363539
3469.9244641112	0.0020935028
3471.8532714842	0.0021075835
3473.7820788573	0.0020749609
3475.7108862303	0.0019492398
3477.6396936034	0.0020657848
3479.5685009764	0.0021287650
3481.4973083495	0.0020393166
3483.4261157225	0.0020279363
3485.3549230956	0.0020382558
3487.2837304686	0.0019978329
3489.2125378417	0.0020274268
3491.1413452147	0.0020982861
3493.0701525878	0.0020519532
3494.9989599608	0.0020129606
3496.9277673338	0.0020628676
3498.8565747069	0.0020813379
3500.7853820799	0.0020100849
3502.7141894530	0.0019739855
3504.6429968260	0.0020255253
3506.5718041991	0.0020448794
3508.5006115721	0.0020518959
3510.4294189452	0.0020044958
3512.3582263182	0.0020295610
3514.2870336913	0.0021077981
3516.2158410643	0.0020120242
3518.1446484374	0.0019858929
3520.0734558104	0.0020258897
3522.0022631835	0.0019764705
3523.9310705565	0.0019110716
3525.8598779295	0.0020120591
3527.7886853026	0.0021162662
3529.7174926756	0.0020169835
3531.6463000487	0.0020885207
3533.5751074217	0.0020615796
3535.5039147948	0.0019124360
3537.4327221678	0.0020407310
3539.3615295409	0.0021368351
3541.2903369139	0.0020917878
3543.2191442870	0.0020312741
3545.1479516600	0.0020185583
3547.0767590331	0.0019662585
3549.0055664061	0.0019909358
3550.9343737792	0.0020416670
3552.8631811522	0.0019490854
3554.7919885252	0.0020026281
3556.7207958983	0.0020181502
3558.6496032713	0.0019600985
3560.5784106444	0.0020474598
3562.5072180174	0.0020497018
3564.4360253905	0.0019186067
3566.3648327635	0.0018650726
3568.2936401366	0.0018802166
3570.2224475096	0.0019643977
3572.1512548827	0.0020543837
3574.0800622557	0.0019523447
3576.0088696288	0.0019792132
3577.9376770018	0.0020339009
3579.8664843749	0.0019707910
3581.7952917479	0.0020368411
3583.7240991210	0.0020429716
3585.6529064940	0.0019690555
3587.5817138670	0.0018422646
3589.5105212401	0.0019103906
3591.4393286131	0.0020563249
3593.3681359862	0.0019793338
3595.2969433592	0.0020132614
3597.2257507323	0.0020141592
3599.1545581053	0.0019405712
3601.0833654784	0.0020090069
3603.0121728514	0.0019841613
3604.9409802245	0.0019131148
3606.8697875975	0.0019776854
3608.7985949706	0.0018908968
3610.7274023436	0.0018885231
3612.6562097167	0.0020042309
3614.5850170897	0.0019310075
3616.5138244627	0.0020204918
3618.4426318358	0.0018842494
3620.3714392088	0.0017864571
3622.3002465819	0.0019950995
3624.2290539549	0.0020256403
3626.1578613280	0.0020840145
3628.0866687010	0.0017607841
3630.0154760741	0.0016560565
3631.9442834471	0.0019852614
3633.8730908202	0.0019284084
3635.8018981932	0.0019738954
3637.7307055663	0.0020104209
3639.6595129393	0.0019699549
3641.5883203124	0.0020239190
3643.5171276854	0.0019803564
3645.4459350584	0.0019531893
3647.3747424315	0.0018070305
3649.3035498045	0.0016287435
3651.2323571776	0.0017719897
3653.1611645506	0.0020247584
3655.0899719237	0.0019629700
3657.0187792967	0.0019351372
3658.9475866698	0.0019697165
3660.8763940428	0.0019246624
3662.8052014159	0.0020516117
3664.7340087889	0.0019748914
3666.6628161620	0.0019063426
3668.5916235350	0.0018946148
3670.5204309081	0.0017073565
3672.4492382811	0.0018584798
3674.3780456541	0.0018604917
3676.3068530272	0.0016580722
3678.2356604002	0.0018165945
3680.1644677733	0.0019094852
3682.0932751463	0.0019230000
3684.0220825194	0.0019868291
3685.9508898924	0.0019802062
3687.8796972655	0.0018460541
3689.8085046385	0.0017664331
3691.7373120116	0.0019036257
3693.6661193846	0.0019276746
3695.5949267577	0.0019782032
3697.5237341307	0.0020028986
3699.4525415038	0.0019327566
3701.3813488768	0.0019245262
3703.3101562499	0.0019150286
3705.2389636229	0.0019860181
3707.1677709959	0.0018671999
3709.0965783690	0.0018007329
3711.0253857420	0.0017813977
3712.9541931151	0.0017367256
3714.8830004881	0.0019103894
3716.8118078612	0.0019085640
3718.7406152342	0.0018781718
3720.6694226073	0.0018600838
3722.5982299803	0.0018927131
3724.5270373534	0.0018618749
3726.4558447264	0.0017833336
3728.3846520995	0.0018923744
3730.3134594725	0.0018494972
3732.2422668456	0.0018482299
3734.1710742186	0.0016888421
3736.0998815916	0.0016909873
3738.0286889647	0.0018525026
3739.9574963377	0.0017770848
3741.8863037108	0.0018637711
3743.8151110838	0.0015892708
3745.7439184569	0.0015308034
3747.6727258299	0.0018051511
3749.6015332030	0.0016757988
3751.5303405760	0.0016119124
3753.4591479491	0.0016962627
3755.3879553221	0.0017784978
3757.3167626952	0.0017270078
3759.2455700682	0.0017051527
3761.1743774413	0.0017412717
3763.1031848143	0.0018629220
3765.0319921873	0.0019165797
3766.9607995604	0.0017073103
3768.8896069334	0.0017036144
3770.8184143065	0.0017524527
3772.7472216795	0.0017391753
3774.6760290526	0.0017986379
3776.6048364256	0.0018768697
3778.5336437987	0.0018007110
3780.4624511717	0.0017603749
3782.3912585448	0.0018213200
3784.3200659178	0.0017450269
3786.2488732909	0.0018479596
3788.1776806639	0.0018464040
3790.1064880370	0.0017541964
3792.0352954100	0.0017799536
3793.9641027830	0.0017789309
3795.8929101561	0.0017016032
3797.8217175291	0.0017333835
3799.7505249022	0.0018004138
3801.6793322752	0.0014504308
3803.6081396483	0.0016940406
3805.5369470213	0.0018675625
3807.4657543944	0.0014819496
3809.3945617674	0.0017291345
3811.3233691405	0.0018278776
3813.2521765135	0.0017955718
3815.1809838866	0.0016451741
3817.1097912596	0.0015417670
3819.0385986327	0.0017683599
3820.9674060057	0.0015937174
3822.8962133787	0.0015915458
3824.8250207518	0.0016696034
3826.7538281248	0.0016954951
3828.6826354979	0.0017607047
3830.6114428709	0.0016026192
3832.5402502440	0.0016461750
3834.4690576170	0.0016844121
3836.3978649901	0.0016105564
3838.3266723631	0.0015733596
3840.2554797362	0.0015974044
3842.1842871092	0.0016802737
3844.1130944823	0.0016153394
3846.0419018553	0.0016734675
3847.9707092284	0.0017526182
3849.8995166014	0.0016316180
3851.8283239745	0.0015375389
3853.7571313475	0.0012732371
3855.6859387205	0.0014266095
3857.6147460936	0.0018313579
3859.5435534666	0.0015913353
3861.4723608397	0.0016538361
3863.4011682127	0.0016817909
3865.3299755858	0.0014737437
3867.2587829588	0.0016773061
3869.1875903319	0.0015578141
3871.1163977049	0.0015644615
3873.0452050780	0.0016774405
3874.9740124510	0.0015565101
3876.9028198241	0.0016490361
3878.8316271971	0.0015714780
3880.7604345702	0.0014893746
3882.6892419432	0.0016161100
3884.6180493162	0.0015528165
3886.5468566893	0.0014626714
3888.4756640623	0.0016072451
3890.4044714354	0.0015891362
3892.3332788084	0.0014646661
3894.2620861815	0.0015572640
3896.1908935545	0.0016553202
3898.1197009276	0.0016390800
3900.0485083006	0.0015476439
3901.9773156737	0.0015355672
3903.9061230467	0.0015472326
3905.8349304198	0.0016099872
3907.7637377928	0.0016460239
3909.6925451659	0.0016390600
3911.6213525389	0.0017483933
3913.5501599119	0.0016693397
3915.4789672850	0.0015691586
3917.4077746580	0.0015501885
3919.3365820311	0.0014902172
3921.2653894041	0.0015100837
3923.1941967772	0.0015405857
3925.1230041502	0.0015139426
3927.0518115233	0.0015149468
3928.9806188963	0.0015967195
3930.9094262694	0.0015920324
3932.8382336424	0.0015668410
3934.7670410155	0.0015122374
3936.6958483885	0.0015131988
3938.6246557616	0.0015961982
3940.5534631346	0.0015599756
3942.4822705076	0.0015394571
3944.4110778807	0.0015275280
3946.3398852537	0.0016129755
3948.2686926268	0.0015697555
3950.1974999998	0.0013982186
3952.1263073729	0.0014610020
3954.0551147459	0.0015408323
3955.9839221190	0.0015335988
3957.9127294920	0.0014736494
3959.8415368651	0.0015151607
3961.7703442381	0.0015392011
3963.6991516112	0.0015292902
3965.6279589842	0.0015676585
3967.5567663573	0.0014769920
3969.4855737303	0.0015008409
3971.4143811034	0.0015758306
3973.3431884764	0.0015391437
3975.2719958494	0.0014756937
3977.2008032225	0.0015051884
3979.1296105955	0.0015682383
3981.0584179686	0.0015095705
3982.9872253416	0.0015147422
3984.9160327147	0.0015328412
3986.8448400877	0.0015130884
3988.7736474608	0.0014965055
3990.7024548338	0.0014445896
3992.6312622069	0.0014690931
3994.5600695799	0.0015613127
3996.4888769530	0.0015380261
3998.4176843260	0.0014863958
4000.3464916991	0.0015183173
4002.2752990721	0.0014742742
4004.2041064451	0.0014746843
4006.1329138182	0.0014551363
4008.0617211912	0.0013813518
4009.9905285643	0.0014920160
4011.9193359373	0.0015437708
4013.8481433104	0.0014141006
4015.7769506834	0.0014451904
4017.7057580565	0.0015882566
4019.6345654295	0.0014695218
4021.5633728026	0.0013745284
4023.4921801756	0.0014659590
4025.4209875487	0.0014234702
4027.3497949217	0.0013707660
4029.2786022948	0.0014505137
4031.2074096678	0.0014526714
4033.1362170408	0.0013795097
4035.0650244139	0.0014344661
4036.9938317869	0.0014458415
4038.9226391600	0.0013978605
4040.8514465330	0.0014065119
4042.7802539061	0.0014402430
4044.7090612791	0.0014147027
4046.6378686522	0.0012971059
4048.5666760252	0.0013950439
4050.4954833983	0.0014835012
4052.4242907713	0.0014043206
4054.3530981444	0.0013857693
4056.2819055174	0.0013800209
4058.2107128905	0.0014041223
4060.1395202635	0.0014353195
4062.0683276365	0.0014460587
4063.9971350096	0.0014276914
4065.9259423826	0.0014479943
4067.8547497557	0.0013358514
4069.7835571287	0.0012489320
4071.7123645018	0.0014102650
4073.6411718748	0.0014209144
4075.5699792479	0.0013896441
4077.4987866209	0.0013914315
4079.4275939940	0.0014014335
4081.3564013670	0.0014135882
4083.2852087401	0.0013968565
4085.2140161131	0.0014396750
4087.1428234862	0.0014014263
4089.0716308592	0.0014308954
4091.0004382323	0.0013864489
4092.9292456053	0.0013047549
4094.8580529783	0.0013492913
4096.7868603514	0.0013365076
4098.7156677244	0.0013791639
4100.6444750975	0.0013417314
4102.5732824705	0.0013121426
4104.5020898436	0.0013788503
4106.4308972166	0.0013966863
4108.3597045897	0.0013967989
4110.2885119627	0.0013077692
4112.2173193358	0.0012888303
4114.1461267088	0.0013716067
4116.0749340819	0.0013524592
4118.0037414549	0.0012884017
4119.9325488280	0.0012998361
4121.8613562010	0.0013163898
4123.7901635740	0.0013316977
4125.7189709471	0.0013420209
4127.6477783201	0.0013026639
4129.5765856932	0.0012564970
4131.5053930662	0.0012574190
4133.4342004393	0.0013708405
4135.3630078123	0.0013931813
4137.2918151854	0.0013501361
4139.2206225584	0.0013451662
4141.1494299315	0.0012747002
4143.0782373045	0.0012896520
4145.0070446776	0.0013377883
4146.9358520506	0.0012958724
4148.8646594237	0.0012343641
4150.7934667967	0.0012740470
4152.7222741697	0.0012874862
4154.6510815428	0.0012580180
4156.5798889158	0.0013238215
4158.5086962889	0.0012946129
4160.4375036619	0.0013013820
4162.3663110350	0.0012885889
4164.2951184080	0.0012098516
4166.2239257811	0.0012488342
4168.1527331541	0.0012562313
4170.0815405272	0.0013024583
4172.0103479002	0.0012947337
4173.9391552733	0.0012714248
4175.8679626463	0.0012603423
4177.7967700194	0.0011652976
4179.7255773924	0.0012594406
4181.6543847654	0.0012802836
4183.5831921385	0.0011869499
4185.5119995115	0.0012268128
4187.4408068846	0.0012041448
4189.3696142576	0.0011836527
4191.2984216307	0.0011910240
4193.2272290037	0.0012083179
4195.1560363768	0.0012686015
4197.0848437498	0.0012242511
4199.0136511229	0.0011797765
4200.9424584959	0.0012009073
4202.8712658690	0.0012259120
4204.8000732420	0.0012340108
4206.7288806151	0.0011804021
4208.6576879881	0.0012177358
4210.5864953611	0.0012274305
4212.5153027342	0.0011967684
4214.4441101072	0.0012277191
4216.3729174803	0.0011382473
4218.3017248533	0.0011471785
4220.2305322264	0.0011353467
4222.1593395994	0.0011312736
4224.0881469725	0.0012551883
4226.0169543455	0.0011702284
4227.9457617186	0.0011897053
4229.8745690916	0.0011686953
4231.8033764647	0.0010873401
4233.7321838377	0.0011857564
4235.6609912108	0.0011849531
4237.5897985838	0.0012273900
4239.5186059569	0.0011727391
4241.4474133299	0.0011461570
4243.3762207029	0.0011972710
4245.3050280760	0.0011255663
4247.2338354490	0.0011717342
4249.1626428221	0.0011664415
4251.0914501951	0.0011662960
4253.0202575682	0.0011806366
4254.9490649412	0.0011401013
4256.8778723143	0.0011382021
4258.8066796873	0.0011536009
4260.7354870604	0.0012113496
4262.6642944334	0.0011322012
4264.5931018065	0.0011157487
4266.5219091795	0.0011671113
4268.4507165526	0.0011006704
4270.3795239256	0.0011012924
4272.3083312986	0.0011205941
4274.2371386717	0.0011099060
4276.1659460447	0.0011421093
4278.0947534178	0.0011639004
4280.0235607908	0.0010892280
4281.9523681639	0.0010951657
4283.8811755369	0.0011857925
4285.8099829100	0.0011656475
4287.7387902830	0.0010650741
4289.6675976561	0.0011027843
4291.5964050291	0.0011664889
4293.5252124022	0.0010534266
4295.4540197752	0.0011177505
4297.3828271483	0.0011175524
4299.3116345213	0.0010911262
4301.2404418943	0.0011907201
4303.1692492674	0.0010075364
4305.0980566404	0.0010019795
4307.0268640135	0.0011348971
4308.9556713865	0.0011081875
4310.8844787596	0.0010505817
4312.8132861326	0.0010873222
4314.7420935057	0.0011716452
4316.6709008787	0.0010860458
4318.5997082518	0.0010739593
4320.5285156248	0.0010065141
4322.4573229979	0.0010646915
4324.3861303709	0.0011599328
4326.3149377440	0.0009709703
4328.2437451170	0.0010049478
4330.1725524900	0.0010733834
4332.1013598631	0.0010758531
4334.0301672361	0.0010315119
4335.9589746092	0.0009855328
4337.8877819822	0.0010530055
4339.8165893553	0.0009980234
4341.7453967283	0.0010910281
4343.6742041014	0.0011548912
4345.6030114744	0.0010345047
4347.5318188475	0.0010373015
4349.4606262205	0.0010992379
4351.3894335936	0.0011084373
4353.3182409666	0.0010518000
4355.2470483397	0.0010440550
4357.1758557127	0.0010711874
4359.1046630858	0.0010569224
4361.0334704588	0.0010327335
4362.9622778318	0.0010645842
4364.8910852049	0.0010304172
4366.8198925779	0.0009471868
4368.7486999510	0.0010614818
4370.6775073240	0.0011162856
4372.6063146971	0.0009909775
4374.5351220701	0.0009845702
4376.4639294432	0.0010777973
4378.3927368162	0.0010618498
4380.3215441893	0.0010169370
4382.2503515623	0.0010754089
4384.1791589354	0.0011418057
4386.1079663084	0.0010854218
4388.0367736815	0.0009656342
4389.9655810545	0.0009924606
4391.8943884275	0.0010350789
4393.8231958006	0.0009817011
4395.7520031736	0.0009879995
4397.6808105467	0.0010394636
4399.6096179197	0.0010284316
4401.5384252928	0.0009680570
4403.4672326658	0.0009635146
4405.3960400389	0.0009496696
4407.3248474119	0.0009522435
4409.2536547850	0.0009945235
4411.1824621580	0.0010118934
4413.1112695311	0.0010337000
4415.0400769041	0.0009929992
4416.9688842772	0.0009840757
4418.8976916502	0.0009958535
4420.8264990232	0.0009835876
4422.7553063963	0.0009897744
4424.6841137693	0.0009348461
4426.6129211424	0.0009531712
4428.5417285154	0.0009677331
4430.4705358885	0.0009145023
4432.3993432615	0.0009674808
4434.3281506346	0.0010159602
4436.2569580076	0.0009813625
4438.1857653807	0.0009307875
4440.1145727537	0.0009609663
4442.0433801268	0.0009480079
4443.9721874998	0.0008876846
4445.9009948729	0.0009558555
4447.8298022459	0.0008766416
4449.7586096189	0.0008445571
4451.6874169920	0.0009813459
4453.6162243650	0.0009218232
4455.5450317381	0.0009095158
4457.4738391111	0.0009607960
4459.4026464842	0.0009714174
4461.3314538572	0.0009597687
4463.2602612303	0.0008803513
4465.1890686033	0.0008706554
4467.1178759764	0.0009288837
4469.0466833494	0.0009999789
4470.9754907225	0.0009517428
4472.9042980955	0.0009660888
4474.8331054686	0.0009725179
4476.7619128416	0.0008364565
4478.6907202147	0.0008868534
4480.6195275877	0.0009231512
4482.5483349607	0.0008708263
4484.4771423338	0.0008374389
4486.4059497068	0.0009204687
4488.3347570799	0.0009611195
4490.2635644529	0.0008602767
4492.1923718260	0.0009656568
4494.1211791990	0.0009567384
4496.0499865721	0.0008900877
4497.9787939451	0.0009325495
4499.9076013182	0.0009371872
4501.8364086912	0.0009282388
4503.7652160643	0.0008480423
4505.6940234373	0.0009235733
4507.6228308104	0.0009355777
4509.5516381834	0.0008732068
4511.4804455564	0.0008647265
4513.4092529295	0.0008532662
4515.3380603025	0.0009249914
4517.2668676756	0.0008465855
4519.1956750486	0.0008679525
4521.1244824217	0.0009179072
4523.0532897947	0.0008323024
4524.9820971678	0.0008968118
4526.9109045408	0.0009311225
4528.8397119139	0.0008755741
4530.7685192869	0.0008800167
4532.6973266600	0.0009142769
4534.6261340330	0.0008310121
4536.5549414061	0.0008670508
4538.4837487791	0.0009452776
4540.4125561521	0.0008224334
4542.3413635252	0.0008364693
4544.2701708982	0.0008461453
4546.1989782713	0.0008090693
4548.1277856443	0.0009021851
4550.0565930174	0.0008919155
4551.9854003904	0.0007819526
4553.9142077635	0.0008193036
4555.8430151365	0.0008872629
4557.7718225096	0.0008323144
4559.7006298826	0.0008275259
4561.6294372557	0.0008382993
4563.5582446287	0.0008509156
4565.4870520018	0.0008328065
4567.4158593748	0.0008040309
4569.3446667478	0.0008121469
4571.2734741209	0.0007994800
4573.2022814939	0.0008776756
4575.1310888670	0.0008478176
4577.0598962400	0.0007957804
4578.9887036131	0.0008323032
4580.9175109861	0.0008138802
4582.8463183592	0.0008494498
4584.7751257322	0.0008494549
4586.7039331053	0.0008527497
4588.6327404783	0.0008432249
4590.5615478514	0.0007950693
4592.4903552244	0.0008247278
4594.4191625975	0.0008629377
4596.3479699705	0.0008340960
4598.2767773435	0.0007934989
4600.2055847166	0.0008798796
4602.1343920896	0.0008789556
4604.0631994627	0.0007946459
4605.9920068357	0.0007957949
4607.9208142088	0.0007865272
4609.8496215818	0.0007982532
4611.7784289549	0.0007972625
4613.7072363279	0.0008677144
4615.6360437010	0.0008709347
4617.5648510740	0.0007650555
4619.4936584471	0.0008034690
4621.4224658201	0.0007727264
4623.3512731932	0.0007658398
4625.2800805662	0.0008207099
4627.2088879393	0.0007882551
4629.1376953123	0.0008435747
4631.0665026853	0.0007948761
4632.9953100584	0.0007622541
4634.9241174314	0.0008318034
4636.8529248045	0.0008187692
4638.7817321775	0.0008486465
4640.7105395506	0.0007714222
4642.6393469236	0.0007874322
4644.5681542967	0.0008084482
4646.4969616697	0.0007175552
4648.4257690428	0.0008100600
4650.3545764158	0.0007860215
4652.2833837889	0.0008752104
4654.2121911619	0.0008546909
4656.1409985350	0.0006834803
4658.0698059080	0.0008107411
4659.9986132810	0.0007073728
4661.9274206541	0.0007314362
4663.8562280271	0.0007990489
4665.7850354002	0.0006347938
4667.7138427732	0.0007294477
4669.6426501463	0.0007454561
4671.5714575193	0.0007221879
4673.5002648924	0.0008021650
4675.4290722654	0.0008086839
4677.3578796385	0.0007731551
4679.2866870115	0.0007376648
4681.2154943846	0.0006874093
4683.1443017576	0.0007481826
4685.0731091307	0.0008566350
4687.0019165037	0.0006983835
4688.9307238767	0.0006592373
4690.8595312498	0.0007426515
4692.7883386228	0.0007411105
4694.7171459959	0.0007325382
4696.6459533689	0.0006554225
4698.5747607420	0.0006944838
4700.5035681150	0.0007045669
4702.4323754881	0.0007298309
4704.3611828611	0.0007728302
4706.2899902342	0.0007118248
4708.2187976072	0.0007077692
4710.1476049803	0.0006796453
4712.0764123533	0.0006939888
4714.0052197264	0.0007157940
4715.9340270994	0.0006985625
4717.8628344724	0.0007125873
4719.7916418455	0.0007276288
4721.7204492185	0.0007146356
4723.6492565916	0.0006972487
4725.5780639646	0.0006969613
4727.5068713377	0.0006582860
4729.4356787107	0.0006726452
4731.3644860838	0.0006545462
4733.2932934568	0.0006259083
4735.2221008299	0.0006863299
4737.1509082029	0.0007547488
4739.0797155760	0.0007640276
4741.0085229490	0.0006933343
4742.9373303221	0.0007158912
4744.8661376951	0.0007561451
4746.7949450682	0.0007515082
4748.7237524412	0.0007196851
4750.6525598142	0.0007106681
4752.5813671873	0.0007306786
4754.5101745603	0.0006802310
4756.4389819334	0.0007031685
4758.3677893064	0.0006761483
4760.2965966795	0.0006659110
4762.2254040525	0.0007110891
4764.1542114256	0.0006778836
4766.0830187986	0.0006839128
4768.0118261717	0.0006662504
4769.9406335447	0.0006865981
4771.8694409178	0.0006910133
4773.7982482908	0.0006881080
4775.7270556639	0.0006707472
4777.6558630369	0.0006136151
4779.5846704099	0.0006938879
4781.5134777830	0.0006556821
4783.4422851560	0.0006313332
4785.3710925291	0.0007282779
4787.2998999021	0.0006351551
4789.2287072752	0.0005916223
4791.1575146482	0.0006382740
4793.0863220213	0.0006626291
4795.0151293943	0.0007646385
4796.9439367674	0.0007438584
4798.8727441404	0.0006734788
4800.8015515135	0.0006975295
4802.7303588865	0.0006598281
4804.6591662596	0.0006716628
4806.5879736326	0.0006563082
4808.5167810056	0.0005779891
4810.4455883787	0.0006272823
4812.3743957517	0.0006980233
4814.3032031248	0.0007101675
4816.2320104978	0.0006780882
4818.1608178709	0.0006586330
4820.0896252439	0.0006057137
4822.0184326170	0.0006289327
4823.9472399900	0.0007057394
4825.8760473631	0.0006297075
4827.8048547361	0.0006288085
4829.7336621092	0.0006108355
4831.6624694822	0.0006160864
4833.5912768553	0.0006698000
4835.5200842283	0.0005717278
4837.4488916013	0.0006303567
4839.3776989744	0.0006496979
4841.3065063474	0.0006033998
4843.2353137205	0.0006233178
4845.1641210935	0.0005445264
4847.0929284666	0.0006161582
4849.0217358396	0.0006214923
4850.9505432127	0.0005871503
4852.8793505857	0.0006608075
4854.8081579588	0.0006068447
4856.7369653318	0.0006358795
4858.6657727049	0.0006168106
4860.5945800779	0.0005633180
4862.5233874510	0.0006017827
4864.4521948240	0.0006127036
4866.3810021971	0.0006583732
4868.3098095701	0.0005845294
4870.2386169431	0.0005626184
4872.1674243162	0.0005878523
4874.0962316892	0.0006047239
4876.0250390623	0.0006699790
4877.9538464353	0.0005637237
4879.8826538084	0.0005899693
4881.8114611814	0.0006412809
4883.7402685545	0.0005594572
4885.6690759275	0.0005543552
4887.5978833006	0.0005736389
4889.5266906736	0.0006105183
4891.4554980467	0.0005698323
4893.3843054197	0.0006212985
4895.3131127928	0.0006134536
4897.2419201658	0.0004970627
4899.1707275388	0.0005748924
4901.0995349119	0.0005827160
4903.0283422849	0.0005705326
4904.9571496580	0.0005879079
4906.8859570310	0.0005610111
4908.8147644041	0.0005903424
4910.7435717771	0.0005592435
4912.6723791502	0.0005232223
4914.6011865232	0.0005647939
4916.5299938963	0.0005783917
4918.4588012693	0.0005245985
4920.3876086424	0.0005608572
4922.3164160154	0.0005961063
4924.2452233885	0.0005464570
4926.1740307615	0.0006308347
4928.1028381345	0.0006343665
4930.0316455076	0.0005287868
4931.9604528806	0.0005918212
4933.8892602537	0.0006117006
4935.8180676267	0.0005766528
4937.7468749998	0.0005994716
4939.6756823728	0.0005601869
4941.6044897459	0.0005954951
4943.5332971189	0.0005792418
4945.4621044920	0.0004833339
4947.3909118650	0.0005694841
4949.3197192381	0.0005561929
4951.2485266111	0.0005238423
4953.1773339842	0.0005995188
4955.1061413572	0.0005321025
4957.0349487302	0.0005526446
4958.9637561033	0.0005891598
4960.8925634763	0.0005121161
4962.8213708494	0.0005283337
4964.7501782224	0.0005605136
4966.6789855955	0.0005493544
4968.6077929685	0.0005017332
4970.5366003416	0.0005098796
4972.4654077146	0.0005299036
4974.3942150877	0.0004950286
4976.3230224607	0.0005687768
4978.2518298338	0.0005836553
4980.1806372068	0.0005221114
4982.1094445799	0.0005363937
4984.0382519529	0.0005492510
4985.9670593259	0.0005582139
4987.8958666990	0.0005209451
4989.8246740720	0.0005535382
4991.7534814451	0.0006030577
4993.6822888181	0.0004701501
4995.6110961912	0.0004563920
4997.5399035642	0.0005430377
4999.4687109373	0.0005087987
5001.3975183103	0.0005537473
5003.3263256834	0.0005533432
5005.2551330564	0.0004446232
5007.1839404295	0.0004837480
5009.1127478025	0.0005466787
5011.0415551756	0.0005086835
5012.9703625486	0.0005114555
5014.8991699217	0.0005817841
5016.8279772947	0.0005560964
5018.7567846677	0.0005355766
5020.6855920408	0.0005360279
5022.6143994138	0.0004664742
5024.5432067869	0.0005269055
5026.4720141599	0.0005027011
5028.4008215330	0.0005081064
5030.3296289060	0.0005618903
5032.2584362791	0.0004505049
5034.1872436521	0.0005410727
5036.1160510252	0.0005262252
5038.0448583982	0.0004822087
5039.9736657713	0.0005326332
5041.9024731443	0.0004574605
5043.8312805174	0.0005543357
5045.7600878904	0.0005392704
5047.6888952634	0.0004967737
5049.6177026365	0.0005009219
5051.5465100095	0.0004748415
5053.4753173826	0.0005462011
5055.4041247556	0.0004515848
5057.3329321287	0.0004632545
5059.2617395017	0.0005176687
5061.1905468748	0.0004621396
5063.1193542478	0.0004801620
5065.0481616209	0.0004661682
5066.9769689939	0.0004704100
5068.9057763670	0.0004616948
5070.8345837400	0.0004740131
5072.7633911131	0.0004685542
5074.6921984861	0.0004535984
5076.6210058591	0.0005220531
5078.5498132322	0.0005116275
5080.4786206052	0.0004845828
5082.4074279783	0.0004795162
5084.3362353513	0.0004926363
5086.2650427244	0.0005447068
5088.1938500974	0.0004867559
5090.1226574705	0.0004406556
5092.0514648435	0.0004543049
5093.9802722166	0.0003983501
5095.9090795896	0.0004335051
5097.8378869627	0.0004702083
5099.7666943357	0.0004547022
5101.6955017088	0.0005016347
5103.6243090818	0.0004853131
5105.5531164548	0.0005254993
5107.4819238279	0.0005611286
5109.4107312009	0.0004640181
5111.3395385740	0.0004686734
5113.2683459470	0.0004995100
5115.1971533201	0.0004224572
5117.1259606931	0.0004480442
5119.0547680662	0.0004270080
5120.9835754392	0.0003352927
5122.9123828123	0.0004504895
5124.8411901853	0.0004533425
5126.7699975584	0.0004412191
5128.6988049314	0.0004362704
5130.6276123045	0.0003551895
5132.5564196775	0.0004562376
5134.4852270506	0.0004100891
5136.4140344236	0.0003981729
5138.3428417966	0.0004310400
5140.2716491697	0.0004686587
5142.2004565427	0.0005118758
5144.1292639158	0.0003725783
5146.0580712888	0.0005030221
5147.9868786619	0.0004296738
5149.9156860349	0.0003246033
5151.8444934080	0.0004743614
5153.7733007810	0.0003915312
5155.7021081541	0.0004438574
5157.6309155271	0.0004230138
5159.5597229002	0.0004220493
5161.4885302732	0.0004668061
5163.4173376463	0.0003640227
5165.3461450193	0.0004296602
5167.2749523923	0.0003915636
5169.2037597654	0.0004057019
5171.1325671384	0.0004584895
5173.0613745115	0.0004021846
5174.9901818845	0.0004815991
5176.9189892576	0.0004918327
5178.8477966306	0.0004521449
5180.7766040037	0.0004868796
5182.7054113767	0.0004540238
5184.6342187498	0.0003764239
5186.5630261228	0.0004069370
5188.4918334959	0.0004618755
5190.4206408689	0.0004471892
5192.3494482420	0.0004056401
5194.2782556150	0.0004020407
5196.2070629880	0.0004376949
5198.1358703611	0.0003899243
5200.0646777341	0.0003706345
5201.9934851072	0.0003991767
5203.9222924802	0.0004161531
5205.8510998533	0.0004598891
5207.7799072263	0.0004496654
5209.7087145994	0.0004117014
5211.6375219724	0.0003657740
5213.5663293455	0.0003894153
5215.4951367185	0.0004436948
5217.4239440916	0.0004135297
5219.3527514646	0.0004053034
5221.2815588377	0.0003887893
5223.2103662107	0.0004128988
5225.1391735837	0.0004801796
5227.0679809568	0.0004511218
5228.9967883298	0.0003645314
5230.9255957029	0.0003161373
5232.8544030759	0.0004117968
5234.7832104490	0.0004113797
5236.7120178220	0.0003367045
5238.6408251951	0.0004210322
5240.5696325681	0.0004027648
5242.4984399412	0.0003848710
5244.4272473142	0.0003951232
5246.3560546873	0.0003711978
5248.2848620603	0.0004283556
5250.2136694334	0.0004241113
5252.1424768064	0.0004570642
5254.0712841795	0.0004049813
5256.0000915525	0.0003336794
5257.9288989255	0.0003874984
5259.8577062986	0.0003679235
5261.7865136716	0.0004025507
5263.7153210447	0.0003475194
5265.6441284177	0.0003120749
5267.5729357908	0.0003580500
5269.5017431638	0.0002907280
5271.4305505369	0.0003677307
5273.3593579099	0.0004199929
5275.2881652830	0.0004135044
5277.2169726560	0.0003838502
5279.1457800291	0.0003319833
5281.0745874021	0.0004300253
5283.0033947752	0.0003827898
5284.9322021482	0.0003764616
5286.8610095212	0.0004566583
5288.7898168943	0.0003777393
5290.7186242673	0.0003841264
5292.6474316404	0.0003939102
5294.5762390134	0.0003859886
5296.5050463865	0.0004212736
5298.4338537595	0.0003986791
5300.3626611326	0.0003389249
5302.2914685056	0.0003452577
5304.2202758787	0.0004034756
5306.1490832517	0.0003442162
5308.0778906248	0.0003331864
5310.0066979978	0.0004030193
5311.9355053709	0.0004034391
5313.8643127439	0.0003673157
5315.7931201169	0.0003844077
5317.7219274900	0.0004462383
5319.6507348630	0.0003731968
5321.5795422361	0.0003388906
5323.5083496091	0.0003578761
5325.4371569822	0.0002755848
5327.3659643552	0.0003017747
5329.2947717283	0.0004051735
5331.2235791013	0.0003782840
5333.1523864744	0.0003596290
5335.0811938474	0.0004179880
5337.0100012205	0.0003270648
5338.9388085935	0.0003126501
5340.8676159666	0.0004252407
5342.7964233396	0.0003952690
5344.7252307126	0.0003308226
5346.6540380857	0.0003248383
5348.5828454587	0.0003944083
5350.5116528318	0.0003725453
5352.4404602048	0.0002944280
5354.3692675779	0.0003110650
5356.2980749509	0.0003614416
5358.2268823240	0.0003448500
5360.1556896970	0.0003025192
5362.0844970701	0.0003459873
5364.0133044431	0.0002972748
5365.9421118162	0.0003060284
5367.8709191892	0.0003527766
5369.7997265623	0.0003510167
5371.7285339353	0.0003636113
5373.6573413083	0.0003144621
5375.5861486814	0.0003772119
5377.5149560544	0.0003291493
5379.4437634275	0.0003049998
5381.3725708005	0.0003696969
5383.3013781736	0.0003098952
5385.2301855466	0.0003162825
5387.1589929197	0.0003302608
5389.0878002927	0.0003847980
5391.0166076658	0.0004135940
5392.9454150388	0.0004358132
5394.8742224119	0.0003338960
5396.8030297849	0.0002539154
5398.7318371580	0.0003391883
5400.6606445310	0.0002455237
5402.5894519041	0.0003340367
5404.5182592771	0.0003898293
5406.4470666501	0.0002876667
5408.3758740232	0.0003262483
5410.3046813962	0.0003256512
5412.2334887693	0.0003017880
5414.1622961423	0.0002532103
5416.0911035154	0.0003295078
5418.0199108884	0.0003673530
5419.9487182615	0.0003092532
5421.8775256345	0.0003238737
5423.8063330076	0.0003422522
5425.7351403806	0.0002894033
5427.6639477537	0.0002620855
5429.5927551267	0.0003571529
5431.5215624998	0.0002883734
5433.4503698728	0.0002879309
5435.3791772458	0.0002979063
5437.3079846189	0.0002780879
5439.2367919919	0.0003307061
5441.1655993650	0.0002373625
5443.0944067380	0.0003039029
5445.0232141111	0.0002826934
5446.9520214841	0.0002969261
5448.8808288572	0.0003733329
5450.8096362302	0.0003128815
5452.7384436033	0.0003593195
5454.6672509763	0.0002875582
5456.5960583494	0.0003363478
5458.5248657224	0.0003219548
5460.4536730955	0.0002823982
5462.3824804685	0.0003639730
5464.3112878415	0.0002962544
5466.2400952146	0.0003523235
5468.1689025876	0.0003136399
5470.0977099607	0.0003107237
5472.0265173337	0.0003475476
5473.9553247068	0.0002677965
5475.8841320798	0.0002907038
5477.8129394529	0.0003302717
5479.7417468259	0.0003709600
5481.6705541990	0.0002789610
5483.5993615720	0.0003196315
5485.5281689451	0.0003681245
5487.4569763181	0.0002613009
5489.3857836912	0.0003115717
5491.3145910642	0.0002695270
5493.2433984372	0.0002656638
5495.1722058103	0.0003278038
5497.1010131833	0.0003159144
5499.0298205564	0.0003319248
5500.9586279294	0.0002940414
5502.8874353025	0.0003059112
5504.8162426755	0.0003427551
5506.7450500486	0.0003070821
5508.6738574216	0.0002718428
5510.6026647947	0.0002759545
5512.5314721677	0.0002433925
5514.4602795408	0.0002227675
5516.3890869138	0.0002924019
5518.3178942869	0.0003034181
5520.2467016599	0.0002865863
5522.1755090330	0.0003403334
5524.1043164060	0.0003445980
5526.0331237790	0.0002566412
5527.9619311521	0.0002647611
5529.8907385251	0.0003135115
5531.8195458982	0.0002726613
5533.7483532712	0.0003158347
5535.6771606443	0.0003302046
5537.6059680173	0.0002477380
5539.5347753904	0.0002640793
5541.4635827634	0.0002988098
5543.3923901365	0.0002617881
5545.3211975095	0.0002482401
5547.2500048826	0.0002861100
5549.1788122556	0.0002656965
5551.1076196287	0.0002493089
5553.0364270017	0.0003011677
5554.9652343747	0.0003301457
5556.8940417478	0.0003252613
5558.8228491208	0.0002702338
5560.7516564939	0.0002676232
5562.6804638669	0.0002877705
5564.6092712400	0.0002633564
5566.5380786130	0.0002870282
5568.4668859861	0.0002433067
5570.3956933591	0.0002192156
5572.3245007322	0.0003042690
5574.2533081052	0.0003181859
5576.1821154783	0.0002698898
5578.1109228513	0.0002583191
5580.0397302244	0.0002592944
5581.9685375974	0.0002348753
5583.8973449704	0.0002797705
5585.8261523435	0.0002974808
5587.7549597165	0.0002327341
5589.6837670896	0.0002726626
5591.6125744626	0.0003054845
5593.5413818357	0.0002758434
5595.4701892087	0.0003263604
5597.3989965818	0.0003461648
5599.3278039548	0.0002473039
5601.2566113279	0.0002216350
5603.1854187009	0.0002740564
5605.1142260740	0.0002414275
5607.0430334470	0.0002429220
5608.9718408201	0.0002875331
5610.9006481931	0.0002781335
5612.8294555661	0.0002993934
5614.7582629392	0.0003203892
5616.6870703122	0.0002984103
5618.6158776853	0.0002632958
5620.5446850583	0.0002702733
5622.4734924314	0.0003206156
5624.4022998044	0.0002808108
5626.3311071775	0.0002285400
5628.2599145505	0.0002504886
5630.1887219236	0.0002555908
5632.1175292966	0.0002338909
5634.0463366697	0.0002310686
5635.9751440427	0.0002570279
5637.9039514158	0.0002513137
5639.8327587888	0.0002639231
5641.7615661619	0.0002730863
5643.6903735349	0.0002429417
5645.6191809079	0.0002470214
5647.5479882810	0.0002542203
5649.4767956540	0.0002992789
5651.4056030271	0.0002763056
5653.3344104001	0.0002127365
5655.2632177732	0.0002029343
5657.1920251462	0.0001859393
5659.1208325193	0.0002397244
5661.0496398923	0.0002162455
5662.9784472654	0.0001882905
5664.9072546384	0.0002754510
5666.8360620115	0.0002411759
5668.7648693845	0.0001899492
5670.6936767576	0.0002347188
5672.6224841306	0.0002174094
5674.5512915036	0.0002378462
5676.4800988767	0.0002929021
5678.4089062497	0.0002302917
5680.3377136228	0.0002474242
5682.2665209958	0.0002302740
5684.1953283689	0.0001737367
5686.1241357419	0.0002314519
5688.0529431150	0.0002349342
5689.9817504880	0.0002879813
5691.9105578611	0.0002558806
5693.8393652341	0.0001816164
5695.7681726072	0.0002451825
5697.6969799802	0.0002071206
5699.6257873533	0.0001769595
5701.5545947263	0.0002867409
5703.4834020993	0.0002844854
5705.4122094724	0.0001883867
5707.3410168454	0.0002724051
5709.2698242185	0.0002968202
5711.1986315915	0.0002170155
5713.1274389646	0.0001915124
5715.0562463376	0.0001900881
5716.9850537107	0.0002199495
5718.9138610837	0.0001636480
5720.8426684568	0.0002220841
5722.7714758298	0.0002033628
5724.7002832029	0.0001662440
5726.6290905759	0.0003105138
5728.5578979490	0.0002486464
5730.4867053220	0.0002037017
5732.4155126950	0.0002239716
5734.3443200681	0.0002497213
5736.2731274411	0.0001841651
5738.2019348142	0.0001244010
5740.1307421872	0.0002544482
5742.0595495603	0.0002003570
5743.9883569333	0.0002191415
5745.9171643064	0.0002533620
5747.8459716794	0.0001627998
5749.7747790525	0.0002025646
5751.7035864255	0.0002185891
5753.6323937986	0.0001976748
5755.5612011716	0.0002107684
5757.4900085447	0.0002455033
5759.4188159177	0.0002256791
5761.3476232907	0.0002546789
5763.2764306638	0.0002762371
5765.2052380368	0.0002401565
5767.1340454099	0.0002106097
5769.0628527829	0.0002074917
5770.9916601560	0.0002515659
5772.9204675290	0.0001314024
5774.8492749021	0.0001570366
5776.7780822751	0.0002432484
5778.7068896482	0.0001843096
5780.6356970212	0.0002423064
5782.5645043943	0.0002871265
5784.4933117673	0.0002923793
5786.4221191404	0.0001841191
5788.3509265134	0.0001824661
5790.2797338865	0.0002432739
5792.2085412595	0.0001835429
5794.1373486325	0.0002026452
5796.0661560056	0.0001986097
5797.9949633786	0.0002600628
5799.9237707517	0.0002397886
5801.8525781247	0.0001994979
5803.7813854978	0.0001921930
5805.7101928708	0.0001324989
5807.6390002439	0.0002613358
5809.5678076169	0.0002470228
5811.4966149900	0.0001779263
5813.4254223630	0.0002220498
5815.3542297361	0.0001807792
5817.2830371091	0.0001781470
5819.2118444822	0.0002203910
5821.1406518552	0.0002346083
5823.0694592282	0.0002440787
5824.9982666013	0.0002897803
5826.9270739743	0.0002118110
5828.8558813474	0.0001831440
5830.7846887204	0.0002485002
5832.7134960935	0.0002261496
5834.6423034665	0.0002884367
5836.5711108396	0.0002413352
5838.4999182126	0.0002027501
5840.4287255857	0.0002356387
5842.3575329587	0.0001773291
5844.2863403318	0.0002189725
5846.2151477048	0.0001491460
5848.1439550779	0.0001412115
5850.0727624509	0.0002553758
5852.0015698239	0.0001891907
5853.9303771970	0.0001968831
5855.8591845700	0.0001905547
5857.7879919431	0.0001275845
5859.7167993161	0.0001644121
5861.6456066892	0.0002019380
5863.5744140622	0.0002438763
5865.5032214353	0.0002270976
5867.4320288083	0.0001711090
5869.3608361814	0.0001551995
5871.2896435544	0.0001939763
5873.2184509275	0.0002242033
5875.1472583005	0.0002041763
5877.0760656736	0.0001908295
5879.0048730466	0.0001737142
5880.9336804196	0.0002244482
5882.8624877927	0.0002391279
5884.7912951657	0.0001888068
5886.7201025388	0.0002130373
5888.6489099118	0.0001633070
5890.5777172849	0.0001207551
5892.5065246579	0.0002189384
5894.4353320310	0.0002356085
5896.3641394040	0.0001451766
5898.2929467771	0.0001422952
5900.2217541501	0.0001782104
5902.1505615232	0.0001791727
5904.0793688962	0.0002124210
5906.0081762693	0.0002020199
5907.9369836423	0.0001778337
5909.8657910154	0.0001705157
5911.7945983884	0.0001559632
5913.7234057614	0.0002017087
5915.6522131345	0.0002107384
5917.5810205075	0.0001733146
5919.5098278806	0.0001368485
5921.4386352536	0.0001526850
5923.3674426267	0.0002039952
5925.2962499997	0.0001954765
5927.2250573728	0.0001920025
5929.1538647458	0.0001382860
5931.0826721189	0.0001600723
5933.0114794919	0.0002170321
5934.9402868650	0.0001325904
5936.8690942380	0.0001704514
5938.7979016111	0.0001633500
5940.7267089841	0.0000859443
5942.6555163571	0.0001809510
5944.5843237302	0.0002106501
5946.5131311032	0.0001738919
5948.4419384763	0.0001749718
5950.3707458493	0.0002232517
5952.2995532224	0.0002014284
5954.2283605954	0.0001158380
5956.1571679685	0.0002115720
5958.0859753415	0.0002500067
5960.0147827146	0.0001817910
5961.9435900876	0.0001727772
5963.8723974607	0.0001791693
5965.8012048337	0.0002247441
5967.7300122068	0.0002385232
5969.6588195798	0.0001975284
5971.5876269528	0.0001708108
5973.5164343259	0.0002218452
5975.4452416989	0.0001826432
5977.3740490720	0.0001205310
5979.3028564450	0.0001867622
5981.2316638181	0.0001522246
5983.1604711911	0.0001276557
5985.0892785642	0.0001194965
5987.0180859372	0.0001513252
5988.9468933103	0.0001853474
5990.8757006833	0.0000750782
5992.8045080564	0.0001605420
5994.7333154294	0.0002159857
5996.6621228025	0.0001724816
5998.5909301755	0.0001983505
6000.5197375485	0.0001542326
