399.2631262207	0.0017037687
401.1919335938	0.0023199627
403.1207409668	0.0028664046
405.0495483398	0.0027910215
406.9783557129	0.0030055530
408.9071630859	0.0033073579
410.8359704590	0.0033375104
412.7647778320	0.0031278196
414.6935852051	0.0036854739
416.6223925781	0.0035949606
418.5511999512	0.0027604867
420.4800073242	0.0029319010
422.4088146973	0.0031137147
424.3376220703	0.0035050623
426.2664294434	0.0035944209
428.1952368164	0.0036556902
430.1240441895	0.0038341708
432.0528515625	0.0031379093
433.9816589355	0.0031581575
435.9104663086	0.0034240587
437.8392736816	0.0031705224
439.7680810547	0.0030130255
441.6968884277	0.0031034700
443.6256958008	0.0030049789
445.5545031738	0.0029523028
447.4833105469	0.0032075150
449.4121179199	0.0028505772
451.3409252930	0.0026660315
453.2697326660	0.0023870806
455.1985400391	0.0022037062
457.1273474121	0.0024864334
459.0561547852	0.0022677057
460.9849621582	0.0022145808
462.9137695313	0.0023738663
464.8425769043	0.0023822817
466.7713842773	0.0018633825
468.7001916504	0.0016859148
470.6289990234	0.0019279635
472.5578063965	0.0016948587
474.4866137695	0.0012584289
476.4154211426	0.0010308773
478.3442285156	0.0013623220
480.2730358887	0.0009880634
482.2018432617	0.0008357049
484.1306506348	0.0008975153
486.0594580078	0.0008024984
487.9882653809	0.0012368413
489.9170727539	0.0009364914
491.8458801270	0.0009429236
493.7746875000	0.0005194074
495.7034948730	0.0006216624
497.6323022461	0.0012659242
499.5611096191	0.0003996354
501.4899169922	0.0003800216
503.4187243652	0.0006185290
505.3475317383	0.0008252633
507.2763391113	0.0008332944
509.2051464844	0.0003888110
511.1339538574	0.0007244177
513.0627612305	0.0003451298
514.9915686035	0.0002837868
516.9203759766	0.0008843013
518.8491833496	0.0001568790
520.7779907227	0.0000749660
522.7067980957	0.0006632011
524.6356054688	0.0003277953
526.5644128418	0.0002642685
528.4932202148	0.0004030316
530.4220275879	0.0007062842
532.3508349609	0.0008038021
534.2796423340	0.0004871728
536.2084497070	0.0009462073
538.1372570801	0.0008775191
540.0660644531	0.0004574921
541.9948718262	0.0006232536
543.9236791992	0.0006419354
545.8524865723	0.0006606298
547.7812939453	0.0005771667
549.7101013184	0.0003994885
551.6389086914	0.0000737762
553.5677160645	0.0004072500
555.4965234375	0.0006946255
557.4253308105	0.0004448411
559.3541381836	0.0006757757
561.2829455566	0.0003221237
563.2117529297	0.0006783085
565.1405603027	0.0010614264
567.0693676758	0.0005942755
568.9981750488	0.0008046784
570.9269824219	0.0005177131
572.8557897949	0.0006193874
574.7845971680	0.0007285347
576.7134045410	0.0004588793
578.6422119141	0.0007155015
580.5710192871	0.0008231789
582.4998266602	0.0007530677
584.4286340332	0.0002742488
586.3574414063	0.0006345443
588.2862487793	0.0006543947
590.2150561523	0.0003503909
592.1438635254	0.0010362688
594.0726708984	0.0009137145
596.0014782715	0.0006788424
597.9302856445	0.0005533677
599.8590930176	0.0006795473
601.7879003906	0.0006038525
603.7167077637	0.0004678164
605.6455151367	0.0007792822
607.5743225098	0.0003971794
609.5031298828	0.0004958928
611.4319372559	0.0001556700
613.3607446289	0.0006441885
615.2895520020	0.0009492705
617.2183593750	0.0001873014
619.1471667480	0.0004164717
621.0759741211	0.0005401589
623.0047814941	0.0002028464
624.9335888672	0.0002880900
626.8623962402	0.0003966276
628.7912036133	0.0000905045
630.7200109863	0.0008124771
632.6488183594	0.0015497433
634.5776257324	0.0018960120
636.5064331055	0.0024505046
638.4352404785	0.0025291713
640.3640478516	0.0025690454
642.2928552246	0.0030122655
644.2216625977	0.0031419303
646.1504699707	0.0033803019
648.0792773438	0.0039974898
650.0080847168	0.0043060621
651.9368920898	0.0044507096
653.8656994629	0.0044480949
655.7945068359	0.0044001630
657.7233142090	0.0044755051
659.6521215820	0.0050096586
661.5809289551	0.0050562583
663.5097363281	0.0049481825
665.4385437012	0.0055507757
667.3673510742	0.0050587696
669.2961584473	0.0052617402
671.2249658203	0.0062717544
673.1537731934	0.0063372026
675.0825805664	0.0064481068
677.0113879395	0.0065579289
678.9401953125	0.0069255531
680.8690026855	0.0069026351
682.7978100586	0.0066365465
684.7266174316	0.0066536190
686.6554248047	0.0069450215
688.5842321777	0.0071308278
690.5130395508	0.0069608558
692.4418469238	0.0074965693
694.3706542969	0.0078989090
696.2994616699	0.0087169223
698.2282690430	0.0099149849
700.1570764160	0.0106514012
702.0858837891	0.0107064666
704.0146911621	0.0097449962
705.9434985352	0.0089915022
707.8723059082	0.0075808661
709.8011132813	0.0057553137
711.7299206543	0.0042731995
713.6587280273	0.0029623564
715.5875354004	0.0018342130
717.5163427734	0.0009915071
719.4451501465	0.0009042373
721.3739575195	0.0004582405
723.3027648926	0.0002480894
725.2315722656	0.0003843484
727.1603796387	0.0005042536
729.0891870117	0.0005042402
731.0179943848	0.0001953735
732.9468017578	0.0004607373
734.8756091309	0.0004581880
736.8044165039	0.0000321983
738.7332238770	-0.0001023872
740.6620312500	0.0003869534
742.5908386230	0.0001382178
744.5196459961	-0.0000419045
746.4484533691	0.0006067801
748.3772607422	0.0004860235
750.3060681152	0.0006939822
752.2348754883	0.0005559713
754.1636828613	0.0004206184
756.0924902344	0.0007794953
758.0212976074	0.0005824148
759.9501049805	0.0005786659
761.8789123535	0.0005641073
763.8077197266	0.0007286293
765.7365270996	0.0008429724
767.6653344727	0.0005991129
769.5941418457	0.0007582539
771.5229492188	0.0009195236
773.4517565918	0.0008031097
775.3805639648	0.0006931801
777.3093713379	0.0008231335
779.2381787109	0.0005249901
781.1669860840	0.0009209046
783.0957934570	0.0010237179
785.0246008301	0.0006182710
786.9534082031	0.0008133574
788.8822155762	0.0004540925
790.8110229492	0.0007826870
792.7398303223	0.0009486948
794.6686376953	0.0007507814
796.5974450684	0.0010936460
798.5262524414	0.0012986575
800.4550598145	0.0013550653
802.3838671875	0.0012393460
804.3126745605	0.0012581642
806.2414819336	0.0007908111
808.1702893066	0.0007720907
810.0990966797	0.0009038238
812.0279040527	0.0004987274
813.9567114258	0.0006515698
815.8855187988	0.0006288078
817.8143261719	0.0006845522
819.7431335449	0.0009336250
821.6719409180	0.0008570963
823.6007482910	0.0009503795
825.5295556641	0.0011069967
827.4583630371	0.0009812969
829.3871704102	0.0013994651
831.3159777832	0.0018892414
833.2447851563	0.0017953564
835.1735925293	0.0020779690
837.1023999023	0.0022159633
839.0312072754	0.0022320794
840.9600146484	0.0021731646
842.8888220215	0.0019142099
844.8176293945	0.0018464768
846.7464367676	0.0018104445
848.6752441406	0.0017025222
850.6040515137	0.0015197948
852.5328588867	0.0015757624
854.4616662598	0.0011650674
856.3904736328	0.0010274787
858.3192810059	0.0011838314
860.2480883789	0.0008433383
862.1768957520	0.0009945595
864.1057031250	0.0009080767
866.0345104980	0.0008955916
867.9633178711	0.0007886456
869.8921252441	0.0004393315
871.8209326172	0.0007337758
873.7497399902	0.0006261888
875.6785473633	0.0005346261
877.6073547363	0.0007118762
879.5361621094	0.0008034236
881.4649694824	0.0009105910
883.3937768555	0.0005336870
885.3225842285	0.0003371434
887.2513916016	0.0007581601
889.1801989746	0.0008670721
891.1090063477	0.0007397024
893.0378137207	0.0005956754
894.9666210938	0.0003677522
896.8954284668	0.0005507504
898.8242358398	0.0006396584
900.7530432129	0.0006569637
902.6818505859	0.0006167954
904.6106579590	0.0005504827
906.5394653320	0.0008336782
908.4682727051	0.0008302148
910.3970800781	0.0007775096
912.3258874512	0.0008946237
914.2546948242	0.0010362396
916.1835021973	0.0014469349
918.1123095703	0.0016285274
920.0411169434	0.0015520152
921.9699243164	0.0020373738
923.8987316895	0.0021777209
925.8275390625	0.0019538859
927.7563464355	0.0023815553
929.6851538086	0.0025242884
931.6139611816	0.0025575534
933.5427685547	0.0027389773
935.4715759277	0.0029363187
937.4003833008	0.0031038234
939.3291906738	0.0032163938
941.2579980469	0.0034529320
943.1868054199	0.0033381390
945.1156127930	0.0034512389
947.0444201660	0.0035146507
948.9732275391	0.0034428616
950.9020349121	0.0033473456
952.8308422852	0.0031639643
954.7596496582	0.0033948112
956.6884570313	0.0034040757
958.6172644043	0.0033456553
960.5460717773	0.0032076894
962.4748791504	0.0032183509
964.4036865234	0.0032768713
966.3324938965	0.0034030715
968.2613012695	0.0038213350
970.1901086426	0.0037865983
972.1189160156	0.0039425902
974.0477233887	0.0039806995
975.9765307617	0.0042321645
977.9053381348	0.0049576452
979.8341455078	0.0054423269
981.7629528809	0.0058318521
983.6917602539	0.0062560542
985.6205676270	0.0071808561
987.5493750000	0.0080681164
989.4781823730	0.0090422146
991.4069897461	0.0098867184
993.3357971191	0.0106992610
995.2646044922	0.0117452433
997.1934118652	0.0125725977
999.1222192383	0.0136508401
1001.0510266113	0.0145534463
1002.9798339844	0.0158513989
1004.9086413574	0.0168836955
1006.8374487305	0.0177519992
1008.7662561035	0.0190424994
1010.6950634766	0.0197541676
1012.6238708496	0.0211037472
1014.5526782227	0.0221438166
1016.4814855957	0.0230803788
1018.4102929688	0.0245843232
1020.3391003418	0.0254618358
1022.2679077148	0.0264887065
1024.1967150879	0.0274180062
1026.1255224609	0.0285175685
1028.0543298340	0.0295610763
1029.9831372070	0.0300947037
1031.9119445801	0.0310777500
1033.8407519531	0.0318644568
1035.7695593262	0.0321286283
1037.6983666992	0.0325196162
1039.6271740723	0.0328744501
1041.5559814453	0.0328050554
1043.4847888184	0.0324501321
1045.4135961914	0.0318988897
1047.3424035645	0.0315293670
1049.2712109375	0.0312262401
1051.2000183105	0.0305004716
1053.1288256836	0.0298521761
1055.0576330566	0.0292714648
1056.9864404297	0.0286411569
1058.9152478027	0.0278995112
1060.8440551758	0.0270692036
1062.7728625488	0.0263639819
1064.7016699219	0.0253271163
1066.6304772949	0.0243284702
1068.5592846680	0.0234507583
1070.4880920410	0.0223859008
1072.4168994141	0.0215044059
1074.3457067871	0.0204817075
1076.2745141602	0.0194321964
1078.2033215332	0.0186090171
1080.1321289062	0.0177860372
1082.0609362793	0.0170299411
1083.9897436523	0.0163684636
1085.9185510254	0.0155618005
1087.8473583984	0.0147099644
1089.7761657715	0.0142973112
1091.7049731445	0.0136220427
1093.6337805176	0.0128114773
1095.5625878906	0.0124031287
1097.4913952637	0.0120999292
1099.4202026367	0.0119150691
1101.3490100098	0.0113887992
1103.2778173828	0.0111390157
1105.2066247559	0.0111741684
1107.1354321289	0.0109520685
1109.0642395019	0.0105789602
1110.9930468750	0.0101798121
1112.9218542480	0.0101928357
1114.8506616211	0.0101193553
1116.7794689941	0.0101757217
1118.7082763672	0.0102576315
1120.6370837402	0.0102996649
1122.5658911133	0.0103033558
1124.4946984863	0.0102124801
1126.4235058594	0.0106160492
1128.3523132324	0.0106337015
1130.2811206055	0.0108792903
1132.2099279785	0.0114274696
1134.1387353516	0.0116510428
1136.0675427246	0.0120285377
1137.9963500977	0.0126001053
1139.9251574707	0.0135049373
1141.8539648437	0.0143294139
1143.7827722168	0.0153057566
1145.7115795898	0.0161929540
1147.6403869629	0.0170846283
1149.5691943359	0.0181641616
1151.4980017090	0.0192795470
1153.4268090820	0.0202225205
1155.3556164551	0.0207986645
1157.2844238281	0.0219336711
1159.2132312012	0.0226696339
1161.1420385742	0.0233619530
1163.0708459473	0.0242789201
1164.9996533203	0.0250040311
1166.9284606934	0.0261121634
1168.8572680664	0.0270134807
1170.7860754394	0.0281550996
1172.7148828125	0.0290798657
1174.6436901855	0.0299241431
1176.5724975586	0.0311462618
1178.5013049316	0.0326021872
1180.4301123047	0.0338932052
1182.3589196777	0.0350028649
1184.2877270508	0.0367021523
1186.2165344238	0.0381094329
1188.1453417969	0.0399593338
1190.0741491699	0.0418128744
1192.0029565430	0.0435417145
1193.9317639160	0.0458309017
1195.8605712891	0.0478236899
1197.7893786621	0.0499704406
1199.7181860351	0.0521713942
1201.6469934082	0.0545525178
1203.5758007812	0.0566631444
1205.5046081543	0.0589299947
1207.4334155273	0.0610452965
1209.3622229004	0.0626959205
1211.2910302734	0.0648244768
1213.2198376465	0.0666618794
1215.1486450195	0.0684822127
1217.0774523926	0.0697568208
1219.0062597656	0.0709461719
1220.9350671387	0.0720316321
1222.8638745117	0.0727497712
1224.7926818848	0.0736640170
1226.7214892578	0.0740949512
1228.6502966308	0.0744219273
1230.5791040039	0.0745048076
1232.5079113769	0.0748503655
1234.4367187500	0.0747734010
1236.3655261230	0.0748983324
1238.2943334961	0.0750760958
1240.2231408691	0.0742746219
1242.1519482422	0.0743117929
1244.0807556152	0.0740612745
1246.0095629883	0.0737214535
1247.9383703613	0.0733932108
1249.8671777344	0.0728084147
1251.7959851074	0.0720981658
1253.7247924805	0.0713091195
1255.6535998535	0.0708443522
1257.5824072266	0.0695859194
1259.5112145996	0.0685793310
1261.4400219726	0.0674242899
1263.3688293457	0.0665788800
1265.2976367187	0.0657492578
1267.2264440918	0.0646881312
1269.1552514648	0.0641917884
1271.0840588379	0.0628178716
1273.0128662109	0.0620018765
1274.9416735840	0.0610044375
1276.8704809570	0.0598091856
1278.7992883301	0.0586489514
1280.7280957031	0.0572238117
1282.6569030762	0.0563489683
1284.5857104492	0.0551730469
1286.5145178223	0.0541897528
1288.4433251953	0.0530774817
1290.3721325683	0.0527672730
1292.3009399414	0.0522265136
1294.2297473144	0.0513906181
1296.1585546875	0.0512837209
1298.0873620605	0.0509860739
1300.0161694336	0.0513580665
1301.9449768066	0.0514403433
1303.8737841797	0.0519826449
1305.8025915527	0.0525047481
1307.7313989258	0.0530376099
1309.6602062988	0.0541196838
1311.5890136719	0.0548452586
1313.5178210449	0.0561237931
1315.4466284180	0.0573195592
1317.3754357910	0.0587720945
1319.3042431640	0.0601300299
1321.2330505371	0.0620587319
1323.1618579101	0.0640178248
1325.0906652832	0.0656729639
1327.0194726562	0.0678175986
1328.9482800293	0.0691861063
1330.8770874023	0.0711791813
1332.8058947754	0.0728208572
1334.7347021484	0.0741796494
1336.6635095215	0.0750224143
1338.5923168945	0.0745732635
1340.5211242676	0.0756264627
1342.4499316406	0.0778752863
1344.3787390137	0.0787373781
1346.3075463867	0.0784115419
1348.2363537597	0.0783638060
1350.1651611328	0.0777225047
1352.0939685058	0.0776087195
1354.0227758789	0.0769275576
1355.9515832519	0.0760935545
1357.8803906250	0.0760522783
1359.8091979980	0.0744519830
1361.7380053711	0.0719280094
1363.6668127441	0.0708715171
1365.5956201172	0.0734630972
1367.5244274902	0.0722183436
1369.4532348633	0.0709931701
1371.3820422363	0.0724943429
1373.3108496094	0.0692586899
1375.2396569824	0.0696821064
1377.1684643555	0.0709270686
1379.0972717285	0.0705116391
1381.0260791015	0.0706785694
1382.9548864746	0.0703079998
1384.8836938476	0.0705808848
1386.8125012207	0.0677074641
1388.7413085937	0.0688849986
1390.6701159668	0.0735154524
1392.5989233398	0.0719634145
1394.5277307129	0.0685314685
1396.4565380859	0.0709901825
1398.3853454590	0.0711762011
1400.3141528320	0.0707890391
1402.2429602051	0.0753162950
1404.1717675781	0.0720297545
1406.1005749512	0.0725530684
1408.0293823242	0.0747357830
1409.9581896972	0.0724151805
1411.8869970703	0.0734227821
1413.8158044433	0.0711310506
1415.7446118164	0.0723250285
1417.6734191894	0.0660313666
1419.6022265625	0.0605270155
1421.5310339355	0.0673183054
1423.4598413086	0.0651388168
1425.3886486816	0.0634169728
1427.3174560547	0.0636416376
1429.2462634277	0.0595716499
1431.1750708008	0.0574380569
1433.1038781738	0.0579670332
1435.0326855469	0.0535276569
1436.9614929199	0.0466425046
1438.8903002929	0.0513436459
1440.8191076660	0.0517354682
1442.7479150390	0.0488527045
1444.6767224121	0.0504267886
1446.6055297851	0.0469590873
1448.5343371582	0.0477773696
1450.4631445312	0.0489999279
1452.3919519043	0.0501187742
1454.3207592773	0.0517191961
1456.2495666504	0.0445792004
1458.1783740234	0.0469368733
1460.1071813965	0.0594387501
1462.0359887695	0.0628947094
1463.9647961426	0.0634129494
1465.8936035156	0.0661568865
1467.8224108886	0.0741806254
1469.7512182617	0.0792805403
1471.6800256347	0.0731151700
1473.6088330078	0.0773427561
1475.5376403808	0.0867194310
1477.4664477539	0.0928912461
1479.3952551269	0.1007480919
1481.3240625000	0.1027962416
1483.2528698730	0.1087618321
1485.1816772461	0.1123881415
1487.1104846191	0.1118874997
1489.0392919922	0.1123465076
1490.9680993652	0.1137900352
1492.8969067383	0.1285704076
1494.8257141113	0.1265920550
1496.7545214843	0.1169335842
1498.6833288574	0.1299741268
1500.6121362304	0.1335356534
1502.5409436035	0.1414425224
1504.4697509765	0.1353439838
1506.3985583496	0.1058326215
1508.3273657226	0.1250354946
1510.2561730957	0.1416646540
1512.1849804687	0.1378014088
1514.1137878418	0.1474082172
1516.0425952148	0.1357493252
1517.9714025879	0.1413615644
1519.9002099609	0.1365011036
1521.8290173340	0.1221979633
1523.7578247070	0.1437321305
1525.6866320801	0.1414034665
1527.6154394531	0.1415961236
1529.5442468261	0.1529508233
1531.4730541992	0.1480747461
1533.4018615722	0.1383791417
1535.3306689453	0.1450289786
1537.2594763183	0.1524466872
1539.1882836914	0.1166444421
1541.1170910644	0.1215837300
1543.0458984375	0.1404217035
1544.9747058105	0.1360375732
1546.9035131836	0.1551717818
1548.8323205566	0.1466760635
1550.7611279297	0.1507805437
1552.6899353027	0.1493259072
1554.6187426758	0.1385987699
1556.5475500488	0.1464459151
1558.4763574218	0.1110820025
1560.4051647949	0.1182147264
1562.3339721679	0.1561998725
1564.2627795410	0.1490730941
1566.1915869140	0.1523818970
1568.1203942871	0.1510467380
1570.0492016601	0.1374654472
1571.9780090332	0.1539141238
1573.9068164062	0.1546713710
1575.8356237793	0.1280807257
1577.7644311523	0.1420471668
1579.6932385254	0.1566843092
1581.6220458984	0.1504501700
1583.5508532715	0.1540619433
1585.4796606445	0.1520496011
1587.4084680175	0.1530133188
1589.3372753906	0.1517808139
1591.2660827636	0.1517543197
1593.1948901367	0.1520588994
1595.1236975097	0.1503515393
1597.0525048828	0.1522984207
1598.9813122558	0.1510655284
1600.9101196289	0.1518213451
1602.8389270019	0.1495436132
1604.7677343750	0.1515715271
1606.6965417480	0.1499540061
1608.6253491211	0.1496396661
1610.5541564941	0.1494740546
1612.4829638672	0.1499502659
1614.4117712402	0.1515267193
1616.3405786132	0.1284914315
1618.2693859863	0.1378448904
1620.1981933593	0.1556086689
1622.1270007324	0.1408258229
1624.0558081054	0.1422109306
1625.9846154785	0.1470808685
1627.9134228515	0.1468138099
1629.8422302246	0.1460611522
1631.7710375976	0.1538851559
1633.6998449707	0.1439032555
1635.6286523437	0.1235984117
1637.5574597168	0.1402116716
1639.4862670898	0.1506978571
1641.4150744629	0.1476182938
1643.3438818359	0.1505954862
1645.2726892090	0.1383227855
1647.2014965820	0.1257124394
1649.1303039550	0.1499048173
1651.0591113281	0.1419412196
1652.9879187011	0.0998564810
1654.9167260742	0.1286692619
1656.8455334472	0.1539820284
1658.7743408203	0.1478136927
1660.7031481933	0.1517071128
1662.6319555664	0.1404486895
1664.5607629394	0.1469535679
1666.4895703125	0.1547680795
1668.4183776855	0.1390901506
1670.3471850586	0.1365146339
1672.2759924316	0.1504389495
1674.2047998047	0.1409022212
1676.1336071777	0.1364402175
1678.0624145507	0.1527379751
1679.9912219238	0.1479074508
1681.9200292968	0.1470577717
1683.8488366699	0.1238204092
1685.7776440429	0.1230676770
1687.7064514160	0.1591388583
1689.6352587890	0.1411619484
1691.5640661621	0.1528843939
1693.4928735351	0.1544710398
1695.4216809082	0.1198272929
1697.3504882812	0.1420938373
1699.2792956543	0.1282071173
1701.2081030273	0.1184241027
1703.1369104004	0.1513208300
1705.0657177734	0.1409522295
1706.9945251464	0.1416924596
1708.9233325195	0.1513535380
1710.8521398925	0.1461554021
1712.7809472656	0.1483038962
1714.7097546386	0.1394332051
1716.6385620117	0.1273834854
1718.5673693847	0.1261543632
1720.4961767578	0.1446958184
1722.4249841308	0.1483537555
1724.3537915039	0.1397421956
1726.2825988769	0.1491565108
1728.2114062500	0.1393636912
1730.1402136230	0.1409953237
1732.0690209961	0.1370457113
1733.9978283691	0.1106698066
1735.9266357421	0.1317271590
1737.8554431152	0.1423128843
1739.7842504882	0.1299288869
1741.7130578613	0.1392330825
1743.6418652343	0.1411098242
1745.5706726074	0.1412235498
1747.4994799804	0.1424742639
1749.4282873535	0.1378801018
1751.3570947265	0.1329731047
1753.2859020996	0.1444013864
1755.2147094726	0.1493835747
1757.1435168457	0.1391319931
1759.0723242187	0.1499140263
1761.0011315918	0.1423860341
1762.9299389648	0.1388860941
1764.8587463379	0.1542071998
1766.7875537109	0.1417382360
1768.7163610839	0.1429776996
1770.6451684570	0.1420756429
1772.5739758300	0.1305265427
1774.5027832031	0.1424064934
1776.4315905761	0.1486492455
1778.3603979492	0.1468028426
1780.2892053222	0.1457378417
1782.2180126953	0.1463734955
1784.1468200683	0.1461366415
1786.0756274414	0.1439959705
1788.0044348144	0.1497394443
1789.9332421875	0.1467837691
1791.8620495605	0.1355675608
1793.7908569336	0.1400730759
1795.7196643066	0.1482036114
1797.6484716796	0.1466436088
1799.5772790527	0.1447274387
1801.5060864257	0.1427791417
1803.4348937988	0.1464651823
1805.3637011718	0.1487865895
1807.2925085449	0.1471300274
1809.2213159179	0.1475553215
1811.1501232910	0.1447106451
1813.0789306640	0.1482835114
1815.0077380371	0.1483454555
1816.9365454101	0.1470458359
1818.8653527832	0.1480149329
1820.7941601562	0.1473640800
1822.7229675293	0.1491772830
1824.6517749023	0.1414093673
1826.5805822753	0.1453700513
1828.5093896484	0.1455041468
1830.4381970214	0.1385273486
1832.3670043945	0.1479398012
1834.2958117675	0.1470119059
1836.2246191406	0.1467829347
1838.1534265136	0.1461457312
1840.0822338867	0.1469375193
1842.0110412597	0.1468595862
1843.9398486328	0.1337994039
1845.8686560058	0.1406337023
1847.7974633789	0.1464583874
1849.7262707519	0.1440017521
1851.6550781250	0.1471766233
1853.5838854980	0.1449562311
1855.5126928710	0.1459721774
1857.4415002441	0.1450825930
1859.3703076171	0.1444008201
1861.2991149902	0.1450534165
1863.2279223632	0.1438050866
1865.1567297363	0.1449080706
1867.0855371093	0.1411750615
1869.0143444824	0.1366478205
1870.9431518554	0.1405953467
1872.8719592285	0.1446800828
1874.8007666015	0.1428031921
1876.7295739746	0.1431584656
1878.6583813476	0.1426378191
1880.5871887207	0.1420238614
1882.5159960937	0.1428892016
1884.4448034667	0.1411423385
1886.3736108398	0.1424606889
1888.3024182128	0.1398847550
1890.2312255859	0.1379189491
1892.1600329589	0.1416781247
1894.0888403320	0.1401073933
1896.0176477050	0.1396085173
1897.9464550781	0.1408403814
1899.8752624511	0.1401135474
1901.8040698242	0.1401002109
1903.7328771972	0.1394270360
1905.6616845703	0.1399562657
1907.5904919433	0.1388917863
1909.5192993164	0.1379308105
1911.4481066894	0.1384144127
1913.3769140625	0.1386228353
1915.3057214355	0.1395432949
1917.2345288085	0.1345837265
1919.1633361816	0.1347127855
1921.0921435546	0.1387198567
1923.0209509277	0.1352955401
1924.9497583007	0.1373834759
1926.8785656738	0.1383004934
1928.8073730468	0.1369457990
1930.7361804199	0.1380137801
1932.6649877929	0.1365117133
1934.5937951660	0.1375393569
1936.5226025390	0.1366591305
1938.4514099121	0.1369556487
1940.3802172851	0.1368085593
1942.3090246582	0.1335172355
1944.2378320312	0.1353245378
1946.1666394042	0.1363945901
1948.0954467773	0.1361580491
1950.0242541503	0.1364259124
1951.9530615234	0.1360439658
1953.8818688964	0.1359777749
1955.8106762695	0.1356114745
1957.7394836425	0.1359622777
1959.6682910156	0.1357982606
1961.5970983886	0.1353418827
1963.5259057617	0.1355283856
1965.4547131347	0.1348736882
1967.3835205078	0.1337248087
1969.3123278808	0.1346410215
1971.2411352539	0.1350502670
1973.1699426269	0.1344319284
1975.0987499999	0.1347838342
1977.0275573730	0.1342161000
1978.9563647460	0.1343568265
1980.8851721191	0.1340726018
1982.8139794921	0.1336531341
1984.7427868652	0.1339204609
1986.6715942382	0.1330267489
1988.6004016113	0.1330868900
1990.5292089843	0.1321072578
1992.4580163574	0.1309379190
1994.3868237304	0.1322376132
1996.3156311035	0.1325024813
1998.2444384765	0.1317558587
2000.1732458496	0.1316651702
2002.1020532226	0.1314043105
2004.0308605956	0.1312125176
2005.9596679687	0.1308817714
2007.8884753417	0.1304350793
2009.8172827148	0.1303020865
2011.7460900878	0.1299196482
2013.6748974609	0.1299969852
2015.6037048339	0.1292988956
2017.5325122070	0.1282747984
2019.4613195800	0.1288626790
2021.3901269531	0.1286883354
2023.3189343261	0.1281280518
2025.2477416992	0.1280069649
2027.1765490722	0.1275218129
2029.1053564453	0.1274640858
2031.0341638183	0.1271686554
2032.9629711914	0.1267838627
2034.8917785644	0.1266489625
2036.8205859374	0.1262555271
2038.7493933105	0.1260725260
2040.6782006835	0.1255344748
2042.6070080566	0.1251398176
2044.5358154296	0.1251311898
2046.4646228027	0.1247164309
2048.3934301757	0.1245933622
2050.3222375488	0.1243174225
2052.2510449218	0.1241750568
2054.1798522949	0.1239844710
2056.1086596679	0.1234939843
2058.0374670410	0.1232343391
2059.9662744140	0.1227577925
2061.8950817871	0.1227914467
2063.8238891601	0.1222857758
2065.7526965331	0.1218669191
2067.6815039062	0.1220895275
2069.6103112792	0.1216822863
2071.5391186523	0.1215287596
2073.4679260253	0.1211910099
2075.3967333984	0.1209494025
2077.3255407714	0.1207273453
2079.2543481445	0.1204885095
2081.1831555175	0.1204023659
2083.1119628906	0.1199782863
2085.0407702636	0.1198181659
2086.9695776367	0.1195510104
2088.8983850097	0.1193355471
2090.8271923828	0.1189748272
2092.7559997558	0.1187229007
2094.6848071288	0.1187147200
2096.6136145019	0.1184656769
2098.5424218749	0.1182563603
2100.4712292480	0.1179089472
2102.4000366210	0.1177076697
2104.3288439941	0.1175125986
2106.2576513671	0.1172772795
2108.1864587402	0.1169282049
2110.1152661132	0.1168311387
2112.0440734863	0.1167467833
2113.9728808593	0.1164396107
2115.9016882324	0.1163057685
2117.8304956054	0.1159416586
2119.7593029785	0.1159002408
2121.6881103515	0.1156028658
2123.6169177245	0.1154486910
2125.5457250976	0.1154287755
2127.4745324706	0.1150895134
2129.4033398437	0.1150984317
2131.3321472167	0.1148360670
2133.2609545898	0.1147570163
2135.1897619628	0.1144824922
2137.1185693359	0.1143173352
2139.0473767089	0.1141543537
2140.9761840820	0.1138461754
2142.9049914550	0.1139846444
2144.8337988281	0.1135903820
2146.7626062011	0.1134539917
2148.6914135742	0.1133732051
2150.6202209472	0.1131711453
2152.5490283203	0.1130374372
2154.4778356933	0.1128422469
2156.4066430663	0.1127428114
2158.3354504394	0.1124622151
2160.2642578124	0.1123749912
2162.1930651855	0.1121609807
2164.1218725585	0.1120909229
2166.0506799316	0.1118032783
2167.9794873046	0.1116843373
2169.9082946777	0.1117403433
2171.8371020507	0.1113925129
2173.7659094238	0.1113884524
2175.6947167968	0.1110634506
2177.6235241699	0.1110123619
2179.5523315429	0.1108844802
2181.4811389160	0.1105459630
2183.4099462890	0.1106239855
2185.3387536620	0.1104179770
2187.2675610351	0.1102859974
2189.1963684081	0.1101061553
2191.1251757812	0.1099748462
2193.0539831542	0.1098430455
2194.9827905273	0.1097401381
2196.9115979003	0.1096142530
2198.8404052734	0.1093745306
2200.7692126464	0.1092311218
2202.6980200195	0.1090377122
2204.6268273925	0.1089356467
2206.5556347656	0.1087075025
2208.4844421386	0.1086069643
2210.4132495117	0.1084308326
2212.3420568847	0.1083102152
2214.2708642577	0.1081430018
2216.1996716308	0.1078750938
2218.1284790038	0.1078850552
2220.0572863769	0.1075822413
2221.9860937499	0.1075222641
2223.9149011230	0.1074497849
2225.8437084960	0.1072553694
2227.7725158691	0.1071111411
2229.7013232421	0.1068662852
2231.6301306152	0.1067093462
2233.5589379882	0.1064120829
2235.4877453613	0.1062559634
2237.4165527343	0.1060850620
2239.3453601074	0.1060769260
2241.2741674804	0.1057904512
2243.2029748534	0.1054916680
2245.1317822265	0.1054415554
2247.0605895995	0.1051321030
2248.9893969726	0.1051287353
2250.9182043456	0.1048614383
2252.8470117187	0.1046714932
2254.7758190917	0.1046093702
2256.7046264648	0.1044018269
2258.6334338378	0.1043088287
2260.5622412109	0.1040617377
2262.4910485839	0.1038641781
2264.4198559570	0.1035951972
2266.3486633300	0.1035171747
2268.2774707031	0.1034418344
2270.2062780761	0.1033295393
2272.1350854491	0.1031366214
2274.0638928222	0.1028401479
2275.9927001952	0.1027883291
2277.9215075683	0.1027062535
2279.8503149413	0.1025930792
2281.7791223144	0.1024124473
2283.7079296874	0.1023001447
2285.6367370605	0.1020528525
2287.5655444335	0.1018418372
2289.4943518066	0.1015318185
2291.4231591796	0.1011834443
2293.3519665527	0.1010997593
2295.2807739257	0.1007755101
2297.2095812988	0.1004210562
2299.1383886718	0.0999272838
2301.0671960449	0.0996405929
2302.9960034179	0.0990449935
2304.9248107909	0.0984151810
2306.8536181640	0.0979119986
2308.7824255370	0.0968507379
2310.7112329101	0.0962373912
2312.6400402831	0.0952205211
2314.5688476562	0.0943147838
2316.4976550292	0.0932216272
2318.4264624023	0.0915976241
2320.3552697753	0.0905352980
2322.2840771484	0.0890778527
2324.2128845214	0.0880440399
2326.1416918945	0.0870327204
2328.0704992675	0.0859694928
2329.9993066406	0.0849016309
2331.9281140136	0.0838480219
2333.8569213866	0.0838638246
2335.7857287597	0.0834074169
2337.7145361327	0.0831795037
2339.6433435058	0.0832643658
2341.5721508788	0.0834239423
2343.5009582519	0.0846731216
2345.4297656249	0.0863077044
2347.3585729980	0.0900471658
2349.2873803710	0.0930369124
2351.2161877441	0.0898492783
2353.1449951171	0.0848277733
2355.0738024902	0.0817643106
2357.0026098632	0.0790429711
2358.9314172363	0.0773620903
2360.8602246093	0.0766673833
2362.7890319823	0.0764686763
2364.7178393554	0.0769342184
2366.6466467284	0.0779925287
2368.5754541015	0.0796634406
2370.5042614745	0.0815385580
2372.4330688476	0.0840737745
2374.3618762206	0.0864423364
2376.2906835937	0.0886370987
2378.2194909667	0.0909416527
2380.1482983398	0.0924068317
2382.0771057128	0.0935085863
2384.0059130859	0.0941744298
2385.9347204589	0.0944129378
2387.8635278320	0.0944482982
2389.7923352050	0.0944221914
2391.7211425780	0.0943776965
2393.6499499511	0.0942936689
2395.5787573241	0.0941724554
2397.5075646972	0.0939089358
2399.4363720702	0.0938626826
2401.3651794433	0.0936178491
2403.2939868163	0.0935084075
2405.2227941894	0.0933792442
2407.1516015624	0.0930368304
2409.0804089355	0.0931342766
2411.0092163085	0.0930450931
2412.9380236816	0.0928605795
2414.8668310546	0.0927254558
2416.7956384277	0.0924848989
2418.7244458007	0.0923489779
2420.6532531738	0.0923224986
2422.5820605468	0.0921765938
2424.5108679198	0.0919329152
2426.4396752929	0.0917696804
2428.3684826659	0.0916196704
2430.2972900390	0.0915958285
2432.2260974120	0.0914576799
2434.1549047851	0.0912974030
2436.0837121581	0.0911186263
2438.0125195312	0.0910170078
2439.9413269042	0.0909897685
2441.8701342773	0.0907503814
2443.7989416503	0.0905901417
2445.7277490234	0.0904470757
2447.6565563964	0.0903978050
2449.5853637695	0.0902065560
2451.5141711425	0.0900620669
2453.4429785155	0.0900703222
2455.3717858886	0.0898470581
2457.3005932616	0.0897334963
2459.2294006347	0.0896364674
2461.1582080077	0.0894418433
2463.0870153808	0.0891882032
2465.0158227538	0.0891200528
2466.9446301269	0.0891404450
2468.8734374999	0.0890256763
2470.8022448730	0.0887672603
2472.7310522460	0.0885687098
2474.6598596191	0.0886111408
2476.5886669921	0.0884980038
2478.5174743652	0.0882923529
2480.4462817382	0.0880669802
2482.3750891112	0.0882083550
2484.3038964843	0.0880761966
2486.2327038573	0.0876947641
2488.1615112304	0.0877341554
2490.0903186034	0.0874426439
2492.0191259765	0.0873383805
2493.9479333495	0.0872226506
2495.8767407226	0.0871259570
2497.8055480956	0.0870120078
2499.7343554687	0.0867369175
2501.6631628417	0.0868225843
2503.5919702148	0.0865447819
2505.5207775878	0.0864209682
2507.4495849609	0.0863935500
2509.3783923339	0.0862738341
2511.3071997069	0.0861255974
2513.2360070800	0.0859470218
2515.1648144530	0.0859754384
2517.0936218261	0.0857081115
2519.0224291991	0.0857384205
2520.9512365722	0.0857062489
2522.8800439452	0.0854273438
2524.8088513183	0.0852638930
2526.7376586913	0.0851135403
2528.6664660644	0.0850028694
2530.5952734374	0.0848260671
2532.5240808105	0.0847425759
2534.4528881835	0.0845578611
2536.3816955566	0.0846048072
2538.3105029296	0.0844258666
2540.2393103027	0.0842009857
2542.1681176757	0.0842220709
2544.0969250487	0.0840387940
2546.0257324218	0.0839720964
2547.9545397948	0.0837418512
2549.8833471679	0.0837439895
2551.8121545409	0.0835049748
2553.7409619140	0.0832651034
2555.6697692870	0.0834064484
2557.5985766601	0.0831524730
2559.5273840331	0.0830041915
2561.4561914062	0.0828658342
2563.3849987792	0.0828872398
2565.3138061523	0.0827545375
2567.2426135253	0.0824927390
2569.1714208984	0.0823895186
2571.1002282714	0.0822063386
2573.0290356444	0.0821866989
2574.9578430175	0.0819760561
2576.8866503905	0.0818893760
2578.8154577636	0.0817425549
2580.7442651366	0.0816089064
2582.6730725097	0.0816044211
2584.6018798827	0.0814095438
2586.5306872558	0.0812999308
2588.4594946288	0.0811244473
2590.3883020019	0.0810516030
2592.3171093749	0.0808197632
2594.2459167480	0.0807072520
2596.1747241210	0.0806737691
2598.1035314941	0.0804790854
2600.0323388671	0.0804817975
2601.9611462401	0.0802429765
2603.8899536132	0.0800338164
2605.8187609862	0.0800016746
2607.7475683593	0.0800442547
2609.6763757323	0.0798078403
2611.6051831054	0.0795718729
2613.5339904784	0.0796696767
2615.4627978515	0.0794245005
2617.3916052245	0.0793142095
2619.3204125976	0.0792130604
2621.2492199706	0.0790440738
2623.1780273437	0.0789954886
2625.1068347167	0.0787543505
2627.0356420898	0.0786446780
2628.9644494628	0.0784886703
2630.8932568358	0.0783814043
2632.8220642089	0.0783810019
2634.7508715819	0.0781500190
2636.6796789550	0.0780305415
2638.6084863280	0.0780717134
2640.5372937011	0.0779356211
2642.4661010741	0.0777374506
2644.3949084472	0.0775868744
2646.3237158202	0.0774915665
2648.2525231933	0.0774120241
2650.1813305663	0.0772442445
2652.1101379394	0.0771420002
2654.0389453124	0.0769998953
2655.9677526855	0.0769142210
2657.8965600585	0.0768333226
2659.8253674315	0.0765775293
2661.7541748046	0.0765194595
2663.6829821776	0.0764981210
2665.6117895507	0.0763332397
2667.5405969237	0.0761527866
2669.4694042968	0.0760468468
2671.3982116698	0.0759112835
2673.3270190429	0.0757494941
2675.2558264159	0.0757317394
2677.1846337890	0.0755583942
2679.1134411620	0.0754495114
2681.0422485351	0.0754213631
2682.9710559081	0.0751733035
2684.8998632812	0.0750094205
2686.8286706542	0.0748661309
2688.7574780273	0.0747701600
2690.6862854003	0.0747531801
2692.6150927733	0.0746153817
2694.5439001464	0.0744808614
2696.4727075194	0.0744244307
2698.4015148925	0.0742954612
2700.3303222655	0.0740540028
2702.2591296386	0.0739618465
2704.1879370116	0.0738381892
2706.1167443847	0.0737085640
2708.0455517577	0.0737025067
2709.9743591308	0.0734802037
2711.9031665038	0.0733699799
2713.8319738769	0.0732947364
2715.7607812499	0.0731062144
2717.6895886230	0.0730087310
2719.6183959960	0.0729044974
2721.5472033690	0.0728134662
2723.4760107421	0.0726702586
2725.4048181151	0.0726505667
2727.3336254882	0.0724216104
2729.2624328612	0.0721971989
2731.1912402343	0.0722475573
2733.1200476073	0.0720479935
2735.0488549804	0.0719242170
2736.9776623534	0.0717619061
2738.9064697265	0.0716781914
2740.8352770995	0.0715715438
2742.7640844726	0.0713301897
2744.6928918456	0.0713353455
2746.6216992187	0.0711383522
2748.5505065917	0.0711232871
2750.4793139647	0.0710892156
2752.4081213378	0.0708442926
2754.3369287108	0.0707824081
2756.2657360839	0.0705776811
2758.1945434569	0.0704518855
2760.1233508300	0.0703360885
2762.0521582030	0.0701574236
2763.9809655761	0.0700595677
2765.9097729491	0.0700030625
2767.8385803222	0.0698952228
2769.7673876952	0.0696890503
2771.6961950683	0.0696036071
2773.6250024413	0.0694875121
2775.5538098144	0.0693199113
2777.4826171874	0.0692266077
2779.4114245604	0.0690594167
2781.3402319335	0.0689197481
2783.2690393065	0.0688555241
2785.1978466796	0.0686325803
2787.1266540526	0.0685502291
2789.0554614257	0.0684493929
2790.9842687987	0.0681759119
2792.9130761718	0.0681625679
2794.8418835448	0.0679938197
2796.7706909179	0.0678424388
2798.6994982909	0.0678098798
2800.6283056640	0.0676148385
2802.5571130370	0.0674765259
2804.4859204101	0.0673793107
2806.4147277831	0.0672988892
2808.3435351562	0.0670755953
2810.2723425292	0.0669349432
2812.2011499022	0.0668477416
2814.1299572753	0.0667556375
2816.0587646483	0.0666762292
2817.9875720214	0.0663974732
2819.9163793944	0.0662070364
2821.8451867675	0.0660959035
2823.7739941405	0.0660336763
2825.7028015136	0.0659287572
2827.6316088866	0.0658274293
2829.5604162597	0.0657039136
2831.4892236327	0.0655062199
2833.4180310058	0.0653682351
2835.3468383788	0.0651413500
2837.2756457519	0.0651097149
2839.2044531249	0.0649480820
2841.1332604979	0.0645579547
2843.0620678710	0.0643850043
2844.9908752440	0.0641504377
2846.9196826171	0.0637453496
2848.8484899901	0.0633732826
2850.7772973632	0.0631651878
2852.7061047362	0.0630700290
2854.6349121093	0.0629833266
2856.5637194823	0.0628692359
2858.4925268554	0.0629303157
2860.4213342284	0.0628622696
2862.3501416015	0.0626232922
2864.2789489745	0.0625829101
2866.2077563476	0.0623990782
2868.1365637206	0.0622610375
2870.0653710936	0.0623433515
2871.9941784667	0.0622244775
2873.9229858397	0.0619483143
2875.8517932128	0.0619931594
2877.7806005858	0.0618953034
2879.7094079589	0.0615722016
2881.6382153319	0.0615972839
2883.5670227050	0.0615757257
2885.4958300780	0.0615322739
2887.4246374511	0.0613616370
2889.3534448241	0.0611920096
2891.2822521972	0.0610561594
2893.2110595702	0.0608533770
2895.1398669433	0.0607465208
2897.0686743163	0.0604846068
2898.9974816893	0.0604695082
2900.9262890624	0.0602471605
2902.8550964354	0.0600516051
2904.7839038085	0.0600256324
2906.7127111815	0.0596634299
2908.6415185546	0.0595644340
2910.5703259276	0.0593550801
2912.4991333007	0.0589741990
2914.4279406737	0.0585349947
2916.3567480468	0.0583566651
2918.2855554198	0.0582947843
2920.2143627929	0.0580195710
2922.1431701659	0.0579974689
2924.0719775390	0.0578400567
2926.0007849120	0.0578315891
2927.9295922851	0.0578387305
2929.8583996581	0.0577643476
2931.7872070311	0.0577730276
2933.7160144042	0.0576113686
2935.6448217772	0.0576254502
2937.5736291503	0.0576101840
2939.5024365233	0.0575416759
2941.4312438964	0.0575113893
2943.3600512694	0.0574865416
2945.2888586425	0.0573437177
2947.2176660155	0.0573004559
2949.1464733886	0.0573423766
2951.0752807616	0.0571537986
2953.0040881347	0.0569997355
2954.9328955077	0.0567657650
2956.8617028808	0.0567141920
2958.7905102538	0.0565311462
2960.7193176268	0.0562017187
2962.6481249999	0.0561616272
2964.5769323729	0.0560427681
2966.5057397460	0.0559641272
2968.4345471190	0.0559649542
2970.3633544921	0.0560590774
2972.2921618651	0.0560114607
2974.2209692382	0.0559737906
2976.1497766112	0.0560929291
2978.0785839843	0.0560085699
2980.0073913573	0.0559303388
2981.9361987304	0.0560052320
2983.8650061034	0.0560614318
2985.7938134765	0.0559216514
2987.7226208495	0.0557953194
2989.6514282225	0.0556989238
2991.5802355956	0.0556863919
2993.5090429686	0.0555469207
2995.4378503417	0.0554174781
2997.3666577147	0.0554507226
2999.2954650878	0.0552613810
3001.2242724608	0.0552734956
3003.1530798339	0.0550644472
3005.0818872069	0.0549388081
3007.0106945800	0.0550122112
3008.9395019530	0.0547460131
3010.8683093261	0.0545906797
3012.7971166991	0.0543400943
3014.7259240722	0.0543430820
3016.6547314452	0.0543585941
3018.5835388182	0.0542224757
3020.5123461913	0.0541037545
3022.4411535643	0.0538950413
3024.3699609374	0.0538019277
3026.2987683104	0.0536180064
3028.2275756835	0.0536303744
3030.1563830565	0.0534500033
3032.0851904296	0.0532886833
3034.0139978026	0.0532168932
3035.9428051757	0.0529691130
3037.8716125487	0.0529965609
3039.8004199218	0.0528647304
3041.7292272948	0.0528414920
3043.6580346679	0.0527500138
3045.5868420409	0.0525294431
3047.5156494139	0.0523927622
3049.4444567870	0.0522192270
3051.3732641600	0.0523136333
3053.3020715331	0.0521707311
3055.2308789061	0.0519452728
3057.1596862792	0.0518372133
3059.0884936522	0.0517471246
3061.0173010253	0.0517228991
3062.9461083983	0.0515579432
3064.8749157714	0.0513645709
3066.8037231444	0.0512182489
3068.7325305175	0.0511971414
3070.6613378905	0.0512041785
3072.5901452636	0.0511497334
3074.5189526366	0.0509485528
3076.4477600097	0.0508217625
3078.3765673827	0.0507912040
3080.3053747557	0.0505469069
3082.2341821288	0.0504280329
3084.1629895018	0.0503733754
3086.0917968749	0.0502378792
3088.0206042479	0.0501869470
3089.9494116210	0.0501099490
3091.8782189940	0.0500391424
3093.8070263671	0.0499136560
3095.7358337401	0.0496692359
3097.6646411132	0.0495780632
3099.5934484862	0.0494861156
3101.5222558593	0.0493532382
3103.4510632323	0.0493039340
3105.3798706054	0.0491733849
3107.3086779784	0.0490452014
3109.2374853514	0.0488497317
3111.1662927245	0.0488340072
3113.0951000975	0.0487447381
3115.0239074706	0.0484689884
3116.9527148436	0.0484627560
3118.8815222167	0.0482655838
3120.8103295897	0.0481146500
3122.7391369628	0.0480455346
3124.6679443358	0.0478915572
3126.5967517089	0.0478707142
3128.5255590819	0.0477608070
3130.4543664550	0.0476742908
3132.3831738280	0.0475036465
3134.3119812011	0.0473434441
3136.2407885741	0.0472660363
3138.1695959471	0.0470652804
3140.0984033202	0.0469402224
3142.0272106932	0.0468732342
3143.9560180663	0.0466827974
3145.8848254393	0.0465958789
3147.8136328124	0.0465118736
3149.7424401854	0.0462481678
3151.6712475585	0.0462003127
3153.6000549315	0.0461166874
3155.5288623046	0.0459608957
3157.4576696776	0.0459060371
3159.3864770507	0.0457098708
3161.3152844237	0.0454888754
3163.2440917968	0.0454529412
3165.1728991698	0.0454146564
3167.1017065428	0.0451729186
3169.0305139159	0.0451401100
3170.9593212889	0.0449879318
3172.8881286620	0.0447900146
3174.8169360350	0.0447256863
3176.7457434081	0.0445016101
3178.6745507811	0.0444773845
3180.6033581542	0.0443547294
3182.5321655272	0.0442708582
3184.4609729003	0.0440597236
3186.3897802733	0.0438545421
3188.3185876464	0.0439297408
3190.2473950194	0.0437308848
3192.1762023925	0.0436208844
3194.1050097655	0.0434701256
3196.0338171386	0.0434259176
3197.9626245116	0.0433299914
3199.8914318846	0.0431487747
3201.8202392577	0.0432369635
3203.7490466307	0.0430713594
3205.6778540038	0.0429555625
3207.6066613768	0.0427969359
3209.5354687499	0.0426603854
3211.4642761229	0.0425921977
3213.3930834960	0.0424492471
3215.3218908690	0.0425391346
3217.2506982421	0.0424477011
3219.1795056151	0.0422168821
3221.1083129882	0.0421129912
3223.0371203612	0.0420596451
3224.9659277343	0.0419345535
3226.8947351073	0.0418501422
3228.8235424803	0.0417707711
3230.7523498534	0.0416762829
3232.6811572264	0.0416702740
3234.6099645995	0.0415815413
3236.5387719725	0.0415610820
3238.4675793456	0.0414440110
3240.3963867186	0.0413632840
3242.3251940917	0.0413915962
3244.2540014647	0.0412343331
3246.1828088378	0.0412020274
3248.1116162108	0.0412240401
3250.0404235839	0.0410972610
3251.9692309569	0.0410819501
3253.8980383300	0.0409841165
3255.8268457030	0.0407139063
3257.7556530760	0.0407014564
3259.6844604491	0.0406618863
3261.6132678221	0.0407191291
3263.5420751952	0.0406970717
3265.4708825682	0.0403940156
3267.3996899413	0.0404645987
3269.3284973143	0.0403720737
3271.2573046874	0.0402856469
3273.1861120604	0.0403090268
3275.1149194335	0.0400406197
3277.0437268065	0.0400020517
3278.9725341796	0.0401167050
3280.9013415526	0.0400418751
3282.8301489257	0.0399326086
3284.7589562987	0.0399544388
3286.6877636717	0.0397895128
3288.6165710448	0.0398024730
3290.5453784178	0.0397651270
3292.4741857909	0.0395106077
3294.4029931639	0.0395894870
3296.3318005370	0.0394546427
3298.2606079100	0.0393879414
3300.1894152831	0.0394006856
3302.1182226561	0.0393208265
3304.0470300292	0.0392528921
3305.9758374022	0.0390964448
3307.9046447753	0.0390832126
3309.8334521483	0.0389235914
3311.7622595214	0.0389052518
3313.6910668944	0.0389330313
3315.6198742675	0.0388355441
3317.5486816405	0.0387840271
3319.4774890135	0.0386961102
3321.4062963866	0.0387218669
3323.3351037596	0.0386119671
3325.2639111327	0.0384877995
3327.1927185057	0.0384375528
3329.1215258788	0.0383846387
3331.0503332518	0.0383137688
3332.9791406249	0.0381934792
3334.9079479979	0.0381155945
3336.8367553710	0.0380180404
3338.7655627440	0.0379295722
3340.6943701171	0.0378732160
3342.6231774901	0.0378881320
3344.5519848632	0.0377990603
3346.4807922362	0.0377225727
3348.4095996092	0.0377204381
3350.3384069823	0.0376218110
3352.2672143553	0.0375442430
3354.1960217284	0.0374584123
3356.1248291014	0.0373661257
3358.0536364745	0.0372032300
3359.9824438475	0.0371101052
3361.9112512206	0.0371437371
3363.8400585936	0.0370612293
3365.7688659667	0.0369304568
3367.6976733397	0.0368403718
3369.6264807128	0.0367281437
3371.5552880858	0.0367659181
3373.4840954589	0.0367542617
3375.4129028319	0.0365568288
3377.3417102049	0.0365807451
3379.2705175780	0.0365141146
3381.1993249510	0.0363435820
3383.1281323241	0.0362071842
3385.0569396971	0.0361564793
3386.9857470702	0.0361374915
3388.9145544432	0.0360119566
3390.8433618163	0.0359987468
3392.7721691893	0.0357369557
3394.7009765624	0.0357339233
3396.6297839354	0.0357319228
3398.5585913085	0.0355581269
3400.4873986815	0.0356667936
3402.4162060546	0.0354448929
3404.3450134276	0.0354028121
3406.2738208006	0.0353510231
3408.2026281737	0.0352877825
3410.1314355467	0.0352318399
3412.0602429198	0.0349699333
3413.9890502928	0.0350633673
3415.9178576659	0.0350617394
3417.8466650389	0.0350259170
3419.7754724120	0.0348336138
3421.7042797850	0.0346496552
3423.6330871581	0.0347472802
3425.5618945311	0.0347317457
3427.4907019042	0.0345323980
3429.4195092772	0.0344077013
3431.3483166503	0.0345141627
3433.2771240233	0.0343527943
3435.2059313963	0.0342515782
3437.1347387694	0.0341883376
3439.0635461424	0.0341734141
3440.9923535155	0.0340530723
3442.9211608885	0.0338568389
3444.8499682616	0.0339257345
3446.7787756346	0.0335659906
3448.7075830077	0.0337126851
3450.6363903807	0.0339205153
3452.5651977538	0.0336708874
3454.4940051268	0.0336989239
3456.4228124999	0.0335633010
3458.3516198729	0.0335521922
3460.2804272460	0.0334332138
3462.2092346190	0.0332760662
3464.1380419921	0.0333284289
3466.0668493651	0.0333541855
3467.9956567381	0.0333504602
3469.9244641112	0.0332721546
3471.8532714842	0.0331762210
3473.7820788573	0.0331155732
3475.7108862303	0.0331375301
3477.6396936034	0.0330740213
3479.5685009764	0.0328964218
3481.4973083495	0.0326073021
3483.4261157225	0.0328272134
3485.3549230956	0.0329450108
3487.2837304686	0.0327023901
3489.2125378417	0.0327970758
3491.1413452147	0.0326902047
3493.0701525878	0.0328064710
3494.9989599608	0.0327419490
3496.9277673338	0.0325944945
3498.8565747069	0.0327461362
3500.7853820799	0.0326242745
3502.7141894530	0.0322574303
3504.6429968260	0.0321411900
3506.5718041991	0.0326381400
3508.5006115721	0.0323605947
3510.4294189452	0.0321555249
3512.3582263182	0.0324748494
3514.2870336913	0.0324620456
3516.2158410643	0.0324508026
3518.1446484374	0.0322166756
3520.0734558104	0.0323788002
3522.0022631835	0.0321817175
3523.9310705565	0.0318633206
3525.8598779295	0.0319204479
3527.7886853026	0.0318384692
3529.7174926756	0.0320500880
3531.6463000487	0.0321623981
3533.5751074217	0.0322975852
3535.5039147948	0.0320379548
3537.4327221678	0.0318560116
3539.3615295409	0.0322317481
3541.2903369139	0.0321177095
3543.2191442870	0.0317734107
3545.1479516600	0.0313860439
3547.0767590331	0.0311497971
3549.0055664061	0.0317131430
3550.9343737792	0.0318151899
3552.8631811522	0.0312722959
3554.7919885252	0.0317376256
3556.7207958983	0.0318176225
3558.6496032713	0.0316331759
3560.5784106444	0.0316064768
3562.5072180174	0.0313917659
3564.4360253905	0.0315446034
3566.3648327635	0.0299070701
3568.2936401366	0.0293556713
3570.2224475096	0.0312842391
3572.1512548827	0.0316192694
3574.0800622557	0.0313322321
3576.0088696288	0.0315027386
3577.9376770018	0.0314026177
3579.8664843749	0.0313219540
3581.7952917479	0.0313164704
3583.7240991210	0.0315009803
3585.6529064940	0.0308189876
3587.5817138670	0.0289883018
3589.5105212401	0.0296439566
3591.4393286131	0.0313991234
3593.3681359862	0.0307521261
3595.2969433592	0.0303849615
3597.2257507323	0.0307973325
3599.1545581053	0.0308658127
3601.0833654784	0.0306354985
3603.0121728514	0.0308727250
3604.9409802245	0.0313527286
3606.8697875975	0.0304181688
3608.7985949706	0.0290438514
3610.7274023436	0.0296385288
3612.6562097167	0.0299674869
3614.5850170897	0.0294039212
3616.5138244627	0.0310009122
3618.4426318358	0.0290334634
3620.3714392088	0.0282948706
3622.3002465819	0.0310398489
3624.2290539549	0.0303966235
3626.1578613280	0.0314177498
3628.0866687010	0.0276395231
3630.0154760741	0.0258072242
3631.9442834471	0.0307149906
3633.8730908202	0.0299888887
3635.8018981932	0.0304634497
3637.7307055663	0.0309514403
3639.6595129393	0.0305707157
3641.5883203124	0.0308664199
3643.5171276854	0.0302524976
3645.4459350584	0.0305725206
3647.3747424315	0.0281534344
3649.3035498045	0.0262664147
3651.2323571776	0.0267490894
3653.1611645506	0.0304192603
3655.0899719237	0.0299299322
3657.0187792967	0.0275321770
3658.9475866698	0.0308263339
3660.8763940428	0.0302264094
3662.8052014159	0.0305149909
3664.7340087889	0.0303622223
3666.6628161620	0.0301272273
3668.5916235350	0.0295053944
3670.5204309081	0.0250373892
3672.4492382811	0.0290293582
3674.3780456541	0.0279841647
3676.3068530272	0.0242442489
3678.2356604002	0.0289539769
3680.1644677733	0.0295259058
3682.0932751463	0.0294990651
3684.0220825194	0.0300232992
3685.9508898924	0.0296546072
3687.8796972655	0.0270684063
3689.8085046385	0.0254089851
3691.7373120116	0.0284395292
3693.6661193846	0.0289228074
3695.5949267577	0.0294445567
3697.5237341307	0.0293538943
3699.4525415038	0.0290247276
3701.3813488768	0.0285009518
3703.3101562499	0.0277454257
3705.2389636229	0.0297995713
3707.1677709959	0.0284920782
3709.0965783690	0.0280281603
3711.0253857420	0.0266637132
3712.9541931151	0.0254447684
3714.8830004881	0.0288137384
3716.8118078612	0.0283416305
3718.7406152342	0.0285398085
3720.6694226073	0.0280015767
3722.5982299803	0.0272866525
3724.5270373534	0.0280311443
3726.4558447264	0.0263829604
3728.3846520995	0.0280496553
3730.3134594725	0.0276952498
3732.2422668456	0.0260906294
3734.1710742186	0.0256556738
3736.0998815916	0.0246372223
3738.0286889647	0.0256291218
3739.9574963377	0.0272342823
3741.8863037108	0.0282570608
3743.8151110838	0.0230180807
3745.7439184569	0.0221023262
3747.6727258299	0.0271499157
3749.6015332030	0.0241096206
3751.5303405760	0.0225956663
3753.4591479491	0.0251166634
3755.3879553221	0.0266599096
3757.3167626952	0.0274527278
3759.2455700682	0.0258572698
3761.1743774413	0.0265377220
3763.1031848143	0.0277020168
3765.0319921873	0.0262624528
3766.9607995604	0.0266603418
3768.8896069334	0.0263197254
3770.8184143065	0.0254856162
3772.7472216795	0.0271374919
3774.6760290526	0.0270870514
3776.6048364256	0.0270981379
3778.5336437987	0.0264463741
3780.4624511717	0.0256587043
3782.3912585448	0.0269405544
3784.3200659178	0.0264494382
3786.2488732909	0.0263513401
3788.1776806639	0.0266477093
3790.1064880370	0.0265759416
3792.0352954100	0.0263925828
3793.9641027830	0.0267306492
3795.8929101561	0.0255102143
3797.8217175291	0.0252281893
3799.7505249022	0.0261913612
3801.6793322752	0.0218000393
3803.6081396483	0.0247910824
3805.5369470213	0.0263374150
3807.4657543944	0.0224796124
3809.3945617674	0.0260421857
3811.3233691405	0.0255627912
3813.2521765135	0.0263944026
3815.1809838866	0.0241777115
3817.1097912596	0.0219629202
3819.0385986327	0.0262603089
3820.9674060057	0.0221974254
3822.8962133787	0.0232129693
3824.8250207518	0.0260390788
3826.7538281248	0.0241360404
3828.6826354979	0.0255329646
3830.6114428709	0.0246492140
3832.5402502440	0.0240254700
3834.4690576170	0.0244746264
3836.3978649901	0.0234149620
3838.3266723631	0.0215525553
3840.2554797362	0.0230677817
3842.1842871092	0.0243603569
3844.1130944823	0.0234966613
3846.0419018553	0.0250129309
3847.9707092284	0.0245619901
3849.8995166014	0.0246591214
3851.8283239745	0.0226222314
3853.7571313475	0.0179867260
3855.6859387205	0.0206038523
3857.6147460936	0.0247877836
3859.5435534666	0.0241087936
3861.4723608397	0.0239168592
3863.4011682127	0.0235200003
3865.3299755858	0.0221265890
3867.2587829588	0.0241170842
3869.1875903319	0.0224512480
3871.1163977049	0.0210705269
3873.0452050780	0.0240121260
3874.9740124510	0.0225649998
3876.9028198241	0.0238207486
3878.8316271971	0.0242353305
3880.7604345702	0.0216047876
3882.6892419432	0.0240317434
3884.6180493162	0.0227248929
3886.5468566893	0.0210897662
3888.4756640623	0.0239793696
3890.4044714354	0.0229347292
3892.3332788084	0.0218237787
3894.2620861815	0.0234472081
3896.1908935545	0.0236805789
3898.1197009276	0.0227968451
3900.0485083006	0.0217651166
3901.9773156737	0.0216771215
3903.9061230467	0.0213717297
3905.8349304198	0.0217387788
3907.7637377928	0.0233622789
3909.6925451659	0.0230715647
3911.6213525389	0.0230201911
3913.5501599119	0.0232820399
3915.4789672850	0.0226133689
3917.4077746580	0.0221428014
3919.3365820311	0.0219526179
3921.2653894041	0.0226583853
3923.1941967772	0.0226139240
3925.1230041502	0.0221793037
3927.0518115233	0.0224145576
3928.9806188963	0.0226354897
3930.9094262694	0.0222271383
3932.8382336424	0.0215774719
3934.7670410155	0.0221382044
3936.6958483885	0.0223170836
3938.6246557616	0.0222879313
3940.5534631346	0.0224362724
3942.4822705076	0.0217320882
3944.4110778807	0.0218271632
3946.3398852537	0.0221895278
3948.2686926268	0.0217433311
3950.1974999998	0.0216809176
3952.1263073729	0.0219484679
3954.0551147459	0.0219145641
3955.9839221190	0.0218074154
3957.9127294920	0.0217346828
3959.8415368651	0.0217339918
3961.7703442381	0.0216569491
3963.6991516112	0.0216466598
3965.6279589842	0.0216956399
3967.5567663573	0.0215774719
3969.4855737303	0.0215325132
3971.4143811034	0.0214162245
3973.3431884764	0.0214477647
3975.2719958494	0.0213446952
3977.2008032225	0.0212683529
3979.1296105955	0.0214591138
3981.0584179686	0.0212218836
3982.9872253416	0.0211059265
3984.9160327147	0.0211167745
3986.8448400877	0.0210839286
3988.7736474608	0.0210716017
3990.7024548338	0.0209458061
3992.6312622069	0.0209316798
3994.5600695799	0.0208463930
3996.4888769530	0.0207463689
3998.4176843260	0.0207630564
4000.3464916991	0.0207972936
4002.2752990721	0.0207048543
4004.2041064451	0.0206084810
4006.1329138182	0.0205425639
4008.0617211912	0.0205216557
4009.9905285643	0.0205051266
4011.9193359373	0.0204238407
4013.8481433104	0.0204450097
4015.7769506834	0.0203851704
4017.7057580565	0.0203571580
4019.6345654295	0.0202875957
4021.5633728026	0.0203139875
4023.4921801756	0.0202882998
4025.4209875487	0.0200304892
4027.3497949217	0.0200597122
4029.2786022948	0.0200025644
4031.2074096678	0.0200131536
4033.1362170408	0.0200037658
4035.0650244139	0.0198678281
4036.9938317869	0.0199444853
4038.9226391600	0.0198640712
4040.8514465330	0.0198056176
4042.7802539061	0.0197342876
4044.7090612791	0.0196853876
4046.6378686522	0.0196632911
4048.5666760252	0.0195903741
4050.4954833983	0.0195783731
4052.4242907713	0.0194090623
4054.3530981444	0.0193861909
4056.2819055174	0.0194084849
4058.2107128905	0.0193352140
4060.1395202635	0.0193201173
4062.0683276365	0.0192450304
4063.9971350096	0.0192152299
4065.9259423826	0.0191149618
4067.8547497557	0.0190913547
4069.7835571287	0.0191461705
4071.7123645018	0.0190548748
4073.6411718748	0.0190830845
4075.5699792479	0.0189864933
4077.4987866209	0.0188483391
4079.4275939940	0.0188713111
4081.3564013670	0.0188024454
4083.2852087401	0.0187860653
4085.2140161131	0.0187267736
4087.1428234862	0.0186997689
4089.0716308592	0.0186331905
4091.0004382323	0.0185740627
4092.9292456053	0.0186000615
4094.8580529783	0.0184516124
4096.7868603514	0.0184659138
4098.7156677244	0.0183934271
4100.6444750975	0.0183312595
4102.5732824705	0.0184002090
4104.5020898436	0.0182738043
4106.4308972166	0.0182156656
4108.3597045897	0.0181992836
4110.2885119627	0.0181410760
4112.2173193358	0.0180250555
4114.1461267088	0.0180797242
4116.0749340819	0.0180571508
4118.0037414549	0.0179694518
4119.9325488280	0.0179738253
4121.8613562010	0.0178679172
4123.7901635740	0.0179066062
4125.7189709471	0.0178160239
4127.6477783201	0.0178105570
4129.5765856932	0.0177446380
4131.5053930662	0.0176511370
4133.4342004393	0.0177343450
4135.3630078123	0.0175631326
4137.2918151854	0.0175254196
4139.2206225584	0.0174153671
4141.1494299315	0.0174262337
4143.0782373045	0.0174503997
4145.0070446776	0.0172899626
4146.9358520506	0.0173516124
4148.8646594237	0.0172857232
4150.7934667967	0.0172280520
4152.7222741697	0.0171533041
4154.6510815428	0.0171127915
4156.5798889158	0.0170609783
4158.5086962889	0.0169742964
4160.4375036619	0.0170041993
4162.3663110350	0.0169884991
4164.2951184080	0.0169321485
4166.2239257811	0.0168522857
4168.1527331541	0.0168910101
4170.0815405272	0.0167435985
4172.0103479002	0.0167328827
4173.9391552733	0.0167851038
4175.8679626463	0.0166740678
4177.7967700194	0.0167838000
4179.7255773924	0.0166840889
4181.6543847654	0.0165781379
4183.5831921385	0.0165169984
4185.5119995115	0.0165116042
4187.4408068846	0.0165206213
4189.3696142576	0.0163896903
4191.2984216307	0.0163964126
4193.2272290037	0.0163206365
4195.1560363768	0.0163276605
4197.0848437498	0.0163257606
4199.0136511229	0.0161934160
4200.9424584959	0.0161849372
4202.8712658690	0.0161798764
4204.8000732420	0.0160844736
4206.7288806151	0.0160757713
4208.6576879881	0.0160582513
4210.5864953611	0.0159445331
4212.5153027342	0.0159317702
4214.4441101072	0.0159111004
4216.3729174803	0.0159358606
4218.3017248533	0.0157674700
4220.2305322264	0.0156874359
4222.1593395994	0.0157384109
4224.0881469725	0.0156290364
4226.0169543455	0.0157514680
4227.9457617186	0.0156217348
4229.8745690916	0.0155102126
4231.8033764647	0.0155869005
4233.7321838377	0.0154537298
4235.6609912108	0.0153869176
4237.5897985838	0.0154360123
4239.5186059569	0.0154559575
4241.4474133299	0.0153871346
4243.3762207029	0.0153474137
4245.3050280760	0.0152023686
4247.2338354490	0.0152632482
4249.1626428221	0.0152441692
4251.0914501951	0.0151055017
4253.0202575682	0.0151826218
4254.9490649412	0.0151131116
4256.8778723143	0.0151043870
4258.8066796873	0.0149635375
4260.7354870604	0.0149923526
4262.6642944334	0.0149650797
4264.5931018065	0.0148279592
4266.5219091795	0.0148940440
4268.4507165526	0.0147226173
4270.3795239256	0.0148512451
4272.3083312986	0.0148365609
4274.2371386717	0.0147282798
4276.1659460447	0.0147659089
4278.0947534178	0.0146739185
4280.0235607908	0.0146639468
4281.9523681639	0.0145527245
4283.8811755369	0.0145860929
4285.8099829100	0.0145127019
4287.7387902830	0.0145162437
4289.6675976561	0.0145644061
4291.5964050291	0.0144298952
4293.5252124022	0.0144568952
4295.4540197752	0.0144329499
4297.3828271483	0.0143557042
4299.3116345213	0.0142014194
4301.2404418943	0.0141793601
4303.1692492674	0.0141629241
4305.0980566404	0.0141218267
4307.0268640135	0.0141493706
4308.9556713865	0.0140994620
4310.8844787596	0.0140567208
4312.8132861326	0.0139742754
4314.7420935057	0.0140163619
4316.6709008787	0.0139485933
4318.5997082518	0.0138950832
4320.5285156248	0.0139031503
4322.4573229979	0.0138463061
4324.3861303709	0.0138103403
4326.3149377440	0.0137261190
4328.2437451170	0.0137712173
4330.1725524900	0.0137191676
4332.1013598631	0.0137134902
4334.0301672361	0.0137124425
4335.9589746092	0.0136206858
4337.8877819822	0.0135772517
4339.8165893553	0.0134973396
4341.7453967283	0.0134559665
4343.6742041014	0.0134089291
4345.6030114744	0.0134265358
4347.5318188475	0.0133933304
4349.4606262205	0.0134309530
4351.3894335936	0.0133808888
4353.3182409666	0.0132977441
4355.2470483397	0.0133340722
4357.1758557127	0.0132709257
4359.1046630858	0.0132718394
4361.0334704588	0.0131345568
4362.9622778318	0.0131061561
4364.8910852049	0.0131444577
4366.8198925779	0.0131060900
4368.7486999510	0.0129465573
4370.6775073240	0.0128530301
4372.6063146971	0.0130111370
4374.5351220701	0.0128842779
4376.4639294432	0.0129364990
4378.3927368162	0.0128989462
4380.3215441893	0.0127909668
4382.2503515623	0.0128039252
4384.1791589354	0.0126770018
4386.1079663084	0.0127667123
4388.0367736815	0.0126730166
4389.9655810545	0.0126680909
4391.8943884275	0.0126513317
4393.8231958006	0.0125478823
4395.7520031736	0.0125288488
4397.6808105467	0.0125095285
4399.6096179197	0.0125628207
4401.5384252928	0.0124322958
4403.4672326658	0.0124444878
4405.3960400389	0.0123247653
4407.3248474119	0.0122925807
4409.2536547850	0.0122889727
4411.1824621580	0.0122335758
4413.1112695311	0.0123892222
4415.0400769041	0.0122169070
4416.9688842772	0.0122410953
4418.8976916502	0.0121784713
4420.8264990232	0.0120971762
4422.7553063963	0.0121670030
4424.6841137693	0.0120307207
4426.6129211424	0.0120521206
4428.5417285154	0.0120006884
4430.4705358885	0.0120049966
4432.3993432615	0.0119201541
4434.3281506346	0.0118772741
4436.2569580076	0.0119354259
4438.1857653807	0.0118271355
4440.1145727537	0.0117587503
4442.0433801268	0.0117790690
4443.9721874998	0.0118470006
4445.9009948729	0.0116729196
4447.8298022459	0.0116983587
4449.7586096189	0.0117241303
4451.6874169920	0.0115731834
4453.6162243650	0.0115673747
4455.5450317381	0.0115209911
4457.4738391111	0.0115497056
4459.4026464842	0.0114569301
4461.3314538572	0.0114700003
4463.2602612303	0.0114596495
4465.1890686033	0.0114201326
4467.1178759764	0.0114314035
4469.0466833494	0.0112618739
4470.9754907225	0.0113461846
4472.9042980955	0.0113014532
4474.8331054686	0.0112327458
4476.7619128416	0.0112386607
4478.6907202147	0.0111142490
4480.6195275877	0.0111938007
4482.5483349607	0.0111517683
4484.4771423338	0.0110304542
4486.4059497068	0.0110510364
4488.3347570799	0.0111138709
4490.2635644529	0.0110685071
4492.1923718260	0.0109866094
4494.1211791990	0.0110161491
4496.0499865721	0.0109805912
4497.9787939451	0.0109790955
4499.9076013182	0.0109724663
4501.8364086912	0.0108880214
4503.7652160643	0.0108694490
4505.6940234373	0.0107747540
4507.6228308104	0.0107108913
4509.5516381834	0.0107821897
4511.4804455564	0.0107058454
4513.4092529295	0.0106256846
4515.3380603025	0.0106632989
4517.2668676756	0.0106795244
4519.1956750486	0.0106527489
4521.1244824217	0.0106091555
4523.0532897947	0.0105811916
4524.9820971678	0.0104639009
4526.9109045408	0.0104481634
4528.8397119139	0.0104763173
4530.7685192869	0.0104560275
4532.6973266600	0.0105010131
4534.6261340330	0.0104154684
4536.5549414061	0.0103742145
4538.4837487791	0.0103165256
4540.4125561521	0.0102305003
4542.3413635252	0.0102721024
4544.2701708982	0.0102555919
4546.1989782713	0.0102696959
4548.1277856443	0.0102167875
4550.0565930174	0.0101543916
4551.9854003904	0.0101719480
4553.9142077635	0.0100812614
4555.8430151365	0.0100482143
4557.7718225096	0.0100123491
4559.7006298826	0.0099837985
4561.6294372557	0.0100249127
4563.5582446287	0.0099023264
4565.4870520018	0.0099106580
4567.4158593748	0.0099840760
4569.3446667478	0.0099037327
4571.2734741209	0.0099029355
4573.2022814939	0.0098293498
4575.1310888670	0.0097954497
4577.0598962400	0.0097935814
4578.9887036131	0.0097573614
4580.9175109861	0.0097531639
4582.8463183592	0.0096465051
4584.7751257322	0.0096860239
4586.7039331053	0.0096302573
4588.6327404783	0.0095234625
4590.5615478514	0.0096298829
4592.4903552244	0.0095582446
4594.4191625975	0.0094860718
4596.3479699705	0.0094962362
4598.2767773435	0.0094940886
4600.2055847166	0.0094966935
4602.1343920896	0.0094010774
4604.0631994627	0.0093931444
4605.9920068357	0.0094029717
4607.9208142088	0.0093790358
4609.8496215818	0.0093473680
4611.7784289549	0.0092502087
4613.7072363279	0.0092920288
4615.6360437010	0.0092757884
4617.5648510740	0.0091830399
4619.4936584471	0.0092005357
4621.4224658201	0.0091787698
4623.3512731932	0.0091591943
4625.2800805662	0.0091172839
4627.2088879393	0.0091150645
4629.1376953123	0.0090878885
4631.0665026853	0.0090780202
4632.9953100584	0.0090504978
4634.9241174314	0.0089298878
4636.8529248045	0.0090539474
4638.7817321775	0.0090099806
4640.7105395506	0.0089133903
4642.6393469236	0.0089220032
4644.5681542967	0.0088359928
4646.4969616697	0.0089200074
4648.4257690428	0.0088460362
4650.3545764158	0.0088067353
4652.2833837889	0.0088821873
4654.2121911619	0.0088391509
4656.1409985350	0.0087417495
4658.0698059080	0.0086951125
4659.9986132810	0.0087687457
4661.9274206541	0.0086798212
4663.8562280271	0.0086086262
4665.7850354002	0.0086087435
4667.7138427732	0.0086321374
4669.6426501463	0.0085675064
4671.5714575193	0.0085518770
4673.5002648924	0.0086035039
4675.4290722654	0.0084720664
4677.3578796385	0.0085103661
4679.2866870115	0.0084143057
4681.2154943846	0.0084206546
4683.1443017576	0.0084433071
4685.0731091307	0.0082953535
4687.0019165037	0.0084101222
4688.9307238767	0.0083071357
4690.8595312498	0.0083090495
4692.7883386228	0.0083176233
4694.7171459959	0.0082577979
4696.6459533689	0.0083030406
4698.5747607420	0.0082079545
4700.5035681150	0.0082731349
4702.4323754881	0.0081755109
4704.3611828611	0.0081615783
4706.2899902342	0.0082701519
4708.2187976072	0.0081275105
4710.1476049803	0.0080563454
4712.0764123533	0.0080540515
4714.0052197264	0.0080997869
4715.9340270994	0.0081053879
4717.8628344724	0.0080313496
4719.7916418455	0.0080012120
4721.7204492185	0.0079864934
4723.6492565916	0.0079284944
4725.5780639646	0.0079169041
4727.5068713377	0.0078749564
4729.4356787107	0.0078557432
4731.3644860838	0.0079130698
4733.2932934568	0.0078422995
4735.2221008299	0.0078088450
4737.1509082029	0.0078093703
4739.0797155760	0.0077971183
4741.0085229490	0.0077509424
4742.9373303221	0.0077471342
4744.8661376951	0.0076958910
4746.7949450682	0.0076011750
4748.7237524412	0.0077385474
4750.6525598142	0.0076675746
4752.5813671873	0.0075744893
4754.5101745603	0.0076338453
4756.4389819334	0.0076359333
4758.3677893064	0.0076281889
4760.2965966795	0.0075205341
4762.2254040525	0.0075465152
4764.1542114256	0.0075218603
4766.0830187986	0.0074165231
4768.0118261717	0.0074615255
4769.9406335447	0.0075001204
4771.8694409178	0.0074459072
4773.7982482908	0.0074228575
4775.7270556639	0.0074170157
4777.6558630369	0.0073481929
4779.5846704099	0.0073505891
4781.5134777830	0.0073133274
4783.4422851560	0.0073287128
4785.3710925291	0.0072756028
4787.2998999021	0.0071837045
4789.2287072752	0.0072582690
4791.1575146482	0.0071988199
4793.0863220213	0.0071797464
4795.0151293943	0.0072110714
4796.9439367674	0.0071939593
4798.8727441404	0.0071375770
4800.8015515135	0.0070881858
4802.7303588865	0.0071329465
4804.6591662596	0.0070965732
4806.5879736326	0.0070543513
4808.5167810056	0.0070878034
4810.4455883787	0.0071060192
4812.3743957517	0.0069883894
4814.3032031248	0.0069010458
4816.2320104978	0.0068958029
4818.1608178709	0.0069300309
4820.0896252439	0.0069615394
4822.0184326170	0.0068621552
4823.9472399900	0.0068197120
4825.8760473631	0.0068041286
4827.8048547361	0.0068045277
4829.7336621092	0.0067623192
4831.6624694822	0.0067803622
4833.5912768553	0.0068732095
4835.5200842283	0.0067796791
4837.4488916013	0.0067075798
4839.3776989744	0.0067027258
4841.3065063474	0.0067052683
4843.2353137205	0.0066853701
4845.1641210935	0.0066979611
4847.0929284666	0.0066610924
4849.0217358396	0.0066221561
4850.9505432127	0.0066445158
4852.8793505857	0.0065671448
4854.8081579588	0.0066282763
4856.7369653318	0.0066410871
4858.6657727049	0.0065706614
4860.5945800779	0.0065397415
4862.5233874510	0.0064848475
4864.4521948240	0.0064780032
4866.3810021971	0.0065028425
4868.3098095701	0.0064560622
4870.2386169431	0.0063417861
4872.1674243162	0.0064881830
4874.0962316892	0.0065055890
4876.0250390623	0.0064141853
4877.9538464353	0.0063900519
4879.8826538084	0.0062945727
4881.8114611814	0.0063268966
4883.7402685545	0.0062207654
4885.6690759275	0.0062229633
4887.5978833006	0.0062505594
4889.5266906736	0.0062374678
4891.4554980467	0.0062435819
4893.3843054197	0.0061491970
4895.3131127928	0.0062377974
4897.2419201658	0.0062034852
4899.1707275388	0.0061375722
4901.0995349119	0.0060648732
4903.0283422849	0.0061017768
4904.9571496580	0.0061783502
4906.8859570310	0.0060284762
4908.8147644041	0.0060820961
4910.7435717771	0.0060847476
4912.6723791502	0.0060499022
4914.6011865232	0.0060689971
4916.5299938963	0.0060274606
4918.4588012693	0.0059947204
4920.3876086424	0.0059601525
4922.3164160154	0.0059239487
4924.2452233885	0.0058940975
4926.1740307615	0.0059566861
4928.1028381345	0.0058837477
4930.0316455076	0.0058613629
4931.9604528806	0.0058364626
4933.8892602537	0.0057999296
4935.8180676267	0.0058257226
4937.7468749998	0.0057234881
4939.6756823728	0.0057916441
4941.6044897459	0.0058314186
4943.5332971189	0.0058005671
4945.4621044920	0.0057047694
4947.3909118650	0.0057114977
4949.3197192381	0.0057777632
4951.2485266111	0.0056595379
4953.1773339842	0.0057488084
4955.1061413572	0.0057116738
4957.0349487302	0.0056639831
4958.9637561033	0.0056684273
4960.8925634763	0.0055859219
4962.8213708494	0.0056693703
4964.7501782224	0.0056486893
4966.6789855955	0.0056006964
4968.6077929685	0.0055688228
4970.5366003416	0.0055844067
4972.4654077146	0.0055885045
4974.3942150877	0.0054934537
4976.3230224607	0.0054555126
4978.2518298338	0.0054817097
4980.1806372068	0.0054918770
4982.1094445799	0.0054205395
4984.0382519529	0.0054328386
4985.9670593259	0.0054055965
4987.8958666990	0.0053508938
4989.8246740720	0.0053344034
4991.7534814451	0.0053962748
4993.6822888181	0.0054746605
4995.6110961912	0.0053195073
4997.5399035642	0.0052911830
4999.4687109373	0.0053239781
5001.3975183103	0.0052957758
5003.3263256834	0.0053123748
5005.2551330564	0.0052843122
5007.1839404295	0.0052479398
5009.1127478025	0.0051839827
5011.0415551756	0.0052004224
5012.9703625486	0.0051448802
5014.8991699217	0.0051331189
5016.8279772947	0.0052392655
5018.7567846677	0.0051699779
5020.6855920408	0.0051494725
5022.6143994138	0.0051775388
5024.5432067869	0.0051254248
5026.4720141599	0.0050902590
5028.4008215330	0.0050586001
5030.3296289060	0.0050545363
5032.2584362791	0.0050353096
5034.1872436521	0.0050282972
5036.1160510252	0.0050752703
5038.0448583982	0.0049948059
5039.9736657713	0.0049483795
5041.9024731443	0.0050150435
5043.8312805174	0.0049286387
5045.7600878904	0.0049357028
5047.6888952634	0.0050163898
5049.6177026365	0.0049263667
5051.5465100095	0.0049257334
5053.4753173826	0.0049341479
5055.4041247556	0.0048589744
5057.3329321287	0.0048761014
5059.2617395017	0.0048406776
5061.1905468748	0.0048345723
5063.1193542478	0.0048749326
5065.0481616209	0.0047820243
5066.9769689939	0.0047985511
5068.9057763670	0.0048088594
5070.8345837400	0.0047185645
5072.7633911131	0.0047236071
5074.6921984861	0.0047503961
5076.6210058591	0.0047592614
5078.5498132322	0.0047096759
5080.4786206052	0.0046921866
5082.4074279783	0.0046898406
5084.3362353513	0.0046748566
5086.2650427244	0.0046418919
5088.1938500974	0.0045644902
5090.1226574705	0.0046165884
5092.0514648435	0.0046229661
5093.9802722166	0.0045676166
5095.9090795896	0.0045951460
5097.8378869627	0.0045919158
5099.7666943357	0.0045246743
5101.6955017088	0.0044778530
5103.6243090818	0.0045248843
5105.5531164548	0.0045608571
5107.4819238279	0.0045183129
5109.4107312009	0.0044278377
5111.3395385740	0.0044467105
5113.2683459470	0.0044750571
5115.1971533201	0.0044142706
5117.1259606931	0.0044389050
5119.0547680662	0.0044431058
5120.9835754392	0.0044324417
5122.9123828123	0.0043512685
5124.8411901853	0.0042990237
5126.7699975584	0.0043822513
5128.6988049314	0.0043514669
5130.6276123045	0.0043340325
5132.5564196775	0.0043134419
5134.4852270506	0.0043197605
5136.4140344236	0.0043927692
5138.3428417966	0.0043449169
5140.2716491697	0.0043048202
5142.2004565427	0.0042727515
5144.1292639158	0.0043345932
5146.0580712888	0.0043498068
5147.9868786619	0.0042355843
5149.9156860349	0.0042564604
5151.8444934080	0.0041989982
5153.7733007810	0.0041849138
5155.7021081541	0.0041817781
5157.6309155271	0.0041580619
5159.5597229002	0.0042630979
5161.4885302732	0.0041119368
5163.4173376463	0.0040952880
5165.3461450193	0.0041802926
5167.2749523923	0.0040773042
5169.2037597654	0.0041060671
5171.1325671384	0.0040106336
5173.0613745115	0.0039923498
5174.9901818845	0.0041076215
5176.9189892576	0.0041024797
5178.8477966306	0.0041011735
5180.7766040037	0.0040302123
5182.7054113767	0.0040174918
5184.6342187498	0.0040274784
5186.5630261228	0.0039436677
5188.4918334959	0.0039598737
5190.4206408689	0.0039956626
5192.3494482420	0.0039450079
5194.2782556150	0.0039753737
5196.2070629880	0.0039270543
5198.1358703611	0.0038595572
5200.0646777341	0.0039401520
5201.9934851072	0.0038907491
5203.9222924802	0.0038867146
5205.8510998533	0.0038487441
5207.7799072263	0.0037748357
5209.7087145994	0.0038620732
5211.6375219724	0.0038220580
5213.5663293455	0.0038276026
5215.4951367185	0.0037936149
5217.4239440916	0.0037702387
5219.3527514646	0.0039037874
5221.2815588377	0.0037707970
5223.2103662107	0.0037243639
5225.1391735837	0.0038059722
5227.0679809568	0.0037042077
5228.9967883298	0.0037402613
5230.9255957029	0.0037012296
5232.8544030759	0.0036274148
5234.7832104490	0.0037368718
5236.7120178220	0.0037007118
5238.6408251951	0.0036583955
5240.5696325681	0.0036670321
5242.4984399412	0.0036691451
5244.4272473142	0.0036276379
5246.3560546873	0.0035754773
5248.2848620603	0.0035921882
5250.2136694334	0.0035245903
5252.1424768064	0.0036124713
5254.0712841795	0.0035556629
5256.0000915525	0.0034405012
5257.9288989255	0.0035838587
5259.8577062986	0.0035326879
5261.7865136716	0.0034971102
5263.7153210447	0.0034581688
5265.6441284177	0.0034911595
5267.5729357908	0.0036021783
5269.5017431638	0.0035221060
5271.4305505369	0.0035470091
5273.3593579099	0.0035321959
5275.2881652830	0.0034486791
5277.2169726560	0.0034501601
5279.1457800291	0.0034692269
5281.0745874021	0.0034237767
5283.0033947752	0.0033800707
5284.9322021482	0.0034522014
5286.8610095212	0.0034935181
5288.7898168943	0.0034159301
5290.7186242673	0.0033554574
5292.6474316404	0.0033932584
5294.5762390134	0.0033491612
5296.5050463865	0.0034009025
5298.4338537595	0.0034134309
5300.3626611326	0.0033148557
5302.2914685056	0.0033900160
5304.2202758787	0.0033656852
5306.1490832517	0.0033151973
5308.0778906248	0.0032738219
5310.0066979978	0.0032372992
5311.9355053709	0.0032374184
5313.8643127439	0.0032524066
5315.7931201169	0.0032932432
5317.7219274900	0.0032545491
5319.6507348630	0.0032689637
5321.5795422361	0.0032414286
5323.5083496091	0.0032860581
5325.4371569822	0.0032773349
5327.3659643552	0.0032057278
5329.2947717283	0.0032557757
5331.2235791013	0.0032102154
5333.1523864744	0.0031743846
5335.0811938474	0.0031510161
5337.0100012205	0.0031810058
5338.9388085935	0.0030461829
5340.8676159666	0.0030922852
5342.7964233396	0.0032413565
5344.7252307126	0.0030078208
5346.6540380857	0.0030926960
5348.5828454587	0.0031017652
5350.5116528318	0.0030733130
5352.4404602048	0.0031173937
5354.3692675779	0.0028965529
5356.2980749509	0.0030023672
5358.2268823240	0.0030795564
5360.1556896970	0.0030570580
5362.0844970701	0.0030384115
5364.0133044431	0.0029438587
5365.9421118162	0.0030569495
5367.8709191892	0.0030828444
5369.7997265623	0.0029947208
5371.7285339353	0.0030372737
5373.6573413083	0.0030105570
5375.5861486814	0.0029138792
5377.5149560544	0.0029895545
5379.4437634275	0.0029859904
5381.3725708005	0.0029871622
5383.3013781736	0.0030419165
5385.2301855466	0.0029088440
5387.1589929197	0.0028891130
5389.0878002927	0.0029130206
5391.0166076658	0.0028617620
5392.9454150388	0.0028657382
5394.8742224119	0.0028507658
5396.8030297849	0.0027979277
5398.7318371580	0.0028338612
5400.6606445310	0.0029093479
5402.5894519041	0.0028904923
5404.5182592771	0.0028067352
5406.4470666501	0.0027643805
5408.3758740232	0.0028386468
5410.3046813962	0.0027872706
5412.2334887693	0.0027308953
5414.1622961423	0.0027504331
5416.0911035154	0.0027187744
5418.0199108884	0.0027455813
5419.9487182615	0.0027573754
5421.8775256345	0.0028031513
5423.8063330076	0.0027348250
5425.7351403806	0.0026860023
5427.6639477537	0.0027300727
5429.5927551267	0.0026699502
5431.5215624998	0.0027172230
5433.4503698728	0.0027417652
5435.3791772458	0.0027011773
5437.3079846189	0.0026902002
5439.2367919919	0.0026871841
5441.1655993650	0.0026565660
5443.0944067380	0.0026508232
5445.0232141111	0.0026527692
5446.9520214841	0.0026149484
5448.8808288572	0.0026628149
5450.8096362302	0.0026147838
5452.7384436033	0.0026139286
5454.6672509763	0.0026262361
5456.5960583494	0.0025851368
5458.5248657224	0.0026162905
5460.4536730955	0.0025498490
5462.3824804685	0.0025738948
5464.3112878415	0.0025840085
5466.2400952146	0.0025815691
5468.1689025876	0.0025861049
5470.0977099607	0.0025457530
5472.0265173337	0.0025708252
5473.9553247068	0.0025034063
5475.8841320798	0.0024924572
5477.8129394529	0.0024850746
5479.7417468259	0.0025442289
5481.6705541990	0.0025558406
5483.5993615720	0.0024626218
5485.5281689451	0.0025718431
5487.4569763181	0.0024815577
5489.3857836912	0.0023991284
5491.3145910642	0.0024452833
5493.2433984372	0.0023978520
5495.1722058103	0.0024915210
5497.1010131833	0.0024913449
5499.0298205564	0.0024107129
5500.9586279294	0.0023930403
5502.8874353025	0.0024116088
5504.8162426755	0.0024280497
5506.7450500486	0.0023755040
5508.6738574216	0.0024099867
5510.6026647947	0.0023870335
5512.5314721677	0.0023610306
5514.4602795408	0.0024399639
5516.3890869138	0.0023994022
5518.3178942869	0.0024027242
5520.2467016599	0.0023564827
5522.1755090330	0.0022790204
5524.1043164060	0.0023831166
5526.0331237790	0.0023053377
5527.9619311521	0.0022455715
5529.8907385251	0.0023292389
5531.8195458982	0.0023203630
5533.7483532712	0.0023696595
5535.6771606443	0.0023316084
5537.6059680173	0.0022747107
5539.5347753904	0.0022806174
5541.4635827634	0.0022638543
5543.3923901365	0.0022878540
5545.3211975095	0.0022534477
5547.2500048826	0.0022448373
5549.1788122556	0.0022425116
5551.1076196287	0.0022108783
5553.0364270017	0.0022089609
5554.9652343747	0.0022088028
5556.8940417478	0.0022037725
5558.8228491208	0.0021683902
5560.7516564939	0.0022152239
5562.6804638669	0.0022521613
5564.6092712400	0.0022194404
5566.5380786130	0.0022059970
5568.4668859861	0.0022045781
5570.3956933591	0.0022012196
5572.3245007322	0.0021311783
5574.2533081052	0.0021428363
5576.1821154783	0.0021670759
5578.1109228513	0.0020805504
5580.0397302244	0.0020779958
5581.9685375974	0.0021060095
5583.8973449704	0.0021318858
5585.8261523435	0.0022098292
5587.7549597165	0.0021778068
5589.6837670896	0.0020975927
5591.6125744626	0.0021356051
5593.5413818357	0.0021289894
5595.4701892087	0.0020836671
5597.3989965818	0.0020874173
5599.3278039548	0.0020762910
5601.2566113279	0.0020713184
5603.1854187009	0.0021105483
5605.1142260740	0.0021055425
5607.0430334470	0.0019897758
5608.9718408201	0.0020679678
5610.9006481931	0.0021243831
5612.8294555661	0.0020400863
5614.7582629392	0.0020801332
5616.6870703122	0.0019717207
5618.6158776853	0.0019773711
5620.5446850583	0.0020210845
5622.4734924314	0.0019807469
5624.4022998044	0.0020847898
5626.3311071775	0.0019999132
5628.2599145505	0.0019616000
5630.1887219236	0.0020047438
5632.1175292966	0.0019820433
5634.0463366697	0.0019736791
5635.9751440427	0.0019281388
5637.9039514158	0.0019393081
5639.8327587888	0.0019734614
5641.7615661619	0.0020101187
5643.6903735349	0.0019378257
5645.6191809079	0.0019333237
5647.5479882810	0.0019613826
5649.4767956540	0.0019029526
5651.4056030271	0.0019670667
5653.3344104001	0.0019315509
5655.2632177732	0.0019057587
5657.1920251462	0.0019348762
5659.1208325193	0.0018913010
5661.0496398923	0.0019119685
5662.9784472654	0.0018799563
5664.9072546384	0.0018045530
5666.8360620115	0.0018450912
5668.7648693845	0.0018572127
5670.6936767576	0.0017905689
5672.6224841306	0.0018767440
5674.5512915036	0.0018958156
5676.4800988767	0.0017850281
5678.4089062497	0.0017841255
5680.3377136228	0.0018475538
5682.2665209958	0.0018708871
5684.1953283689	0.0018103025
5686.1241357419	0.0018242041
5688.0529431150	0.0018189673
5689.9817504880	0.0018016945
5691.9105578611	0.0017979108
5693.8393652341	0.0016833241
5695.7681726072	0.0016976161
5697.6969799802	0.0017633571
5699.6257873533	0.0017304223
5701.5545947263	0.0017565895
5703.4834020993	0.0018059692
5705.4122094724	0.0017419608
5707.3410168454	0.0017226206
5709.2698242185	0.0017667413
5711.1986315915	0.0017265368
5713.1274389646	0.0016919328
5715.0562463376	0.0017093788
5716.9850537107	0.0016961799
5718.9138610837	0.0016434271
5720.8426684568	0.0017054474
5722.7714758298	0.0016967163
5724.7002832029	0.0016889690
5726.6290905759	0.0017416279
5728.5578979490	0.0016387453
5730.4867053220	0.0016593075
5732.4155126950	0.0016844298
5734.3443200681	0.0016945933
5736.2731274411	0.0016403028
5738.2019348142	0.0015629833
5740.1307421872	0.0016895405
5742.0595495603	0.0016235054
5743.9883569333	0.0015415158
5745.9171643064	0.0016060747
5747.8459716794	0.0016155057
5749.7747790525	0.0015457692
5751.7035864255	0.0015714166
5753.6323937986	0.0015978612
5755.5612011716	0.0014851516
5757.4900085447	0.0015725072
5759.4188159177	0.0015863649
5761.3476232907	0.0015442474
5763.2764306638	0.0015423136
5765.2052380368	0.0015033684
5767.1340454099	0.0015847555
5769.0628527829	0.0015651536
5770.9916601560	0.0015583467
5772.9204675290	0.0015584569
5774.8492749021	0.0015821551
5776.7780822751	0.0016212750
5778.7068896482	0.0015554824
5780.6356970212	0.0015585808
5782.5645043943	0.0015312813
5784.4933117673	0.0014806322
5786.4221191404	0.0014510301
5788.3509265134	0.0014656818
5790.2797338865	0.0015474533
5792.2085412595	0.0015524146
5794.1373486325	0.0014587805
5796.0661560056	0.0014475826
5797.9949633786	0.0014702225
5799.9237707517	0.0014518052
5801.8525781247	0.0014598607
5803.7813854978	0.0014003265
5805.7101928708	0.0014527247
5807.6390002439	0.0015073342
5809.5678076169	0.0014971395
5811.4966149900	0.0014920295
5813.4254223630	0.0014165817
5815.3542297361	0.0014240462
5817.2830371091	0.0014104263
5819.2118444822	0.0014461571
5821.1406518552	0.0014287152
5823.0694592282	0.0013996222
5824.9982666013	0.0014207986
5826.9270739743	0.0013346821
5828.8558813474	0.0013821875
5830.7846887204	0.0013945097
5832.7134960935	0.0013691874
5834.6423034665	0.0013474273
5836.5711108396	0.0013506308
5838.4999182126	0.0013549221
5840.4287255857	0.0013049259
5842.3575329587	0.0014372882
5844.2863403318	0.0014250814
5846.2151477048	0.0013425994
5848.1439550779	0.0013512806
5850.0727624509	0.0013574916
5852.0015698239	0.0014092071
5853.9303771970	0.0013839474
5855.8591845700	0.0013663189
5857.7879919431	0.0013500601
5859.7167993161	0.0013319242
5861.6456066892	0.0012905239
5863.5744140622	0.0013091130
5865.5032214353	0.0013644721
5867.4320288083	0.0013311479
5869.3608361814	0.0013231440
5871.2896435544	0.0012734701
5873.2184509275	0.0012655890
5875.1472583005	0.0012572315
5877.0760656736	0.0012437019
5879.0048730466	0.0013074114
5880.9336804196	0.0012499883
5882.8624877927	0.0012315148
5884.7912951657	0.0013144778
5886.7201025388	0.0012668723
5888.6489099118	0.0011955851
5890.5777172849	0.0012371859
5892.5065246579	0.0012767196
5894.4353320310	0.0011935560
5896.3641394040	0.0011735745
5898.2929467771	0.0013113512
5900.2217541501	0.0012602550
5902.1505615232	0.0012190128
5904.0793688962	0.0012695347
5906.0081762693	0.0011621759
5907.9369836423	0.0011707933
5909.8657910154	0.0012227106
5911.7945983884	0.0012253902
5913.7234057614	0.0011895400
5915.6522131345	0.0012254354
5917.5810205075	0.0012769075
5919.5098278806	0.0011517953
5921.4386352536	0.0011576664
5923.3674426267	0.0011625128
5925.2962499997	0.0011379381
5927.2250573728	0.0011193824
5929.1538647458	0.0011107484
5931.0826721189	0.0011948218
5933.0114794919	0.0011765596
5934.9402868650	0.0011289371
5936.8690942380	0.0010990736
5938.7979016111	0.0011659388
5940.7267089841	0.0011462430
5942.6555163571	0.0011338778
5944.5843237302	0.0011715363
5946.5131311032	0.0010875000
5948.4419384763	0.0011432650
5950.3707458493	0.0011347486
5952.2995532224	0.0011215423
5954.2283605954	0.0010587377
5956.1571679685	0.0010356240
5958.0859753415	0.0011495072
5960.0147827146	0.0010713473
5961.9435900876	0.0011012770
5963.8723974607	0.0011370298
5965.8012048337	0.0011207936
5967.7300122068	0.0011166331
5969.6588195798	0.0010772207
5971.5876269528	0.0011059581
5973.5164343259	0.0010982066
5975.4452416989	0.0010271473
5977.3740490720	0.0009694874
5979.3028564450	0.0010324850
5981.2316638181	0.0010095607
5983.1604711911	0.0010306167
5985.0892785642	0.0010725919
5987.0180859372	0.0010256048
5988.9468933103	0.0010317335
5990.8757006833	0.0009867677
5992.8045080564	0.0010614672
5994.7333154294	0.0010619287
5996.6621228025	0.0010474222
5998.5909301755	0.0010454862
6000.5197375485	0.0010089852
