399.2631262207	0.0016630335
401.1919335938	0.0017012904
403.1207409668	0.0020961277
405.0495483398	0.0023527537
406.9783557129	0.0020411359
408.9071630859	0.0022298743
410.8359704590	0.0027165036
412.7647778320	0.0028230371
414.6935852051	0.0028926928
416.6223925781	0.0025930721
418.5511999512	0.0023954343
420.4800073242	0.0026545678
422.4088146973	0.0028272250
424.3376220703	0.0026470718
426.2664294434	0.0026142315
428.1952368164	0.0026026461
430.1240441895	0.0026441517
432.0528515625	0.0030730246
433.9816589355	0.0025290647
435.9104663086	0.0022758148
437.8392736816	0.0029136897
439.7680810547	0.0025349008
441.6968884277	0.0021445802
443.6256958008	0.0024784971
445.5545031738	0.0027779690
447.4833105469	0.0025439309
449.4121179199	0.0020028248
451.3409252930	0.0018673630
453.2697326660	0.0022199489
455.1985400391	0.0020355443
457.1273474121	0.0015044505
459.0561547852	0.0018388885
460.9849621582	0.0017985849
462.9137695313	0.0013897271
464.8425769043	0.0014012682
466.7713842773	0.0011244470
468.7001916504	0.0008643129
470.6289990234	0.0010547326
472.5578063965	0.0012545033
474.4866137695	0.0010400552
476.4154211426	0.0010551896
478.3442285156	0.0010869233
480.2730358887	0.0007383698
482.2018432617	0.0005766043
484.1306506348	0.0006906060
486.0594580078	0.0006416892
487.9882653809	0.0005427786
489.9170727539	0.0009519458
491.8458801270	0.0006275839
493.7746875000	0.0004838069
495.7034948730	0.0009289886
497.6323022461	0.0001754884
499.5611096191	0.0002519187
501.4899169922	0.0008013294
503.4187243652	0.0004078997
505.3475317383	0.0003500063
507.2763391113	0.0003344379
509.2051464844	0.0003359474
511.1339538574	0.0005162605
513.0627612305	0.0006767682
514.9915686035	0.0007362548
516.9203759766	0.0005763731
518.8491833496	0.0002642266
520.7779907227	-0.0000302981
522.7067980957	0.0000713491
524.6356054688	0.0005281700
526.5644128418	0.0006391586
528.4932202148	0.0004207267
530.4220275879	0.0006152915
532.3508349609	0.0004143737
534.2796423340	0.0002825361
536.2084497070	0.0003510943
538.1372570801	0.0000916427
540.0660644531	0.0005631576
541.9948718262	0.0002602136
543.9236791992	0.0002287114
545.8524865723	0.0008996482
547.7812939453	0.0002084860
549.7101013184	0.0004367023
551.6389086914	0.0004711453
553.5677160645	-0.0004230738
555.4965234375	0.0000457781
557.4253308105	0.0001218622
559.3541381836	-0.0001582092
561.2829455566	0.0003633053
563.2117529297	0.0001959814
565.1405603027	-0.0001685474
567.0693676758	0.0003128851
568.9981750488	0.0002592624
570.9269824219	0.0000844166
572.8557897949	0.0003066807
574.7845971680	-0.0000543213
576.7134045410	-0.0000754459
578.6422119141	0.0000535875
580.5710192871	0.0000757677
582.4998266602	0.0004090437
584.4286340332	0.0004515984
586.3574414063	0.0003578861
588.2862487793	0.0004799215
590.2150561523	0.0004714122
592.1438635254	0.0000258078
594.0726708984	0.0004595258
596.0014782715	0.0009574993
597.9302856445	0.0001260250
599.8590930176	0.0002717149
601.7879003906	0.0003281884
603.7167077637	-0.0001661154
605.6455151367	0.0002929061
607.5743225098	0.0001052739
609.5031298828	0.0004371526
611.4319372559	0.0002937369
613.3607446289	0.0000147760
615.2895520020	0.0002413653
617.2183593750	0.0000028226
619.1471667480	0.0002064733
621.0759741211	0.0001479207
623.0047814941	0.0000625628
624.9335888672	0.0002758226
626.8623962402	0.0001956353
628.7912036133	-0.0000371861
630.7200109863	0.0005737885
632.6488183594	0.0012020569
634.5776257324	0.0011671928
636.5064331055	0.0017201300
638.4352404785	0.0021266523
640.3640478516	0.0022590142
642.2928552246	0.0023360648
644.2216625977	0.0026494178
646.1504699707	0.0031815765
648.0792773438	0.0027604741
650.0080847168	0.0028092195
651.9368920898	0.0031167637
653.8656994629	0.0029770748
655.7945068359	0.0035245973
657.7233142090	0.0037805296
659.6521215820	0.0037416322
661.5809289551	0.0038957777
663.5097363281	0.0043424508
665.4385437012	0.0046096384
667.3673510742	0.0039471905
669.2961584473	0.0041755377
671.2249658203	0.0050215572
673.1537731934	0.0050458205
675.0825805664	0.0050033680
677.0113879395	0.0052966890
678.9401953125	0.0055501624
680.8690026855	0.0055107288
682.7978100586	0.0056836214
684.7266174316	0.0055551976
686.6554248047	0.0053388095
688.5842321777	0.0055006752
690.5130395508	0.0054745562
692.4418469238	0.0058532422
694.3706542969	0.0061559593
696.2994616699	0.0068473071
698.2282690430	0.0082776230
700.1570764160	0.0086224843
702.0858837891	0.0082014389
704.0146911621	0.0078475242
705.9434985352	0.0067754667
707.8723059082	0.0055520413
709.8011132813	0.0049563795
711.7299206543	0.0033131451
713.6587280273	0.0015429293
715.5875354004	0.0011671612
717.5163427734	0.0008574265
719.4451501465	0.0005002076
721.3739575195	0.0002397482
723.3027648926	0.0004109780
725.2315722656	0.0005466209
727.1603796387	0.0001081073
729.0891870117	-0.0000599984
731.0179943848	0.0001460004
732.9468017578	0.0002543389
734.8756091309	0.0001275435
736.8044165039	0.0002967845
738.7332238770	0.0002793953
740.6620312500	0.0001457661
742.5908386230	0.0001316396
744.5196459961	0.0001118833
746.4484533691	0.0002255674
748.3772607422	0.0000309681
750.3060681152	0.0001387246
752.2348754883	0.0001944872
754.1636828613	0.0003202770
756.0924902344	0.0005360982
758.0212976074	0.0004480235
759.9501049805	0.0006655863
761.8789123535	0.0004097350
763.8077197266	0.0003905685
765.7365270996	0.0005790612
767.6653344727	0.0006270560
769.5941418457	0.0007770658
771.5229492188	0.0005618677
773.4517565918	0.0006189086
775.3805639648	0.0003843578
777.3093713379	0.0003138974
779.2381787109	0.0004581485
781.1669860840	0.0003545203
783.0957934570	0.0005123793
785.0246008301	0.0005192830
786.9534082031	0.0006001514
788.8822155762	0.0005087031
790.8110229492	0.0003508892
792.7398303223	0.0006889821
794.6686376953	0.0009139662
796.5974450684	0.0005015470
798.5262524414	0.0007184137
800.4550598145	0.0012623784
802.3838671875	0.0008316610
804.3126745605	0.0007934307
806.2414819336	0.0007981574
808.1702893066	0.0005952243
810.0990966797	0.0005555056
812.0279040527	0.0003363579
813.9567114258	0.0003362101
815.8855187988	0.0003752005
817.8143261719	0.0004987158
819.7431335449	0.0003147797
821.6719409180	0.0003136659
823.6007482910	0.0007855042
825.5295556641	0.0008625515
827.4583630371	0.0007746302
829.3871704102	0.0012189103
831.3159777832	0.0016726740
833.2447851563	0.0015811529
835.1735925293	0.0019641574
837.1023999023	0.0019524680
839.0312072754	0.0017469011
840.9600146484	0.0018730037
842.8888220215	0.0014845368
844.8176293945	0.0016073971
846.7464367676	0.0015811236
848.6752441406	0.0013672565
850.6040515137	0.0013053881
852.5328588867	0.0010383551
854.4616662598	0.0011698040
856.3904736328	0.0011893193
858.3192810059	0.0009170398
860.2480883789	0.0006847164
862.1768957520	0.0006966910
864.1057031250	0.0004894708
866.0345104980	0.0003680955
867.9633178711	0.0004910139
869.8921252441	0.0002894547
871.8209326172	0.0004449786
873.7497399902	0.0004581960
875.6785473633	0.0003965116
877.6073547363	0.0004654616
879.5361621094	0.0003570986
881.4649694824	0.0004259846
883.3937768555	0.0002188717
885.3225842285	0.0002272047
887.2513916016	0.0003566627
889.1801989746	0.0002321112
891.1090063477	0.0003990486
893.0378137207	0.0003321904
894.9666210938	0.0001423382
896.8954284668	0.0003368407
898.8242358398	0.0006553583
900.7530432129	0.0007844211
902.6818505859	0.0006464798
904.6106579590	0.0004173754
906.5394653320	0.0005532952
908.4682727051	0.0007897383
910.3970800781	0.0007302377
912.3258874512	0.0009632567
914.2546948242	0.0008709746
916.1835021973	0.0007458637
918.1123095703	0.0013223574
920.0411169434	0.0014336744
921.9699243164	0.0013991802
923.8987316895	0.0014799985
925.8275390625	0.0017194171
927.7563464355	0.0019506896
929.6851538086	0.0018313467
931.6139611816	0.0022949879
933.5427685547	0.0022190646
935.4715759277	0.0020321484
937.4003833008	0.0025214455
939.3291906738	0.0024919626
941.2579980469	0.0027293141
943.1868054199	0.0028460599
945.1156127930	0.0028624241
947.0444201660	0.0030745235
948.9732275391	0.0027399855
950.9020349121	0.0026481571
952.8308422852	0.0027154461
954.7596496582	0.0026695039
956.6884570313	0.0025960528
958.6172644043	0.0026189913
960.5460717773	0.0027498337
962.4748791504	0.0025333525
964.4036865234	0.0025299964
966.3324938965	0.0028682579
968.2613012695	0.0029365560
970.1901086426	0.0028035901
972.1189160156	0.0030559513
974.0477233887	0.0034207641
975.9765307617	0.0035313268
977.9053381348	0.0038926811
979.8341455078	0.0042040907
981.7629528809	0.0044538830
983.6917602539	0.0051023471
985.6205676270	0.0057919002
987.5493750000	0.0062497552
989.4781823730	0.0068400837
991.4069897461	0.0078252889
993.3357971191	0.0087137073
995.2646044922	0.0095074726
997.1934118652	0.0102667101
999.1222192383	0.0108076110
1001.0510266113	0.0115419980
1002.9798339844	0.0123613831
1004.9086413574	0.0133115444
1006.8374487305	0.0140705770
1008.7662561035	0.0145894978
1010.6950634766	0.0157872718
1012.6238708496	0.0167334341
1014.5526782227	0.0172963366
1016.4814855957	0.0182413142
1018.4102929688	0.0192278847
1020.3391003418	0.0202733371
1022.2679077148	0.0208706371
1024.1967150879	0.0215089768
1026.1255224609	0.0226463489
1028.0543298340	0.0233211480
1029.9831372070	0.0238496084
1031.9119445801	0.0245280229
1033.8407519531	0.0250462890
1035.7695593262	0.0254711173
1037.6983666992	0.0257213078
1039.6271740723	0.0258583724
1041.5559814453	0.0257893521
1043.4847888184	0.0255473871
1045.4135961914	0.0253878236
1047.3424035645	0.0249979869
1049.2712109375	0.0246424805
1051.2000183105	0.0242629349
1053.1288256836	0.0235726535
1055.0576330566	0.0231819414
1056.9864404297	0.0227883123
1058.9152478027	0.0221632235
1060.8440551758	0.0215131156
1062.7728625488	0.0208651200
1064.7016699219	0.0200941730
1066.6304772949	0.0192739032
1068.5592846680	0.0185690857
1070.4880920410	0.0177947879
1072.4168994141	0.0171236582
1074.3457067871	0.0160848238
1076.2745141602	0.0152745470
1078.2033215332	0.0147674829
1080.1321289062	0.0139677264
1082.0609362793	0.0132791754
1083.9897436523	0.0123620275
1085.9185510254	0.0121042691
1087.8473583984	0.0115980990
1089.7761657715	0.0108159408
1091.7049731445	0.0108529776
1093.6337805176	0.0102024190
1095.5625878906	0.0096806511
1097.4913952637	0.0096110059
1099.4202026367	0.0094126044
1101.3490100098	0.0089438288
1103.2778173828	0.0086057093
1105.2066247559	0.0086985268
1107.1354321289	0.0082762269
1109.0642395019	0.0081976075
1110.9930468750	0.0082330462
1112.9218542480	0.0079804938
1114.8506616211	0.0079389391
1116.7794689941	0.0079544168
1118.7082763672	0.0079565551
1120.6370837402	0.0079463664
1122.5658911133	0.0081467656
1124.4946984863	0.0081735384
1126.4235058594	0.0083162328
1128.3523132324	0.0083725629
1130.2811206055	0.0085700601
1132.2099279785	0.0090076439
1134.1387353516	0.0089467214
1136.0675427246	0.0093803238
1137.9963500977	0.0101441648
1139.9251574707	0.0107530244
1141.8539648437	0.0113799050
1143.7827722168	0.0121307969
1145.7115795898	0.0128379315
1147.6403869629	0.0135616008
1149.5691943359	0.0145718446
1151.4980017090	0.0151102841
1153.4268090820	0.0157625172
1155.3556164551	0.0166449808
1157.2844238281	0.0172680560
1159.2132312012	0.0178968199
1161.1420385742	0.0184448138
1163.0708459473	0.0189624857
1164.9996533203	0.0195523761
1166.9284606934	0.0204276666
1168.8572680664	0.0212946534
1170.7860754394	0.0221453719
1172.7148828125	0.0228776485
1174.6436901855	0.0235983822
1176.5724975586	0.0246780422
1178.5013049316	0.0255834684
1180.4301123047	0.0265634395
1182.3589196777	0.0277145579
1184.2877270508	0.0288994443
1186.2165344238	0.0302177034
1188.1453417969	0.0313865617
1190.0741491699	0.0327650458
1192.0029565430	0.0344761312
1193.9317639160	0.0361175239
1195.8605712891	0.0377118029
1197.7893786621	0.0393766537
1199.7181860351	0.0412196256
1201.6469934082	0.0428871848
1203.5758007812	0.0445764549
1205.5046081543	0.0463734306
1207.4334155273	0.0477659330
1209.3622229004	0.0495455861
1211.2910302734	0.0509290695
1213.2198376465	0.0521720350
1215.1486450195	0.0538685173
1217.0774523926	0.0546602234
1219.0062597656	0.0556804463
1220.9350671387	0.0566225611
1222.8638745117	0.0572261028
1224.7926818848	0.0577156022
1226.7214892578	0.0579661652
1228.6502966308	0.0586808287
1230.5791040039	0.0588062555
1232.5079113769	0.0589272641
1234.4367187500	0.0589814000
1236.3655261230	0.0588504076
1238.2943334961	0.0588607453
1240.2231408691	0.0585349128
1242.1519482422	0.0584466867
1244.0807556152	0.0581397489
1246.0095629883	0.0578538999
1247.9383703613	0.0575317591
1249.8671777344	0.0571769290
1251.7959851074	0.0567958206
1253.7247924805	0.0561106242
1255.6535998535	0.0554692075
1257.5824072266	0.0546205342
1259.5112145996	0.0537231416
1261.4400219726	0.0529142320
1263.3688293457	0.0524503291
1265.2976367187	0.0516296700
1267.2264440918	0.0510228425
1269.1552514648	0.0504988134
1271.0840588379	0.0494807921
1273.0128662109	0.0489552766
1274.9416735840	0.0479621477
1276.8704809570	0.0471243411
1278.7992883301	0.0461423658
1280.7280957031	0.0451213419
1282.6569030762	0.0442938805
1284.5857104492	0.0431335792
1286.5145178223	0.0426760763
1288.4433251953	0.0419515707
1290.3721325683	0.0416191667
1292.3009399414	0.0411968976
1294.2297473144	0.0407369137
1296.1585546875	0.0406449735
1298.0873620605	0.0402112082
1300.0161694336	0.0405903533
1301.9449768066	0.0405852906
1303.8737841797	0.0408935845
1305.8025915527	0.0413823277
1307.7313989258	0.0417160094
1309.6602062988	0.0427863598
1311.5890136719	0.0433301553
1313.5178210449	0.0441599861
1315.4466284180	0.0453196056
1317.3754357910	0.0462551937
1319.3042431640	0.0473208427
1321.2330505371	0.0488478765
1323.1618579101	0.0504460223
1325.0906652832	0.0518832095
1327.0194726562	0.0533871725
1328.9482800293	0.0546032339
1330.8770874023	0.0558954217
1332.8058947754	0.0572146252
1334.7347021484	0.0584366322
1336.6635095215	0.0588788763
1338.5923168945	0.0587944612
1340.5211242676	0.0596885458
1342.4499316406	0.0614141151
1344.3787390137	0.0620496273
1346.3075463867	0.0619337223
1348.2363537597	0.0619782433
1350.1651611328	0.0613906309
1352.0939685058	0.0612534508
1354.0227758789	0.0604857728
1355.9515832519	0.0597271025
1357.8803906250	0.0596598648
1359.8091979980	0.0587904640
1361.7380053711	0.0567911118
1363.6668127441	0.0558081493
1365.5956201172	0.0578793958
1367.5244274902	0.0567711070
1369.4532348633	0.0562100410
1371.3820422363	0.0571525991
1373.3108496094	0.0545821115
1375.2396569824	0.0551137254
1377.1684643555	0.0557671487
1379.0972717285	0.0556724556
1381.0260791015	0.0559238195
1382.9548864746	0.0554500818
1384.8836938476	0.0553888083
1386.8125012207	0.0533042550
1388.7413085937	0.0544630662
1390.6701159668	0.0578873083
1392.5989233398	0.0566407442
1394.5277307129	0.0541167259
1396.4565380859	0.0561481267
1398.3853454590	0.0561743975
1400.3141528320	0.0560234189
1402.2429602051	0.0594579056
1404.1717675781	0.0568444803
1406.1005749512	0.0573160425
1408.0293823242	0.0586102009
1409.9581896972	0.0569481403
1411.8869970703	0.0579901710
1413.8158044433	0.0561236814
1415.7446118164	0.0569221713
1417.6734191894	0.0522144586
1419.6022265625	0.0479725413
1421.5310339355	0.0530591607
1423.4598413086	0.0515126325
1425.3886486816	0.0499900542
1427.3174560547	0.0500281379
1429.2462634277	0.0468158834
1431.1750708008	0.0454496033
1433.1038781738	0.0460521579
1435.0326855469	0.0421626866
1436.9614929199	0.0368494987
1438.8903002929	0.0405732207
1440.8191076660	0.0409322754
1442.7479150390	0.0386241898
1444.6767224121	0.0397667736
1446.6055297851	0.0371865556
1448.5343371582	0.0377454981
1450.4631445312	0.0386364162
1452.3919519043	0.0393946022
1454.3207592773	0.0409564301
1456.2495666504	0.0355036296
1458.1783740234	0.0372449160
1460.1071813965	0.0470767245
1462.0359887695	0.0495340377
1463.9647961426	0.0500486679
1465.8936035156	0.0523339994
1467.8224108886	0.0585946143
1469.7512182617	0.0626352429
1471.6800256347	0.0579408407
1473.6088330078	0.0613169223
1475.5376403808	0.0684503689
1477.4664477539	0.0733140856
1479.3952551269	0.0794642717
1481.3240625000	0.0810353309
1483.2528698730	0.0857088119
1485.1816772461	0.0883681774
1487.1104846191	0.0879860669
1489.0392919922	0.0884393230
1490.9680993652	0.0896604657
1492.8969067383	0.1012526453
1494.8257141113	0.0995160788
1496.7545214843	0.0919838101
1498.6833288574	0.1021520272
1500.6121362304	0.1048370451
1502.5409436035	0.1111712307
1504.4697509765	0.1062948555
1506.3985583496	0.0835570619
1508.3273657226	0.0984796137
1510.2561730957	0.1109033301
1512.1849804687	0.1082357168
1514.1137878418	0.1154565215
1516.0425952148	0.1064626426
1517.9714025879	0.1111435443
1519.9002099609	0.1068986431
1521.8290173340	0.0962371379
1523.7578247070	0.1129411608
1525.6866320801	0.1107566208
1527.6154394531	0.1110261679
1529.5442468261	0.1198328063
1531.4730541992	0.1161449254
1533.4018615722	0.1086015552
1535.3306689453	0.1138737276
1537.2594763183	0.1192507669
1539.1882836914	0.0915122405
1541.1170910644	0.0957052261
1543.0458984375	0.1100203395
1544.9747058105	0.1068806797
1546.9035131836	0.1216103807
1548.8323205566	0.1151412353
1550.7611279297	0.1184688359
1552.6899353027	0.1169818938
1554.6187426758	0.1091809422
1556.5475500488	0.1147716194
1558.4763574218	0.0871681124
1560.4051647949	0.0933996215
1562.3339721679	0.1223411113
1564.2627795410	0.1169044077
1566.1915869140	0.1195524037
1568.1203942871	0.1181958243
1570.0492016601	0.1080085859
1571.9780090332	0.1205731928
1573.9068164062	0.1211177409
1575.8356237793	0.1007493213
1577.7644311523	0.1113284975
1579.6932385254	0.1227943748
1581.6220458984	0.1180729866
1583.5508532715	0.1207205877
1585.4796606445	0.1190958023
1587.4084680175	0.1197242439
1589.3372753906	0.1189298704
1591.2660827636	0.1188389733
1593.1948901367	0.1191422045
1595.1236975097	0.1181467324
1597.0525048828	0.1194017008
1598.9813122558	0.1185169891
1600.9101196289	0.1192056686
1602.8389270019	0.1173374653
1604.7677343750	0.1188676879
1606.6965417480	0.1173129976
1608.6253491211	0.1171291992
1610.5541564941	0.1171873361
1612.4829638672	0.1176083684
1614.4117712402	0.1188407093
1616.3405786132	0.1010267735
1618.2693859863	0.1081391349
1620.1981933593	0.1218010709
1622.1270007324	0.1105872691
1624.0558081054	0.1115079224
1625.9846154785	0.1153528318
1627.9134228515	0.1151779369
1629.8422302246	0.1143744439
1631.7710375976	0.1205969900
1633.6998449707	0.1127626821
1635.6286523437	0.0970779210
1637.5574597168	0.1099673882
1639.4862670898	0.1179870591
1641.4150744629	0.1157547534
1643.3438818359	0.1180641726
1645.2726892090	0.1085195914
1647.2014965820	0.0987626165
1649.1303039550	0.1174314916
1651.0591113281	0.1110356897
1652.9879187011	0.0787495226
1654.9167260742	0.1013530046
1656.8455334472	0.1206094250
1658.7743408203	0.1158839390
1660.7031481933	0.1189627796
1662.6319555664	0.1101519018
1664.5607629394	0.1152646616
1666.4895703125	0.1212167442
1668.4183776855	0.1089696884
1670.3471850586	0.1071435660
1672.2759924316	0.1179800332
1674.2047998047	0.1104639694
1676.1336071777	0.1071437597
1678.0624145507	0.1196701154
1679.9912219238	0.1158957854
1681.9200292968	0.1152920872
1683.8488366699	0.0972524881
1685.7776440429	0.0970343277
1687.7064514160	0.1246676147
1689.6352587890	0.1106745154
1691.5640661621	0.1199916452
1693.4928735351	0.1207386553
1695.4216809082	0.0943810046
1697.3504882812	0.1116347164
1699.2792956543	0.1004793122
1701.2081030273	0.0934039056
1703.1369104004	0.1185476333
1705.0657177734	0.1105531156
1706.9945251464	0.1114525273
1708.9233325195	0.1186696962
1710.8521398925	0.1146283448
1712.7809472656	0.1162062958
1714.7097546386	0.1095987558
1716.6385620117	0.1002032384
1718.5673693847	0.0990135297
1720.4961767578	0.1135008186
1722.4249841308	0.1160610318
1724.3537915039	0.1095850542
1726.2825988769	0.1171163023
1728.2114062500	0.1094161272
1730.1402136230	0.1106782854
1732.0690209961	0.1073287129
1733.9978283691	0.0870572105
1735.9266357421	0.1036328226
1737.8554431152	0.1115150303
1739.7842504882	0.1020535976
1741.7130578613	0.1094278619
1743.6418652343	0.1106798351
1745.5706726074	0.1108906865
1747.4994799804	0.1118348241
1749.4282873535	0.1080303043
1751.3570947265	0.1041981950
1753.2859020996	0.1131188869
1755.2147094726	0.1170520037
1757.1435168457	0.1091850698
1759.0723242187	0.1174587011
1761.0011315918	0.1117214411
1762.9299389648	0.1092533469
1764.8587463379	0.1207512766
1766.7875537109	0.1110431328
1768.7163610839	0.1122488528
1770.6451684570	0.1114486754
1772.5739758300	0.1025264710
1774.5027832031	0.1116754711
1776.4315905761	0.1167221963
1778.3603979492	0.1151327044
1780.2892053222	0.1141499132
1782.2180126953	0.1149319112
1784.1468200683	0.1144976616
1786.0756274414	0.1128305048
1788.0044348144	0.1173236817
1789.9332421875	0.1150035337
1791.8620495605	0.1063364744
1793.7908569336	0.1099060923
1795.7196643066	0.1163288057
1797.6484716796	0.1146365702
1799.5772790527	0.1133183390
1801.5060864257	0.1121914685
1803.4348937988	0.1147111505
1805.3637011718	0.1165941581
1807.2925085449	0.1155046225
1809.2213159179	0.1157221645
1811.1501232910	0.1134478077
1813.0789306640	0.1161005199
1815.0077380371	0.1162404120
1816.9365454101	0.1153801382
1818.8653527832	0.1160313264
1820.7941601562	0.1156007648
1822.7229675293	0.1168724746
1824.6517749023	0.1108975708
1826.5805822753	0.1140254661
1828.5093896484	0.1138959154
1830.4381970214	0.1088238284
1832.3670043945	0.1158932596
1834.2958117675	0.1151207015
1836.2246191406	0.1153418198
1838.1534265136	0.1145800725
1840.0822338867	0.1151899472
1842.0110412597	0.1150071621
1843.9398486328	0.1048770547
1845.8686560058	0.1104299203
1847.7974633789	0.1149035394
1849.7262707519	0.1130220890
1851.6550781250	0.1154963821
1853.5838854980	0.1136515513
1855.5126928710	0.1143134385
1857.4415002441	0.1137912571
1859.3703076171	0.1132344157
1861.2991149902	0.1136728227
1863.2279223632	0.1127968878
1865.1567297363	0.1134701595
1867.0855371093	0.1104803383
1869.0143444824	0.1070469916
1870.9431518554	0.1103055328
1872.8719592285	0.1133583933
1874.8007666015	0.1117777973
1876.7295739746	0.1122934446
1878.6583813476	0.1119023114
1880.5871887207	0.1113956273
1882.5159960937	0.1119654849
1884.4448034667	0.1105982512
1886.3736108398	0.1116783619
1888.3024182128	0.1094374061
1890.2312255859	0.1080160886
1892.1600329589	0.1110351533
1894.0888403320	0.1097076684
1896.0176477050	0.1094281971
1897.9464550781	0.1102359518
1899.8752624511	0.1096929908
1901.8040698242	0.1098748595
1903.7328771972	0.1093923599
1905.6616845703	0.1096657515
1907.5904919433	0.1086064875
1909.5192993164	0.1082002521
1911.4481066894	0.1085580587
1913.3769140625	0.1086393967
1915.3057214355	0.1093991175
1917.2345288085	0.1053663790
1919.1633361816	0.1058312356
1921.0921435546	0.1085894257
1923.0209509277	0.1057724506
1924.9497583007	0.1076705754
1926.8785656738	0.1080978215
1928.8073730468	0.1071528792
1930.7361804199	0.1079468578
1932.6649877929	0.1070242673
1934.5937951660	0.1078698114
1936.5226025390	0.1069805920
1938.4514099121	0.1074573025
1940.3802172851	0.1070977300
1942.3090246582	0.1046123207
1944.2378320312	0.1060483605
1946.1666394042	0.1066554636
1948.0954467773	0.1067295521
1950.0242541503	0.1069447771
1951.9530615234	0.1065624952
1953.8818688964	0.1065651998
1955.8106762695	0.1062804610
1957.7394836425	0.1063852906
1959.6682910156	0.1061259210
1961.5970983886	0.1059614643
1963.5259057617	0.1061634719
1965.4547131347	0.1056734025
1967.3835205078	0.1047948003
1969.3123278808	0.1053480804
1971.2411352539	0.1058090031
1973.1699426269	0.1052660048
1975.0987499999	0.1053752452
1977.0275573730	0.1051169857
1978.9563647460	0.1051816046
1980.8851721191	0.1049486846
1982.8139794921	0.1046085954
1984.7427868652	0.1048615351
1986.6715942382	0.1042002514
1988.6004016113	0.1042118967
1990.5292089843	0.1036111712
1992.4580163574	0.1025845557
1994.3868237304	0.1035117805
1996.3156311035	0.1035957783
1998.2444384765	0.1032124683
2000.1732458496	0.1033459902
2002.1020532226	0.1027714983
2004.0308605956	0.1027534232
2005.9596679687	0.1024962962
2007.8884753417	0.1021112576
2009.8172827148	0.1021700203
2011.7460900878	0.1017059535
2013.6748974609	0.1016987786
2015.6037048339	0.1011574641
2017.5325122070	0.1003816575
2019.4613195800	0.1007062048
2021.3901269531	0.1007130593
2023.3189343261	0.1003397256
2025.2477416992	0.1000912786
2027.1765490722	0.0999259651
2029.1053564453	0.0997185409
2031.0341638183	0.0993555337
2032.9629711914	0.0992385224
2034.8917785644	0.0992483050
2036.8205859374	0.0988878310
2038.7493933105	0.0985450894
2040.6782006835	0.0982269794
2042.6070080566	0.0979934037
2044.5358154296	0.0980103239
2046.4646228027	0.0978004336
2048.3934301757	0.0976440758
2050.3222375488	0.0973688737
2052.2510449218	0.0971184447
2054.1798522949	0.0968946442
2056.1086596679	0.0968323350
2058.0374670410	0.0966973454
2059.9662744140	0.0960467160
2061.8950817871	0.0960693061
2063.8238891601	0.0957110524
2065.7526965331	0.0953141302
2067.6815039062	0.0955382437
2069.6103112792	0.0952514708
2071.5391186523	0.0949474424
2073.4679260253	0.0947016329
2075.3967333984	0.0946508572
2077.3255407714	0.0943483636
2079.2543481445	0.0942264348
2081.1831555175	0.0942054689
2083.1119628906	0.0937816203
2085.0407702636	0.0936715007
2086.9695776367	0.0933731347
2088.8983850097	0.0931871682
2090.8271923828	0.0931180120
2092.7559997558	0.0929914489
2094.6848071288	0.0927903056
2096.6136145019	0.0926679671
2098.5424218749	0.0924875736
2100.4712292480	0.0920818001
2102.4000366210	0.0922174603
2104.3288439941	0.0920103565
2106.2576513671	0.0917293429
2108.1864587402	0.0916826054
2110.1152661132	0.0915147141
2112.0440734863	0.0914085731
2113.9728808593	0.0910314098
2115.9016882324	0.0908423066
2117.8304956054	0.0907457918
2119.7593029785	0.0905521214
2121.6881103515	0.0904764310
2123.6169177245	0.0904179364
2125.5457250976	0.0901055783
2127.4745324706	0.0900300890
2129.4033398437	0.0899530053
2131.3321472167	0.0897143409
2133.2609545898	0.0897986889
2135.1897619628	0.0895033106
2137.1185693359	0.0894147754
2139.0473767089	0.0892859548
2140.9761840820	0.0891345143
2142.9049914550	0.0890950635
2144.8337988281	0.0887580365
2146.7626062011	0.0888405591
2148.6914135742	0.0887075886
2150.6202209472	0.0885703415
2152.5490283203	0.0883440897
2154.4778356933	0.0881578773
2156.4066430663	0.0880905986
2158.3354504394	0.0879460126
2160.2642578124	0.0880982652
2162.1930651855	0.0877355188
2164.1218725585	0.0875687450
2166.0506799316	0.0874756724
2167.9794873046	0.0874001086
2169.9082946777	0.0874159485
2171.8371020507	0.0871377513
2173.7659094238	0.0870992690
2175.6947167968	0.0869639665
2177.6235241699	0.0869382471
2179.5523315429	0.0866860747
2181.4811389160	0.0865900591
2183.4099462890	0.0865993127
2185.3387536620	0.0863944739
2187.2675610351	0.0863359347
2189.1963684081	0.0861091018
2191.1251757812	0.0861078799
2193.0539831542	0.0858206972
2194.9827905273	0.0856540650
2196.9115979003	0.0856136829
2198.8404052734	0.0855888426
2200.7692126464	0.0856219828
2202.6980200195	0.0852034688
2204.6268273925	0.0853034109
2206.5556347656	0.0852027982
2208.4844421386	0.0849718153
2210.4132495117	0.0849013850
2212.3420568847	0.0847322047
2214.2708642577	0.0848275796
2216.1996716308	0.0845894367
2218.1284790038	0.0844221339
2220.0572863769	0.0843331888
2221.9860937499	0.0841708183
2223.9149011230	0.0840865821
2225.8437084960	0.0839496255
2227.7725158691	0.0838453248
2229.7013232421	0.0836927593
2231.6301306152	0.0834852308
2233.5589379882	0.0834127516
2235.4877453613	0.0833184570
2237.4165527343	0.0831206962
2239.3453601074	0.0830473676
2241.2741674804	0.0826861486
2243.2029748534	0.0826875865
2245.1317822265	0.0826997012
2247.0605895995	0.0824119225
2248.9893969726	0.0824553594
2250.9182043456	0.0821077228
2252.8470117187	0.0820837915
2254.7758190917	0.0819966197
2256.7046264648	0.0816953629
2258.6334338378	0.0817221850
2260.5622412109	0.0815073550
2262.4910485839	0.0814075023
2264.4198559570	0.0811467469
2266.3486633300	0.0810313523
2268.2774707031	0.0810330734
2270.2062780761	0.0808049962
2272.1350854491	0.0806612223
2274.0638928222	0.0806777924
2275.9927001952	0.0807329267
2277.9215075683	0.0804659724
2279.8503149413	0.0803361088
2281.7791223144	0.0803048313
2283.7079296874	0.0802108943
2285.6367370605	0.0800155774
2287.5655444335	0.0797604024
2289.4943518066	0.0795630217
2291.4231591796	0.0793125331
2293.3519665527	0.0792101771
2295.2807739257	0.0790084898
2297.2095812988	0.0787495375
2299.1383886718	0.0783731341
2301.0671960449	0.0781610906
2302.9960034179	0.0779459774
2304.9248107909	0.0773568451
2306.8536181640	0.0769835934
2308.7824255370	0.0765000880
2310.7112329101	0.0758652389
2312.6400402831	0.0751741230
2314.5688476562	0.0745158568
2316.4976550292	0.0737700313
2318.4264624023	0.0728599206
2320.3552697753	0.0720815659
2322.2840771484	0.0710470676
2324.2128845214	0.0702784061
2326.1416918945	0.0696755797
2328.0704992675	0.0688464120
2329.9993066406	0.0681834519
2331.9281140136	0.0676579401
2333.8569213866	0.0673380941
2335.7857287597	0.0670769811
2337.7145361327	0.0669538826
2339.6433435058	0.0668558478
2341.5721508788	0.0671669394
2343.5009582519	0.0681323409
2345.4297656249	0.0692060590
2347.3585729980	0.0716442913
2349.2873803710	0.0734679401
2351.2161877441	0.0712368339
2353.1449951171	0.0680686235
2355.0738024902	0.0659851655
2357.0026098632	0.0640081689
2358.9314172363	0.0629145131
2360.8602246093	0.0622929558
2362.7890319823	0.0620491803
2364.7178393554	0.0624745600
2366.6466467284	0.0631198287
2368.5754541015	0.0641737580
2370.5042614745	0.0656172484
2372.4330688476	0.0672494173
2374.3618762206	0.0689141899
2376.2906835937	0.0703835487
2378.2194909667	0.0715965182
2380.1482983398	0.0727383643
2382.0771057128	0.0735397637
2384.0059130859	0.0740022957
2385.9347204589	0.0741208866
2387.8635278320	0.0739487112
2389.7923352050	0.0739896297
2391.7211425780	0.0739447623
2393.6499499511	0.0739274323
2395.5787573241	0.0737519637
2397.5075646972	0.0735851973
2399.4363720702	0.0736135691
2401.3651794433	0.0733605176
2403.2939868163	0.0732747018
2405.2227941894	0.0731588602
2407.1516015624	0.0730528682
2409.0804089355	0.0729467720
2411.0092163085	0.0728509724
2412.9380236816	0.0727988780
2414.8668310546	0.0726346821
2416.7956384277	0.0726174712
2418.7244458007	0.0723449290
2420.6532531738	0.0723188967
2422.5820605468	0.0722398460
2424.5108679198	0.0719864517
2426.4396752929	0.0719848275
2428.3684826659	0.0717446432
2430.2972900390	0.0717464089
2432.2260974120	0.0716755688
2434.1549047851	0.0715289488
2436.0837121581	0.0715287924
2438.0125195312	0.0714028180
2439.9413269042	0.0712546557
2441.8701342773	0.0711779445
2443.7989416503	0.0711513013
2445.7277490234	0.0708136633
2447.6565563964	0.0707899630
2449.5853637695	0.0708126947
2451.5141711425	0.0705413073
2453.4429785155	0.0704951286
2455.3717858886	0.0704019219
2457.3005932616	0.0703980923
2459.2294006347	0.0702671260
2461.1582080077	0.0700093657
2463.0870153808	0.0699540377
2465.0158227538	0.0698931590
2466.9446301269	0.0698052645
2468.8734374999	0.0696863830
2470.8022448730	0.0695947260
2472.7310522460	0.0695051327
2474.6598596191	0.0693285912
2476.5886669921	0.0692405850
2478.5174743652	0.0692011788
2480.4462817382	0.0690937266
2482.3750891112	0.0690408945
2484.3038964843	0.0688402578
2486.2327038573	0.0686435401
2488.1615112304	0.0686737373
2490.0903186034	0.0686516613
2492.0191259765	0.0684504062
2493.9479333495	0.0682844222
2495.8767407226	0.0682822913
2497.8055480956	0.0682036430
2499.7343554687	0.0681509972
2501.6631628417	0.0679740310
2503.5919702148	0.0678501129
2505.5207775878	0.0678266138
2507.4495849609	0.0676436499
2509.3783923339	0.0676055849
2511.3071997069	0.0674649179
2513.2360070800	0.0674301907
2515.1648144530	0.0672617480
2517.0936218261	0.0670492873
2519.0224291991	0.0670816451
2520.9512365722	0.0668963641
2522.8800439452	0.0669091418
2524.8088513183	0.0668103695
2526.7376586913	0.0667193756
2528.6664660644	0.0666572005
2530.5952734374	0.0664615259
2532.5240808105	0.0664501637
2534.4528881835	0.0662401468
2536.3816955566	0.0661478713
2538.3105029296	0.0660475791
2540.2393103027	0.0659162849
2542.1681176757	0.0659288242
2544.0969250487	0.0658288822
2546.0257324218	0.0656510144
2547.9545397948	0.0655154884
2549.8833471679	0.0655415803
2551.8121545409	0.0653838664
2553.7409619140	0.0652922466
2555.6697692870	0.0652952492
2557.5985766601	0.0651066005
2559.5273840331	0.0649819821
2561.4561914062	0.0649197921
2563.3849987792	0.0647488683
2565.3138061523	0.0646690205
2567.2426135253	0.0647622496
2569.1714208984	0.0645485073
2571.1002282714	0.0643894449
2573.0290356444	0.0643182099
2574.9578430175	0.0641861781
2576.8866503905	0.0642016381
2578.8154577636	0.0640027970
2580.7442651366	0.0638839751
2582.6730725097	0.0638795644
2584.6018798827	0.0637561083
2586.5306872558	0.0636346340
2588.4594946288	0.0635828376
2590.3883020019	0.0635326579
2592.3171093749	0.0633993596
2594.2459167480	0.0632931143
2596.1747241210	0.0631962419
2598.1035314941	0.0631514490
2600.0323388671	0.0630991012
2601.9611462401	0.0630428120
2603.8899536132	0.0629215688
2605.8187609862	0.0627244785
2607.7475683593	0.0626062453
2609.6763757323	0.0625565946
2611.6051831054	0.0624757037
2613.5339904784	0.0623869151
2615.4627978515	0.0623707622
2617.3916052245	0.0621738099
2619.3204125976	0.0620212927
2621.2492199706	0.0619373806
2623.1780273437	0.0618206672
2625.1068347167	0.0617702454
2627.0356420898	0.0616476834
2628.9644494628	0.0616275854
2630.8932568358	0.0615417324
2632.8220642089	0.0613661148
2634.7508715819	0.0612536073
2636.6796789550	0.0611759461
2638.6084863280	0.0610352494
2640.5372937011	0.0610338524
2642.4661010741	0.0609975308
2644.3949084472	0.0607635677
2646.3237158202	0.0608175248
2648.2525231933	0.0605936423
2650.1813305663	0.0604578778
2652.1101379394	0.0605233349
2654.0389453124	0.0604388677
2655.9677526855	0.0604625754
2657.8965600585	0.0602159277
2659.8253674315	0.0601707622
2661.7541748046	0.0600623451
2663.6829821776	0.0600118861
2665.6117895507	0.0599407926
2667.5405969237	0.0595336296
2669.4694042968	0.0596269555
2671.3982116698	0.0595491864
2673.3270190429	0.0593632832
2675.2558264159	0.0593971759
2677.1846337890	0.0593198165
2679.1134411620	0.0591453463
2681.0422485351	0.0589992404
2682.9710559081	0.0589622445
2684.8998632812	0.0588826537
2686.8286706542	0.0589007661
2688.7574780273	0.0587458871
2690.6862854003	0.0586352274
2692.6150927733	0.0585474148
2694.5439001464	0.0584252067
2696.4727075194	0.0583132133
2698.4015148925	0.0581180900
2700.3303222655	0.0581552610
2702.2591296386	0.0579388663
2704.1879370116	0.0578967258
2706.1167443847	0.0579291359
2708.0455517577	0.0577288792
2709.9743591308	0.0577450767
2711.9031665038	0.0575485490
2713.8319738769	0.0574345067
2715.7607812499	0.0574439391
2717.6895886230	0.0572386682
2719.6183959960	0.0570506752
2721.5472033690	0.0570752099
2723.4760107421	0.0570434779
2725.4048181151	0.0569699407
2727.3336254882	0.0569296777
2729.2624328612	0.0567353629
2731.1912402343	0.0566700771
2733.1200476073	0.0565718748
2735.0488549804	0.0565186627
2736.9776623534	0.0563670546
2738.9064697265	0.0561217368
2740.8352770995	0.0561459363
2742.7640844726	0.0561648682
2744.6928918456	0.0560945682
2746.6216992187	0.0558431447
2748.5505065917	0.0557798594
2750.4793139647	0.0557590611
2752.4081213378	0.0555694737
2754.3369287108	0.0554581843
2756.2657360839	0.0553463697
2758.1945434569	0.0553036630
2760.1233508300	0.0551433191
2762.0521582030	0.0550815091
2763.9809655761	0.0550807491
2765.9097729491	0.0549017452
2767.8385803222	0.0547747277
2769.7673876952	0.0547013804
2771.6961950683	0.0545627810
2773.6250024413	0.0544741750
2775.5538098144	0.0544899218
2777.4826171874	0.0543597601
2779.4114245604	0.0542269982
2781.3402319335	0.0541759580
2783.2690393065	0.0540911928
2785.1978466796	0.0538663454
2787.1266540526	0.0537876189
2789.0554614257	0.0537759997
2790.9842687987	0.0535361618
2792.9130761718	0.0534685105
2794.8418835448	0.0533513799
2796.7706909179	0.0532340407
2798.6994982909	0.0531581640
2800.6283056640	0.0530854091
2802.5571130370	0.0529947802
2804.4859204101	0.0528299659
2806.4147277831	0.0528162308
2808.3435351562	0.0526588559
2810.2723425292	0.0525967851
2812.2011499022	0.0524780527
2814.1299572753	0.0523806289
2816.0587646483	0.0522596985
2817.9875720214	0.0520554297
2819.9163793944	0.0520308316
2821.8451867675	0.0517047718
2823.7739941405	0.0517702997
2825.7028015136	0.0516783893
2827.6316088866	0.0514726117
2829.5604162597	0.0516535044
2831.4892236327	0.0513886660
2833.4180310058	0.0512546003
2835.3468383788	0.0510661155
2837.2756457519	0.0509462394
2839.2044531249	0.0508820452
2841.1332604979	0.0506536141
2843.0620678710	0.0505074337
2844.9908752440	0.0502808541
2846.9196826171	0.0501252562
2848.8484899901	0.0496693775
2850.7772973632	0.0495494083
2852.7061047362	0.0495457202
2854.6349121093	0.0493626073
2856.5637194823	0.0494544432
2858.4925268554	0.0492624044
2860.4213342284	0.0492496602
2862.3501416015	0.0491806790
2864.2789489745	0.0490963832
2866.2077563476	0.0491893888
2868.1365637206	0.0488680303
2870.0653710936	0.0488232262
2871.9941784667	0.0488389619
2873.9229858397	0.0486565270
2875.8517932128	0.0487116128
2877.7806005858	0.0485470630
2879.7094079589	0.0484024845
2881.6382153319	0.0483941138
2883.5670227050	0.0482191518
2885.4958300780	0.0482373461
2887.4246374511	0.0481142700
2889.3534448241	0.0479142033
2891.2822521972	0.0478897691
2893.2110595702	0.0477470085
2895.1398669433	0.0476202145
2897.0686743163	0.0474946387
2898.9974816893	0.0474591255
2900.9262890624	0.0472757369
2902.8550964354	0.0471175462
2904.7839038085	0.0470881574
2906.7127111815	0.0468180180
2908.6415185546	0.0467423573
2910.5703259276	0.0465430915
2912.4991333007	0.0461664833
2914.4279406737	0.0459787846
2916.3567480468	0.0457202271
2918.2855554198	0.0455770157
2920.2143627929	0.0455610678
2922.1431701659	0.0454738587
2924.0719775390	0.0454254299
2926.0007849120	0.0453039929
2927.9295922851	0.0452621728
2929.8583996581	0.0453489795
2931.7872070311	0.0451654755
2933.7160144042	0.0451789275
2935.6448217772	0.0452410653
2937.5736291503	0.0451890901
2939.5024365233	0.0452880561
2941.4312438964	0.0451235250
2943.3600512694	0.0450958461
2945.2888586425	0.0450591482
2947.2176660155	0.0449417830
2949.1464733886	0.0449984446
2951.0752807616	0.0448781922
2953.0040881347	0.0447237268
2954.9328955077	0.0446297042
2956.8617028808	0.0444941595
2958.7905102538	0.0442309231
2960.7193176268	0.0441834927
2962.6481249999	0.0440871492
2964.5769323729	0.0438393056
2966.5057397460	0.0438493341
2968.4345471190	0.0439290144
2970.3633544921	0.0440580770
2972.2921618651	0.0439833365
2974.2209692382	0.0438983664
2976.1497766112	0.0439224094
2978.0785839843	0.0440262258
2980.0073913573	0.0440190211
2981.9361987304	0.0438060239
2983.8650061034	0.0438757613
2985.7938134765	0.0437884554
2987.7226208495	0.0436994173
2989.6514282225	0.0437428281
2991.5802355956	0.0437226146
2993.5090429686	0.0436675288
2995.4378503417	0.0435056910
2997.3666577147	0.0435929708
2999.2954650878	0.0435279608
3001.2242724608	0.0433041342
3003.1530798339	0.0431878828
3005.0818872069	0.0430649519
3007.0106945800	0.0430309996
3008.9395019530	0.0429886803
3010.8683093261	0.0428631678
3012.7971166991	0.0427399129
3014.7259240722	0.0426452309
3016.6547314452	0.0424722396
3018.5835388182	0.0424761735
3020.5123461913	0.0424908623
3022.4411535643	0.0423570871
3024.3699609374	0.0422422700
3026.2987683104	0.0421264209
3028.2275756835	0.0420844257
3030.1563830565	0.0419523120
3032.0851904296	0.0417774580
3034.0139978026	0.0416909270
3035.9428051757	0.0417283848
3037.8716125487	0.0416316241
3039.8004199218	0.0414696485
3041.7292272948	0.0413259342
3043.6580346679	0.0411375985
3045.5868420409	0.0412343070
3047.5156494139	0.0411558896
3049.4444567870	0.0409611277
3051.3732641600	0.0408930779
3053.3020715331	0.0408780538
3055.2308789061	0.0408107005
3057.1596862792	0.0406134948
3059.0884936522	0.0406082273
3061.0173010253	0.0404799730
3062.9461083983	0.0403836258
3064.8749157714	0.0402958542
3066.8037231444	0.0401940867
3068.7325305175	0.0401981547
3070.6613378905	0.0400559381
3072.5901452636	0.0400251187
3074.5189526366	0.0399391092
3076.4477600097	0.0398955718
3078.3765673827	0.0397721529
3080.3053747557	0.0396351069
3082.2341821288	0.0396617129
3084.1629895018	0.0394789763
3086.0917968749	0.0394041091
3088.0206042479	0.0393782929
3089.9494116210	0.0393502526
3091.8782189940	0.0393146127
3093.8070263671	0.0391214378
3095.7358337401	0.0390169397
3097.6646411132	0.0389905721
3099.5934484862	0.0387575552
3101.5222558593	0.0385901444
3103.4510632323	0.0386860706
3105.3798706054	0.0385518298
3107.3086779784	0.0383762158
3109.2374853514	0.0383169204
3111.1662927245	0.0383569896
3113.0951000975	0.0382474884
3115.0239074706	0.0379396304
3116.9527148436	0.0379311517
3118.8815222167	0.0378647745
3120.8103295897	0.0377156436
3122.7391369628	0.0376127325
3124.6679443358	0.0376063734
3126.5967517089	0.0375708416
3128.5255590819	0.0373989232
3130.4543664550	0.0373544917
3132.3831738280	0.0371408612
3134.3119812011	0.0369820073
3136.2407885741	0.0369545668
3138.1695959471	0.0368757807
3140.0984033202	0.0368634388
3142.0272106932	0.0367649049
3143.9560180663	0.0366305113
3145.8848254393	0.0365892947
3147.8136328124	0.0364402086
3149.7424401854	0.0362212211
3151.6712475585	0.0361887589
3153.6000549315	0.0360860676
3155.5288623046	0.0360017121
3157.4576696776	0.0358882695
3159.3864770507	0.0357611999
3161.3152844237	0.0356759727
3163.2440917968	0.0355402380
3165.1728991698	0.0356496423
3167.1017065428	0.0354323089
3169.0305139159	0.0352737196
3170.9593212889	0.0353323147
3172.8881286620	0.0351046398
3174.8169360350	0.0350558981
3176.7457434081	0.0348689556
3178.6745507811	0.0346843824
3180.6033581542	0.0347238928
3182.5321655272	0.0346719027
3184.4609729003	0.0344933718
3186.3897802733	0.0344242975
3188.3185876464	0.0344543979
3190.2473950194	0.0342808105
3192.1762023925	0.0341975316
3194.1050097655	0.0340464115
3196.0338171386	0.0338557661
3197.9626245116	0.0339088961
3199.8914318846	0.0339456126
3201.8202392577	0.0337876342
3203.7490466307	0.0336571373
3205.6778540038	0.0336920805
3207.6066613768	0.0335351042
3209.5354687499	0.0333953202
3211.4642761229	0.0333750248
3213.3930834960	0.0332447812
3215.3218908690	0.0331293717
3217.2506982421	0.0331906900
3219.1795056151	0.0331901051
3221.1083129882	0.0329515412
3223.0371203612	0.0328888856
3224.9659277343	0.0329148918
3226.8947351073	0.0328008756
3228.8235424803	0.0326820202
3230.7523498534	0.0326667875
3232.6811572264	0.0325813219
3234.6099645995	0.0325445309
3236.5387719725	0.0325455889
3238.4675793456	0.0323499702
3240.3963867186	0.0324316695
3242.3251940917	0.0323645473
3244.2540014647	0.0321117565
3246.1828088378	0.0321957842
3248.1116162108	0.0321788341
3250.0404235839	0.0320555121
3251.9692309569	0.0320063978
3253.8980383300	0.0319627300
3255.8268457030	0.0318752527
3257.7556530760	0.0318872519
3259.6844604491	0.0318522155
3261.6132678221	0.0317552947
3263.5420751952	0.0317765288
3265.4708825682	0.0317182392
3267.3996899413	0.0316461176
3269.3284973143	0.0315835662
3271.2573046874	0.0315193608
3273.1861120604	0.0314840265
3275.1149194335	0.0314635448
3277.0437268065	0.0314141400
3278.9725341796	0.0314582586
3280.9013415526	0.0314228050
3282.8301489257	0.0312750824
3284.7589562987	0.0313276201
3286.6877636717	0.0312041529
3288.6165710448	0.0310888328
3290.5453784178	0.0310370736
3292.4741857909	0.0309743043
3294.4029931639	0.0310068838
3296.3318005370	0.0309159905
3298.2606079100	0.0308689848
3300.1894152831	0.0308160521
3302.1182226561	0.0308449082
3304.0470300292	0.0307616703
3305.9758374022	0.0306466650
3307.9046447753	0.0306090675
3309.8334521483	0.0305196717
3311.7622595214	0.0306327865
3313.6910668944	0.0305754021
3315.6198742675	0.0304662362
3317.5486816405	0.0303533338
3319.4774890135	0.0302994475
3321.4062963866	0.0303348005
3323.3351037596	0.0301873945
3325.2639111327	0.0301709324
3327.1927185057	0.0301438272
3329.1215258788	0.0301103331
3331.0503332518	0.0300382078
3332.9791406249	0.0299775209
3334.9079479979	0.0299651325
3336.8367553710	0.0298214927
3338.7655627440	0.0298316926
3340.6943701171	0.0298500899
3342.6231774901	0.0297099836
3344.5519848632	0.0296444036
3346.4807922362	0.0296572149
3348.4095996092	0.0295541883
3350.3384069823	0.0295971148
3352.2672143553	0.0295792855
3354.1960217284	0.0293806605
3356.1248291014	0.0293701775
3358.0536364745	0.0293204505
3359.9824438475	0.0292171352
3361.9112512206	0.0291250721
3363.8400585936	0.0291920304
3365.7688659667	0.0290174969
3367.6976733397	0.0288500711
3369.6264807128	0.0290002078
3371.5552880858	0.0288165845
3373.4840954589	0.0288820043
3375.4129028319	0.0288565718
3377.3417102049	0.0286054239
3379.2705175780	0.0286977161
3381.1993249510	0.0286097266
3383.1281323241	0.0284730177
3385.0569396971	0.0284455493
3386.9857470702	0.0284124203
3388.9145544432	0.0284354594
3390.8433618163	0.0283471998
3392.7721691893	0.0281344987
3394.7009765624	0.0281733349
3396.6297839354	0.0280824229
3398.5585913085	0.0279051103
3400.4873986815	0.0279971715
3402.4162060546	0.0278831888
3404.3450134276	0.0278858095
3406.2738208006	0.0278674588
3408.2026281737	0.0277361460
3410.1314355467	0.0277404450
3412.0602429198	0.0276635401
3413.9890502928	0.0275615789
3415.9178576659	0.0274867918
3417.8466650389	0.0275448840
3419.7754724120	0.0274506621
3421.7042797850	0.0272034444
3423.6330871581	0.0271586590
3425.5618945311	0.0272928104
3427.4907019042	0.0271645747
3429.4195092772	0.0271165594
3431.3483166503	0.0271719620
3433.2771240233	0.0268936157
3435.2059313963	0.0269555151
3437.1347387694	0.0268418491
3439.0635461424	0.0267583579
3440.9923535155	0.0267673172
3442.9211608885	0.0265828557
3444.8499682616	0.0267125685
3446.7787756346	0.0264062472
3448.7075830077	0.0263898820
3450.6363903807	0.0265482068
3452.5651977538	0.0265013725
3454.4940051268	0.0266177151
3456.4228124999	0.0264010895
3458.3516198729	0.0264402069
3460.2804272460	0.0264005810
3462.2092346190	0.0262336135
3464.1380419921	0.0262094177
3466.0668493651	0.0261149332
3467.9956567381	0.0261792727
3469.9244641112	0.0261795707
3471.8532714842	0.0261298791
3473.7820788573	0.0260665379
3475.7108862303	0.0260256045
3477.6396936034	0.0260149632
3479.5685009764	0.0259050317
3481.4973083495	0.0256773345
3483.4261157225	0.0257492997
3485.3549230956	0.0259360373
3487.2837304686	0.0257230289
3489.2125378417	0.0256681889
3491.1413452147	0.0258121900
3493.0701525878	0.0257533565
3494.9989599608	0.0256099813
3496.9277673338	0.0256192684
3498.8565747069	0.0256217774
3500.7853820799	0.0256031454
3502.7141894530	0.0253632311
3504.6429968260	0.0253061876
3506.5718041991	0.0256398786
3508.5006115721	0.0253013037
3510.4294189452	0.0252702832
3512.3582263182	0.0255665872
3514.2870336913	0.0254729651
3516.2158410643	0.0255122725
3518.1446484374	0.0254408009
3520.0734558104	0.0255010575
3522.0022631835	0.0253087208
3523.9310705565	0.0249985270
3525.8598779295	0.0250244681
3527.7886853026	0.0250910800
3529.7174926756	0.0251326375
3531.6463000487	0.0252027865
3533.5751074217	0.0253678299
3535.5039147948	0.0251199361
3537.4327221678	0.0250840858
3539.3615295409	0.0253176652
3541.2903369139	0.0251816865
3543.2191442870	0.0250609070
3545.1479516600	0.0247171968
3547.0767590331	0.0245202072
3549.0055664061	0.0249877051
3550.9343737792	0.0250351541
3552.8631811522	0.0247156955
3554.7919885252	0.0249862820
3556.7207958983	0.0250815339
3558.6496032713	0.0249660574
3560.5784106444	0.0247224309
3562.5072180174	0.0247056149
3564.4360253905	0.0248541329
3566.3648327635	0.0235642176
3568.2936401366	0.0231966712
3570.2224475096	0.0246252958
3572.1512548827	0.0249705687
3574.0800622557	0.0246703289
3576.0088696288	0.0247829389
3577.9376770018	0.0247927494
3579.8664843749	0.0246928260
3581.7952917479	0.0246766470
3583.7240991210	0.0248389691
3585.6529064940	0.0242618602
3587.5817138670	0.0228092894
3589.5105212401	0.0233927146
3591.4393286131	0.0247565620
3593.3681359862	0.0243278630
3595.2969433592	0.0240276009
3597.2257507323	0.0243087877
3599.1545581053	0.0243703090
3601.0833654784	0.0241265409
3603.0121728514	0.0243658423
3604.9409802245	0.0246647932
3606.8697875975	0.0238847081
3608.7985949706	0.0228070952
3610.7274023436	0.0233297832
3612.6562097167	0.0236319061
3614.5850170897	0.0231307074
3616.5138244627	0.0244577490
3618.4426318358	0.0229029432
3620.3714392088	0.0224057939
3622.3002465819	0.0245450363
3624.2290539549	0.0239560381
3626.1578613280	0.0247840397
3628.0866687010	0.0217931941
3630.0154760741	0.0204212852
3631.9442834471	0.0242803637
3633.8730908202	0.0236913357
3635.8018981932	0.0239645652
3637.7307055663	0.0244097933
3639.6595129393	0.0240858458
3641.5883203124	0.0241901241
3643.5171276854	0.0238881726
3645.4459350584	0.0240878612
3647.3747424315	0.0221884958
3649.3035498045	0.0207168665
3651.2323571776	0.0211101938
3653.1611645506	0.0241200123
3655.0899719237	0.0236534290
3657.0187792967	0.0217417143
3658.9475866698	0.0242995899
3660.8763940428	0.0238250699
3662.8052014159	0.0239509344
3664.7340087889	0.0239372514
3666.6628161620	0.0238378718
3668.5916235350	0.0232135300
3670.5204309081	0.0199786369
3672.4492382811	0.0230149515
3674.3780456541	0.0220493749
3676.3068530272	0.0193317421
3678.2356604002	0.0229574181
3680.1644677733	0.0232542381
3682.0932751463	0.0231581442
3684.0220825194	0.0237147212
3685.9508898924	0.0234968103
3687.8796972655	0.0215092711
3689.8085046385	0.0202640481
3691.7373120116	0.0224128403
3693.6661193846	0.0228360556
3695.5949267577	0.0232924595
3697.5237341307	0.0231285337
3699.4525415038	0.0230307542
3701.3813488768	0.0225761905
3703.3101562499	0.0219003409
3705.2389636229	0.0235422365
3707.1677709959	0.0225628112
3709.0965783690	0.0222755447
3711.0253857420	0.0210678838
3712.9541931151	0.0201352648
3714.8830004881	0.0227957144
3716.8118078612	0.0223124176
3718.7406152342	0.0225277208
3720.6694226073	0.0220894609
3722.5982299803	0.0215816591
3724.5270373534	0.0221977010
3726.4558447264	0.0209329762
3728.3846520995	0.0222885348
3730.3134594725	0.0219324045
3732.2422668456	0.0206377711
3734.1710742186	0.0202343129
3736.0998815916	0.0194983296
3738.0286889647	0.0203261897
3739.9574963377	0.0216561854
3741.8863037108	0.0224043950
3743.8151110838	0.0181392487
3745.7439184569	0.0177092031
3747.6727258299	0.0215723906
3749.6015332030	0.0189543851
3751.5303405760	0.0179389268
3753.4591479491	0.0199101157
3755.3879553221	0.0211743284
3757.3167626952	0.0216986258
3759.2455700682	0.0203754939
3761.1743774413	0.0210763924
3763.1031848143	0.0219565686
3765.0319921873	0.0208729710
3766.9607995604	0.0211076438
3768.8896069334	0.0207997039
3770.8184143065	0.0203336552
3772.7472216795	0.0215113610
3774.6760290526	0.0213878807
3776.6048364256	0.0214339681
3778.5336437987	0.0208861027
3780.4624511717	0.0202732105
3782.3912585448	0.0213034656
3784.3200659178	0.0208762772
3786.2488732909	0.0207502879
3788.1776806639	0.0211020224
3790.1064880370	0.0210464373
3792.0352954100	0.0209389776
3793.9641027830	0.0211959668
3795.8929101561	0.0201715715
3797.8217175291	0.0200688560
3799.7505249022	0.0206377637
3801.6793322752	0.0173123181
3803.6081396483	0.0197439212
3805.5369470213	0.0206755139
3807.4657543944	0.0178664774
3809.3945617674	0.0206787288
3811.3233691405	0.0202254541
3813.2521765135	0.0208838843
3815.1809838866	0.0190337300
3817.1097912596	0.0174041763
3819.0385986327	0.0207901783
3820.9674060057	0.0176671483
3822.8962133787	0.0184566602
3824.8250207518	0.0205084663
3826.7538281248	0.0190481991
3828.6826354979	0.0201917645
3830.6114428709	0.0195282400
3832.5402502440	0.0190606955
3834.4690576170	0.0193772055
3836.3978649901	0.0185782164
3838.3266723631	0.0171083137
3840.2554797362	0.0182112716
3842.1842871092	0.0193272159
3844.1130944823	0.0186636448
3846.0419018553	0.0196943656
3847.9707092284	0.0194231030
3849.8995166014	0.0196060278
3851.8283239745	0.0179564208
3853.7571313475	0.0143681653
3855.6859387205	0.0164913964
3857.6147460936	0.0195899494
3859.5435534666	0.0189450197
3861.4723608397	0.0188364387
3863.4011682127	0.0185147189
3865.3299755858	0.0175707377
3867.2587829588	0.0190751180
3869.1875903319	0.0177007467
3871.1163977049	0.0168487392
3873.0452050780	0.0190569051
3874.9740124510	0.0179401487
3876.9028198241	0.0189933889
3878.8316271971	0.0190780591
3880.7604345702	0.0171168186
3882.6892419432	0.0189810842
3884.6180493162	0.0179502890
3886.5468566893	0.0168814827
3888.4756640623	0.0189007949
3890.4044714354	0.0180464871
3892.3332788084	0.0173286386
3894.2620861815	0.0185830351
3896.1908935545	0.0187154338
3898.1197009276	0.0180050805
3900.0485083006	0.0172625743
3901.9773156737	0.0170900561
3903.9061230467	0.0169001184
3905.8349304198	0.0171448309
3907.7637377928	0.0183725543
3909.6925451659	0.0183273070
3911.6213525389	0.0181596987
3913.5501599119	0.0184025578
3915.4789672850	0.0179281905
3917.4077746580	0.0175681338
3919.3365820311	0.0175787769
3921.2653894041	0.0179038048
3923.1941967772	0.0177523345
3925.1230041502	0.0175904650
3927.0518115233	0.0177840460
3928.9806188963	0.0178583302
3930.9094262694	0.0175512023
3932.8382336424	0.0172074549
3934.7670410155	0.0176970139
3936.6958483885	0.0177153032
3938.6246557616	0.0176735166
3940.5534631346	0.0177773312
3942.4822705076	0.0171437636
3944.4110778807	0.0172674190
3946.3398852537	0.0175448135
3948.2686926268	0.0171633400
3950.1974999998	0.0171687938
3952.1263073729	0.0173045844
3954.0551147459	0.0172352195
3955.9839221190	0.0173138063
3957.9127294920	0.0173040368
3959.8415368651	0.0171801951
3961.7703442381	0.0170537345
3963.6991516112	0.0170124043
3965.6279589842	0.0171598755
3967.5567663573	0.0170685574
3969.4855737303	0.0169912633
3971.4143811034	0.0170039758
3973.3431884764	0.0169300139
3975.2719958494	0.0169062112
3977.2008032225	0.0168456174
3979.1296105955	0.0168300122
3981.0584179686	0.0167671926
3982.9872253416	0.0167647600
3984.9160327147	0.0167862922
3986.8448400877	0.0166496448
3988.7736474608	0.0165281259
3990.7024548338	0.0165332183
3992.6312622069	0.0165427998
3994.5600695799	0.0164862759
3996.4888769530	0.0165375806
3998.4176843260	0.0165029056
4000.3464916991	0.0164355468
4002.2752990721	0.0164342634
4004.2041064451	0.0163030736
4006.1329138182	0.0162497759
4008.0617211912	0.0163049605
4009.9905285643	0.0162409600
4011.9193359373	0.0161212981
4013.8481433104	0.0161860473
4015.7769506834	0.0161913801
4017.7057580565	0.0160229243
4019.6345654295	0.0160464123
4021.5633728026	0.0160249621
4023.4921801756	0.0158675313
4025.4209875487	0.0159186777
4027.3497949217	0.0159308445
4029.2786022948	0.0158406198
4031.2074096678	0.0158183202
4033.1362170408	0.0157991201
4035.0650244139	0.0157887321
4036.9938317869	0.0156891402
4038.9226391600	0.0156597681
4040.8514465330	0.0157037620
4042.7802539061	0.0156157501
4044.7090612791	0.0154948169
4046.6378686522	0.0155233499
4048.5666760252	0.0155830886
4050.4954833983	0.0154279843
4052.4242907713	0.0153773725
4054.3530981444	0.0153591931
4056.2819055174	0.0153110810
4058.2107128905	0.0153162647
4060.1395202635	0.0152512826
4062.0683276365	0.0152840260
4063.9971350096	0.0151891094
4065.9259423826	0.0151475249
4067.8547497557	0.0151361488
4069.7835571287	0.0150381885
4071.7123645018	0.0150728840
4073.6411718748	0.0150248650
4075.5699792479	0.0150681976
4077.4987866209	0.0149956914
4079.4275939940	0.0148355253
4081.3564013670	0.0148862787
4083.2852087401	0.0148900785
4085.2140161131	0.0148715936
4087.1428234862	0.0147534516
4089.0716308592	0.0146965636
4091.0004382323	0.0147728259
4092.9292456053	0.0146575524
4094.8580529783	0.0146100372
4096.7868603514	0.0146312835
4098.7156677244	0.0145251546
4100.6444750975	0.0145718846
4102.5732824705	0.0145439198
4104.5020898436	0.0144577455
4106.4308972166	0.0144897094
4108.3597045897	0.0144336829
4110.2885119627	0.0143560953
4112.2173193358	0.0142589668
4114.1461267088	0.0143648498
4116.0749340819	0.0143522331
4118.0037414549	0.0141802505
4119.9325488280	0.0142185315
4121.8613562010	0.0141309863
4123.7901635740	0.0140908677
4125.7189709471	0.0140787717
4127.6477783201	0.0140725030
4129.5765856932	0.0140497163
4131.5053930662	0.0139293093
4133.4342004393	0.0139403436
4135.3630078123	0.0139254527
4137.2918151854	0.0138723198
4139.2206225584	0.0138111878
4141.1494299315	0.0138269197
4143.0782373045	0.0138013475
4145.0070446776	0.0137509350
4146.9358520506	0.0136905396
4148.8646594237	0.0136041138
4150.7934667967	0.0137084946
4152.7222741697	0.0136607001
4154.6510815428	0.0135703022
4156.5798889158	0.0135460552
4158.5086962889	0.0135020399
4160.4375036619	0.0134728029
4162.3663110350	0.0134726502
4164.2951184080	0.0134681724
4166.2239257811	0.0133541804
4168.1527331541	0.0134098195
4170.0815405272	0.0133839175
4172.0103479002	0.0133586898
4173.9391552733	0.0134085659
4175.8679626463	0.0133146290
4177.7967700194	0.0132115409
4179.7255773924	0.0131234890
4181.6543847654	0.0131803658
4183.5831921385	0.0131383929
4185.5119995115	0.0131510887
4187.4408068846	0.0130746588
4189.3696142576	0.0129555380
4191.2984216307	0.0130949756
4193.2272290037	0.0129851634
4195.1560363768	0.0129187619
4197.0848437498	0.0128889866
4199.0136511229	0.0127945989
4200.9424584959	0.0128148813
4202.8712658690	0.0128064845
4204.8000732420	0.0127614941
4206.7288806151	0.0127057917
4208.6576879881	0.0127084833
4210.5864953611	0.0126499068
4212.5153027342	0.0126497252
4214.4441101072	0.0125938132
4216.3729174803	0.0125222243
4218.3017248533	0.0125374720
4220.2305322264	0.0124752261
4222.1593395994	0.0124864504
4224.0881469725	0.0124529935
4226.0169543455	0.0123941544
4227.9457617186	0.0123829767
4229.8745690916	0.0123925414
4231.8033764647	0.0123099405
4233.7321838377	0.0122291278
4235.6609912108	0.0122672003
4237.5897985838	0.0122551909
4239.5186059569	0.0122353621
4241.4474133299	0.0121636968
4243.3762207029	0.0121589769
4245.3050280760	0.0121415034
4247.2338354490	0.0121331783
4249.1626428221	0.0121243503
4251.0914501951	0.0119550806
4253.0202575682	0.0119533557
4254.9490649412	0.0120272599
4256.8778723143	0.0119634103
4258.8066796873	0.0119027039
4260.7354870604	0.0119276941
4262.6642944334	0.0118201133
4264.5931018065	0.0117726326
4266.5219091795	0.0118277930
4268.4507165526	0.0117725097
4270.3795239256	0.0117920814
4272.3083312986	0.0117540238
4274.2371386717	0.0117385592
4276.1659460447	0.0115985554
4278.0947534178	0.0115058953
4280.0235607908	0.0116439536
4281.9523681639	0.0116224699
4283.8811755369	0.0115514072
4285.8099829100	0.0115022045
4287.7387902830	0.0115282089
4289.6675976561	0.0114358766
4291.5964050291	0.0113840709
4293.5252124022	0.0113755595
4295.4540197752	0.0112870988
4297.3828271483	0.0112760551
4299.3116345213	0.0111973640
4301.2404418943	0.0112633146
4303.1692492674	0.0111633874
4305.0980566404	0.0111226588
4307.0268640135	0.0112082567
4308.9556713865	0.0110969217
4310.8844787596	0.0111263683
4312.8132861326	0.0110740457
4314.7420935057	0.0110536311
4316.6709008787	0.0110283270
4318.5997082518	0.0110456711
4320.5285156248	0.0110456729
4322.4573229979	0.0108910725
4324.3861303709	0.0109320013
4326.3149377440	0.0109159760
4328.2437451170	0.0108622331
4330.1725524900	0.0108114583
4332.1013598631	0.0108019095
4334.0301672361	0.0108102467
4335.9589746092	0.0107642766
4337.8877819822	0.0107648615
4339.8165893553	0.0107202865
4341.7453967283	0.0107395882
4343.6742041014	0.0106839472
4345.6030114744	0.0105816908
4347.5318188475	0.0106127094
4349.4606262205	0.0106426440
4351.3894335936	0.0105236918
4353.3182409666	0.0104924953
4355.2470483397	0.0105060618
4357.1758557127	0.0104443952
4359.1046630858	0.0104959141
4361.0334704588	0.0103627509
4362.9622778318	0.0103519382
4364.8910852049	0.0103988936
4366.8198925779	0.0102847461
4368.7486999510	0.0102760876
4370.6775073240	0.0102365203
4372.6063146971	0.0102837197
4374.5351220701	0.0102247540
4376.4639294432	0.0101916762
4378.3927368162	0.0101923626
4380.3215441893	0.0100717759
4382.2503515623	0.0101054441
4384.1791589354	0.0101256147
4386.1079663084	0.0100967186
4388.0367736815	0.0101035945
4389.9655810545	0.0101445410
4391.8943884275	0.0100825801
4393.8231958006	0.0099812001
4395.7520031736	0.0099209119
4397.6808105467	0.0099199060
4399.6096179197	0.0099220984
4401.5384252928	0.0098365527
4403.4672326658	0.0098134372
4405.3960400389	0.0097804349
4407.3248474119	0.0098476345
4409.2536547850	0.0097789615
4411.1824621580	0.0097042974
4413.1112695311	0.0097300578
4415.0400769041	0.0096222106
4416.9688842772	0.0096755233
4418.8976916502	0.0096409246
4420.8264990232	0.0096664773
4422.7553063963	0.0096401423
4424.6841137693	0.0095509328
4426.6129211424	0.0095972931
4428.5417285154	0.0094933854
4430.4705358885	0.0095455367
4432.3993432615	0.0094857439
4434.3281506346	0.0093991999
4436.2569580076	0.0094280224
4438.1857653807	0.0093742283
4440.1145727537	0.0094231404
4442.0433801268	0.0093916543
4443.9721874998	0.0092742350
4445.9009948729	0.0092250854
4447.8298022459	0.0092571341
4449.7586096189	0.0092046261
4451.6874169920	0.0092079341
4453.6162243650	0.0091808718
4455.5450317381	0.0091278907
4457.4738391111	0.0091521461
4459.4026464842	0.0090554580
4461.3314538572	0.0091617275
4463.2602612303	0.0091456082
4465.1890686033	0.0090655982
4467.1178759764	0.0091175223
4469.0466833494	0.0090153143
4470.9754907225	0.0089604743
4472.9042980955	0.0088974377
4474.8331054686	0.0089013679
4476.7619128416	0.0088559240
4478.6907202147	0.0088678608
4480.6195275877	0.0089429282
4482.5483349607	0.0088194916
4484.4771423338	0.0088019017
4486.4059497068	0.0088112354
4488.3347570799	0.0088027995
4490.2635644529	0.0088147521
4492.1923718260	0.0087450789
4494.1211791990	0.0086824102
4496.0499865721	0.0086661540
4497.9787939451	0.0086183054
4499.9076013182	0.0086321374
4501.8364086912	0.0086311977
4503.7652160643	0.0084723691
4505.6940234373	0.0084866174
4507.6228308104	0.0085801100
4509.5516381834	0.0085288230
4511.4804455564	0.0084488094
4513.4092529295	0.0084937671
4515.3380603025	0.0084972437
4517.2668676756	0.0084269680
4519.1956750486	0.0084681120
4521.1244824217	0.0083613396
4523.0532897947	0.0083352020
4524.9820971678	0.0083712861
4526.9109045408	0.0083365142
4528.8397119139	0.0083459467
4530.7685192869	0.0082881115
4532.6973266600	0.0083002662
4534.6261340330	0.0082238838
4536.5549414061	0.0081789987
4538.4837487791	0.0081517380
4540.4125561521	0.0081070075
4542.3413635252	0.0081816278
4544.2701708982	0.0080866078
4546.1989782713	0.0080434754
4548.1277856443	0.0081185084
4550.0565930174	0.0080852360
4551.9854003904	0.0080023985
4553.9142077635	0.0080325725
4555.8430151365	0.0080131311
4557.7718225096	0.0079505797
4559.7006298826	0.0079688616
4561.6294372557	0.0079129860
4563.5582446287	0.0079879975
4565.4870520018	0.0078963079
4567.4158593748	0.0077942237
4569.3446667478	0.0078630978
4571.2734741209	0.0077753919
4573.2022814939	0.0077972692
4575.1310888670	0.0077532809
4577.0598962400	0.0077881441
4578.9887036131	0.0077778678
4580.9175109861	0.0077025192
4582.8463183592	0.0077998023
4584.7751257322	0.0076256068
4586.7039331053	0.0076268599
4588.6327404783	0.0076805479
4590.5615478514	0.0076026591
4592.4903552244	0.0076443758
4594.4191625975	0.0075552948
4596.3479699705	0.0075445967
4598.2767773435	0.0075260773
4600.2055847166	0.0075137559
4602.1343920896	0.0075129005
4604.0631994627	0.0074802348
4605.9920068357	0.0074812798
4607.9208142088	0.0073609487
4609.8496215818	0.0073741497
4611.7784289549	0.0074156430
4613.7072363279	0.0073957085
4615.6360437010	0.0073534092
4617.5648510740	0.0072932434
4619.4936584471	0.0073326835
4621.4224658201	0.0072904946
4623.3512731932	0.0072643375
4625.2800805662	0.0072478531
4627.2088879393	0.0072713150
4629.1376953123	0.0073285801
4631.0665026853	0.0072361212
4632.9953100584	0.0071764872
4634.9241174314	0.0071300841
4636.8529248045	0.0070709521
4638.7817321775	0.0070983083
4640.7105395506	0.0071288310
4642.6393469236	0.0070467335
4644.5681542967	0.0070018191
4646.4969616697	0.0070142294
4648.4257690428	0.0069613778
4650.3545764158	0.0069702119
4652.2833837889	0.0069686314
4654.2121911619	0.0069781477
4656.1409985350	0.0069462368
4658.0698059080	0.0068713175
4659.9986132810	0.0068643522
4661.9274206541	0.0068072099
4663.8562280271	0.0068449443
4665.7850354002	0.0068995301
4667.7138427732	0.0068739997
4669.6426501463	0.0068446617
4671.5714575193	0.0067778807
4673.5002648924	0.0067636906
4675.4290722654	0.0067931870
4677.3578796385	0.0067385943
4679.2866870115	0.0066815848
4681.2154943846	0.0067812484
4683.1443017576	0.0067278137
4685.0731091307	0.0065728235
4687.0019165037	0.0066396529
4688.9307238767	0.0066787489
4690.8595312498	0.0066353800
4692.7883386228	0.0066194283
4694.7171459959	0.0066204672
4696.6459533689	0.0066036419
4698.5747607420	0.0065500094
4700.5035681150	0.0065128990
4702.4323754881	0.0065419227
4704.3611828611	0.0065402715
4706.2899902342	0.0064162966
4708.2187976072	0.0064130267
4710.1476049803	0.0065177437
4712.0764123533	0.0064944308
4714.0052197264	0.0064320555
4715.9340270994	0.0063476921
4717.8628344724	0.0062778518
4719.7916418455	0.0063469540
4721.7204492185	0.0063570496
4723.6492565916	0.0063394266
4725.5780639646	0.0063307770
4727.5068713377	0.0062962230
4729.4356787107	0.0063937046
4731.3644860838	0.0063044662
4733.2932934568	0.0061729974
4735.2221008299	0.0061645741
4737.1509082029	0.0061221691
4739.0797155760	0.0062128417
4741.0085229490	0.0061618974
4742.9373303221	0.0060883448
4744.8661376951	0.0061331354
4746.7949450682	0.0060848566
4748.7237524412	0.0060687140
4750.6525598142	0.0061092172
4752.5813671873	0.0060720472
4754.5101745603	0.0059732227
4756.4389819334	0.0060329079
4758.3677893064	0.0060656043
4760.2965966795	0.0060208193
4762.2254040525	0.0059742248
4764.1542114256	0.0059358738
4766.0830187986	0.0060183485
4768.0118261717	0.0059599746
4769.9406335447	0.0058508813
4771.8694409178	0.0058439779
4773.7982482908	0.0058999970
4775.7270556639	0.0059076399
4777.6558630369	0.0057840785
4779.5846704099	0.0057882830
4781.5134777830	0.0058717653
4783.4422851560	0.0058304137
4785.3710925291	0.0057497048
4787.2998999021	0.0057426393
4789.2287072752	0.0057055056
4791.1575146482	0.0057305507
4793.0863220213	0.0057776337
4795.0151293943	0.0057289153
4796.9439367674	0.0057215700
4798.8727441404	0.0056952755
4800.8015515135	0.0056842119
4802.7303588865	0.0056520146
4804.6591662596	0.0056350119
4806.5879736326	0.0056190561
4808.5167810056	0.0055686068
4810.4455883787	0.0055670892
4812.3743957517	0.0055509778
4814.3032031248	0.0055448990
4816.2320104978	0.0055059628
4818.1608178709	0.0055385586
4820.0896252439	0.0055422401
4822.0184326170	0.0055420646
4823.9472399900	0.0055165356
4825.8760473631	0.0053840037
4827.8048547361	0.0054127993
4829.7336621092	0.0054371785
4831.6624694822	0.0054941582
4833.5912768553	0.0054139183
4835.5200842283	0.0053360811
4837.4488916013	0.0054093348
4839.3776989744	0.0053391159
4841.3065063474	0.0053987605
4843.2353137205	0.0053544203
4845.1641210935	0.0053267302
4847.0929284666	0.0053710202
4849.0217358396	0.0052876174
4850.9505432127	0.0052838866
4852.8793505857	0.0052662482
4854.8081579588	0.0052913902
4856.7369653318	0.0052403165
4858.6657727049	0.0051965080
4860.5945800779	0.0052022440
4862.5233874510	0.0051630381
4864.4521948240	0.0051039797
4866.3810021971	0.0050912146
4868.3098095701	0.0051689129
4870.2386169431	0.0050978661
4872.1674243162	0.0050876699
4874.0962316892	0.0050392868
4876.0250390623	0.0049689729
4877.9538464353	0.0050523537
4879.8826538084	0.0050732531
4881.8114611814	0.0050852010
4883.7402685545	0.0050493637
4885.6690759275	0.0050745169
4887.5978833006	0.0050265971
4889.5266906736	0.0049026399
4891.4554980467	0.0049383659
4893.3843054197	0.0049803699
4895.3131127928	0.0049454416
4897.2419201658	0.0049202405
4899.1707275388	0.0049419510
4901.0995349119	0.0048656687
4903.0283422849	0.0048687863
4904.9571496580	0.0048821224
4906.8859570310	0.0048099635
4908.8147644041	0.0048482982
4910.7435717771	0.0048475629
4912.6723791502	0.0048044808
4914.6011865232	0.0048038745
4916.5299938963	0.0048317239
4918.4588012693	0.0047337599
4920.3876086424	0.0046676593
4922.3164160154	0.0047364635
4924.2452233885	0.0046912404
4926.1740307615	0.0047057923
4928.1028381345	0.0047579464
4930.0316455076	0.0046606297
4931.9604528806	0.0046309903
4933.8892602537	0.0047138631
4935.8180676267	0.0046800766
4937.7468749998	0.0046109781
4939.6756823728	0.0046081292
4941.6044897459	0.0046254927
4943.5332971189	0.0045800237
4945.4621044920	0.0045464770
4947.3909118650	0.0045913085
4949.3197192381	0.0045346236
4951.2485266111	0.0045490684
4953.1773339842	0.0045314590
4955.1061413572	0.0045200381
4957.0349487302	0.0045634108
4958.9637561033	0.0044787554
4960.8925634763	0.0044815158
4962.8213708494	0.0044273175
4964.7501782224	0.0044516083
4966.6789855955	0.0044206153
4968.6077929685	0.0043369792
4970.5366003416	0.0044112606
4972.4654077146	0.0043430203
4974.3942150877	0.0043869582
4976.3230224607	0.0044036373
4978.2518298338	0.0043749437
4980.1806372068	0.0043605501
4982.1094445799	0.0043152454
4984.0382519529	0.0043606097
4985.9670593259	0.0042841341
4987.8958666990	0.0042616390
4989.8246740720	0.0042649293
4991.7534814451	0.0042895684
4993.6822888181	0.0042619263
4995.6110961912	0.0042262524
4997.5399035642	0.0042561837
4999.4687109373	0.0041284282
5001.3975183103	0.0042126155
5003.3263256834	0.0042474293
5005.2551330564	0.0040986999
5007.1839404295	0.0041582864
5009.1127478025	0.0042484947
5011.0415551756	0.0042233099
5012.9703625486	0.0041816775
5014.8991699217	0.0041800346
5016.8279772947	0.0041064671
5018.7567846677	0.0040714955
5020.6855920408	0.0040413374
5022.6143994138	0.0040185908
5024.5432067869	0.0040584076
5026.4720141599	0.0040526423
5028.4008215330	0.0040547457
5030.3296289060	0.0040043369
5032.2584362791	0.0040386543
5034.1872436521	0.0040997881
5036.1160510252	0.0039807120
5038.0448583982	0.0038848310
5039.9736657713	0.0039603314
5041.9024731443	0.0039959806
5043.8312805174	0.0039458126
5045.7600878904	0.0039492399
5047.6888952634	0.0038903332
5049.6177026365	0.0039244359
5051.5465100095	0.0039528869
5053.4753173826	0.0039072521
5055.4041247556	0.0039701173
5057.3329321287	0.0038510328
5059.2617395017	0.0037494507
5061.1905468748	0.0038415291
5063.1193542478	0.0038247285
5065.0481616209	0.0037752385
5066.9769689939	0.0038100162
5068.9057763670	0.0038279057
5070.8345837400	0.0038535169
5072.7633911131	0.0038094628
5074.6921984861	0.0037131244
5076.6210058591	0.0038054637
5078.5498132322	0.0037917306
5080.4786206052	0.0037088860
5082.4074279783	0.0037511708
5084.3362353513	0.0036353422
5086.2650427244	0.0036311869
5088.1938500974	0.0037451466
5090.1226574705	0.0036919380
5092.0514648435	0.0036564092
5093.9802722166	0.0036672715
5095.9090795896	0.0036455435
5097.8378869627	0.0036029317
5099.7666943357	0.0035953512
5101.6955017088	0.0035750763
5103.6243090818	0.0035305168
5105.5531164548	0.0035967561
5107.4819238279	0.0036393451
5109.4107312009	0.0035646479
5111.3395385740	0.0035631238
5113.2683459470	0.0036245300
5115.1971533201	0.0035489164
5117.1259606931	0.0034808819
5119.0547680662	0.0035320083
5120.9835754392	0.0035239595
5122.9123828123	0.0035253917
5124.8411901853	0.0035169655
5126.7699975584	0.0035119965
5128.6988049314	0.0035452337
5130.6276123045	0.0034780838
5132.5564196775	0.0034394190
5134.4852270506	0.0034171084
5136.4140344236	0.0033715502
5138.3428417966	0.0034003952
5140.2716491697	0.0034673833
5142.2004565427	0.0034399573
5144.1292639158	0.0033826325
5146.0580712888	0.0033966876
5147.9868786619	0.0033574661
5149.9156860349	0.0033572079
5151.8444934080	0.0033203610
5153.7733007810	0.0033295169
5155.7021081541	0.0034104378
5157.6309155271	0.0033321693
5159.5597229002	0.0033215643
5161.4885302732	0.0032748221
5163.4173376463	0.0032080219
5165.3461450193	0.0032590688
5167.2749523923	0.0032880059
5169.2037597654	0.0032663464
5171.1325671384	0.0032010102
5173.0613745115	0.0032235514
5174.9901818845	0.0032734661
5176.9189892576	0.0032965317
5178.8477966306	0.0032254616
5180.7766040037	0.0031475821
5182.7054113767	0.0031572543
5184.6342187498	0.0031472524
5186.5630261228	0.0031699613
5188.4918334959	0.0031395671
5190.4206408689	0.0031052874
5192.3494482420	0.0031195856
5194.2782556150	0.0031615796
5196.2070629880	0.0031067790
5198.1358703611	0.0030702911
5200.0646777341	0.0031861952
5201.9934851072	0.0031445185
5203.9222924802	0.0031082954
5205.8510998533	0.0030252491
5207.7799072263	0.0029683351
5209.7087145994	0.0030506509
5211.6375219724	0.0030175322
5213.5663293455	0.0030704427
5215.4951367185	0.0030390387
5217.4239440916	0.0029811801
5219.3527514646	0.0029987292
5221.2815588377	0.0029892093
5223.2103662107	0.0030618731
5225.1391735837	0.0029470602
5227.0679809568	0.0029024859
5228.9967883298	0.0029875515
5230.9255957029	0.0029465526
5232.8544030759	0.0029772376
5234.7832104490	0.0029408466
5236.7120178220	0.0029740806
5238.6408251951	0.0030021605
5240.5696325681	0.0028987019
5242.4984399412	0.0029602870
5244.4272473142	0.0029101972
5246.3560546873	0.0029262411
5248.2848620603	0.0029206336
5250.2136694334	0.0027965587
5252.1424768064	0.0029207557
5254.0712841795	0.0028451390
5256.0000915525	0.0028099297
5257.9288989255	0.0028099280
5259.8577062986	0.0027576531
5261.7865136716	0.0028630174
5263.7153210447	0.0027068742
5265.6441284177	0.0026952773
5267.5729357908	0.0027923924
5269.5017431638	0.0027546096
5271.4305505369	0.0027547786
5273.3593579099	0.0027604732
5275.2881652830	0.0027803653
5277.2169726560	0.0027354076
5279.1457800291	0.0027629014
5281.0745874021	0.0027867192
5283.0033947752	0.0027671643
5284.9322021482	0.0026800947
5286.8610095212	0.0027251032
5288.7898168943	0.0027584089
5290.7186242673	0.0026088208
5292.6474316404	0.0027093156
5294.5762390134	0.0026805135
5296.5050463865	0.0026452406
5298.4338537595	0.0027213972
5300.3626611326	0.0026732597
5302.2914685056	0.0026156013
5304.2202758787	0.0025783135
5306.1490832517	0.0026657591
5308.0778906248	0.0026104460
5310.0066979978	0.0026362091
5311.9355053709	0.0026903721
5313.8643127439	0.0026205338
5315.7931201169	0.0026033518
5317.7219274900	0.0025739756
5319.6507348630	0.0026169573
5321.5795422361	0.0025753612
5323.5083496091	0.0025987816
5325.4371569822	0.0025884500
5327.3659643552	0.0025207819
5329.2947717283	0.0025465214
5331.2235791013	0.0025589524
5333.1523864744	0.0025042293
5335.0811938474	0.0024445695
5337.0100012205	0.0025296570
5338.9388085935	0.0023989836
5340.8676159666	0.0024573212
5342.7964233396	0.0025354880
5344.7252307126	0.0023685109
5346.6540380857	0.0024610162
5348.5828454587	0.0024510543
5350.5116528318	0.0025144638
5352.4404602048	0.0025027962
5354.3692675779	0.0023649787
5356.2980749509	0.0023481129
5358.2268823240	0.0024186196
5360.1556896970	0.0025169123
5362.0844970701	0.0023794118
5364.0133044431	0.0024630763
5365.9421118162	0.0024855896
5367.8709191892	0.0024085329
5369.7997265623	0.0024205861
5371.7285339353	0.0022987975
5373.6573413083	0.0023489837
5375.5861486814	0.0022951630
5377.5149560544	0.0022669197
5379.4437634275	0.0023510177
5381.3725708005	0.0023322219
5383.3013781736	0.0023437045
5385.2301855466	0.0022924291
5387.1589929197	0.0022323164
5389.0878002927	0.0022910563
5391.0166076658	0.0023102995
5392.9454150388	0.0022324603
5394.8742224119	0.0022761880
5396.8030297849	0.0022250679
5398.7318371580	0.0021866034
5400.6606445310	0.0022847818
5402.5894519041	0.0022635739
5404.5182592771	0.0022589779
5406.4470666501	0.0022754674
5408.3758740232	0.0022868593
5410.3046813962	0.0022355774
5412.2334887693	0.0021942169
5414.1622961423	0.0021715111
5416.0911035154	0.0021739183
5418.0199108884	0.0021977420
5419.9487182615	0.0021991711
5421.8775256345	0.0022627993
5423.8063330076	0.0021576486
5425.7351403806	0.0021854695
5427.6639477537	0.0021973075
5429.5927551267	0.0020417445
5431.5215624998	0.0021228960
5433.4503698728	0.0021073387
5435.3791772458	0.0020761380
5437.3079846189	0.0020952779
5439.2367919919	0.0021090533
5441.1655993650	0.0021392745
5443.0944067380	0.0020492915
5445.0232141111	0.0020460924
5446.9520214841	0.0020993385
5448.8808288572	0.0020840447
5450.8096362302	0.0020771641
5452.7384436033	0.0021207943
5454.6672509763	0.0020900331
5456.5960583494	0.0020882976
5458.5248657224	0.0021022265
5460.4536730955	0.0020169439
5462.3824804685	0.0020260522
5464.3112878415	0.0020526208
5466.2400952146	0.0020961370
5468.1689025876	0.0020907717
5470.0977099607	0.0020633307
5472.0265173337	0.0021073688
5473.9553247068	0.0020312956
5475.8841320798	0.0019819834
5477.8129394529	0.0020222105
5479.7417468259	0.0020176354
5481.6705541990	0.0019273013
5483.5993615720	0.0019428844
5485.5281689451	0.0020342250
5487.4569763181	0.0019293262
5489.3857836912	0.0019478290
5491.3145910642	0.0020026625
5493.2433984372	0.0018873345
5495.1722058103	0.0019629304
5497.1010131833	0.0020457150
5499.0298205564	0.0019553453
5500.9586279294	0.0018647367
5502.8874353025	0.0018866342
5504.8162426755	0.0019576291
5506.7450500486	0.0019297147
5508.6738574216	0.0019409269
5510.6026647947	0.0018729414
5512.5314721677	0.0018474050
5514.4602795408	0.0019593937
5516.3890869138	0.0018948581
5518.3178942869	0.0018477631
5520.2467016599	0.0018121698
5522.1755090330	0.0018096962
5524.1043164060	0.0018534372
5526.0331237790	0.0018731643
5527.9619311521	0.0019179708
5529.8907385251	0.0018194448
5531.8195458982	0.0018446732
5533.7483532712	0.0018333292
5535.6771606443	0.0017485875
5537.6059680173	0.0018401535
5539.5347753904	0.0018008072
5541.4635827634	0.0017951630
5543.3923901365	0.0018403395
5545.3211975095	0.0018171303
5547.2500048826	0.0017896153
5549.1788122556	0.0017427960
5551.1076196287	0.0017219908
5553.0364270017	0.0017117754
5554.9652343747	0.0017522948
5556.8940417478	0.0017280336
5558.8228491208	0.0017074721
5560.7516564939	0.0017676505
5562.6804638669	0.0017687671
5564.6092712400	0.0017243375
5566.5380786130	0.0017148177
5568.4668859861	0.0017427886
5570.3956933591	0.0017097254
5572.3245007322	0.0017330571
5574.2533081052	0.0017271510
5576.1821154783	0.0017045615
5578.1109228513	0.0017809994
5580.0397302244	0.0016575011
5581.9685375974	0.0016704387
5583.8973449704	0.0017753377
5585.8261523435	0.0016304883
5587.7549597165	0.0016962257
5589.6837670896	0.0017307673
5591.6125744626	0.0016718420
5593.5413818357	0.0017189790
5595.4701892087	0.0016654558
5597.3989965818	0.0016898573
5599.3278039548	0.0016445017
5601.2566113279	0.0016328203
5603.1854187009	0.0016485319
5605.1142260740	0.0015775508
5607.0430334470	0.0016995482
5608.9718408201	0.0016819028
5610.9006481931	0.0016270597
5612.8294555661	0.0016371661
5614.7582629392	0.0015971255
5616.6870703122	0.0016504225
5618.6158776853	0.0016403962
5620.5446850583	0.0015876545
5622.4734924314	0.0015593744
5624.4022998044	0.0016190087
5626.3311071775	0.0016026595
5628.2599145505	0.0015346847
5630.1887219236	0.0015525846
5632.1175292966	0.0015532328
5634.0463366697	0.0015823715
5635.9751440427	0.0015332764
5637.9039514158	0.0015611770
5639.8327587888	0.0015493620
5641.7615661619	0.0015001036
5643.6903735349	0.0015797419
5645.6191809079	0.0015337423
5647.5479882810	0.0015437367
5649.4767956540	0.0015158271
5651.4056030271	0.0014853091
5653.3344104001	0.0015234249
5655.2632177732	0.0014842248
5657.1920251462	0.0015483724
5659.1208325193	0.0015170474
5661.0496398923	0.0014917450
5662.9784472654	0.0015033500
5664.9072546384	0.0013754575
5666.8360620115	0.0013910849
5668.7648693845	0.0014834078
5670.6936767576	0.0014754443
5672.6224841306	0.0013949868
5674.5512915036	0.0013974491
5676.4800988767	0.0015124460
5678.4089062497	0.0014935536
5680.3377136228	0.0014424385
5682.2665209958	0.0014402490
5684.1953283689	0.0014205244
5686.1241357419	0.0014540858
5688.0529431150	0.0014397919
5689.9817504880	0.0014052418
5691.9105578611	0.0013856916
5693.8393652341	0.0013934155
5695.7681726072	0.0014454955
5697.6969799802	0.0014334344
5699.6257873533	0.0014304338
5701.5545947263	0.0013296333
5703.4834020993	0.0012983796
5705.4122094724	0.0014395539
5707.3410168454	0.0013488546
5709.2698242185	0.0012859053
5711.1986315915	0.0013647936
5713.1274389646	0.0013195615
5715.0562463376	0.0013278862
5716.9850537107	0.0013527242
5718.9138610837	0.0013101238
5720.8426684568	0.0013404130
5722.7714758298	0.0013827244
5724.7002832029	0.0013741985
5726.6290905759	0.0013588857
5728.5578979490	0.0013671136
5730.4867053220	0.0013505931
5732.4155126950	0.0013017885
5734.3443200681	0.0012959947
5736.2731274411	0.0013233216
5738.2019348142	0.0013697846
5740.1307421872	0.0013346081
5742.0595495603	0.0013096991
5743.9883569333	0.0013380637
5745.9171643064	0.0012990911
5747.8459716794	0.0012520496
5749.7747790525	0.0011768609
5751.7035864255	0.0012326050
5753.6323937986	0.0012823950
5755.5612011716	0.0012521361
5757.4900085447	0.0013115120
5759.4188159177	0.0012803015
5761.3476232907	0.0012383400
5763.2764306638	0.0012306115
5765.2052380368	0.0012393338
5767.1340454099	0.0011934871
5769.0628527829	0.0012002328
5770.9916601560	0.0012582906
5772.9204675290	0.0011811319
5774.8492749021	0.0012031947
5776.7780822751	0.0011561193
5778.7068896482	0.0011326536
5780.6356970212	0.0012135773
5782.5645043943	0.0011769475
5784.4933117673	0.0011554535
5786.4221191404	0.0011693595
5788.3509265134	0.0011846883
5790.2797338865	0.0011525566
5792.2085412595	0.0011906029
5794.1373486325	0.0011519159
5796.0661560056	0.0011283648
5797.9949633786	0.0011977314
5799.9237707517	0.0011452776
5801.8525781247	0.0011484968
5803.7813854978	0.0011401370
5805.7101928708	0.0011827373
5807.6390002439	0.0011554770
5809.5678076169	0.0011631581
5811.4966149900	0.0012220573
5813.4254223630	0.0011267544
5815.3542297361	0.0011992521
5817.2830371091	0.0011474907
5819.2118444822	0.0010761872
5821.1406518552	0.0011301215
5823.0694592282	0.0011245684
5824.9982666013	0.0011192572
5826.9270739743	0.0010963972
5828.8558813474	0.0011034249
5830.7846887204	0.0010289156
5832.7134960935	0.0011010607
5834.6423034665	0.0011320733
5836.5711108396	0.0010857980
5838.4999182126	0.0011195705
5840.4287255857	0.0010492310
5842.3575329587	0.0011230794
5844.2863403318	0.0010904509
5846.2151477048	0.0010687835
5848.1439550779	0.0011475845
5850.0727624509	0.0010051832
5852.0015698239	0.0010097193
5853.9303771970	0.0010587664
5855.8591845700	0.0010039767
5857.7879919431	0.0010965097
5859.7167993161	0.0010692144
5861.6456066892	0.0009695523
5863.5744140622	0.0011003944
5865.5032214353	0.0010655269
5867.4320288083	0.0009819497
5869.3608361814	0.0010746883
5871.2896435544	0.0010585608
5873.2184509275	0.0010154612
5875.1472583005	0.0009815169
5877.0760656736	0.0009791697
5879.0048730466	0.0009933424
5880.9336804196	0.0009918993
5882.8624877927	0.0009757739
5884.7912951657	0.0009846278
5886.7201025388	0.0010306028
5888.6489099118	0.0009736692
5890.5777172849	0.0009766116
5892.5065246579	0.0010196103
5894.4353320310	0.0009242897
5896.3641394040	0.0008942179
5898.2929467771	0.0009926432
5900.2217541501	0.0009669627
5902.1505615232	0.0009779433
5904.0793688962	0.0009881766
5906.0081762693	0.0009361796
5907.9369836423	0.0009933525
5909.8657910154	0.0008957163
5911.7945983884	0.0009380068
5913.7234057614	0.0009749576
5915.6522131345	0.0009313790
5917.5810205075	0.0010244099
5919.5098278806	0.0009347905
5921.4386352536	0.0009153071
5923.3674426267	0.0008824143
5925.2962499997	0.0009511214
5927.2250573728	0.0009407691
5929.1538647458	0.0008483366
5931.0826721189	0.0009839938
5933.0114794919	0.0008717063
5934.9402868650	0.0009191846
5936.8690942380	0.0009547627
5938.7979016111	0.0008930983
5940.7267089841	0.0009489863
5942.6555163571	0.0008880806
5944.5843237302	0.0009509913
5946.5131311032	0.0009199467
5948.4419384763	0.0009051644
5950.3707458493	0.0008813841
5952.2995532224	0.0008857732
5954.2283605954	0.0009374880
5956.1571679685	0.0008262157
5958.0859753415	0.0008622284
5960.0147827146	0.0008474747
5961.9435900876	0.0008623998
5963.8723974607	0.0009044720
5965.8012048337	0.0008483041
5967.7300122068	0.0008682626
5969.6588195798	0.0008304325
5971.5876269528	0.0008016067
5973.5164343259	0.0008220738
5975.4452416989	0.0008397785
5977.3740490720	0.0008640190
5979.3028564450	0.0008556065
5981.2316638181	0.0007829758
5983.1604711911	0.0008521093
5985.0892785642	0.0009070755
5987.0180859372	0.0008579198
5988.9468933103	0.0008981010
5990.8757006833	0.0008018175
5992.8045080564	0.0007882604
5994.7333154294	0.0008373179
5996.6621228025	0.0008336385
5998.5909301755	0.0008682472
6000.5197375485	0.0008011082
