399.2631262207	0.0004200861
401.1919335938	0.0010192832
403.1207409668	0.0011718286
405.0495483398	0.0007295195
406.9783557129	0.0004076445
408.9071630859	0.0009509126
410.8359704590	0.0012822632
412.7647778320	0.0003833334
414.6935852051	0.0007068585
416.6223925781	0.0010477275
418.5511999512	0.0010702804
420.4800073242	0.0009093074
422.4088146973	0.0004755567
424.3376220703	0.0011299846
426.2664294434	0.0010429509
428.1952368164	0.0009609105
430.1240441895	0.0008390202
432.0528515625	0.0004887762
433.9816589355	0.0009314622
435.9104663086	0.0007592172
437.8392736816	0.0008039974
439.7680810547	0.0007655497
441.6968884277	0.0007659753
443.6256958008	0.0008927225
445.5545031738	0.0003915859
447.4833105469	0.0006891624
449.4121179199	0.0007071854
451.3409252930	0.0006885034
453.2697326660	0.0010345811
455.1985400391	0.0008088302
457.1273474121	0.0008181749
459.0561547852	0.0007365691
460.9849621582	0.0007240114
462.9137695313	0.0007852123
464.8425769043	0.0004526793
466.7713842773	0.0001960158
468.7001916504	0.0003894107
470.6289990234	0.0004977217
472.5578063965	0.0004440720
474.4866137695	0.0006501748
476.4154211426	0.0006501685
478.3442285156	0.0006424837
480.2730358887	0.0003094424
482.2018432617	0.0001467690
484.1306506348	0.0003984087
486.0594580078	0.0001114287
487.9882653809	0.0002399862
489.9170727539	0.0004361018
491.8458801270	0.0002475526
493.7746875000	0.0004011869
495.7034948730	0.0002672935
497.6323022461	0.0001616079
499.5611096191	0.0003964438
501.4899169922	0.0000622188
503.4187243652	-0.0001767634
505.3475317383	0.0001874612
507.2763391113	0.0005464366
509.2051464844	0.0003524381
511.1339538574	-0.0002208211
513.0627612305	0.0002011579
514.9915686035	0.0007790078
516.9203759766	0.0002023451
518.8491833496	-0.0001980691
520.7779907227	0.0003072398
522.7067980957	0.0003824772
524.6356054688	0.0003876263
526.5644128418	0.0005537005
528.4932202148	0.0001236899
530.4220275879	0.0004391018
532.3508349609	0.0005216522
534.2796423340	0.0001966029
536.2084497070	0.0003630193
538.1372570801	0.0004076916
540.0660644531	0.0004566084
541.9948718262	0.0002167374
543.9236791992	0.0001538658
545.8524865723	-0.0001870792
547.7812939453	-0.0000747959
549.7101013184	0.0001322061
551.6389086914	-0.0002142527
553.5677160645	0.0004022109
555.4965234375	0.0002122629
557.4253308105	0.0001262725
559.3541381836	0.0003732757
561.2829455566	0.0001385530
563.2117529297	0.0006034060
565.1405603027	0.0003164627
567.0693676758	0.0000805940
568.9981750488	0.0001940514
570.9269824219	0.0001190321
572.8557897949	0.0002021858
574.7845971680	-0.0001457357
576.7134045410	-0.0002819887
578.6422119141	-0.0000222204
580.5710192871	0.0003131643
582.4998266602	0.0001317119
584.4286340332	-0.0000607472
586.3574414063	0.0001022004
588.2862487793	-0.0001850749
590.2150561523	0.0000609411
592.1438635254	0.0005469067
594.0726708984	0.0001359618
596.0014782715	0.0000696427
597.9302856445	-0.0001251716
599.8590930176	-0.0004747077
601.7879003906	-0.0000360499
603.7167077637	0.0003575583
605.6455151367	0.0002780576
607.5743225098	0.0002369614
609.5031298828	0.0004162745
611.4319372559	0.0002532646
613.3607446289	0.0001410582
615.2895520020	0.0000097391
617.2183593750	0.0001743914
619.1471667480	0.0004038359
621.0759741211	0.0000484582
623.0047814941	0.0000278700
624.9335888672	-0.0000704490
626.8623962402	0.0000462336
628.7912036133	0.0005147232
630.7200109863	0.0003633087
632.6488183594	0.0005516757
634.5776257324	0.0007613588
636.5064331055	0.0008089235
638.4352404785	0.0009901888
640.3640478516	0.0006196833
642.2928552246	0.0008164169
644.2216625977	0.0009945398
646.1504699707	0.0007054463
648.0792773438	0.0012122914
650.0080847168	0.0013289688
651.9368920898	0.0010626536
653.8656994629	0.0010712439
655.7945068359	0.0011106422
657.7233142090	0.0012717079
659.6521215820	0.0011954901
661.5809289551	0.0012947759
663.5097363281	0.0015371494
665.4385437012	0.0014644040
667.3673510742	0.0013137810
669.2961584473	0.0013285591
671.2249658203	0.0017621303
673.1537731934	0.0019632946
675.0825805664	0.0017923585
677.0113879395	0.0020313787
678.9401953125	0.0018951163
680.8690026855	0.0018199105
682.7978100586	0.0022894274
684.7266174316	0.0019702017
686.6554248047	0.0016738035
688.5842321777	0.0016253118
690.5130395508	0.0017567065
692.4418469238	0.0022018659
694.3706542969	0.0021681781
696.2994616699	0.0024279724
698.2282690430	0.0029128366
700.1570764160	0.0031565870
702.0858837891	0.0030143973
704.0146911621	0.0028734119
705.9434985352	0.0027266035
707.8723059082	0.0021125691
709.8011132813	0.0015522088
711.7299206543	0.0008224827
713.6587280273	0.0007184002
715.5875354004	0.0005381312
717.5163427734	0.0002799413
719.4451501465	0.0004920354
721.3739575195	-0.0001206110
723.3027648926	0.0000718608
725.2315722656	0.0003891249
727.1603796387	0.0001901526
729.0891870117	0.0001367815
731.0179943848	-0.0001014497
732.9468017578	0.0002264408
734.8756091309	0.0003359422
736.8044165039	0.0003075884
738.7332238770	-0.0000118974
740.6620312500	-0.0000058497
742.5908386230	0.0004341395
744.5196459961	0.0000023598
746.4484533691	0.0000809927
748.3772607422	0.0002929699
750.3060681152	0.0002478607
752.2348754883	0.0002156318
754.1636828613	0.0001366728
756.0924902344	0.0003185017
758.0212976074	0.0002135329
759.9501049805	0.0003211394
761.8789123535	0.0000928728
763.8077197266	-0.0000047751
765.7365270996	0.0003188961
767.6653344727	0.0001099212
769.5941418457	0.0001627185
771.5229492188	0.0002760355
773.4517565918	0.0003554967
775.3805639648	0.0002437295
777.3093713379	0.0002200943
779.2381787109	0.0004869871
781.1669860840	0.0001509534
783.0957934570	-0.0000014080
785.0246008301	0.0004052107
786.9534082031	0.0003891817
788.8822155762	-0.0000057686
790.8110229492	-0.0000493218
792.7398303223	0.0001750613
794.6686376953	0.0003839020
796.5974450684	0.0002997982
798.5262524414	0.0001861497
800.4550598145	0.0004576221
802.3838671875	0.0004537635
804.3126745605	0.0002237286
806.2414819336	0.0004060112
808.1702893066	0.0004511006
810.0990966797	0.0001007053
812.0279040527	0.0004441211
813.9567114258	0.0005402190
815.8855187988	0.0001087822
817.8143261719	0.0003519501
819.7431335449	0.0002598104
821.6719409180	0.0002936659
823.6007482910	0.0005749001
825.5295556641	0.0005100840
827.4583630371	0.0004664176
829.3871704102	0.0003981508
831.3159777832	0.0006715117
833.2447851563	0.0007828128
835.1735925293	0.0007982859
837.1023999023	0.0007804689
839.0312072754	0.0006231887
840.9600146484	0.0007374772
842.8888220215	0.0006206331
844.8176293945	0.0006122811
846.7464367676	0.0005576480
848.6752441406	0.0004301784
850.6040515137	0.0008426593
852.5328588867	0.0007548543
854.4616662598	0.0001830537
856.3904736328	0.0002563589
858.3192810059	0.0004171915
860.2480883789	0.0003831935
862.1768957520	0.0005494351
864.1057031250	0.0003827062
866.0345104980	0.0002425525
867.9633178711	0.0004610467
869.8921252441	0.0002929581
871.8209326172	0.0000441773
873.7497399902	0.0001736217
875.6785473633	0.0000713714
877.6073547363	-0.0000246168
879.5361621094	0.0003447435
881.4649694824	0.0003089975
883.3937768555	0.0002369663
885.3225842285	0.0003817229
887.2513916016	0.0003196143
889.1801989746	0.0002684395
891.1090063477	0.0001154935
893.0378137207	0.0004243686
894.9666210938	0.0005581124
896.8954284668	0.0002301019
898.8242358398	0.0004875371
900.7530432129	0.0004154429
902.6818505859	0.0003083104
904.6106579590	0.0006583388
906.5394653320	0.0004722262
908.4682727051	0.0004621616
910.3970800781	0.0007362858
912.3258874512	0.0004397147
914.2546948242	0.0003601612
916.1835021973	0.0006953093
918.1123095703	0.0008249935
920.0411169434	0.0007103010
921.9699243164	0.0006000574
923.8987316895	0.0006294440
925.8275390625	0.0006755505
927.7563464355	0.0008219498
929.6851538086	0.0007618336
931.6139611816	0.0007482268
933.5427685547	0.0010072850
935.4715759277	0.0011160946
937.4003833008	0.0012150165
939.3291906738	0.0012610151
941.2579980469	0.0011928041
943.1868054199	0.0009118389
945.1156127930	0.0009043803
947.0444201660	0.0011508414
948.9732275391	0.0010323562
950.9020349121	0.0010468285
952.8308422852	0.0012216435
954.7596496582	0.0011926822
956.6884570313	0.0010406567
958.6172644043	0.0011435635
960.5460717773	0.0011017602
962.4748791504	0.0009347260
964.4036865234	0.0010204611
966.3324938965	0.0010292564
968.2613012695	0.0013016352
970.1901086426	0.0012823645
972.1189160156	0.0012899283
974.0477233887	0.0014707537
975.9765307617	0.0010834874
977.9053381348	0.0012899460
979.8341455078	0.0018290106
981.7629528809	0.0019348583
983.6917602539	0.0019615600
985.6205676270	0.0022175047
987.5493750000	0.0024830443
989.4781823730	0.0025699991
991.4069897461	0.0028778824
993.3357971191	0.0031838915
995.2646044922	0.0033785270
997.1934118652	0.0035492061
999.1222192383	0.0040480872
1001.0510266113	0.0043096719
1002.9798339844	0.0043450566
1004.9086413574	0.0048986422
1006.8374487305	0.0051979399
1008.7662561035	0.0055156793
1010.6950634766	0.0058964100
1012.6238708496	0.0062938593
1014.5526782227	0.0064879032
1016.4814855957	0.0067632552
1018.4102929688	0.0074489750
1020.3391003418	0.0072975038
1022.2679077148	0.0078405440
1024.1967150879	0.0084086303
1026.1255224609	0.0082030715
1028.0543298340	0.0086618047
1029.9831372070	0.0088007059
1031.9119445801	0.0092548076
1033.8407519531	0.0094317757
1035.7695593262	0.0092050349
1037.6983666992	0.0095101334
1039.6271740723	0.0094631752
1041.5559814453	0.0094697177
1043.4847888184	0.0093562892
1045.4135961914	0.0092728660
1047.3424035645	0.0092403274
1049.2712109375	0.0090066157
1051.2000183105	0.0088697616
1053.1288256836	0.0087268380
1055.0576330566	0.0086701978
1056.9864404297	0.0084086442
1058.9152478027	0.0081260838
1060.8440551758	0.0079616513
1062.7728625488	0.0078611486
1064.7016699219	0.0074075102
1066.6304772949	0.0069858050
1068.5592846680	0.0069366740
1070.4880920410	0.0065094009
1072.4168994141	0.0062628738
1074.3457067871	0.0060423473
1076.2745141602	0.0057516713
1078.2033215332	0.0054898439
1080.1321289062	0.0052528270
1082.0609362793	0.0049678683
1083.9897436523	0.0046849097
1085.9185510254	0.0048805512
1087.8473583984	0.0044645844
1089.7761657715	0.0042508142
1091.7049731445	0.0041596107
1093.6337805176	0.0037351251
1095.5625878906	0.0037671495
1097.4913952637	0.0034856750
1099.4202026367	0.0035827637
1101.3490100098	0.0035523451
1103.2778173828	0.0033176320
1105.2066247559	0.0032509211
1107.1354321289	0.0032449211
1109.0642395019	0.0034210337
1110.9930468750	0.0030630340
1112.9218542480	0.0032416633
1114.8506616211	0.0031846655
1116.7794689941	0.0031222072
1118.7082763672	0.0032935191
1120.6370837402	0.0028829556
1122.5658911133	0.0032540006
1124.4946984863	0.0032982691
1126.4235058594	0.0033024184
1128.3523132324	0.0033459892
1130.2811206055	0.0030117766
1132.2099279785	0.0034182998
1134.1387353516	0.0036935620
1136.0675427246	0.0037788264
1137.9963500977	0.0039692149
1139.9251574707	0.0042959796
1141.8539648437	0.0043369913
1143.7827722168	0.0045621879
1145.7115795898	0.0049828747
1147.6403869629	0.0048672580
1149.5691943359	0.0054298965
1151.4980017090	0.0057745203
1153.4268090820	0.0059137587
1155.3556164551	0.0064390684
1157.2844238281	0.0064441347
1159.2132312012	0.0065695876
1161.1420385742	0.0068682185
1163.0708459473	0.0072703199
1164.9996533203	0.0075425380
1166.9284606934	0.0076884213
1168.8572680664	0.0079805385
1170.7860754394	0.0081835948
1172.7148828125	0.0087607624
1174.6436901855	0.0091371927
1176.5724975586	0.0093141394
1178.5013049316	0.0096146734
1180.4301123047	0.0096821776
1182.3589196777	0.0102930833
1184.2877270508	0.0107288798
1186.2165344238	0.0111498339
1188.1453417969	0.0120252967
1190.0741491699	0.0121817961
1192.0029565430	0.0127208065
1193.9317639160	0.0134958522
1195.8605712891	0.0139922798
1197.7893786621	0.0145714991
1199.7181860351	0.0150657929
1201.6469934082	0.0160115771
1203.5758007812	0.0166226178
1205.5046081543	0.0172912143
1207.4334155273	0.0180897135
1209.3622229004	0.0183864962
1211.2910302734	0.0188980792
1213.2198376465	0.0194730330
1215.1486450195	0.0198675878
1217.0774523926	0.0201648530
1219.0062597656	0.0208051279
1220.9350671387	0.0211746171
1222.8638745117	0.0213936195
1224.7926818848	0.0214782283
1226.7214892578	0.0213054977
1228.6502966308	0.0218508784
1230.5791040039	0.0219077971
1232.5079113769	0.0218818337
1234.4367187500	0.0219637752
1236.3655261230	0.0218178928
1238.2943334961	0.0218972787
1240.2231408691	0.0217364971
1242.1519482422	0.0219176784
1244.0807556152	0.0216207653
1246.0095629883	0.0213485770
1247.9383703613	0.0215803906
1249.8671777344	0.0212150514
1251.7959851074	0.0208418295
1253.7247924805	0.0208792407
1255.6535998535	0.0208922140
1257.5824072266	0.0202998519
1259.5112145996	0.0199870635
1261.4400219726	0.0197183006
1263.3688293457	0.0192981176
1265.2976367187	0.0193093400
1267.2264440918	0.0190009438
1269.1552514648	0.0187076796
1271.0840588379	0.0184928291
1273.0128662109	0.0182358474
1274.9416735840	0.0178851783
1276.8704809570	0.0175097734
1278.7992883301	0.0172261111
1280.7280957031	0.0168408677
1282.6569030762	0.0165238865
1284.5857104492	0.0162403658
1286.5145178223	0.0162097961
1288.4433251953	0.0159138236
1290.3721325683	0.0155008342
1292.3009399414	0.0153822452
1294.2297473144	0.0151613336
1296.1585546875	0.0150794219
1298.0873620605	0.0151846511
1300.0161694336	0.0153397210
1301.9449768066	0.0152994320
1303.8737841797	0.0151937772
1305.8025915527	0.0153899398
1307.7313989258	0.0158019997
1309.6602062988	0.0160026792
1311.5890136719	0.0162385330
1313.5178210449	0.0166090317
1315.4466284180	0.0168862119
1317.3754357910	0.0173708312
1319.3042431640	0.0177976862
1321.2330505371	0.0183662400
1323.1618579101	0.0188945662
1325.0906652832	0.0193925314
1327.0194726562	0.0198757593
1328.9482800293	0.0202840939
1330.8770874023	0.0210481770
1332.8058947754	0.0214102250
1334.7347021484	0.0218956061
1336.6635095215	0.0222132597
1338.5923168945	0.0219576918
1340.5211242676	0.0222929902
1342.4499316406	0.0228813365
1344.3787390137	0.0230507553
1346.3075463867	0.0229815654
1348.2363537597	0.0230095722
1350.1651611328	0.0229152404
1352.0939685058	0.0230247304
1354.0227758789	0.0227762274
1355.9515832519	0.0223563425
1357.8803906250	0.0223139413
1359.8091979980	0.0219313651
1361.7380053711	0.0212431680
1363.6668127441	0.0208968632
1365.5956201172	0.0218188427
1367.5244274902	0.0214393940
1369.4532348633	0.0208594967
1371.3820422363	0.0213867780
1373.3108496094	0.0204842351
1375.2396569824	0.0206194129
1377.1684643555	0.0209408067
1379.0972717285	0.0207782853
1381.0260791015	0.0209964886
1382.9548864746	0.0208367072
1384.8836938476	0.0207335018
1386.8125012207	0.0199722648
1388.7413085937	0.0204480663
1390.6701159668	0.0216624085
1392.5989233398	0.0212152433
1394.5277307129	0.0204054490
1396.4565380859	0.0210670196
1398.3853454590	0.0210959725
1400.3141528320	0.0210462399
1402.2429602051	0.0223340392
1404.1717675781	0.0213248879
1406.1005749512	0.0214801058
1408.0293823242	0.0220646411
1409.9581896972	0.0212823935
1411.8869970703	0.0215768106
1413.8158044433	0.0210005604
1415.7446118164	0.0213930272
1417.6734191894	0.0195267033
1419.6022265625	0.0180922858
1421.5310339355	0.0201246254
1423.4598413086	0.0193321705
1425.3886486816	0.0189954154
1427.3174560547	0.0190164726
1429.2462634277	0.0175859705
1431.1750708008	0.0171823036
1433.1038781738	0.0173177831
1435.0326855469	0.0158114824
1436.9614929199	0.0141740190
1438.8903002929	0.0156461652
1440.8191076660	0.0155074485
1442.7479150390	0.0146725364
1444.6767224121	0.0149774738
1446.6055297851	0.0139517793
1448.5343371582	0.0142899165
1450.4631445312	0.0145235024
1452.3919519043	0.0148563897
1454.3207592773	0.0153884795
1456.2495666504	0.0135177840
1458.1783740234	0.0143335890
1460.1071813965	0.0176685117
1462.0359887695	0.0185337961
1463.9647961426	0.0188417211
1465.8936035156	0.0197428577
1467.8224108886	0.0220858939
1469.7512182617	0.0235032979
1471.6800256347	0.0217724759
1473.6088330078	0.0229845252
1475.5376403808	0.0255073793
1477.4664477539	0.0273499340
1479.3952551269	0.0297683645
1481.3240625000	0.0302442908
1483.2528698730	0.0317948386
1485.1816772461	0.0329443365
1487.1104846191	0.0328424759
1489.0392919922	0.0329063684
1490.9680993652	0.0334244445
1492.8969067383	0.0374516509
1494.8257141113	0.0367443115
1496.7545214843	0.0342620797
1498.6833288574	0.0380739272
1500.6121362304	0.0390328839
1502.5409436035	0.0412435532
1504.4697509765	0.0395752564
1506.3985583496	0.0312584154
1508.3273657226	0.0365626700
1510.2561730957	0.0412974209
1512.1849804687	0.0401919372
1514.1137878418	0.0426999331
1516.0425952148	0.0395122431
1517.9714025879	0.0410202369
1519.9002099609	0.0395627879
1521.8290173340	0.0357959941
1523.7578247070	0.0416520834
1525.6866320801	0.0409091339
1527.6154394531	0.0410600305
1529.5442468261	0.0442201346
1531.4730541992	0.0430137292
1533.4018615722	0.0402471200
1535.3306689453	0.0420082510
1537.2594763183	0.0439443514
1539.1882836914	0.0341690704
1541.1170910644	0.0356808864
1543.0458984375	0.0405926332
1544.9747058105	0.0395094231
1546.9035131836	0.0447706841
1548.8323205566	0.0424158014
1550.7611279297	0.0435998179
1552.6899353027	0.0430871695
1554.6187426758	0.0403482169
1556.5475500488	0.0423089489
1558.4763574218	0.0326433294
1560.4051647949	0.0346909687
1562.3339721679	0.0449696779
1564.2627795410	0.0433054119
1566.1915869140	0.0441239402
1568.1203942871	0.0436813459
1570.0492016601	0.0399649739
1571.9780090332	0.0444265343
1573.9068164062	0.0446241572
1575.8356237793	0.0372872129
1577.7644311523	0.0413385779
1579.6932385254	0.0451231822
1581.6220458984	0.0432697758
1583.5508532715	0.0446230844
1585.4796606445	0.0440474376
1587.4084680175	0.0442196429
1589.3372753906	0.0439991280
1591.2660827636	0.0439098626
1593.1948901367	0.0439681858
1595.1236975097	0.0435051955
1597.0525048828	0.0439670533
1598.9813122558	0.0438718423
1600.9101196289	0.0438673049
1602.8389270019	0.0430986360
1604.7677343750	0.0439690389
1606.6965417480	0.0433562249
1608.6253491211	0.0432410017
1610.5541564941	0.0431307144
1612.4829638672	0.0433480069
1614.4117712402	0.0440140143
1616.3405786132	0.0375072584
1618.2693859863	0.0401333049
1620.1981933593	0.0449592993
1622.1270007324	0.0408728793
1624.0558081054	0.0413793251
1625.9846154785	0.0427031517
1627.9134228515	0.0426184870
1629.8422302246	0.0422972105
1631.7710375976	0.0444648936
1633.6998449707	0.0417965651
1635.6286523437	0.0363543890
1637.5574597168	0.0408489555
1639.4862670898	0.0434350446
1641.4150744629	0.0427270606
1643.3438818359	0.0437362865
1645.2726892090	0.0403066650
1647.2014965820	0.0368883610
1649.1303039550	0.0434434488
1651.0591113281	0.0410580188
1652.9879187011	0.0297376178
1654.9167260742	0.0377813205
1656.8455334472	0.0445851758
1658.7743408203	0.0428398810
1660.7031481933	0.0438836664
1662.6319555664	0.0408678278
1664.5607629394	0.0426246710
1666.4895703125	0.0448162705
1668.4183776855	0.0405723527
1670.3471850586	0.0398396999
1672.2759924316	0.0435695648
1674.2047998047	0.0409335792
1676.1336071777	0.0400001034
1678.0624145507	0.0442668796
1679.9912219238	0.0428433269
1681.9200292968	0.0427814946
1683.8488366699	0.0363213643
1685.7776440429	0.0362646133
1687.7064514160	0.0460061505
1689.6352587890	0.0410801619
1691.5640661621	0.0444551110
1693.4928735351	0.0447322242
1695.4216809082	0.0352799334
1697.3504882812	0.0412943512
1699.2792956543	0.0375774130
1701.2081030273	0.0350895151
1703.1369104004	0.0438973531
1705.0657177734	0.0409834981
1706.9945251464	0.0412991457
1708.9233325195	0.0439420231
1710.8521398925	0.0423140004
1712.7809472656	0.0428387672
1714.7097546386	0.0406588763
1716.6385620117	0.0373038463
1718.5673693847	0.0368886515
1720.4961767578	0.0420983098
1722.4249841308	0.0429345444
1724.3537915039	0.0406720415
1726.2825988769	0.0432330593
1728.2114062500	0.0404937528
1730.1402136230	0.0411999933
1732.0690209961	0.0396908224
1733.9978283691	0.0325197726
1735.9266357421	0.0385459624
1737.8554431152	0.0412121452
1739.7842504882	0.0380963236
1741.7130578613	0.0404788442
1743.6418652343	0.0407909676
1745.5706726074	0.0410445929
1747.4994799804	0.0414529368
1749.4282873535	0.0402056873
1751.3570947265	0.0387025140
1753.2859020996	0.0418671519
1755.2147094726	0.0432687774
1757.1435168457	0.0404639915
1759.0723242187	0.0434989408
1761.0011315918	0.0414030850
1762.9299389648	0.0404956974
1764.8587463379	0.0447141677
1766.7875537109	0.0412473232
1768.7163610839	0.0415738896
1770.6451684570	0.0413127095
1772.5739758300	0.0380757228
1774.5027832031	0.0414407775
1776.4315905761	0.0431690589
1778.3603979492	0.0425359569
1780.2892053222	0.0423889309
1782.2180126953	0.0426007137
1784.1468200683	0.0424252301
1786.0756274414	0.0417986885
1788.0044348144	0.0435338020
1789.9332421875	0.0426724888
1791.8620495605	0.0394406766
1793.7908569336	0.0408885777
1795.7196643066	0.0430390723
1797.6484716796	0.0424337126
1799.5772790527	0.0419733077
1801.5060864257	0.0415610969
1803.4348937988	0.0425953642
1805.3637011718	0.0431825072
1807.2925085449	0.0426445007
1809.2213159179	0.0427843481
1811.1501232910	0.0421874598
1813.0789306640	0.0429915935
1815.0077380371	0.0431006029
1816.9365454101	0.0426939502
1818.8653527832	0.0428495705
1820.7941601562	0.0429593101
1822.7229675293	0.0431658886
1824.6517749023	0.0411736146
1826.5805822753	0.0422923602
1828.5093896484	0.0420842804
1830.4381970214	0.0403900184
1832.3670043945	0.0429463759
1834.2958117675	0.0427921414
1836.2246191406	0.0426102206
1838.1534265136	0.0424702540
1840.0822338867	0.0427548662
1842.0110412597	0.0425030291
1843.9398486328	0.0390045494
1845.8686560058	0.0408601090
1847.7974633789	0.0424980894
1849.7262707519	0.0418687612
1851.6550781250	0.0428345278
1853.5838854980	0.0421110280
1855.5126928710	0.0422629192
1857.4415002441	0.0422246307
1859.3703076171	0.0419319347
1861.2991149902	0.0421819910
1863.2279223632	0.0419404022
1865.1567297363	0.0420775227
1867.0855371093	0.0408911332
1869.0143444824	0.0397501662
1870.9431518554	0.0410071537
1872.8719592285	0.0419553071
1874.8007666015	0.0413958542
1876.7295739746	0.0416126698
1878.6583813476	0.0414970592
1880.5871887207	0.0412466489
1882.5159960937	0.0416140780
1884.4448034667	0.0410784818
1886.3736108398	0.0413606688
1888.3024182128	0.0407840535
1890.2312255859	0.0400385335
1892.1600329589	0.0411910042
1894.0888403320	0.0407396033
1896.0176477050	0.0405660123
1897.9464550781	0.0409659818
1899.8752624511	0.0405901559
1901.8040698242	0.0407708511
1903.7328771972	0.0405504331
1905.6616845703	0.0406591073
1907.5904919433	0.0403742716
1909.5192993164	0.0402493998
1911.4481066894	0.0404371843
1913.3769140625	0.0402022526
1915.3057214355	0.0404506624
1917.2345288085	0.0390230566
1919.1633361816	0.0392092429
1921.0921435546	0.0402733460
1923.0209509277	0.0393843949
1924.9497583007	0.0400144123
1926.8785656738	0.0399507061
1928.8073730468	0.0398803651
1930.7361804199	0.0400637947
1932.6649877929	0.0395757705
1934.5937951660	0.0399833322
1936.5226025390	0.0396463498
1938.4514099121	0.0399898812
1940.3802172851	0.0397558808
1942.3090246582	0.0387303829
1944.2378320312	0.0393033065
1946.1666394042	0.0395566225
1948.0954467773	0.0394563787
1950.0242541503	0.0394697003
1951.9530615234	0.0395151004
1953.8818688964	0.0394723192
1955.8106762695	0.0394177772
1957.7394836425	0.0396056809
1959.6682910156	0.0394090191
1961.5970983886	0.0392016023
1963.5259057617	0.0393958986
1965.4547131347	0.0392741933
1967.3835205078	0.0388616323
1969.3123278808	0.0391946211
1971.2411352539	0.0392758176
1973.1699426269	0.0390878655
1975.0987499999	0.0392142534
1977.0275573730	0.0390381292
1978.9563647460	0.0390408523
1980.8851721191	0.0387829021
1982.8139794921	0.0387767255
1984.7427868652	0.0388777107
1986.6715942382	0.0385217033
1988.6004016113	0.0386924297
1990.5292089843	0.0384339541
1992.4580163574	0.0380825996
1994.3868237304	0.0385225490
1996.3156311035	0.0386038199
1998.2444384765	0.0382508896
2000.1732458496	0.0382128060
2002.1020532226	0.0381915830
2004.0308605956	0.0379780009
2005.9596679687	0.0379625782
2007.8884753417	0.0378667340
2009.8172827148	0.0377821773
2011.7460900878	0.0377624780
2013.6748974609	0.0376666784
2015.6037048339	0.0375679247
2017.5325122070	0.0372485779
2019.4613195800	0.0372386202
2021.3901269531	0.0373537913
2023.3189343261	0.0372424275
2025.2477416992	0.0372012705
2027.1765490722	0.0370070301
2029.1053564453	0.0370105579
2031.0341638183	0.0370150805
2032.9629711914	0.0368647724
2034.8917785644	0.0368420929
2036.8205859374	0.0366807990
2038.7493933105	0.0366148725
2040.6782006835	0.0365072303
2042.6070080566	0.0364373401
2044.5358154296	0.0363950953
2046.4646228027	0.0362954699
2048.3934301757	0.0362206623
2050.3222375488	0.0359880626
2052.2510449218	0.0360756256
2054.1798522949	0.0359596536
2056.1086596679	0.0358726308
2058.0374670410	0.0358878374
2059.9662744140	0.0355960429
2061.8950817871	0.0356957912
2063.8238891601	0.0354205556
2065.7526965331	0.0353348479
2067.6815039062	0.0354753211
2069.6103112792	0.0352083892
2071.5391186523	0.0353575796
2073.4679260253	0.0352860056
2075.3967333984	0.0350972526
2077.3255407714	0.0350719467
2079.2543481445	0.0350047015
2081.1831555175	0.0348819941
2083.1119628906	0.0347547270
2085.0407702636	0.0348996446
2086.9695776367	0.0348428637
2088.8983850097	0.0346551463
2090.8271923828	0.0346360430
2092.7559997558	0.0345780477
2094.6848071288	0.0344226807
2096.6136145019	0.0344061144
2098.5424218749	0.0342802256
2100.4712292480	0.0342013836
2102.4000366210	0.0342846960
2104.3288439941	0.0340478271
2106.2576513671	0.0340503082
2108.1864587402	0.0340417325
2110.1152661132	0.0339363478
2112.0440734863	0.0338892192
2113.9728808593	0.0338006616
2115.9016882324	0.0338404998
2117.8304956054	0.0335850492
2119.7593029785	0.0336472169
2121.6881103515	0.0337636694
2123.6169177245	0.0336354263
2125.5457250976	0.0336109027
2127.4745324706	0.0334302187
2129.4033398437	0.0333608724
2131.3321472167	0.0332833901
2133.2609545898	0.0334231593
2135.1897619628	0.0333943442
2137.1185693359	0.0331555456
2139.0473767089	0.0332682431
2140.9761840820	0.0331945121
2142.9049914550	0.0331374668
2144.8337988281	0.0330383629
2146.7626062011	0.0329622403
2148.6914135742	0.0330040529
2150.6202209472	0.0328113586
2152.5490283203	0.0328471176
2154.4778356933	0.0328659378
2156.4066430663	0.0327762216
2158.3354504394	0.0327446163
2160.2642578124	0.0325780623
2162.1930651855	0.0326449648
2164.1218725585	0.0326255076
2166.0506799316	0.0325007848
2167.9794873046	0.0325620249
2169.9082946777	0.0324725956
2171.8371020507	0.0324528441
2173.7659094238	0.0323936194
2175.6947167968	0.0323397666
2177.6235241699	0.0324017033
2179.5523315429	0.0323922038
2181.4811389160	0.0322908238
2183.4099462890	0.0320366845
2185.3387536620	0.0321432501
2187.2675610351	0.0320883244
2189.1963684081	0.0318862759
2191.1251757812	0.0320384577
2193.0539831542	0.0319255665
2194.9827905273	0.0319448262
2196.9115979003	0.0319064707
2198.8404052734	0.0317662582
2200.7692126464	0.0318667516
2202.6980200195	0.0317333639
2204.6268273925	0.0317267440
2206.5556347656	0.0317824930
2208.4844421386	0.0315814130
2210.4132495117	0.0315403268
2212.3420568847	0.0316030830
2214.2708642577	0.0315526091
2216.1996716308	0.0314854905
2218.1284790038	0.0314217806
2220.0572863769	0.0314280652
2221.9860937499	0.0312612914
2223.9149011230	0.0311728865
2225.8437084960	0.0312507115
2227.7725158691	0.0311109982
2229.7013232421	0.0311575085
2231.6301306152	0.0309825856
2233.5589379882	0.0308847353
2235.4877453613	0.0309430026
2237.4165527343	0.0307082664
2239.3453601074	0.0307891499
2241.2741674804	0.0307777729
2243.2029748534	0.0309221260
2245.1317822265	0.0308612790
2247.0605895995	0.0305561051
2248.9893969726	0.0306479409
2250.9182043456	0.0304676071
2252.8470117187	0.0305114500
2254.7758190917	0.0304839090
2256.7046264648	0.0302726552
2258.6334338378	0.0303035192
2260.5622412109	0.0302270427
2262.4910485839	0.0301648080
2264.4198559570	0.0302076079
2266.3486633300	0.0303037222
2268.2774707031	0.0300434232
2270.2062780761	0.0299907662
2272.1350854491	0.0300113242
2274.0638928222	0.0298249312
2275.9927001952	0.0299809016
2277.9215075683	0.0299400985
2279.8503149413	0.0299161673
2281.7791223144	0.0298386775
2283.7079296874	0.0296968576
2285.6367370605	0.0297561102
2287.5655444335	0.0297131017
2289.4943518066	0.0296912696
2291.4231591796	0.0295345001
2293.3519665527	0.0295234807
2295.2807739257	0.0295199268
2297.2095812988	0.0292397048
2299.1383886718	0.0291057099
2301.0671960449	0.0290774107
2302.9960034179	0.0289978459
2304.9248107909	0.0288213640
2306.8536181640	0.0286530592
2308.7824255370	0.0284617394
2310.7112329101	0.0282187983
2312.6400402831	0.0279523768
2314.5688476562	0.0277387127
2316.4976550292	0.0275350027
2318.4264624023	0.0271704514
2320.3552697753	0.0269049238
2322.2840771484	0.0266004950
2324.2128845214	0.0262425635
2326.1416918945	0.0259528961
2328.0704992675	0.0256514307
2329.9993066406	0.0255018845
2331.9281140136	0.0253234096
2333.8569213866	0.0252137408
2335.7857287597	0.0251336880
2337.7145361327	0.0250747055
2339.6433435058	0.0251254030
2341.5721508788	0.0251293406
2343.5009582519	0.0254291818
2345.4297656249	0.0258612819
2347.3585729980	0.0267998278
2349.2873803710	0.0274575725
2351.2161877441	0.0265033357
2353.1449951171	0.0254703071
2355.0738024902	0.0247008502
2357.0026098632	0.0240981244
2358.9314172363	0.0237660985
2360.8602246093	0.0232433323
2362.7890319823	0.0232824460
2364.7178393554	0.0234671291
2366.6466467284	0.0236817356
2368.5754541015	0.0240764618
2370.5042614745	0.0244660731
2372.4330688476	0.0251902044
2374.3618762206	0.0257006641
2376.2906835937	0.0262070615
2378.2194909667	0.0268066414
2380.1482983398	0.0270914882
2382.0771057128	0.0273345672
2384.0059130859	0.0274984632
2385.9347204589	0.0274689943
2387.8635278320	0.0274908654
2389.7923352050	0.0276811421
2391.7211425780	0.0276443195
2393.6499499511	0.0274238903
2395.5787573241	0.0273629501
2397.5075646972	0.0273683313
2399.4363720702	0.0273499414
2401.3651794433	0.0273421928
2403.2939868163	0.0272271801
2405.2227941894	0.0271185357
2407.1516015624	0.0271375254
2409.0804089355	0.0271128919
2411.0092163085	0.0272080936
2412.9380236816	0.0271392055
2414.8668310546	0.0269043762
2416.7956384277	0.0269102976
2418.7244458007	0.0268948153
2420.6532531738	0.0268490687
2422.5820605468	0.0269611217
2424.5108679198	0.0269416384
2426.4396752929	0.0267240517
2428.3684826659	0.0267847925
2430.2972900390	0.0267359279
2432.2260974120	0.0266287513
2434.1549047851	0.0267284941
2436.0837121581	0.0267016329
2438.0125195312	0.0266912915
2439.9413269042	0.0265081190
2441.8701342773	0.0265777782
2443.7989416503	0.0264968164
2445.7277490234	0.0262842402
2447.6565563964	0.0265084207
2449.5853637695	0.0263254978
2451.5141711425	0.0263435282
2453.4429785155	0.0263535418
2455.3717858886	0.0262125954
2457.3005932616	0.0263532493
2459.2294006347	0.0261602663
2461.1582080077	0.0261022393
2463.0870153808	0.0261112824
2465.0158227538	0.0260226876
2466.9446301269	0.0260551274
2468.8734374999	0.0260293186
2470.8022448730	0.0259445533
2472.7310522460	0.0259183049
2474.6598596191	0.0258378163
2476.5886669921	0.0257990099
2478.5174743652	0.0259228069
2480.4462817382	0.0257945322
2482.3750891112	0.0256892703
2484.3038964843	0.0255792774
2486.2327038573	0.0256116502
2488.1615112304	0.0256646331
2490.0903186034	0.0254515782
2492.0191259765	0.0255891569
2493.9479333495	0.0255005620
2495.8767407226	0.0254139155
2497.8055480956	0.0255085807
2499.7343554687	0.0253860708
2501.6631628417	0.0253175460
2503.5919702148	0.0252956338
2505.5207775878	0.0254920404
2507.4495849609	0.0253295004
2509.3783923339	0.0251267031
2511.3071997069	0.0252181217
2513.2360070800	0.0250858106
2515.1648144530	0.0250817090
2517.0936218261	0.0251049288
2519.0224291991	0.0250657983
2520.9512365722	0.0250245705
2522.8800439452	0.0249533262
2524.8088513183	0.0248795748
2526.7376586913	0.0248782746
2528.6664660644	0.0249537937
2530.5952734374	0.0248276945
2532.5240808105	0.0247387383
2534.4528881835	0.0248055737
2536.3816955566	0.0248153154
2538.3105029296	0.0247521978
2540.2393103027	0.0246725939
2542.1681176757	0.0246574581
2544.0969250487	0.0245704576
2546.0257324218	0.0244223308
2547.9545397948	0.0244605727
2549.8833471679	0.0244172737
2551.8121545409	0.0243766159
2553.7409619140	0.0244968105
2555.6697692870	0.0243313238
2557.5985766601	0.0242532231
2559.5273840331	0.0243734494
2561.4561914062	0.0242939405
2563.3849987792	0.0241490193
2565.3138061523	0.0241923146
2567.2426135253	0.0242191367
2569.1714208984	0.0240437966
2571.1002282714	0.0240919199
2573.0290356444	0.0240381714
2574.9578430175	0.0239526853
2576.8866503905	0.0240544192
2578.8154577636	0.0239926316
2580.7442651366	0.0239524338
2582.6730725097	0.0238245912
2584.6018798827	0.0238460042
2586.5306872558	0.0238732994
2588.4594946288	0.0237562153
2590.3883020019	0.0238122456
2592.3171093749	0.0237303432
2594.2459167480	0.0236994456
2596.1747241210	0.0237052254
2598.1035314941	0.0235811304
2600.0323388671	0.0235865302
2601.9611462401	0.0236247797
2603.8899536132	0.0235189386
2605.8187609862	0.0234533921
2607.7475683593	0.0235262625
2609.6763757323	0.0235043410
2611.6051831054	0.0234047677
2613.5339904784	0.0233158171
2615.4627978515	0.0232853889
2617.3916052245	0.0232992657
2619.3204125976	0.0232840851
2621.2492199706	0.0232213587
2623.1780273437	0.0231558885
2625.1068347167	0.0230712555
2627.0356420898	0.0230425186
2628.9644494628	0.0231718346
2630.8932568358	0.0230445489
2632.8220642089	0.0229275860
2634.7508715819	0.0229916684
2636.6796789550	0.0227985047
2638.6084863280	0.0227706879
2640.5372937011	0.0228253026
2642.4661010741	0.0227697417
2644.3949084472	0.0228574611
2646.3237158202	0.0227491949
2648.2525231933	0.0227400512
2650.1813305663	0.0228661094
2652.1101379394	0.0226579383
2654.0389453124	0.0226231739
2655.9677526855	0.0226101615
2657.8965600585	0.0225104224
2659.8253674315	0.0225066580
2661.7541748046	0.0223999005
2663.6829821776	0.0224683732
2665.6117895507	0.0223975368
2667.5405969237	0.0223288164
2669.4694042968	0.0223293267
2671.3982116698	0.0223069433
2673.3270190429	0.0224670395
2675.2558264159	0.0222460628
2677.1846337890	0.0221351534
2679.1134411620	0.0221680589
2681.0422485351	0.0220697001
2682.9710559081	0.0221333168
2684.8998632812	0.0220606290
2686.8286706542	0.0220266245
2688.7574780273	0.0220266301
2690.6862854003	0.0219816007
2692.6150927733	0.0219770484
2694.5439001464	0.0219252519
2696.4727075194	0.0218221433
2698.4015148925	0.0218242817
2700.3303222655	0.0217688587
2702.2591296386	0.0216605626
2704.1879370116	0.0217129588
2706.1167443847	0.0216114037
2708.0455517577	0.0216407552
2709.9743591308	0.0215627588
2711.9031665038	0.0214558803
2713.8319738769	0.0216147229
2715.7607812499	0.0215143301
2717.6895886230	0.0213871356
2719.6183959960	0.0213110242
2721.5472033690	0.0214610957
2723.4760107421	0.0214563366
2725.4048181151	0.0213251635
2727.3336254882	0.0213669576
2729.2624328612	0.0211706683
2731.1912402343	0.0212032478
2733.1200476073	0.0212217309
2735.0488549804	0.0212065335
2736.9776623534	0.0211690348
2738.9064697265	0.0210240632
2740.8352770995	0.0210655723
2742.7640844726	0.0209505036
2744.6928918456	0.0209266264
2746.6216992187	0.0209290646
2748.5505065917	0.0208743121
2750.4793139647	0.0209081061
2752.4081213378	0.0209680833
2754.3369287108	0.0208803490
2756.2657360839	0.0206888095
2758.1945434569	0.0207596645
2760.1233508300	0.0207951106
2762.0521582030	0.0207123533
2763.9809655761	0.0205206629
2765.9097729491	0.0206074007
2767.8385803222	0.0207569785
2769.7673876952	0.0204809271
2771.6961950683	0.0204461180
2773.6250024413	0.0204350315
2775.5538098144	0.0203777403
2777.4826171874	0.0203831308
2779.4114245604	0.0203019809
2781.3402319335	0.0203148760
2783.2690393065	0.0202275384
2785.1978466796	0.0201846734
2787.1266540526	0.0202222653
2789.0554614257	0.0201463122
2790.9842687987	0.0201577991
2792.9130761718	0.0201278925
2794.8418835448	0.0199719965
2796.7706909179	0.0199986957
2798.6994982909	0.0199703984
2800.6283056640	0.0199491531
2802.5571130370	0.0199363437
2804.4859204101	0.0197939929
2806.4147277831	0.0198411606
2808.3435351562	0.0196913704
2810.2723425292	0.0196671747
2812.2011499022	0.0198683105
2814.1299572753	0.0197051913
2816.0587646483	0.0195088834
2817.9875720214	0.0195360687
2819.9163793944	0.0195826963
2821.8451867675	0.0194736272
2823.7739941405	0.0194970388
2825.7028015136	0.0193805061
2827.6316088866	0.0192991588
2829.5604162597	0.0194069482
2831.4892236327	0.0192230754
2833.4180310058	0.0192494169
2835.3468383788	0.0192377344
2837.2756457519	0.0191687346
2839.2044531249	0.0191787407
2841.1332604979	0.0189865716
2843.0620678710	0.0189885125
2844.9908752440	0.0189585872
2846.9196826171	0.0187634379
2848.8484899901	0.0186190475
2850.7772973632	0.0185602978
2852.7061047362	0.0186087955
2854.6349121093	0.0187124945
2856.5637194823	0.0186451487
2858.4925268554	0.0185090024
2860.4213342284	0.0184962004
2862.3501416015	0.0184735116
2864.2789489745	0.0186006725
2866.2077563476	0.0185181499
2868.1365637206	0.0183117986
2870.0653710936	0.0184116103
2871.9941784667	0.0184440799
2873.9229858397	0.0183222257
2875.8517932128	0.0182653777
2877.7806005858	0.0182830356
2879.7094079589	0.0181967095
2881.6382153319	0.0182136782
2883.5670227050	0.0181886442
2885.4958300780	0.0181183293
2887.4246374511	0.0181650575
2889.3534448241	0.0179838613
2891.2822521972	0.0179617796
2893.2110595702	0.0179870613
2895.1398669433	0.0179468505
2897.0686743163	0.0180017129
2898.9974816893	0.0178546440
2900.9262890624	0.0177615993
2902.8550964354	0.0177250095
2904.7839038085	0.0177257415
2906.7127111815	0.0176771451
2908.6415185546	0.0175857767
2910.5703259276	0.0175901186
2912.4991333007	0.0173437409
2914.4279406737	0.0172596313
2916.3567480468	0.0172973368
2918.2855554198	0.0171805006
2920.2143627929	0.0172737110
2922.1431701659	0.0171587765
2924.0719775390	0.0170406159
2926.0007849120	0.0171404481
2927.9295922851	0.0170369297
2929.8583996581	0.0170496441
2931.7872070311	0.0170712695
2933.7160144042	0.0169868059
2935.6448217772	0.0170157049
2937.5736291503	0.0170384087
2939.5024365233	0.0170779116
2941.4312438964	0.0170698352
2943.3600512694	0.0169782862
2945.2888586425	0.0169557855
2947.2176660155	0.0169842169
2949.1464733886	0.0169665515
2951.0752807616	0.0169157144
2953.0040881347	0.0167860854
2954.9328955077	0.0167520568
2956.8617028808	0.0167946406
2958.7905102538	0.0167049393
2960.7193176268	0.0167019628
2962.6481249999	0.0166761838
2964.5769323729	0.0165961869
2966.5057397460	0.0165651701
2968.4345471190	0.0165817495
2970.3633544921	0.0165827964
2972.2921618651	0.0165110044
2974.2209692382	0.0165545382
2976.1497766112	0.0165922157
2978.0785839843	0.0166748129
2980.0073913573	0.0166326053
2981.9361987304	0.0165785737
2983.8650061034	0.0166516267
2985.7938134765	0.0165089667
2987.7226208495	0.0165229253
2989.6514282225	0.0165249631
2991.5802355956	0.0164450966
2993.5090429686	0.0164561048
2995.4378503417	0.0164343100
2997.3666577147	0.0164471455
2999.2954650878	0.0164511241
3001.2242724608	0.0164440125
3003.1530798339	0.0162830483
3005.0818872069	0.0162755474
3007.0106945800	0.0162259080
3008.9395019530	0.0161706805
3010.8683093261	0.0162801668
3012.7971166991	0.0160375182
3014.7259240722	0.0160382092
3016.6547314452	0.0161512271
3018.5835388182	0.0160683412
3020.5123461913	0.0161052421
3022.4411535643	0.0160893109
3024.3699609374	0.0160153061
3026.2987683104	0.0159313343
3028.2275756835	0.0159008782
3030.1563830565	0.0158249810
3032.0851904296	0.0157729611
3034.0139978026	0.0157082770
3035.9428051757	0.0157513935
3037.8716125487	0.0158042721
3039.8004199218	0.0156635754
3041.7292272948	0.0156405829
3043.6580346679	0.0155597776
3045.5868420409	0.0155867534
3047.5156494139	0.0155664496
3049.4444567870	0.0155185014
3051.3732641600	0.0155172255
3053.3020715331	0.0153236464
3055.2308789061	0.0154656172
3057.1596862792	0.0154188005
3059.0884936522	0.0152399540
3061.0173010253	0.0152945984
3062.9461083983	0.0152440779
3064.8749157714	0.0153525565
3066.8037231444	0.0153768612
3068.7325305175	0.0152519960
3070.6613378905	0.0151650198
3072.5901452636	0.0152162109
3074.5189526366	0.0151832812
3076.4477600097	0.0150453188
3078.3765673827	0.0151040014
3080.3053747557	0.0149589479
3082.2341821288	0.0148952790
3084.1629895018	0.0149608031
3086.0917968749	0.0148720928
3088.0206042479	0.0149158165
3089.9494116210	0.0149253942
3091.8782189940	0.0148842875
3093.8070263671	0.0148410201
3095.7358337401	0.0147949774
3097.6646411132	0.0147394128
3099.5934484862	0.0146539323
3101.5222558593	0.0146456044
3103.4510632323	0.0146300625
3105.3798706054	0.0146253249
3107.3086779784	0.0145674720
3109.2374853514	0.0145731205
3111.1662927245	0.0146000637
3113.0951000975	0.0144506935
3115.0239074706	0.0143643357
3116.9527148436	0.0143315345
3118.8815222167	0.0143864183
3120.8103295897	0.0143394172
3122.7391369628	0.0142749166
3124.6679443358	0.0143651385
3126.5967517089	0.0141689479
3128.5255590819	0.0140898330
3130.4543664550	0.0141364578
3132.3831738280	0.0140430313
3134.3119812011	0.0141055640
3136.2407885741	0.0140873697
3138.1695959471	0.0139581654
3140.0984033202	0.0139848962
3142.0272106932	0.0140123069
3143.9560180663	0.0138678914
3145.8848254393	0.0138824359
3147.8136328124	0.0138699599
3149.7424401854	0.0138330534
3151.6712475585	0.0138757126
3153.6000549315	0.0136557557
3155.5288623046	0.0136925951
3157.4576696776	0.0137288347
3159.3864770507	0.0136053925
3161.3152844237	0.0135678705
3163.2440917968	0.0134424483
3165.1728991698	0.0134619186
3167.1017065428	0.0134317996
3169.0305139159	0.0134317558
3170.9593212889	0.0133999316
3172.8881286620	0.0134113021
3174.8169360350	0.0133875236
3176.7457434081	0.0131702367
3178.6745507811	0.0132302567
3180.6033581542	0.0131472303
3182.5321655272	0.0130953761
3184.4609729003	0.0131586716
3186.3897802733	0.0131336525
3188.3185876464	0.0131316166
3190.2473950194	0.0129788788
3192.1762023925	0.0129871760
3194.1050097655	0.0129876845
3196.0338171386	0.0129660591
3197.9626245116	0.0129035562
3199.8914318846	0.0128084840
3201.8202392577	0.0128293466
3203.7490466307	0.0127818733
3205.6778540038	0.0128127411
3207.6066613768	0.0127288736
3209.5354687499	0.0126930661
3211.4642761229	0.0127051072
3213.3930834960	0.0126297511
3215.3218908690	0.0126292724
3217.2506982421	0.0125821391
3219.1795056151	0.0125712454
3221.1083129882	0.0125140492
3223.0371203612	0.0125427237
3224.9659277343	0.0125784269
3226.8947351073	0.0125128925
3228.8235424803	0.0125045376
3230.7523498534	0.0124555612
3232.6811572264	0.0123701207
3234.6099645995	0.0123539045
3236.5387719725	0.0124360230
3238.4675793456	0.0123096760
3240.3963867186	0.0122924354
3242.3251940917	0.0123394839
3244.2540014647	0.0121882316
3246.1828088378	0.0123003162
3248.1116162108	0.0122563597
3250.0404235839	0.0121365488
3251.9692309569	0.0122487266
3253.8980383300	0.0122605441
3255.8268457030	0.0122007485
3257.7556530760	0.0121049955
3259.6844604491	0.0121348482
3261.6132678221	0.0121336477
3263.5420751952	0.0120076453
3265.4708825682	0.0120010022
3267.3996899413	0.0120072719
3269.3284973143	0.0120240171
3271.2573046874	0.0119983116
3273.1861120604	0.0119510023
3275.1149194335	0.0120323133
3277.0437268065	0.0120002609
3278.9725341796	0.0119331945
3280.9013415526	0.0119355526
3282.8301489257	0.0118560167
3284.7589562987	0.0118927918
3286.6877636717	0.0119363908
3288.6165710448	0.0118461885
3290.5453784178	0.0118687861
3292.4741857909	0.0118893366
3294.4029931639	0.0117369117
3296.3318005370	0.0117084980
3298.2606079100	0.0117588341
3300.1894152831	0.0116759688
3302.1182226561	0.0116939228
3304.0470300292	0.0117277540
3305.9758374022	0.0116898688
3307.9046447753	0.0116805509
3309.8334521483	0.0116190836
3311.7622595214	0.0115217268
3313.6910668944	0.0115640732
3315.6198742675	0.0115784146
3317.5486816405	0.0114777144
3319.4774890135	0.0115668578
3321.4062963866	0.0115106665
3323.3351037596	0.0114783701
3325.2639111327	0.0115192169
3327.1927185057	0.0113793723
3329.1215258788	0.0114535857
3331.0503332518	0.0113945045
3332.9791406249	0.0114140399
3334.9079479979	0.0114714634
3336.8367553710	0.0113421595
3338.7655627440	0.0113919154
3340.6943701171	0.0113024153
3342.6231774901	0.0112872403
3344.5519848632	0.0113050994
3346.4807922362	0.0112641342
3348.4095996092	0.0111607797
3350.3384069823	0.0110931983
3352.2672143553	0.0112911332
3354.1960217284	0.0111829285
3356.1248291014	0.0111022256
3358.0536364745	0.0111075053
3359.9824438475	0.0109932441
3361.9112512206	0.0110695660
3363.8400585936	0.0110765016
3365.7688659667	0.0109870862
3367.6976733397	0.0109253749
3369.6264807128	0.0109685557
3371.5552880858	0.0109686069
3373.4840954589	0.0109448871
3375.4129028319	0.0109446794
3377.3417102049	0.0109225772
3379.2705175780	0.0109479632
3381.1993249510	0.0107966214
3383.1281323241	0.0107685104
3385.0569396971	0.0108744521
3386.9857470702	0.0108187301
3388.9145544432	0.0107729863
3390.8433618163	0.0107129253
3392.7721691893	0.0106980056
3394.7009765624	0.0107435752
3396.6297839354	0.0106680542
3398.5585913085	0.0106266560
3400.4873986815	0.0107243443
3402.4162060546	0.0106323436
3404.3450134276	0.0105193760
3406.2738208006	0.0106218569
3408.2026281737	0.0106270052
3410.1314355467	0.0105538331
3412.0602429198	0.0105034029
3413.9890502928	0.0104581835
3415.9178576659	0.0104767270
3417.8466650389	0.0104821753
3419.7754724120	0.0104120420
3421.7042797850	0.0103496015
3423.6330871581	0.0103458054
3425.5618945311	0.0103901168
3427.4907019042	0.0103652570
3429.4195092772	0.0102710975
3431.3483166503	0.0102265505
3433.2771240233	0.0102057448
3435.2059313963	0.0102978162
3437.1347387694	0.0102997813
3439.0635461424	0.0101975678
3440.9923535155	0.0102492347
3442.9211608885	0.0101882033
3444.8499682616	0.0100818705
3446.7787756346	0.0101131611
3448.7075830077	0.0100681707
3450.6363903807	0.0100184493
3452.5651977538	0.0101239700
3454.4940051268	0.0100937095
3456.4228124999	0.0099862218
3458.3516198729	0.0100226589
3460.2804272460	0.0099656563
3462.2092346190	0.0099435952
3464.1380419921	0.0099921897
3466.0668493651	0.0100422278
3467.9956567381	0.0100230360
3469.9244641112	0.0098801814
3471.8532714842	0.0099038333
3473.7820788573	0.0099275382
3475.7108862303	0.0098853046
3477.6396936034	0.0099117588
3479.5685009764	0.0098649543
3481.4973083495	0.0097611491
3483.4261157225	0.0097657554
3485.3549230956	0.0097983442
3487.2837304686	0.0097535420
3489.2125378417	0.0097785462
3491.1413452147	0.0097765708
3493.0701525878	0.0097735152
3494.9989599608	0.0098001771
3496.9277673338	0.0097868722
3498.8565747069	0.0097912969
3500.7853820799	0.0097430795
3502.7141894530	0.0096318778
3504.6429968260	0.0095792739
3506.5718041991	0.0097040832
3508.5006115721	0.0096804425
3510.4294189452	0.0096673835
3512.3582263182	0.0097823692
3514.2870336913	0.0097218044
3516.2158410643	0.0097762924
3518.1446484374	0.0097018909
3520.0734558104	0.0096302489
3522.0022631835	0.0096302107
3523.9310705565	0.0095065059
3525.8598779295	0.0095883291
3527.7886853026	0.0094723962
3529.7174926756	0.0095000044
3531.6463000487	0.0097249420
3533.5751074217	0.0096303336
3535.5039147948	0.0095502753
3537.4327221678	0.0095438641
3539.3615295409	0.0096672233
3541.2903369139	0.0095912535
3543.2191442870	0.0094455499
3545.1479516600	0.0094136624
3547.0767590331	0.0092888176
3549.0055664061	0.0094866287
3550.9343737792	0.0094711985
3552.8631811522	0.0093456637
3554.7919885252	0.0095375981
3556.7207958983	0.0095273079
3558.6496032713	0.0095104128
3560.5784106444	0.0094020609
3562.5072180174	0.0093661677
3564.4360253905	0.0094527267
3566.3648327635	0.0090152211
3568.2936401366	0.0088676820
3570.2224475096	0.0093966387
3572.1512548827	0.0095035769
3574.0800622557	0.0093954150
3576.0088696288	0.0094134249
3577.9376770018	0.0093260407
3579.8664843749	0.0094759231
3581.7952917479	0.0094100200
3583.7240991210	0.0093460120
3585.6529064940	0.0093105389
3587.5817138670	0.0087492205
3589.5105212401	0.0088639501
3591.4393286131	0.0093678050
3593.3681359862	0.0092967115
3595.2969433592	0.0091898516
3597.2257507323	0.0093415808
3599.1545581053	0.0093523497
3601.0833654784	0.0092115253
3603.0121728514	0.0092628384
3604.9409802245	0.0092426911
3606.8697875975	0.0091292113
3608.7985949706	0.0087634083
3610.7274023436	0.0089561231
3612.6562097167	0.0090248566
3614.5850170897	0.0087520592
3616.5138244627	0.0093866438
3618.4426318358	0.0086166374
3620.3714392088	0.0085215624
3622.3002465819	0.0094310250
3624.2290539549	0.0091179507
3626.1578613280	0.0094757555
3628.0866687010	0.0083271991
3630.0154760741	0.0079438910
3631.9442834471	0.0092213713
3633.8730908202	0.0089423275
3635.8018981932	0.0092353700
3637.7307055663	0.0093249856
3639.6595129393	0.0091746924
3641.5883203124	0.0092651192
3643.5171276854	0.0091392463
3645.4459350584	0.0091163907
3647.3747424315	0.0084960349
3649.3035498045	0.0079067070
3651.2323571776	0.0080084801
3653.1611645506	0.0092284568
3655.0899719237	0.0089678895
3657.0187792967	0.0083528329
3658.9475866698	0.0092823263
3660.8763940428	0.0090689920
3662.8052014159	0.0091854464
3664.7340087889	0.0090629458
3666.6628161620	0.0090104919
3668.5916235350	0.0088207899
3670.5204309081	0.0076404945
3672.4492382811	0.0087224394
3674.3780456541	0.0083960574
3676.3068530272	0.0074350359
3678.2356604002	0.0087400749
3680.1644677733	0.0088615026
3682.0932751463	0.0087749101
3684.0220825194	0.0089670643
3685.9508898924	0.0089126220
3687.8796972655	0.0082422569
3689.8085046385	0.0078152688
3691.7373120116	0.0085778814
3693.6661193846	0.0087064728
3695.5949267577	0.0088402666
3697.5237341307	0.0089096278
3699.4525415038	0.0088833217
3701.3813488768	0.0085799498
3703.3101562499	0.0083522573
3705.2389636229	0.0089785596
3707.1677709959	0.0086216256
3709.0965783690	0.0084765395
3711.0253857420	0.0079809474
3712.9541931151	0.0077430741
3714.8830004881	0.0087835919
3716.8118078612	0.0085446946
3718.7406152342	0.0085858833
3720.6694226073	0.0084134080
3722.5982299803	0.0082805716
3724.5270373534	0.0084725991
3726.4558447264	0.0079133436
3728.3846520995	0.0084919501
3730.3134594725	0.0083890352
3732.2422668456	0.0078640077
3734.1710742186	0.0077616991
3736.0998815916	0.0074818083
3738.0286889647	0.0076729478
3739.9574963377	0.0081333648
3741.8863037108	0.0085195471
3743.8151110838	0.0069950353
3745.7439184569	0.0067400364
3747.6727258299	0.0081741121
3749.6015332030	0.0073095001
3751.5303405760	0.0068708705
3753.4591479491	0.0075274911
3755.3879553221	0.0080189062
3757.3167626952	0.0082829827
3759.2455700682	0.0078129321
3761.1743774413	0.0080218855
3763.1031848143	0.0083329976
3765.0319921873	0.0078965649
3766.9607995604	0.0081112711
3768.8896069334	0.0080242995
3770.8184143065	0.0077147307
3772.7472216795	0.0081539107
3774.6760290526	0.0080850255
3776.6048364256	0.0082025286
3778.5336437987	0.0079942681
3780.4624511717	0.0077075232
3782.3912585448	0.0081052743
3784.3200659178	0.0079112928
3786.2488732909	0.0080254637
3788.1776806639	0.0080785193
3790.1064880370	0.0079908576
3792.0352954100	0.0080113001
3793.9641027830	0.0080036251
3795.8929101561	0.0076821661
3797.8217175291	0.0076257056
3799.7505249022	0.0079170596
3801.6793322752	0.0067402450
3803.6081396483	0.0075121066
3805.5369470213	0.0078894384
3807.4657543944	0.0068026744
3809.3945617674	0.0078763682
3811.3233691405	0.0077764029
3813.2521765135	0.0079316404
3815.1809838866	0.0072418759
3817.1097912596	0.0066681658
3819.0385986327	0.0078930184
3820.9674060057	0.0067528794
3822.8962133787	0.0070994403
3824.8250207518	0.0078219865
3826.7538281248	0.0072753793
3828.6826354979	0.0077670664
3830.6114428709	0.0074617406
3832.5402502440	0.0072065983
3834.4690576170	0.0074355509
3836.3978649901	0.0071031181
3838.3266723631	0.0064803287
3840.2554797362	0.0070399754
3842.1842871092	0.0073728976
3844.1130944823	0.0070961742
3846.0419018553	0.0075727026
3847.9707092284	0.0074110562
3849.8995166014	0.0074568372
3851.8283239745	0.0068181120
3853.7571313475	0.0054936269
3855.6859387205	0.0062614949
3857.6147460936	0.0074745733
3859.5435534666	0.0072934330
3861.4723608397	0.0072553381
3863.4011682127	0.0072130426
3865.3299755858	0.0067427084
3867.2587829588	0.0072193756
3869.1875903319	0.0066800588
3871.1163977049	0.0064270645
3873.0452050780	0.0074021788
3874.9740124510	0.0068517560
3876.9028198241	0.0071776519
3878.8316271971	0.0072919689
3880.7604345702	0.0065436526
3882.6892419432	0.0072776098
3884.6180493162	0.0069196727
3886.5468566893	0.0063680857
3888.4756640623	0.0071745235
3890.4044714354	0.0069503374
3892.3332788084	0.0065703318
3894.2620861815	0.0071348175
3896.1908935545	0.0071708709
3898.1197009276	0.0068568233
3900.0485083006	0.0066275662
3901.9773156737	0.0064970655
3903.9061230467	0.0064503564
3905.8349304198	0.0065058167
3907.7637377928	0.0069705145
3909.6925451659	0.0069905617
3911.6213525389	0.0069241868
3913.5501599119	0.0070348121
3915.4789672850	0.0068755737
3917.4077746580	0.0067486251
3919.3365820311	0.0065768454
3921.2653894041	0.0067835064
3923.1941967772	0.0069378130
3925.1230041502	0.0067305369
3927.0518115233	0.0066971080
3928.9806188963	0.0067840377
3930.9094262694	0.0066872654
3932.8382336424	0.0064856764
3934.7670410155	0.0067085563
3936.6958483885	0.0067499243
3938.6246557616	0.0066451319
3940.5534631346	0.0067643989
3942.4822705076	0.0065997457
3944.4110778807	0.0065880916
3946.3398852537	0.0067111952
3948.2686926268	0.0065928828
3950.1974999998	0.0065515353
3952.1263073729	0.0066544544
3954.0551147459	0.0066812965
3955.9839221190	0.0066197412
3957.9127294920	0.0065711704
3959.8415368651	0.0065336488
3961.7703442381	0.0065317163
3963.6991516112	0.0065078903
3965.6279589842	0.0064942967
3967.5567663573	0.0065246075
3969.4855737303	0.0064462861
3971.4143811034	0.0064695217
3973.3431884764	0.0065138340
3975.2719958494	0.0063359486
3977.2008032225	0.0063774576
3979.1296105955	0.0063905758
3981.0584179686	0.0062910179
3982.9872253416	0.0063717840
3984.9160327147	0.0063466411
3986.8448400877	0.0064335689
3988.7736474608	0.0064081801
3990.7024548338	0.0062713819
3992.6312622069	0.0063575399
3994.5600695799	0.0063337744
3996.4888769530	0.0062466664
3998.4176843260	0.0062260460
4000.3464916991	0.0062746769
4002.2752990721	0.0062845172
4004.2041064451	0.0063033523
4006.1329138182	0.0062400373
4008.0617211912	0.0061678654
4009.9905285643	0.0062694605
4011.9193359373	0.0061768754
4013.8481433104	0.0060731359
4015.7769506834	0.0060824202
4017.7057580565	0.0061444957
4019.6345654295	0.0061099157
4021.5633728026	0.0060405135
4023.4921801756	0.0061259945
4025.4209875487	0.0060576824
4027.3497949217	0.0060511818
4029.2786022948	0.0059789168
4031.2074096678	0.0059277043
4033.1362170408	0.0060351444
4035.0650244139	0.0059814337
4036.9938317869	0.0060324217
4038.9226391600	0.0060118884
4040.8514465330	0.0059357490
4042.7802539061	0.0059361514
4044.7090612791	0.0059459060
4046.6378686522	0.0059755156
4048.5666760252	0.0059039490
4050.4954833983	0.0059299013
4052.4242907713	0.0059213145
4054.3530981444	0.0058653257
4056.2819055174	0.0058676274
4058.2107128905	0.0058155465
4060.1395202635	0.0057888972
4062.0683276365	0.0057449350
4063.9971350096	0.0057578608
4065.9259423826	0.0058083702
4067.8547497557	0.0058129737
4069.7835571287	0.0057866424
4071.7123645018	0.0056793764
4073.6411718748	0.0056940485
4075.5699792479	0.0057326928
4077.4987866209	0.0056589199
4079.4275939940	0.0057170447
4081.3564013670	0.0056746555
4083.2852087401	0.0056376969
4085.2140161131	0.0057740370
4087.1428234862	0.0056230109
4089.0716308592	0.0055195587
4091.0004382323	0.0056141280
4092.9292456053	0.0055888863
4094.8580529783	0.0056130663
4096.7868603514	0.0055775614
4098.7156677244	0.0055254479
4100.6444750975	0.0055878256
4102.5732824705	0.0056080576
4104.5020898436	0.0055745281
4106.4308972166	0.0054604528
4108.3597045897	0.0054189190
4110.2885119627	0.0054441420
4112.2173193358	0.0053937873
4114.1461267088	0.0054593235
4116.0749340819	0.0055041704
4118.0037414549	0.0054340377
4119.9325488280	0.0054201568
4121.8613562010	0.0054398486
4123.7901635740	0.0054282877
4125.7189709471	0.0053778142
4127.6477783201	0.0054136934
4129.5765856932	0.0053699226
4131.5053930662	0.0053260317
4133.4342004393	0.0053774389
4135.3630078123	0.0052779019
4137.2918151854	0.0052880710
4139.2206225584	0.0053087641
4141.1494299315	0.0052856058
4143.0782373045	0.0053322585
4145.0070446776	0.0052539520
4146.9358520506	0.0051968419
4148.8646594237	0.0051893075
4150.7934667967	0.0052340487
4152.7222741697	0.0052694515
4154.6510815428	0.0052115205
4156.5798889158	0.0050838925
4158.5086962889	0.0050508259
4160.4375036619	0.0052122618
4162.3663110350	0.0051952917
4164.2951184080	0.0050988258
4166.2239257811	0.0050787702
4168.1527331541	0.0050627459
4170.0815405272	0.0051145344
4172.0103479002	0.0050970898
4173.9391552733	0.0050230594
4175.8679626463	0.0050223735
4177.7967700194	0.0050557191
4179.7255773924	0.0050024982
4181.6543847654	0.0049856952
4183.5831921385	0.0050024251
4185.5119995115	0.0049777357
4187.4408068846	0.0050030835
4189.3696142576	0.0049520354
4191.2984216307	0.0048969788
4193.2272290037	0.0049114916
4195.1560363768	0.0049158330
4197.0848437498	0.0048726336
4199.0136511229	0.0048385467
4200.9424584959	0.0049391491
4202.8712658690	0.0049681505
4204.8000732420	0.0048697335
4206.7288806151	0.0048210341
4208.6576879881	0.0048465808
4210.5864953611	0.0048738839
4212.5153027342	0.0048300205
4214.4441101072	0.0048135817
4216.3729174803	0.0047715469
4218.3017248533	0.0046987068
4220.2305322264	0.0047555445
4222.1593395994	0.0047594653
4224.0881469725	0.0047145681
4226.0169543455	0.0047246264
4227.9457617186	0.0046587009
4229.8745690916	0.0046414742
4231.8033764647	0.0047206059
4233.7321838377	0.0047028083
4235.6609912108	0.0045974236
4237.5897985838	0.0046268124
4239.5186059569	0.0046417159
4241.4474133299	0.0045758565
4243.3762207029	0.0046680351
4245.3050280760	0.0046200845
4247.2338354490	0.0045033339
4249.1626428221	0.0045943083
4251.0914501951	0.0046144458
4253.0202575682	0.0045341756
4254.9490649412	0.0045300564
4256.8778723143	0.0045677666
4258.8066796873	0.0045239381
4260.7354870604	0.0045016031
4262.6642944334	0.0045419852
4264.5931018065	0.0045466796
4266.5219091795	0.0044805342
4268.4507165526	0.0044447305
4270.3795239256	0.0044482988
4272.3083312986	0.0043819877
4274.2371386717	0.0044783754
4276.1659460447	0.0045338972
4278.0947534178	0.0044131987
4280.0235607908	0.0044269022
4281.9523681639	0.0044055260
4283.8811755369	0.0043436782
4285.8099829100	0.0043571144
4287.7387902830	0.0043413979
4289.6675976561	0.0043419315
4291.5964050291	0.0043680537
4293.5252124022	0.0043562842
4295.4540197752	0.0043634581
4297.3828271483	0.0043204734
4299.3116345213	0.0042860885
4301.2404418943	0.0042963671
4303.1692492674	0.0042484147
4305.0980566404	0.0042854850
4307.0268640135	0.0042597414
4308.9556713865	0.0042574620
4310.8844787596	0.0042597586
4312.8132861326	0.0041573681
4314.7420935057	0.0042012995
4316.6709008787	0.0042036199
4318.5997082518	0.0042415862
4320.5285156248	0.0042142291
4322.4573229979	0.0040951902
4324.3861303709	0.0041404171
4326.3149377440	0.0041949721
4328.2437451170	0.0041852682
4330.1725524900	0.0041329605
4332.1013598631	0.0042000925
4334.0301672361	0.0041089077
4335.9589746092	0.0040394599
4337.8877819822	0.0041769734
4339.8165893553	0.0041090497
4341.7453967283	0.0040830448
4343.6742041014	0.0040578544
4345.6030114744	0.0040394347
4347.5318188475	0.0040510744
4349.4606262205	0.0040023811
4351.3894335936	0.0040356270
4353.3182409666	0.0040284935
4355.2470483397	0.0039773411
4357.1758557127	0.0039335857
4359.1046630858	0.0040325704
4361.0334704588	0.0040485077
4362.9622778318	0.0039262539
4364.8910852049	0.0039480985
4366.8198925779	0.0039614029
4368.7486999510	0.0039726268
4370.6775073240	0.0039843204
4372.6063146971	0.0039254441
4374.5351220701	0.0038968339
4376.4639294432	0.0039322115
4378.3927368162	0.0038709983
4380.3215441893	0.0039055059
4382.2503515623	0.0040107844
4384.1791589354	0.0038245779
4386.1079663084	0.0037802290
4388.0367736815	0.0038351219
4389.9655810545	0.0037445684
4391.8943884275	0.0037620938
4393.8231958006	0.0037559983
4395.7520031736	0.0037803166
4397.6808105467	0.0038003069
4399.6096179197	0.0037092308
4401.5384252928	0.0037624741
4403.4672326658	0.0038042408
4405.3960400389	0.0037587783
4407.3248474119	0.0037297024
4409.2536547850	0.0036501423
4411.1824621580	0.0037393705
4413.1112695311	0.0037657246
4415.0400769041	0.0036669490
4416.9688842772	0.0037112548
4418.8976916502	0.0036706929
4420.8264990232	0.0036200203
4422.7553063963	0.0036596027
4424.6841137693	0.0037564943
4426.6129211424	0.0036896761
4428.5417285154	0.0035813220
4430.4705358885	0.0036756506
4432.3993432615	0.0036221433
4434.3281506346	0.0035666446
4436.2569580076	0.0035922073
4438.1857653807	0.0036513950
4440.1145727537	0.0036259438
4442.0433801268	0.0034671286
4443.9721874998	0.0034880219
4445.9009948729	0.0035644919
4447.8298022459	0.0035882085
4449.7586096189	0.0035209975
4451.6874169920	0.0034866175
4453.6162243650	0.0034883367
4455.5450317381	0.0034799473
4457.4738391111	0.0034776786
4459.4026464842	0.0034163003
4461.3314538572	0.0034631309
4463.2602612303	0.0034283085
4465.1890686033	0.0034173578
4467.1178759764	0.0034868009
4469.0466833494	0.0034731245
4470.9754907225	0.0034526144
4472.9042980955	0.0034100483
4474.8331054686	0.0034040988
4476.7619128416	0.0033753696
4478.6907202147	0.0033971956
4480.6195275877	0.0033802504
4482.5483349607	0.0033863024
4484.4771423338	0.0033768639
4486.4059497068	0.0033259359
4488.3347570799	0.0033818989
4490.2635644529	0.0032923589
4492.1923718260	0.0033394606
4494.1211791990	0.0033415221
4496.0499865721	0.0033093197
4497.9787939451	0.0033641802
4499.9076013182	0.0032478701
4501.8364086912	0.0033210791
4503.7652160643	0.0032936244
4505.6940234373	0.0032702833
4507.6228308104	0.0033142867
4509.5516381834	0.0032190732
4511.4804455564	0.0032159670
4513.4092529295	0.0032085485
4515.3380603025	0.0032860290
4517.2668676756	0.0032457672
4519.1956750486	0.0031730928
4521.1244824217	0.0031851572
4523.0532897947	0.0032025988
4524.9820971678	0.0032702873
4526.9109045408	0.0031722260
4528.8397119139	0.0031577181
4530.7685192869	0.0032400335
4532.6973266600	0.0032176971
4534.6261340330	0.0031672842
4536.5549414061	0.0031897649
4538.4837487791	0.0031813527
4540.4125561521	0.0031105010
4542.3413635252	0.0031053610
4544.2701708982	0.0030344320
4546.1989782713	0.0030792712
4548.1277856443	0.0031209532
4550.0565930174	0.0030687645
4551.9854003904	0.0031206813
4553.9142077635	0.0030955009
4555.8430151365	0.0030758041
4557.7718225096	0.0030353819
4559.7006298826	0.0029744995
4561.6294372557	0.0030428122
4563.5582446287	0.0030395454
4565.4870520018	0.0029747738
4567.4158593748	0.0030434276
4569.3446667478	0.0030478975
4571.2734741209	0.0029738829
4573.2022814939	0.0030249446
4575.1310888670	0.0029970892
4577.0598962400	0.0028886772
4578.9887036131	0.0029052079
4580.9175109861	0.0030214509
4582.8463183592	0.0030266331
4584.7751257322	0.0029678410
4586.7039331053	0.0029687854
4588.6327404783	0.0028836154
4590.5615478514	0.0028399806
4592.4903552244	0.0028792210
4594.4191625975	0.0029179398
4596.3479699705	0.0028502345
4598.2767773435	0.0028128631
4600.2055847166	0.0029492760
4602.1343920896	0.0029543419
4604.0631994627	0.0029197098
4605.9920068357	0.0028045075
4607.9208142088	0.0027300753
4609.8496215818	0.0028780587
4611.7784289549	0.0028506867
4613.7072363279	0.0027856387
4615.6360437010	0.0028125250
4617.5648510740	0.0028141984
4619.4936584471	0.0028036255
4621.4224658201	0.0028007342
4623.3512731932	0.0028029024
4625.2800805662	0.0027717543
4627.2088879393	0.0028227807
4629.1376953123	0.0028091273
4631.0665026853	0.0027588247
4632.9953100584	0.0027978639
4634.9241174314	0.0027380213
4636.8529248045	0.0027203436
4638.7817321775	0.0027386588
4640.7105395506	0.0026971945
4642.6393469236	0.0027241723
4644.5681542967	0.0027409869
4646.4969616697	0.0027418388
4648.4257690428	0.0027190507
4650.3545764158	0.0027134540
4652.2833837889	0.0027389743
4654.2121911619	0.0026573408
4656.1409985350	0.0026529492
4658.0698059080	0.0026931036
4659.9986132810	0.0026365172
4661.9274206541	0.0025841305
4663.8562280271	0.0026117724
4665.7850354002	0.0026838328
4667.7138427732	0.0026038943
4669.6426501463	0.0025507768
4671.5714575193	0.0025734543
4673.5002648924	0.0026155578
4675.4290722654	0.0026051630
4677.3578796385	0.0024933561
4679.2866870115	0.0026221923
4681.2154943846	0.0025769880
4683.1443017576	0.0024948237
4685.0731091307	0.0026156148
4687.0019165037	0.0024883756
4688.9307238767	0.0025453852
4690.8595312498	0.0025742482
4692.7883386228	0.0024943929
4694.7171459959	0.0025602109
4696.6459533689	0.0024696165
4698.5747607420	0.0024860278
4700.5035681150	0.0025505922
4702.4323754881	0.0025041858
4704.3611828611	0.0024341787
4706.2899902342	0.0024450561
4708.2187976072	0.0025130031
4710.1476049803	0.0024403848
4712.0764123533	0.0023844796
4714.0052197264	0.0024737399
4715.9340270994	0.0025645490
4717.8628344724	0.0023891302
4719.7916418455	0.0023375556
4721.7204492185	0.0024459788
4723.6492565916	0.0023897085
4725.5780639646	0.0024226788
4727.5068713377	0.0023518405
4729.4356787107	0.0024177211
4731.3644860838	0.0024884371
4733.2932934568	0.0023424237
4735.2221008299	0.0023834067
4737.1509082029	0.0023214598
4739.0797155760	0.0023779911
4741.0085229490	0.0024068598
4742.9373303221	0.0022694261
4744.8661376951	0.0023679943
4746.7949450682	0.0023808493
4748.7237524412	0.0023673656
4750.6525598142	0.0023261146
4752.5813671873	0.0023001479
4754.5101745603	0.0022990843
4756.4389819334	0.0022233361
4758.3677893064	0.0023376604
4760.2965966795	0.0022884354
4762.2254040525	0.0022313953
4764.1542114256	0.0023224270
4766.0830187986	0.0021938900
4768.0118261717	0.0022074357
4769.9406335447	0.0023082658
4771.8694409178	0.0022646356
4773.7982482908	0.0022593839
4775.7270556639	0.0022687986
4777.6558630369	0.0022661798
4779.5846704099	0.0022068650
4781.5134777830	0.0022056713
4783.4422851560	0.0022554831
4785.3710925291	0.0021906260
4787.2998999021	0.0022051029
4789.2287072752	0.0022077011
4791.1575146482	0.0021539796
4793.0863220213	0.0021928248
4795.0151293943	0.0021847072
4796.9439367674	0.0022038147
4798.8727441404	0.0021610474
4800.8015515135	0.0021281037
4802.7303588865	0.0021974500
4804.6591662596	0.0021094454
4806.5879736326	0.0021106442
4808.5167810056	0.0021209912
4810.4455883787	0.0020965326
4812.3743957517	0.0022134040
4814.3032031248	0.0021484992
4816.2320104978	0.0020693454
4818.1608178709	0.0020694053
4820.0896252439	0.0020762249
4822.0184326170	0.0021202364
4823.9472399900	0.0020533656
4825.8760473631	0.0020936949
4827.8048547361	0.0021470571
4829.7336621092	0.0020866229
4831.6624694822	0.0020181662
4833.5912768553	0.0019623586
4835.5200842283	0.0020719119
4837.4488916013	0.0020360504
4839.3776989744	0.0019810996
4841.3065063474	0.0020833740
4843.2353137205	0.0019688760
4845.1641210935	0.0019887609
4847.0929284666	0.0020833616
4849.0217358396	0.0019774360
4850.9505432127	0.0019368057
4852.8793505857	0.0019796966
4854.8081579588	0.0021040258
4856.7369653318	0.0020709934
4858.6657727049	0.0019238093
4860.5945800779	0.0019485038
4862.5233874510	0.0019922443
4864.4521948240	0.0019906727
4866.3810021971	0.0019464402
4868.3098095701	0.0019465995
4870.2386169431	0.0019649018
4872.1674243162	0.0019430155
4874.0962316892	0.0019361705
4876.0250390623	0.0018642824
4877.9538464353	0.0018815642
4879.8826538084	0.0019605788
4881.8114611814	0.0019375464
4883.7402685545	0.0018888715
4885.6690759275	0.0018687467
4887.5978833006	0.0018766663
4889.5266906736	0.0018471953
4891.4554980467	0.0018830139
4893.3843054197	0.0019246073
4895.3131127928	0.0018982391
4897.2419201658	0.0018471766
4899.1707275388	0.0017783998
4901.0995349119	0.0018909712
4903.0283422849	0.0019290110
4904.9571496580	0.0018252782
4906.8859570310	0.0018046662
4908.8147644041	0.0017736771
4910.7435717771	0.0018036964
4912.6723791502	0.0018526593
4914.6011865232	0.0018615774
4916.5299938963	0.0018070297
4918.4588012693	0.0018268223
4920.3876086424	0.0018602447
4922.3164160154	0.0017782254
4924.2452233885	0.0018203947
4926.1740307615	0.0017662223
4928.1028381345	0.0017587146
4930.0316455076	0.0018465598
4931.9604528806	0.0018189845
4933.8892602537	0.0018168056
4935.8180676267	0.0017165826
4937.7468749998	0.0017395261
4939.6756823728	0.0017605193
4941.6044897459	0.0017004972
4943.5332971189	0.0017082586
4945.4621044920	0.0016922522
4947.3909118650	0.0017874186
4949.3197192381	0.0017314075
4951.2485266111	0.0016932369
4953.1773339842	0.0017251840
4955.1061413572	0.0016806570
4957.0349487302	0.0017200054
4958.9637561033	0.0016914582
4960.8925634763	0.0017654651
4962.8213708494	0.0017386575
4964.7501782224	0.0016312167
4966.6789855955	0.0017052304
4968.6077929685	0.0016839780
4970.5366003416	0.0016530571
4972.4654077146	0.0016151447
4974.3942150877	0.0015987977
4976.3230224607	0.0016611742
4978.2518298338	0.0016641412
4980.1806372068	0.0016751011
4982.1094445799	0.0016937363
4984.0382519529	0.0016708074
4985.9670593259	0.0016393610
4987.8958666990	0.0016143105
4989.8246740720	0.0016433254
4991.7534814451	0.0016564240
4993.6822888181	0.0016085480
4995.6110961912	0.0016344935
4997.5399035642	0.0016146153
4999.4687109373	0.0016098036
5001.3975183103	0.0016031436
5003.3263256834	0.0015985398
5005.2551330564	0.0017109540
5007.1839404295	0.0015991102
5009.1127478025	0.0016332648
5011.0415551756	0.0016802696
5012.9703625486	0.0015157191
5014.8991699217	0.0015887211
5016.8279772947	0.0015505687
5018.7567846677	0.0015731696
5020.6855920408	0.0015660247
5022.6143994138	0.0014845956
5024.5432067869	0.0016047338
5026.4720141599	0.0015351139
5028.4008215330	0.0015691430
5030.3296289060	0.0016364646
5032.2584362791	0.0015631365
5034.1872436521	0.0015314361
5036.1160510252	0.0015077323
5038.0448583982	0.0015231601
5039.9736657713	0.0015088660
5041.9024731443	0.0015475343
5043.8312805174	0.0014679299
5045.7600878904	0.0014823575
5047.6888952634	0.0015540386
5049.6177026365	0.0014189344
5051.5465100095	0.0014964410
5053.4753173826	0.0015378515
5055.4041247556	0.0015112970
5057.3329321287	0.0015063547
5059.2617395017	0.0014435046
5061.1905468748	0.0015004092
5063.1193542478	0.0014473307
5065.0481616209	0.0014123684
5066.9769689939	0.0014457848
5068.9057763670	0.0014358828
5070.8345837400	0.0014291094
5072.7633911131	0.0013831648
5074.6921984861	0.0014371605
5076.6210058591	0.0014679800
5078.5498132322	0.0014424629
5080.4786206052	0.0014578174
5082.4074279783	0.0014243384
5084.3362353513	0.0013962088
5086.2650427244	0.0014244092
5088.1938500974	0.0014376289
5090.1226574705	0.0014300095
5092.0514648435	0.0014796862
5093.9802722166	0.0014763593
5095.9090795896	0.0014034210
5097.8378869627	0.0013900513
5099.7666943357	0.0013857579
5101.6955017088	0.0013674728
5103.6243090818	0.0013750282
5105.5531164548	0.0013849604
5107.4819238279	0.0013518491
5109.4107312009	0.0013475048
5111.3395385740	0.0013957922
5113.2683459470	0.0013855222
5115.1971533201	0.0013519357
5117.1259606931	0.0013655770
5119.0547680662	0.0013468524
5120.9835754392	0.0013474404
5122.9123828123	0.0013685483
5124.8411901853	0.0012824560
5126.7699975584	0.0013029820
5128.6988049314	0.0013453302
5130.6276123045	0.0012603244
5132.5564196775	0.0013228764
5134.4852270506	0.0013636914
5136.4140344236	0.0012933266
5138.3428417966	0.0012796817
5140.2716491697	0.0012328106
5142.2004565427	0.0012390022
5144.1292639158	0.0013255640
5146.0580712888	0.0012574735
5147.9868786619	0.0011948909
5149.9156860349	0.0012965214
5151.8444934080	0.0013358949
5153.7733007810	0.0013294406
5155.7021081541	0.0012594338
5157.6309155271	0.0012304538
5159.5597229002	0.0012927083
5161.4885302732	0.0012546710
5163.4173376463	0.0012367483
5165.3461450193	0.0012162167
5167.2749523923	0.0012895957
5169.2037597654	0.0013050470
5171.1325671384	0.0012188506
5173.0613745115	0.0012805773
5174.9901818845	0.0012283459
5176.9189892576	0.0012832467
5178.8477966306	0.0012977787
5180.7766040037	0.0011794158
5182.7054113767	0.0012401892
5184.6342187498	0.0011713612
5186.5630261228	0.0011809014
5188.4918334959	0.0012512662
5190.4206408689	0.0012171366
5192.3494482420	0.0012067596
5194.2782556150	0.0011541913
5196.2070629880	0.0011430879
5198.1358703611	0.0011667451
5200.0646777341	0.0012211849
5201.9934851072	0.0012137046
5203.9222924802	0.0012299244
5205.8510998533	0.0011818167
5207.7799072263	0.0010975758
5209.7087145994	0.0012016672
5211.6375219724	0.0011302426
5213.5663293455	0.0010924169
5215.4951367185	0.0011378682
5217.4239440916	0.0011599988
5219.3527514646	0.0012274008
5221.2815588377	0.0011398452
5223.2103662107	0.0011627229
5225.1391735837	0.0011198550
5227.0679809568	0.0010737252
5228.9967883298	0.0011354280
5230.9255957029	0.0011344585
5232.8544030759	0.0011836477
5234.7832104490	0.0010221077
5236.7120178220	0.0010405792
5238.6408251951	0.0011535115
5240.5696325681	0.0010882802
5242.4984399412	0.0011382343
5244.4272473142	0.0010878372
5246.3560546873	0.0011242259
5248.2848620603	0.0010715225
5250.2136694334	0.0010340668
5252.1424768064	0.0011853167
5254.0712841795	0.0011083076
5256.0000915525	0.0011433518
5257.9288989255	0.0011304925
5259.8577062986	0.0010035372
5261.7865136716	0.0010262283
5263.7153210447	0.0009838266
5265.6441284177	0.0009874298
5267.5729357908	0.0011136909
5269.5017431638	0.0011393013
5271.4305505369	0.0010355625
5273.3593579099	0.0010923464
5275.2881652830	0.0010568612
5277.2169726560	0.0009602141
5279.1457800291	0.0010664980
5281.0745874021	0.0010484871
5283.0033947752	0.0010843014
5284.9322021482	0.0010888694
5286.8610095212	0.0010149177
5288.7898168943	0.0010430727
5290.7186242673	0.0010152564
5292.6474316404	0.0010587565
5294.5762390134	0.0010235785
5296.5050463865	0.0009577742
5298.4338537595	0.0010257451
5300.3626611326	0.0010051453
5302.2914685056	0.0009691740
5304.2202758787	0.0010237421
5306.1490832517	0.0010189167
5308.0778906248	0.0009578418
5310.0066979978	0.0010077701
5311.9355053709	0.0010161151
5313.8643127439	0.0009876367
5315.7931201169	0.0010625888
5317.7219274900	0.0010352244
5319.6507348630	0.0009619655
5321.5795422361	0.0010067177
5323.5083496091	0.0009992378
5325.4371569822	0.0009339846
5327.3659643552	0.0009536815
5329.2947717283	0.0009654017
5331.2235791013	0.0009896380
5333.1523864744	0.0009761310
5335.0811938474	0.0009123500
5337.0100012205	0.0009680944
5338.9388085935	0.0009472373
5340.8676159666	0.0008965910
5342.7964233396	0.0009592666
5344.7252307126	0.0009750763
5346.6540380857	0.0009401910
5348.5828454587	0.0008974735
5350.5116528318	0.0009429738
5352.4404602048	0.0009830936
5354.3692675779	0.0009208228
5356.2980749509	0.0009384737
5358.2268823240	0.0009635427
5360.1556896970	0.0009649430
5362.0844970701	0.0009856533
5364.0133044431	0.0009086799
5365.9421118162	0.0008825584
5367.8709191892	0.0009288454
5369.7997265623	0.0009007167
5371.7285339353	0.0008886626
5373.6573413083	0.0009487732
5375.5861486814	0.0009474386
5377.5149560544	0.0008764693
5379.4437634275	0.0009172143
5381.3725708005	0.0008981398
5383.3013781736	0.0008406408
5385.2301855466	0.0009259846
5387.1589929197	0.0009098278
5389.0878002927	0.0008871678
5391.0166076658	0.0009054386
5392.9454150388	0.0008130466
5394.8742224119	0.0007911353
5396.8030297849	0.0008516546
5398.7318371580	0.0008508235
5400.6606445310	0.0008514564
5402.5894519041	0.0008466478
5404.5182592771	0.0008242514
5406.4470666501	0.0008597687
5408.3758740232	0.0008558427
5410.3046813962	0.0008575540
5412.2334887693	0.0008489965
5414.1622961423	0.0008331126
5416.0911035154	0.0008604738
5418.0199108884	0.0007837368
5419.9487182615	0.0007586901
5421.8775256345	0.0008008552
5423.8063330076	0.0008002725
5425.7351403806	0.0008002784
5427.6639477537	0.0008040118
5429.5927551267	0.0007915341
5431.5215624998	0.0008058095
5433.4503698728	0.0008363567
5435.3791772458	0.0008070222
5437.3079846189	0.0008469453
5439.2367919919	0.0007663685
5441.1655993650	0.0006983469
5443.0944067380	0.0007797393
5445.0232141111	0.0007690992
5446.9520214841	0.0008070423
5448.8808288572	0.0007704328
5450.8096362302	0.0007809817
5452.7384436033	0.0007765412
5454.6672509763	0.0007023182
5456.5960583494	0.0007543116
5458.5248657224	0.0007535595
5460.4536730955	0.0008630559
5462.3824804685	0.0008372489
5464.3112878415	0.0007607840
5466.2400952146	0.0008200359
5468.1689025876	0.0007463170
5470.0977099607	0.0007918472
5472.0265173337	0.0008615596
5473.9553247068	0.0008317268
5475.8841320798	0.0007744686
5477.8129394529	0.0007690203
5479.7417468259	0.0008079779
5481.6705541990	0.0007709626
5483.5993615720	0.0007748950
5485.5281689451	0.0007806045
5487.4569763181	0.0007331126
5489.3857836912	0.0007421319
5491.3145910642	0.0008109038
5493.2433984372	0.0007787921
5495.1722058103	0.0007633179
5497.1010131833	0.0007587313
5499.0298205564	0.0007169596
5500.9586279294	0.0007786389
5502.8874353025	0.0007415074
5504.8162426755	0.0006725350
5506.7450500486	0.0007006805
5508.6738574216	0.0007636962
5510.6026647947	0.0007431132
5512.5314721677	0.0006792677
5514.4602795408	0.0007159649
5516.3890869138	0.0007277033
5518.3178942869	0.0007120232
5520.2467016599	0.0006831816
5522.1755090330	0.0007104116
5524.1043164060	0.0007003258
5526.0331237790	0.0006820009
5527.9619311521	0.0007247333
5529.8907385251	0.0006835040
5531.8195458982	0.0006747216
5533.7483532712	0.0006670706
5535.6771606443	0.0007341671
5537.6059680173	0.0007393112
5539.5347753904	0.0006407120
5541.4635827634	0.0006587312
5543.3923901365	0.0006466946
5545.3211975095	0.0006187026
5547.2500048826	0.0006573780
5549.1788122556	0.0007462560
5551.1076196287	0.0006841451
5553.0364270017	0.0006393730
5554.9652343747	0.0007088462
5556.8940417478	0.0006930996
5558.8228491208	0.0006940025
5560.7516564939	0.0007018523
5562.6804638669	0.0007348516
5564.6092712400	0.0006525123
5566.5380786130	0.0006481006
5568.4668859861	0.0007014934
5570.3956933591	0.0006508094
5572.3245007322	0.0006641569
5574.2533081052	0.0005862401
5576.1821154783	0.0007069862
5578.1109228513	0.0007276525
5580.0397302244	0.0005654892
5581.9685375974	0.0006580332
5583.8973449704	0.0006751546
5585.8261523435	0.0006695723
5587.7549597165	0.0006638287
5589.6837670896	0.0006622837
5591.6125744626	0.0006346384
5593.5413818357	0.0005866873
5595.4701892087	0.0006584193
5597.3989965818	0.0006602778
5599.3278039548	0.0006778566
5601.2566113279	0.0006593596
5603.1854187009	0.0006260943
5605.1142260740	0.0006248244
5607.0430334470	0.0006305365
5608.9718408201	0.0006481806
5610.9006481931	0.0005500903
5612.8294555661	0.0006336687
5614.7582629392	0.0006915957
5616.6870703122	0.0005943642
5618.6158776853	0.0006402954
5620.5446850583	0.0006122963
5622.4734924314	0.0006315120
5624.4022998044	0.0006471448
5626.3311071775	0.0005611072
5628.2599145505	0.0005933658
5630.1887219236	0.0005720987
5632.1175292966	0.0005530266
5634.0463366697	0.0005930855
5635.9751440427	0.0006286545
5637.9039514158	0.0005844529
5639.8327587888	0.0004964005
5641.7615661619	0.0006095008
5643.6903735349	0.0006063153
5645.6191809079	0.0005157752
5647.5479882810	0.0005658645
5649.4767956540	0.0005514855
5651.4056030271	0.0005375784
5653.3344104001	0.0005509310
5655.2632177732	0.0005642128
5657.1920251462	0.0005145071
5659.1208325193	0.0004931382
5661.0496398923	0.0005629693
5662.9784472654	0.0006182397
5664.9072546384	0.0006117959
5666.8360620115	0.0005073423
5668.7648693845	0.0006104370
5670.6936767576	0.0006724678
5672.6224841306	0.0005111541
5674.5512915036	0.0005387811
5676.4800988767	0.0005878375
5678.4089062497	0.0005767763
5680.3377136228	0.0005798549
5682.2665209958	0.0005726896
5684.1953283689	0.0005929880
5686.1241357419	0.0005736271
5688.0529431150	0.0005474660
5689.9817504880	0.0005566874
5691.9105578611	0.0005190424
5693.8393652341	0.0004934019
5695.7681726072	0.0005396494
5697.6969799802	0.0004853604
5699.6257873533	0.0004807505
5701.5545947263	0.0005742247
5703.4834020993	0.0005341193
5705.4122094724	0.0005093902
5707.3410168454	0.0005527954
5709.2698242185	0.0005038626
5711.1986315915	0.0004635094
5713.1274389646	0.0005588547
5715.0562463376	0.0005533230
5716.9850537107	0.0004693958
5718.9138610837	0.0004962165
5720.8426684568	0.0004952135
5722.7714758298	0.0005068542
5724.7002832029	0.0005314550
5726.6290905759	0.0005392951
5728.5578979490	0.0005538617
5730.4867053220	0.0005050383
5732.4155126950	0.0005220356
5734.3443200681	0.0005214477
5736.2731274411	0.0004641076
5738.2019348142	0.0005624276
5740.1307421872	0.0005625783
5742.0595495603	0.0004587253
5743.9883569333	0.0005085510
5745.9171643064	0.0005394581
5747.8459716794	0.0005027902
5749.7747790525	0.0004618201
5751.7035864255	0.0004828620
5753.6323937986	0.0004712543
5755.5612011716	0.0004522367
5757.4900085447	0.0005589407
5759.4188159177	0.0005124090
5761.3476232907	0.0004455104
5763.2764306638	0.0004756866
5765.2052380368	0.0004531398
5767.1340454099	0.0004503396
5769.0628527829	0.0004399832
5770.9916601560	0.0004425609
5772.9204675290	0.0004524277
5774.8492749021	0.0004610883
5776.7780822751	0.0004492194
5778.7068896482	0.0004169884
5780.6356970212	0.0004136029
5782.5645043943	0.0004451261
5784.4933117673	0.0004633729
5786.4221191404	0.0004963682
5788.3509265134	0.0005344961
5790.2797338865	0.0004257275
5792.2085412595	0.0004456797
5794.1373486325	0.0005093010
5796.0661560056	0.0004401506
5797.9949633786	0.0004038023
5799.9237707517	0.0003694032
5801.8525781247	0.0004815241
5803.7813854978	0.0005306019
5805.7101928708	0.0004825993
5807.6390002439	0.0004321161
5809.5678076169	0.0003656307
5811.4966149900	0.0004452487
5813.4254223630	0.0004678572
5815.3542297361	0.0004600116
5817.2830371091	0.0004694798
5819.2118444822	0.0004529444
5821.1406518552	0.0004222161
5823.0694592282	0.0004204750
5824.9982666013	0.0004329131
5826.9270739743	0.0004102190
5828.8558813474	0.0004816695
5830.7846887204	0.0004450321
5832.7134960935	0.0003864215
5834.6423034665	0.0003955318
5836.5711108396	0.0004136228
5838.4999182126	0.0004577088
5840.4287255857	0.0004156015
5842.3575329587	0.0004361937
5844.2863403318	0.0004591762
5846.2151477048	0.0004775890
5848.1439550779	0.0004141636
5850.0727624509	0.0003754043
5852.0015698239	0.0004445230
5853.9303771970	0.0003527830
5855.8591845700	0.0004055961
5857.7879919431	0.0004605293
5859.7167993161	0.0004048844
5861.6456066892	0.0004240105
5863.5744140622	0.0003249626
5865.5032214353	0.0003177907
5867.4320288083	0.0004622155
5869.3608361814	0.0004421873
5871.2896435544	0.0003390423
5873.2184509275	0.0003755688
5875.1472583005	0.0003989673
5877.0760656736	0.0004134242
5879.0048730466	0.0003595005
5880.9336804196	0.0003200134
5882.8624877927	0.0004556610
5884.7912951657	0.0003723578
5886.7201025388	0.0003367492
5888.6489099118	0.0003706050
5890.5777172849	0.0002787664
5892.5065246579	0.0003867487
5894.4353320310	0.0003913049
5896.3641394040	0.0003354908
5898.2929467771	0.0004112244
5900.2217541501	0.0004258197
5902.1505615232	0.0003828314
5904.0793688962	0.0003113873
5906.0081762693	0.0003682775
5907.9369836423	0.0004162723
5909.8657910154	0.0003042623
5911.7945983884	0.0003202489
5913.7234057614	0.0003761459
5915.6522131345	0.0003316618
5917.5810205075	0.0003969881
5919.5098278806	0.0004102297
5921.4386352536	0.0003594222
5923.3674426267	0.0003787668
5925.2962499997	0.0003312693
5927.2250573728	0.0003299270
5929.1538647458	0.0002843695
5931.0826721189	0.0002737510
5933.0114794919	0.0003999574
5934.9402868650	0.0003605671
5936.8690942380	0.0003288079
5938.7979016111	0.0003302465
5940.7267089841	0.0003402999
5942.6555163571	0.0003705610
5944.5843237302	0.0002975776
5946.5131311032	0.0003513510
5948.4419384763	0.0003533734
5950.3707458493	0.0003247762
5952.2995532224	0.0003895882
5954.2283605954	0.0003386886
5956.1571679685	0.0003375575
5958.0859753415	0.0003297198
5960.0147827146	0.0003347580
5961.9435900876	0.0003434613
5963.8723974607	0.0002909893
5965.8012048337	0.0003364924
5967.7300122068	0.0003314769
5969.6588195798	0.0003456473
5971.5876269528	0.0003485279
5973.5164343259	0.0002492628
5975.4452416989	0.0002589563
5977.3740490720	0.0003375094
5979.3028564450	0.0003260894
5981.2316638181	0.0002700631
5983.1604711911	0.0003010890
5985.0892785642	0.0003354157
5987.0180859372	0.0003420980
5988.9468933103	0.0003152770
5990.8757006833	0.0003300349
5992.8045080564	0.0003949855
5994.7333154294	0.0003523409
5996.6621228025	0.0003179866
5998.5909301755	0.0003048820
6000.5197375485	0.0003236569
