399.2631262207	0.0020147210
401.1919335938	0.0021549843
403.1207409668	0.0021289298
405.0495483398	0.0025081413
406.9783557129	0.0025758960
408.9071630859	0.0022865012
410.8359704590	0.0027006809
412.7647778320	0.0026111067
414.6935852051	0.0026228973
416.6223925781	0.0029199291
418.5511999512	0.0021503507
420.4800073242	0.0024991026
422.4088146973	0.0029665439
424.3376220703	0.0029976401
426.2664294434	0.0030330294
428.1952368164	0.0026583909
430.1240441895	0.0030045263
432.0528515625	0.0031550254
433.9816589355	0.0032073003
435.9104663086	0.0030803536
437.8392736816	0.0032702698
439.7680810547	0.0033059283
441.6968884277	0.0022658673
443.6256958008	0.0026268386
445.5545031738	0.0028931345
447.4833105469	0.0024794987
449.4121179199	0.0028474554
451.3409252930	0.0026529205
453.2697326660	0.0020470682
455.1985400391	0.0020535630
457.1273474121	0.0021477947
459.0561547852	0.0016848715
460.9849621582	0.0017352668
462.9137695313	0.0017969194
464.8425769043	0.0016784794
466.7713842773	0.0015172316
468.7001916504	0.0009073191
470.6289990234	0.0011821474
472.5578063965	0.0011175326
474.4866137695	0.0009936600
476.4154211426	0.0014697269
478.3442285156	0.0011388193
480.2730358887	0.0008415947
482.2018432617	0.0008477712
484.1306506348	0.0007059894
486.0594580078	0.0002876404
487.9882653809	0.0002418947
489.9170727539	0.0003722886
491.8458801270	0.0005222685
493.7746875000	0.0006971262
495.7034948730	0.0003812404
497.6323022461	0.0004795024
499.5611096191	0.0004575090
501.4899169922	0.0004243341
503.4187243652	0.0003201441
505.3475317383	0.0001063436
507.2763391113	0.0000410171
509.2051464844	-0.0000078204
511.1339538574	0.0004294628
513.0627612305	0.0002155374
514.9915686035	0.0001201516
516.9203759766	0.0002524410
518.8491833496	0.0001516967
520.7779907227	0.0000626833
522.7067980957	0.0001532234
524.6356054688	0.0004739955
526.5644128418	0.0001556128
528.4932202148	0.0000288229
530.4220275879	0.0002537838
532.3508349609	0.0004221407
534.2796423340	0.0003923722
536.2084497070	0.0001796678
538.1372570801	0.0001681516
540.0660644531	0.0001133904
541.9948718262	0.0001616012
543.9236791992	0.0001593923
545.8524865723	0.0001664472
547.7812939453	0.0000884104
549.7101013184	0.0000482997
551.6389086914	0.0004848554
553.5677160645	0.0004112146
555.4965234375	0.0001215063
557.4253308105	0.0004202276
559.3541381836	0.0006256465
561.2829455566	0.0003443921
563.2117529297	0.0001478290
565.1405603027	0.0003069814
567.0693676758	0.0000903171
568.9981750488	0.0000182706
570.9269824219	0.0004480997
572.8557897949	0.0001600067
574.7845971680	0.0000111338
576.7134045410	0.0002058136
578.6422119141	0.0000200138
580.5710192871	0.0001680596
582.4998266602	0.0000685070
584.4286340332	0.0001836161
586.3574414063	0.0006519692
588.2862487793	0.0003576020
590.2150561523	0.0004163173
592.1438635254	0.0004697299
594.0726708984	0.0003028074
596.0014782715	0.0003911375
597.9302856445	-0.0000551303
599.8590930176	0.0000826627
601.7879003906	0.0002168267
603.7167077637	0.0000332198
605.6455151367	0.0003766412
607.5743225098	0.0003363625
609.5031298828	0.0000708420
611.4319372559	0.0000186262
613.3607446289	0.0002506860
615.2895520020	0.0003841839
617.2183593750	-0.0000169163
619.1471667480	-0.0001441035
621.0759741211	0.0002213919
623.0047814941	0.0000907119
624.9335888672	0.0001601538
626.8623962402	0.0002778805
628.7912036133	0.0000603290
630.7200109863	0.0009861992
632.6488183594	0.0016537432
634.5776257324	0.0016276421
636.5064331055	0.0020020150
638.4352404785	0.0020392183
640.3640478516	0.0022601737
642.2928552246	0.0024526296
644.2216625977	0.0028372356
646.1504699707	0.0032280157
648.0792773438	0.0033025253
650.0080847168	0.0039645075
651.9368920898	0.0039130878
653.8656994629	0.0039548124
655.7945068359	0.0045143794
657.7233142090	0.0041451668
659.6521215820	0.0041862354
661.5809289551	0.0044354149
663.5097363281	0.0045302082
665.4385437012	0.0048330775
667.3673510742	0.0045179361
669.2961584473	0.0048494488
671.2249658203	0.0056230160
673.1537731934	0.0057086479
675.0825805664	0.0059104720
677.0113879395	0.0059008184
678.9401953125	0.0059918817
680.8690026855	0.0062770075
682.7978100586	0.0061560422
684.7266174316	0.0059493645
686.6554248047	0.0060810326
688.5842321777	0.0063682790
690.5130395508	0.0063762646
692.4418469238	0.0067748073
694.3706542969	0.0070080860
696.2994616699	0.0077007106
698.2282690430	0.0091117974
700.1570764160	0.0094606178
702.0858837891	0.0093266694
704.0146911621	0.0086376667
705.9434985352	0.0078606457
707.8723059082	0.0068459832
709.8011132813	0.0050532650
711.7299206543	0.0036403160
713.6587280273	0.0022643893
715.5875354004	0.0014229440
717.5163427734	0.0009678809
719.4451501465	0.0006661854
721.3739575195	0.0005716973
723.3027648926	0.0002086948
725.2315722656	0.0002633121
727.1603796387	0.0001801704
729.0891870117	0.0002467644
731.0179943848	0.0005189962
732.9468017578	0.0000334821
734.8756091309	-0.0001811037
736.8044165039	0.0001356507
738.7332238770	0.0002140276
740.6620312500	0.0003098726
742.5908386230	0.0002815694
744.5196459961	0.0000678544
746.4484533691	0.0002532451
748.3772607422	0.0003566069
750.3060681152	0.0001381449
752.2348754883	0.0003338805
754.1636828613	0.0006385720
756.0924902344	0.0004528409
758.0212976074	0.0004022014
759.9501049805	0.0002655170
761.8789123535	0.0001839958
763.8077197266	0.0006334112
765.7365270996	0.0005461497
767.6653344727	0.0005851035
769.5941418457	0.0006764990
771.5229492188	0.0003212183
773.4517565918	0.0003453084
775.3805639648	0.0006431119
777.3093713379	0.0007925483
779.2381787109	0.0005296712
781.1669860840	0.0005452925
783.0957934570	0.0004320444
785.0246008301	0.0003610365
786.9534082031	0.0005979326
788.8822155762	0.0005735809
790.8110229492	0.0009838354
792.7398303223	0.0007347699
794.6686376953	0.0004462942
796.5974450684	0.0008876696
798.5262524414	0.0009903432
800.4550598145	0.0013752900
802.3838671875	0.0012902564
804.3126745605	0.0007678324
806.2414819336	0.0009300609
808.1702893066	0.0009717132
810.0990966797	0.0007338332
812.0279040527	0.0007415399
813.9567114258	0.0007668972
815.8855187988	0.0005794115
817.8143261719	0.0003495363
819.7431335449	0.0004675846
821.6719409180	0.0005961181
823.6007482910	0.0006557352
825.5295556641	0.0008070047
827.4583630371	0.0008450912
829.3871704102	0.0013470497
831.3159777832	0.0016661615
833.2447851563	0.0016689954
835.1735925293	0.0018051419
837.1023999023	0.0019018261
839.0312072754	0.0021967094
840.9600146484	0.0021249172
842.8888220215	0.0019345796
844.8176293945	0.0016314005
846.7464367676	0.0014008938
848.6752441406	0.0014414953
850.6040515137	0.0014258542
852.5328588867	0.0013620004
854.4616662598	0.0011763838
856.3904736328	0.0014676936
858.3192810059	0.0012007018
860.2480883789	0.0008967061
862.1768957520	0.0009942988
864.1057031250	0.0006030425
866.0345104980	0.0004916315
867.9633178711	0.0006605021
869.8921252441	0.0008343094
871.8209326172	0.0001339553
873.7497399902	0.0002710191
875.6785473633	0.0008529068
877.6073547363	0.0001094822
879.5361621094	0.0002381613
881.4649694824	0.0004085282
883.3937768555	0.0005350350
885.3225842285	0.0008598541
887.2513916016	0.0006200919
889.1801989746	0.0005416044
891.1090063477	0.0004149204
893.0378137207	0.0005866147
894.9666210938	0.0008587314
896.8954284668	0.0007025709
898.8242358398	0.0004466019
900.7530432129	0.0006204508
902.6818505859	0.0007366867
904.6106579590	0.0006458534
906.5394653320	0.0006868641
908.4682727051	0.0006678021
910.3970800781	0.0009609170
912.3258874512	0.0008404149
914.2546948242	0.0008829919
916.1835021973	0.0012637621
918.1123095703	0.0011799799
920.0411169434	0.0013553163
921.9699243164	0.0015222880
923.8987316895	0.0017376855
925.8275390625	0.0018973071
927.7563464355	0.0018772838
929.6851538086	0.0023816898
931.6139611816	0.0026405044
933.5427685547	0.0022367029
935.4715759277	0.0024653496
937.4003833008	0.0029663872
939.3291906738	0.0030932508
941.2579980469	0.0031504687
943.1868054199	0.0030638995
945.1156127930	0.0032701115
947.0444201660	0.0029609001
948.9732275391	0.0028624958
950.9020349121	0.0032888511
952.8308422852	0.0029844386
954.7596496582	0.0030541609
956.6884570313	0.0030766716
958.6172644043	0.0030318755
960.5460717773	0.0030866712
962.4748791504	0.0028167274
964.4036865234	0.0029471894
966.3324938965	0.0031301680
968.2613012695	0.0034060040
970.1901086426	0.0034281625
972.1189160156	0.0034001120
974.0477233887	0.0039584548
975.9765307617	0.0042050066
977.9053381348	0.0042920345
979.8341455078	0.0046862494
981.7629528809	0.0052590719
983.6917602539	0.0060267271
985.6205676270	0.0065908716
987.5493750000	0.0073137805
989.4781823730	0.0081914710
991.4069897461	0.0086032506
993.3357971191	0.0093565425
995.2646044922	0.0103222709
997.1934118652	0.0113875372
999.1222192383	0.0124583058
1001.0510266113	0.0130247418
1002.9798339844	0.0139528923
1004.9086413574	0.0150190853
1006.8374487305	0.0158406477
1008.7662561035	0.0166212507
1010.6950634766	0.0176740400
1012.6238708496	0.0188128315
1014.5526782227	0.0198333450
1016.4814855957	0.0208336823
1018.4102929688	0.0217173211
1020.3391003418	0.0230154190
1022.2679077148	0.0237371232
1024.1967150879	0.0243787020
1026.1255224609	0.0255491659
1028.0543298340	0.0263190772
1029.9831372070	0.0271846093
1031.9119445801	0.0278396234
1033.8407519531	0.0281928182
1035.7695593262	0.0284585357
1037.6983666992	0.0290597919
1039.6271740723	0.0293853004
1041.5559814453	0.0290340260
1043.4847888184	0.0289056525
1045.4135961914	0.0285922308
1047.3424035645	0.0281547140
1049.2712109375	0.0276310705
1051.2000183105	0.0272554085
1053.1288256836	0.0265425015
1055.0576330566	0.0258416347
1056.9864404297	0.0256767385
1058.9152478027	0.0247732252
1060.8440551758	0.0240319632
1062.7728625488	0.0234875102
1064.7016699219	0.0227707326
1066.6304772949	0.0220009144
1068.5592846680	0.0210441835
1070.4880920410	0.0201626085
1072.4168994141	0.0190420188
1074.3457067871	0.0183534641
1076.2745141602	0.0175975952
1078.2033215332	0.0166996419
1080.1321289062	0.0161288194
1082.0609362793	0.0151481144
1083.9897436523	0.0143382568
1085.9185510254	0.0136347562
1087.8473583984	0.0130622247
1089.7761657715	0.0128394822
1091.7049731445	0.0120122274
1093.6337805176	0.0113969808
1095.5625878906	0.0111393202
1097.4913952637	0.0107763335
1099.4202026367	0.0107296593
1101.3490100098	0.0101223476
1103.2778173828	0.0098717846
1105.2066247559	0.0098199369
1107.1354321289	0.0094375834
1109.0642395019	0.0095573021
1110.9930468750	0.0091704344
1112.9218542480	0.0091698561
1114.8506616211	0.0091553619
1116.7794689941	0.0089632543
1118.7082763672	0.0091718389
1120.6370837402	0.0089749154
1122.5658911133	0.0092799170
1124.4946984863	0.0092625637
1126.4235058594	0.0093258107
1128.3523132324	0.0096878838
1130.2811206055	0.0097396150
1132.2099279785	0.0101104900
1134.1387353516	0.0102250520
1136.0675427246	0.0107813813
1137.9963500977	0.0113597782
1139.9251574707	0.0118437540
1141.8539648437	0.0129468068
1143.7827722168	0.0137235727
1145.7115795898	0.0143303555
1147.6403869629	0.0152204093
1149.5691943359	0.0162292197
1151.4980017090	0.0172580518
1153.4268090820	0.0180401951
1155.3556164551	0.0187160000
1157.2844238281	0.0195235796
1159.2132312012	0.0202449001
1161.1420385742	0.0210670400
1163.0708459473	0.0216158405
1164.9996533203	0.0223296005
1166.9284606934	0.0232047290
1168.8572680664	0.0239032768
1170.7860754394	0.0251594558
1172.7148828125	0.0259782895
1174.6436901855	0.0268942881
1176.5724975586	0.0278719701
1178.5013049316	0.0289310254
1180.4301123047	0.0303725116
1182.3589196777	0.0312949792
1184.2877270508	0.0328396186
1186.2165344238	0.0341230743
1188.1453417969	0.0355212316
1190.0741491699	0.0373709910
1192.0029565430	0.0389297456
1193.9317639160	0.0409086272
1195.8605712891	0.0426763818
1197.7893786621	0.0445861444
1199.7181860351	0.0465047807
1201.6469934082	0.0485699400
1203.5758007812	0.0506023727
1205.5046081543	0.0523934215
1207.4334155273	0.0542954877
1209.3622229004	0.0559935197
1211.2910302734	0.0579430237
1213.2198376465	0.0595161356
1215.1486450195	0.0607779399
1217.0774523926	0.0619316697
1219.0062597656	0.0630984902
1220.9350671387	0.0640863776
1222.8638745117	0.0646858960
1224.7926818848	0.0653519034
1226.7214892578	0.0657479912
1228.6502966308	0.0662581474
1230.5791040039	0.0665148422
1232.5079113769	0.0666915923
1234.4367187500	0.0668003112
1236.3655261230	0.0666463450
1238.2943334961	0.0665151104
1240.2231408691	0.0664750114
1242.1519482422	0.0664861500
1244.0807556152	0.0658386052
1246.0095629883	0.0654695258
1247.9383703613	0.0651178658
1249.8671777344	0.0647796988
1251.7959851074	0.0642997921
1253.7247924805	0.0633715242
1255.6535998535	0.0627889931
1257.5824072266	0.0617932901
1259.5112145996	0.0609360635
1261.4400219726	0.0599406734
1263.3688293457	0.0590983927
1265.2976367187	0.0584019199
1267.2264440918	0.0576240532
1269.1552514648	0.0570548251
1271.0840588379	0.0559823141
1273.0128662109	0.0552777871
1274.9416735840	0.0541795082
1276.8704809570	0.0531345345
1278.7992883301	0.0521559753
1280.7280957031	0.0510990247
1282.6569030762	0.0503056273
1284.5857104492	0.0490988158
1286.5145178223	0.0484736115
1288.4433251953	0.0475165583
1290.3721325683	0.0468727536
1292.3009399414	0.0464146920
1294.2297473144	0.0459138826
1296.1585546875	0.0458540544
1298.0873620605	0.0455499999
1300.0161694336	0.0458068214
1301.9449768066	0.0458648130
1303.8737841797	0.0464132391
1305.8025915527	0.0468080193
1307.7313989258	0.0471822172
1309.6602062988	0.0483529419
1311.5890136719	0.0489080474
1313.5178210449	0.0498871766
1315.4466284180	0.0511813276
1317.3754357910	0.0524498075
1319.3042431640	0.0536209345
1321.2330505371	0.0552446581
1323.1618579101	0.0571912453
1325.0906652832	0.0586820096
1327.0194726562	0.0602923706
1328.9482800293	0.0618781187
1330.8770874023	0.0633277670
1332.8058947754	0.0645515174
1334.7347021484	0.0659724846
1336.6635095215	0.0666452572
1338.5923168945	0.0665084794
1340.5211242676	0.0673710331
1342.4499316406	0.0694988817
1344.3787390137	0.0701471120
1346.3075463867	0.0697511137
1348.2363537597	0.0702701807
1350.1651611328	0.0694904476
1352.0939685058	0.0692268983
1354.0227758789	0.0687436014
1355.9515832519	0.0677669272
1357.8803906250	0.0676427931
1359.8091979980	0.0664975420
1361.7380053711	0.0643048286
1363.6668127441	0.0632545799
1365.5956201172	0.0656098053
1367.5244274902	0.0645032153
1369.4532348633	0.0636422336
1371.3820422363	0.0646465197
1373.3108496094	0.0616015270
1375.2396569824	0.0622494221
1377.1684643555	0.0632250607
1379.0972717285	0.0630244464
1381.0260791015	0.0630878508
1382.9548864746	0.0626798645
1384.8836938476	0.0628873557
1386.8125012207	0.0602916703
1388.7413085937	0.0615128577
1390.6701159668	0.0655800998
1392.5989233398	0.0642459765
1394.5277307129	0.0609662347
1396.4565380859	0.0633716881
1398.3853454590	0.0636745021
1400.3141528320	0.0630155802
1402.2429602051	0.0672421902
1404.1717675781	0.0640884936
1406.1005749512	0.0645194799
1408.0293823242	0.0665709078
1409.9581896972	0.0644442588
1411.8869970703	0.0656113029
1413.8158044433	0.0632686019
1415.7446118164	0.0642286390
1417.6734191894	0.0588036776
1419.6022265625	0.0537137464
1421.5310339355	0.0600282438
1423.4598413086	0.0580906756
1425.3886486816	0.0564550869
1427.3174560547	0.0568528026
1429.2462634277	0.0529565401
1431.1750708008	0.0513499714
1433.1038781738	0.0519274846
1435.0326855469	0.0475244448
1436.9614929199	0.0414828956
1438.8903002929	0.0457219630
1440.8191076660	0.0461515635
1442.7479150390	0.0435078964
1444.6767224121	0.0450553298
1446.6055297851	0.0419209823
1448.5343371582	0.0424837321
1450.4631445312	0.0439016186
1452.3919519043	0.0445415638
1454.3207592773	0.0460354462
1456.2495666504	0.0396979153
1458.1783740234	0.0416202247
1460.1071813965	0.0532465726
1462.0359887695	0.0561685972
1463.9647961426	0.0563978925
1465.8936035156	0.0587692857
1467.8224108886	0.0662240908
1469.7512182617	0.0708799809
1471.6800256347	0.0649251938
1473.6088330078	0.0689380988
1475.5376403808	0.0772347450
1477.4664477539	0.0825361311
1479.3952551269	0.0900047272
1481.3240625000	0.0918700844
1483.2528698730	0.0968821868
1485.1816772461	0.1001561359
1487.1104846191	0.0995478407
1489.0392919922	0.0997431949
1490.9680993652	0.1013005972
1492.8969067383	0.1145076454
1494.8257141113	0.1124424189
1496.7545214843	0.1038292870
1498.6833288574	0.1155714095
1500.6121362304	0.1186812967
1502.5409436035	0.1259792000
1504.4697509765	0.1201070324
1506.3985583496	0.0931163654
1508.3273657226	0.1107716709
1510.2561730957	0.1258013546
1512.1849804687	0.1224887520
1514.1137878418	0.1309663057
1516.0425952148	0.1201720834
1517.9714025879	0.1253134310
1519.9002099609	0.1205973029
1521.8290173340	0.1080353484
1523.7578247070	0.1276654303
1525.6866320801	0.1252907366
1527.6154394531	0.1254649758
1529.5442468261	0.1357980967
1531.4730541992	0.1314682662
1533.4018615722	0.1226480827
1535.3306689453	0.1288646460
1537.2594763183	0.1352959275
1539.1882836914	0.1026919559
1541.1170910644	0.1072947830
1543.0458984375	0.1242823824
1544.9747058105	0.1204861328
1546.9035131836	0.1378012449
1548.8323205566	0.1303010285
1550.7611279297	0.1340518594
1552.6899353027	0.1325837672
1554.6187426758	0.1228692010
1556.5475500488	0.1296865344
1558.4763574218	0.0976803526
1560.4051647949	0.1043176427
1562.3339721679	0.1387774646
1564.2627795410	0.1322941780
1566.1915869140	0.1352966279
1568.1203942871	0.1341111958
1570.0492016601	0.1216821223
1571.9780090332	0.1366733015
1573.9068164062	0.1375403851
1575.8356237793	0.1134073511
1577.7644311523	0.1258818060
1579.6932385254	0.1392570734
1581.6220458984	0.1337653399
1583.5508532715	0.1369466484
1585.4796606445	0.1349721104
1587.4084680175	0.1358646601
1589.3372753906	0.1350620389
1591.2660827636	0.1350306123
1593.1948901367	0.1352783442
1595.1236975097	0.1337136328
1597.0525048828	0.1353071630
1598.9813122558	0.1343600154
1600.9101196289	0.1350973845
1602.8389270019	0.1329640150
1604.7677343750	0.1346366256
1606.6965417480	0.1330988109
1608.6253491211	0.1329194903
1610.5541564941	0.1327470094
1612.4829638672	0.1333432645
1614.4117712402	0.1346872449
1616.3405786132	0.1136947423
1618.2693859863	0.1222997755
1620.1981933593	0.1383737624
1622.1270007324	0.1249712557
1624.0558081054	0.1261232942
1625.9846154785	0.1306211501
1627.9134228515	0.1304984242
1629.8422302246	0.1296010315
1631.7710375976	0.1366973221
1633.6998449707	0.1277822405
1635.6286523437	0.1092471406
1637.5574597168	0.1241553575
1639.4862670898	0.1337477714
1641.4150744629	0.1311530173
1643.3438818359	0.1338490248
1645.2726892090	0.1224442497
1647.2014965820	0.1110011786
1649.1303039550	0.1329888999
1651.0591113281	0.1256486475
1652.9879187011	0.0878305137
1654.9167260742	0.1140175611
1656.8455334472	0.1367250234
1658.7743408203	0.1313042343
1660.7031481933	0.1348292232
1662.6319555664	0.1244071722
1664.5607629394	0.1304238141
1666.4895703125	0.1377941966
1668.4183776855	0.1232368201
1670.3471850586	0.1207352281
1672.2759924316	0.1337512583
1674.2047998047	0.1249139905
1676.1336071777	0.1208274215
1678.0624145507	0.1357409060
1679.9912219238	0.1312411129
1681.9200292968	0.1305040717
1683.8488366699	0.1095514670
1685.7776440429	0.1090442836
1687.7064514160	0.1414898336
1689.6352587890	0.1252086461
1691.5640661621	0.1360110939
1693.4928735351	0.1372023225
1695.4216809082	0.1061436683
1697.3504882812	0.1261137128
1699.2792956543	0.1131291986
1701.2081030273	0.1046472490
1703.1369104004	0.1342891455
1705.0657177734	0.1249575317
1706.9945251464	0.1259207726
1708.9233325195	0.1345858276
1710.8521398925	0.1298738420
1712.7809472656	0.1317578554
1714.7097546386	0.1238555610
1716.6385620117	0.1128517389
1718.5673693847	0.1116232947
1720.4961767578	0.1284715235
1722.4249841308	0.1316089332
1724.3537915039	0.1241163611
1726.2825988769	0.1328212321
1728.2114062500	0.1238367409
1730.1402136230	0.1253793985
1732.0690209961	0.1214213744
1733.9978283691	0.0975385606
1735.9266357421	0.1170055494
1737.8554431152	0.1263503730
1739.7842504882	0.1150552481
1741.7130578613	0.1236682981
1743.6418652343	0.1252837926
1745.5706726074	0.1254055649
1747.4994799804	0.1264858842
1749.4282873535	0.1220923066
1751.3570947265	0.1177372634
1753.2859020996	0.1282553673
1755.2147094726	0.1327119321
1757.1435168457	0.1235495061
1759.0723242187	0.1332415640
1761.0011315918	0.1263053715
1762.9299389648	0.1234271303
1764.8587463379	0.1371408105
1766.7875537109	0.1257251948
1768.7163610839	0.1269359738
1770.6451684570	0.1259328127
1772.5739758300	0.1156094670
1774.5027832031	0.1265460402
1776.4315905761	0.1322693527
1778.3603979492	0.1304878145
1780.2892053222	0.1293920875
1782.2180126953	0.1299668849
1784.1468200683	0.1297131479
1786.0756274414	0.1280015558
1788.0044348144	0.1331084967
1789.9332421875	0.1301297992
1791.8620495605	0.1200621575
1793.7908569336	0.1244407594
1795.7196643066	0.1317379475
1797.6484716796	0.1300424337
1799.5772790527	0.1285833716
1801.5060864257	0.1268700659
1803.4348937988	0.1300939023
1805.3637011718	0.1322791278
1807.2925085449	0.1308022439
1809.2213159179	0.1313067675
1811.1501232910	0.1283760369
1813.0789306640	0.1314146221
1815.0077380371	0.1318607330
1816.9365454101	0.1307825297
1818.8653527832	0.1316148341
1820.7941601562	0.1309694350
1822.7229675293	0.1323883533
1824.6517749023	0.1254596263
1826.5805822753	0.1291184872
1828.5093896484	0.1290150881
1830.4381970214	0.1229483634
1832.3670043945	0.1315012872
1834.2958117675	0.1305039823
1836.2246191406	0.1305224895
1838.1534265136	0.1298654675
1840.0822338867	0.1306353509
1842.0110412597	0.1306052655
1843.9398486328	0.1186011732
1845.8686560058	0.1249921992
1847.7974633789	0.1303247213
1849.7262707519	0.1279435158
1851.6550781250	0.1307801008
1853.5838854980	0.1288031340
1855.5126928710	0.1297924370
1857.4415002441	0.1289754510
1859.3703076171	0.1284072250
1861.2991149902	0.1289156675
1863.2279223632	0.1277182251
1865.1567297363	0.1288421154
1867.0855371093	0.1251709759
1869.0143444824	0.1210274398
1870.9431518554	0.1248666123
1872.8719592285	0.1283613145
1874.8007666015	0.1266787052
1876.7295739746	0.1271650195
1878.6583813476	0.1266948283
1880.5871887207	0.1263073236
1882.5159960937	0.1270474792
1884.4448034667	0.1252966374
1886.3736108398	0.1266928911
1888.3024182128	0.1243170798
1890.2312255859	0.1223933697
1892.1600329589	0.1259661317
1894.0888403320	0.1243873090
1896.0176477050	0.1239967644
1897.9464550781	0.1251299381
1899.8752624511	0.1243342087
1901.8040698242	0.1245932579
1903.7328771972	0.1238752753
1905.6616845703	0.1242428124
1907.5904919433	0.1233001575
1909.5192993164	0.1225443184
1911.4481066894	0.1231707409
1913.3769140625	0.1232431233
1915.3057214355	0.1239859313
1917.2345288085	0.1193514913
1919.1633361816	0.1196525916
1921.0921435546	0.1232761741
1923.0209509277	0.1200210303
1924.9497583007	0.1221680194
1926.8785656738	0.1227464229
1928.8073730468	0.1214796156
1930.7361804199	0.1227433085
1932.6649877929	0.1213135123
1934.5937951660	0.1221763492
1936.5226025390	0.1214095950
1938.4514099121	0.1218310148
1940.3802172851	0.1215567142
1942.3090246582	0.1184507459
1944.2378320312	0.1202110201
1946.1666394042	0.1209974289
1948.0954467773	0.1208478957
1950.0242541503	0.1212297827
1951.9530615234	0.1207939759
1953.8818688964	0.1208387166
1955.8106762695	0.1204428449
1957.7394836425	0.1206156760
1959.6682910156	0.1204274446
1961.5970983886	0.1201753020
1963.5259057617	0.1203741878
1965.4547131347	0.1196311116
1967.3835205078	0.1187922284
1969.3123278808	0.1195758283
1971.2411352539	0.1199688315
1973.1699426269	0.1193879098
1975.0987499999	0.1197009236
1977.0275573730	0.1194400638
1978.9563647460	0.1191793084
1980.8851721191	0.1190310940
1982.8139794921	0.1188811660
1984.7427868652	0.1188779324
1986.6715942382	0.1180668920
1988.6004016113	0.1180702001
1990.5292089843	0.1172717288
1992.4580163574	0.1161821783
1994.3868237304	0.1175091341
1996.3156311035	0.1176874265
1998.2444384765	0.1168240905
2000.1732458496	0.1170227826
2002.1020532226	0.1166448146
2004.0308605956	0.1165040731
2005.9596679687	0.1163057685
2007.8884753417	0.1157794967
2009.8172827148	0.1157156527
2011.7460900878	0.1153761744
2013.6748974609	0.1153346449
2015.6037048339	0.1145454198
2017.5325122070	0.1137160882
2019.4613195800	0.1141953319
2021.3901269531	0.1141029000
2023.3189343261	0.1137516797
2025.2477416992	0.1136637181
2027.1765490722	0.1133610755
2029.1053564453	0.1130736321
2031.0341638183	0.1129183322
2032.9629711914	0.1126882881
2034.8917785644	0.1123462617
2036.8205859374	0.1121380329
2038.7493933105	0.1118529215
2040.6782006835	0.1112685353
2042.6070080566	0.1110037342
2044.5358154296	0.1111283749
2046.4646228027	0.1108572558
2048.3934301757	0.1105237305
2050.3222375488	0.1103416979
2052.2510449218	0.1101615131
2054.1798522949	0.1098901033
2056.1086596679	0.1097305715
2058.0374670410	0.1094927490
2059.9662744140	0.1090420485
2061.8950817871	0.1089290679
2063.8238891601	0.1083454564
2065.7526965331	0.1081266701
2067.6815039062	0.1083174497
2069.6103112792	0.1079927981
2071.5391186523	0.1078705937
2073.4679260253	0.1076819226
2075.3967333984	0.1075112820
2077.3255407714	0.1070990488
2079.2543481445	0.1068775654
2081.1831555175	0.1068933308
2083.1119628906	0.1065337956
2085.0407702636	0.1062598377
2086.9695776367	0.1060667634
2088.8983850097	0.1057959571
2090.8271923828	0.1054134294
2092.7559997558	0.1054706797
2094.6848071288	0.1052740589
2096.6136145019	0.1050247103
2098.5424218749	0.1049297750
2100.4712292480	0.1045676917
2102.4000366210	0.1045321822
2104.3288439941	0.1041962281
2106.2576513671	0.1040726304
2108.1864587402	0.1038997918
2110.1152661132	0.1037054062
2112.0440734863	0.1036325246
2113.9728808593	0.1031921208
2115.9016882324	0.1031453311
2117.8304956054	0.1029434204
2119.7593029785	0.1028396040
2121.6881103515	0.1026678979
2123.6169177245	0.1024423763
2125.5457250976	0.1023673862
2127.4745324706	0.1021418273
2129.4033398437	0.1020531580
2131.3321472167	0.1017933488
2133.2609545898	0.1017642170
2135.1897619628	0.1014220789
2137.1185693359	0.1011017710
2139.0473767089	0.1011902615
2140.9761840820	0.1010821015
2142.9049914550	0.1009260714
2144.8337988281	0.1007194892
2146.7626062011	0.1007155776
2148.6914135742	0.1005401537
2150.6202209472	0.1004472673
2152.5490283203	0.1002955809
2154.4778356933	0.1000801176
2156.4066430663	0.0999806225
2158.3354504394	0.0996993333
2160.2642578124	0.0996927917
2162.1930651855	0.0995880812
2164.1218725585	0.0994382054
2166.0506799316	0.0992574170
2167.9794873046	0.0990975872
2169.9082946777	0.0989267230
2171.8371020507	0.0988171399
2173.7659094238	0.0988302082
2175.6947167968	0.0985113010
2177.6235241699	0.0984313041
2179.5523315429	0.0983315483
2181.4811389160	0.0981868207
2183.4099462890	0.0980989560
2185.3387536620	0.0979667008
2187.2675610351	0.0978791639
2189.1963684081	0.0978199169
2191.1251757812	0.0977639705
2193.0539831542	0.0974870324
2194.9827905273	0.0973689556
2196.9115979003	0.0970424116
2198.8404052734	0.0970350206
2200.7692126464	0.0970312655
2202.6980200195	0.0967107788
2204.6268273925	0.0967498869
2206.5556347656	0.0965408087
2208.4844421386	0.0965603292
2210.4132495117	0.0963579789
2212.3420568847	0.0962019116
2214.2708642577	0.0962575525
2216.1996716308	0.0959502608
2218.1284790038	0.0958166718
2220.0572863769	0.0956173837
2221.9860937499	0.0955244899
2223.9149011230	0.0953105837
2225.8437084960	0.0952159762
2227.7725158691	0.0950594544
2229.7013232421	0.0947915986
2231.6301306152	0.0947497636
2233.5589379882	0.0945760012
2235.4877453613	0.0944592953
2237.4165527343	0.0941299796
2239.3453601074	0.0941033736
2241.2741674804	0.0940184742
2243.2029748534	0.0938578099
2245.1317822265	0.0937311947
2247.0605895995	0.0933929831
2248.9893969726	0.0933786258
2250.9182043456	0.0929957479
2252.8470117187	0.0928623900
2254.7758190917	0.0928043574
2256.7046264648	0.0925740749
2258.6334338378	0.0925016999
2260.5622412109	0.0922890455
2262.4910485839	0.0922439620
2264.4198559570	0.0919607431
2266.3486633300	0.0919808075
2268.2774707031	0.0919900090
2270.2062780761	0.0916309059
2272.1350854491	0.0915277302
2274.0638928222	0.0915072933
2275.9927001952	0.0913711190
2277.9215075683	0.0911132842
2279.8503149413	0.0910529196
2281.7791223144	0.0908935517
2283.7079296874	0.0907467753
2285.6367370605	0.0906193182
2287.5655444335	0.0904082060
2289.4943518066	0.0901794881
2291.4231591796	0.0899164230
2293.3519665527	0.0897989273
2295.2807739257	0.0895469710
2297.2095812988	0.0892404169
2299.1383886718	0.0887943506
2301.0671960449	0.0884913206
2302.9960034179	0.0880691707
2304.9248107909	0.0874996781
2306.8536181640	0.0870212317
2308.7824255370	0.0862321258
2310.7112329101	0.0856497809
2312.6400402831	0.0847145468
2314.5688476562	0.0837117657
2316.4976550292	0.0829666704
2318.4264624023	0.0819146186
2320.3552697753	0.0807505548
2322.2840771484	0.0794569328
2324.2128845214	0.0785021782
2326.1416918945	0.0776244327
2328.0704992675	0.0767014548
2329.9993066406	0.0756828338
2331.9281140136	0.0749966055
2333.8569213866	0.0748777539
2335.7857287597	0.0744313747
2337.7145361327	0.0743853748
2339.6433435058	0.0743832290
2341.5721508788	0.0745744258
2343.5009582519	0.0756582320
2345.4297656249	0.0770677924
2347.3585729980	0.0804285109
2349.2873803710	0.0828015730
2351.2161877441	0.0797685832
2353.1449951171	0.0756519586
2355.0738024902	0.0730916634
2357.0026098632	0.0707519427
2358.9314172363	0.0694514215
2360.8602246093	0.0686580390
2362.7890319823	0.0683818609
2364.7178393554	0.0689034462
2366.6466467284	0.0697525442
2368.5754541015	0.0712156743
2370.5042614745	0.0728854463
2372.4330688476	0.0747841224
2374.3618762206	0.0770428404
2376.2906835937	0.0791349635
2378.2194909667	0.0807693899
2380.1482983398	0.0821659714
2382.0771057128	0.0830516666
2384.0059130859	0.0835467055
2385.9347204589	0.0839239210
2387.8635278320	0.0838674977
2389.7923352050	0.0838951766
2391.7211425780	0.0838119388
2393.6499499511	0.0836161375
2395.5787573241	0.0835229009
2397.5075646972	0.0834330171
2399.4363720702	0.0832855403
2401.3651794433	0.0830310434
2403.2939868163	0.0830935985
2405.2227941894	0.0829389021
2407.1516015624	0.0827537030
2409.0804089355	0.0826591775
2411.0092163085	0.0825395733
2412.9380236816	0.0825052261
2414.8668310546	0.0822399110
2416.7956384277	0.0821349770
2418.7244458007	0.0820017606
2420.6532531738	0.0818853155
2422.5820605468	0.0817105919
2424.5108679198	0.0815786943
2426.4396752929	0.0816144347
2428.3684826659	0.0815219581
2430.2972900390	0.0813472494
2432.2260974120	0.0810345858
2434.1549047851	0.0810831189
2436.0837121581	0.0808999315
2438.0125195312	0.0806280375
2439.9413269042	0.0806508511
2441.8701342773	0.0805832073
2443.7989416503	0.0804915205
2445.7277490234	0.0801956728
2447.6565563964	0.0802575499
2449.5853637695	0.0801327974
2451.5141711425	0.0799073428
2453.4429785155	0.0798590779
2455.3717858886	0.0796412826
2457.3005932616	0.0797076151
2459.2294006347	0.0795753598
2461.1582080077	0.0793739334
2463.0870153808	0.0792471170
2465.0158227538	0.0791404620
2466.9446301269	0.0790256336
2468.8734374999	0.0789436698
2470.8022448730	0.0788300484
2472.7310522460	0.0786007792
2474.6598596191	0.0786691308
2476.5886669921	0.0785318613
2478.5174743652	0.0784735754
2480.4462817382	0.0783647820
2482.3750891112	0.0780534223
2484.3038964843	0.0779438913
2486.2327038573	0.0778307542
2488.1615112304	0.0778596029
2490.0903186034	0.0776984096
2492.0191259765	0.0774955079
2493.9479333495	0.0773109868
2495.8767407226	0.0773581266
2497.8055480956	0.0773382708
2499.7343554687	0.0769808888
2501.6631628417	0.0769976005
2503.5919702148	0.0768932998
2505.5207775878	0.0767678320
2507.4495849609	0.0766381323
2509.3783923339	0.0765668526
2511.3071997069	0.0764979124
2513.2360070800	0.0761886910
2515.1648144530	0.0761905164
2517.0936218261	0.0760919005
2519.0224291991	0.0760416687
2520.9512365722	0.0759026483
2522.8800439452	0.0757060200
2524.8088513183	0.0757398456
2526.7376586913	0.0754955336
2528.6664660644	0.0754635781
2530.5952734374	0.0753756836
2532.5240808105	0.0751231834
2534.4528881835	0.0751819909
2536.3816955566	0.0750630051
2538.3105029296	0.0749041289
2540.2393103027	0.0749086291
2542.1681176757	0.0747103691
2544.0969250487	0.0745551363
2546.0257324218	0.0745513588
2547.9545397948	0.0743149519
2549.8833471679	0.0741200298
2551.8121545409	0.0741721615
2553.7409619140	0.0740766153
2555.6697692870	0.0739089847
2557.5985766601	0.0738089457
2559.5273840331	0.0736560971
2561.4561914062	0.0736190081
2563.3849987792	0.0734748095
2565.3138061523	0.0733231306
2567.2426135253	0.0732965767
2569.1714208984	0.0731095076
2571.1002282714	0.0730381981
2573.0290356444	0.0729261562
2574.9578430175	0.0728431046
2576.8866503905	0.0727890879
2578.8154577636	0.0726387501
2580.7442651366	0.0724781454
2582.6730725097	0.0721931085
2584.6018798827	0.0721915513
2586.5306872558	0.0721291900
2588.4594946288	0.0719587728
2590.3883020019	0.0719016790
2592.3171093749	0.0718519911
2594.2459167480	0.0717477202
2596.1747241210	0.0715037957
2598.1035314941	0.0715504661
2600.0323388671	0.0714017376
2601.9611462401	0.0712510645
2603.8899536132	0.0712930113
2605.8187609862	0.0710287765
2607.7475683593	0.0708518326
2609.6763757323	0.0707651526
2611.6051831054	0.0707739741
2613.5339904784	0.0707130283
2615.4627978515	0.0705861896
2617.3916052245	0.0704694837
2619.3204125976	0.0703271031
2621.2492199706	0.0703236163
2623.1780273437	0.0701504350
2625.1068347167	0.0698913112
2627.0356420898	0.0697677657
2628.9644494628	0.0697816461
2630.8932568358	0.0697714090
2632.8220642089	0.0695603117
2634.7508715819	0.0694099367
2636.6796789550	0.0694017634
2638.6084863280	0.0691911131
2640.5372937011	0.0690813810
2642.4661010741	0.0690888762
2644.3949084472	0.0688585639
2646.3237158202	0.0687981620
2648.2525231933	0.0686563253
2650.1813305663	0.0685457140
2652.1101379394	0.0684628189
2654.0389453124	0.0683181137
2655.9677526855	0.0683333576
2657.8965600585	0.0681184232
2659.8253674315	0.0681463182
2661.7541748046	0.0680441186
2663.6829821776	0.0678014904
2665.6117895507	0.0678876638
2667.5405969237	0.0677715689
2669.4694042968	0.0675934255
2671.3982116698	0.0674603581
2673.3270190429	0.0673433393
2675.2558264159	0.0671289116
2677.1846337890	0.0671305954
2679.1134411620	0.0670969188
2681.0422485351	0.0667703152
2682.9710559081	0.0667690188
2684.8998632812	0.0667629540
2686.8286706542	0.0665171444
2688.7574780273	0.0663686544
2690.6862854003	0.0664151609
2692.6150927733	0.0662406832
2694.5439001464	0.0660568699
2696.4727075194	0.0660092086
2698.4015148925	0.0659497604
2700.3303222655	0.0658682808
2702.2591296386	0.0656643063
2704.1879370116	0.0657412857
2706.1167443847	0.0655318201
2708.0455517577	0.0653424412
2709.9743591308	0.0653475672
2711.9031665038	0.0651202127
2713.8319738769	0.0650944784
2715.7607812499	0.0649636388
2717.6895886230	0.0649745986
2719.6183959960	0.0648227334
2721.5472033690	0.0645819977
2723.4760107421	0.0645584166
2725.4048181151	0.0644450039
2727.3336254882	0.0644191056
2729.2624328612	0.0642026216
2731.1912402343	0.0642405599
2733.1200476073	0.0641538054
2735.0488549804	0.0637845546
2736.9776623534	0.0637872145
2738.9064697265	0.0637113154
2740.8352770995	0.0635737330
2742.7640844726	0.0634903908
2744.6928918456	0.0633841753
2746.6216992187	0.0632901713
2748.5505065917	0.0631944537
2750.4793139647	0.0630604029
2752.4081213378	0.0629597381
2754.3369287108	0.0628410280
2756.2657360839	0.0627399981
2758.1945434569	0.0626125932
2760.1233508300	0.0624563619
2762.0521582030	0.0624479651
2763.9809655761	0.0622733906
2765.9097729491	0.0622055531
2767.8385803222	0.0620962195
2769.7673876952	0.0619310364
2771.6961950683	0.0618888438
2773.6250024413	0.0616906583
2775.5538098144	0.0616494566
2777.4826171874	0.0614941120
2779.4114245604	0.0613442883
2781.3402319335	0.0612417497
2783.2690393065	0.0611211509
2785.1978466796	0.0610035136
2787.1266540526	0.0607984960
2789.0554614257	0.0607813820
2790.9842687987	0.0606672391
2792.9130761718	0.0606512055
2794.8418835448	0.0604885630
2796.7706909179	0.0602375232
2798.6994982909	0.0601387694
2800.6283056640	0.0600282773
2802.5571130370	0.0601093695
2804.4859204101	0.0598819926
2806.4147277831	0.0597455017
2808.3435351562	0.0597113371
2810.2723425292	0.0594850518
2812.2011499022	0.0593692511
2814.1299572753	0.0592353195
2816.0587646483	0.0592508353
2817.9875720214	0.0591535345
2819.9163793944	0.0588748716
2821.8451867675	0.0587516725
2823.7739941405	0.0586845428
2825.7028015136	0.0585018247
2827.6316088866	0.0584165826
2829.5604162597	0.0582860187
2831.4892236327	0.0581244230
2833.4180310058	0.0581098720
2835.3468383788	0.0578496531
2837.2756457519	0.0576613918
2839.2044531249	0.0575317740
2841.1332604979	0.0574281737
2843.0620678710	0.0572926961
2844.9908752440	0.0568896867
2846.9196826171	0.0565486476
2848.8484899901	0.0561645292
2850.7772973632	0.0560160913
2852.7061047362	0.0560247898
2854.6349121093	0.0558823533
2856.5637194823	0.0558064058
2858.4925268554	0.0558001846
2860.4213342284	0.0557935424
2862.3501416015	0.0556803010
2864.2789489745	0.0555345193
2866.2077563476	0.0554839820
2868.1365637206	0.0554265417
2870.0653710936	0.0552320927
2871.9941784667	0.0551130548
2873.9229858397	0.0550178289
2875.8517932128	0.0550413132
2877.7806005858	0.0549928024
2879.7094079589	0.0546861589
2881.6382153319	0.0546708927
2883.5670227050	0.0546082370
2885.4958300780	0.0544625521
2887.4246374511	0.0544729978
2889.3534448241	0.0544912070
2891.2822521972	0.0542438701
2893.2110595702	0.0539847501
2895.1398669433	0.0539841503
2897.0686743163	0.0537321977
2898.9974816893	0.0536702238
2900.9262890624	0.0535625629
2902.8550964354	0.0533540063
2904.7839038085	0.0533070900
2906.7127111815	0.0530808121
2908.6415185546	0.0528603345
2910.5703259276	0.0525407046
2912.4991333007	0.0523974150
2914.4279406737	0.0521068983
2916.3567480468	0.0517864674
2918.2855554198	0.0517168194
2920.2143627929	0.0516002551
2922.1431701659	0.0515325479
2924.0719775390	0.0512797870
2926.0007849120	0.0513206571
2927.9295922851	0.0512683243
2929.8583996581	0.0511027798
2931.7872070311	0.0512799732
2933.7160144042	0.0512070805
2935.6448217772	0.0511388034
2937.5736291503	0.0511871353
2939.5024365233	0.0511877686
2941.4312438964	0.0511265993
2943.3600512694	0.0511014536
2945.2888586425	0.0510289147
2947.2176660155	0.0509258248
2949.1464733886	0.0508863516
2951.0752807616	0.0507574975
2953.0040881347	0.0505882129
2954.9328955077	0.0503795370
2956.8617028808	0.0502571985
2958.7905102538	0.0500636846
2960.7193176268	0.0501020029
2962.6481249999	0.0500789843
2964.5769323729	0.0497317314
2966.5057397460	0.0497780144
2968.4345471190	0.0497615710
2970.3633544921	0.0496895947
2972.2921618651	0.0498566702
2974.2209692382	0.0499008559
2976.1497766112	0.0497703031
2978.0785839843	0.0498004854
2980.0073913573	0.0497816727
2981.9361987304	0.0496587902
2983.8650061034	0.0497830808
2985.7938134765	0.0496240184
2987.7226208495	0.0495503098
2989.6514282225	0.0496318154
2991.5802355956	0.0495037287
2993.5090429686	0.0493687764
2995.4378503417	0.0492766872
2997.3666577147	0.0492965654
2999.2954650878	0.0491004512
3001.2242724608	0.0490658544
3003.1530798339	0.0490389131
3005.0818872069	0.0487636551
3007.0106945800	0.0486871265
3008.9395019530	0.0486480594
3010.8683093261	0.0484996811
3012.7971166991	0.0483548157
3014.7259240722	0.0483612157
3016.6547314452	0.0482177213
3018.5835388182	0.0481265895
3020.5123461913	0.0480575226
3022.4411535643	0.0478625447
3024.3699609374	0.0478095263
3026.2987683104	0.0476905778
3028.2275756835	0.0475864671
3030.1563830565	0.0474110767
3032.0851904296	0.0473249927
3034.0139978026	0.0472684205
3035.9428051757	0.0471482463
3037.8716125487	0.0470925868
3039.8004199218	0.0469180830
3041.7292272948	0.0468105562
3043.6580346679	0.0467324853
3045.5868420409	0.0466913022
3047.5156494139	0.0465610325
3049.4444567870	0.0464426279
3051.3732641600	0.0463369787
3053.3020715331	0.0462564304
3055.2308789061	0.0462482832
3057.1596862792	0.0459770150
3059.0884936522	0.0460129753
3061.0173010253	0.0460083969
3062.9461083983	0.0457619540
3064.8749157714	0.0456888787
3066.8037231444	0.0455424637
3068.7325305175	0.0455129482
3070.6613378905	0.0454427823
3072.5901452636	0.0452993922
3074.5189526366	0.0451697335
3076.4477600097	0.0450926721
3078.3765673827	0.0450325087
3080.3053747557	0.0448829569
3082.2341821288	0.0448428616
3084.1629895018	0.0448007621
3086.0917968749	0.0447219834
3088.0206042479	0.0446056128
3089.9494116210	0.0445072427
3091.8782189940	0.0444125608
3093.8070263671	0.0442059934
3095.7358337401	0.0440335274
3097.6646411132	0.0440339744
3099.5934484862	0.0439633392
3101.5222558593	0.0437480770
3103.4510632323	0.0438004360
3105.3798706054	0.0437319651
3107.3086779784	0.0434337407
3109.2374853514	0.0434707403
3111.1662927245	0.0434686691
3113.0951000975	0.0432211608
3115.0239074706	0.0430600829
3116.9527148436	0.0429238677
3118.8815222167	0.0428815708
3120.8103295897	0.0427762792
3122.7391369628	0.0426380597
3124.6679443358	0.0426405221
3126.5967517089	0.0424192362
3128.5255590819	0.0424045473
3130.4543664550	0.0422925800
3132.3831738280	0.0420227312
3134.3119812011	0.0420825295
3136.2407885741	0.0418780968
3138.1695959471	0.0418456979
3140.0984033202	0.0417964831
3142.0272106932	0.0416242667
3143.9560180663	0.0415623635
3145.8848254393	0.0412986875
3147.8136328124	0.0412807614
3149.7424401854	0.0411276929
3151.6712475585	0.0409293659
3153.6000549315	0.0408888310
3155.5288623046	0.0407603830
3157.4576696776	0.0406632125
3159.3864770507	0.0405076258
3161.3152844237	0.0404968560
3163.2440917968	0.0404721163
3165.1728991698	0.0403002724
3167.1017065428	0.0401306301
3169.0305139159	0.0399944745
3170.9593212889	0.0399128236
3172.8881286620	0.0398223102
3174.8169360350	0.0395591408
3176.7457434081	0.0394316316
3178.6745507811	0.0394842029
3180.6033581542	0.0393297896
3182.5321655272	0.0392720066
3184.4609729003	0.0390516892
3186.3897802733	0.0388852060
3188.3185876464	0.0389590226
3190.2473950194	0.0388228931
3192.1762023925	0.0387226120
3194.1050097655	0.0386493653
3196.0338171386	0.0386267863
3197.9626245116	0.0384190604
3199.8914318846	0.0382736251
3201.8202392577	0.0383717418
3203.7490466307	0.0382566527
3205.6778540038	0.0380946472
3207.6066613768	0.0379895382
3209.5354687499	0.0379430577
3211.4642761229	0.0378260687
3213.3930834960	0.0377057269
3215.3218908690	0.0375574753
3217.2506982421	0.0374674946
3219.1795056151	0.0374902412
3221.1083129882	0.0374037698
3223.0371203612	0.0373533219
3224.9659277343	0.0372299030
3226.8947351073	0.0371352732
3228.8235424803	0.0371360257
3230.7523498534	0.0371239744
3232.6811572264	0.0369734243
3234.6099645995	0.0368347131
3236.5387719725	0.0368308239
3238.4675793456	0.0367503613
3240.3963867186	0.0367442742
3242.3251940917	0.0366847441
3244.2540014647	0.0364937149
3246.1828088378	0.0363776162
3248.1116162108	0.0365415961
3250.0404235839	0.0364742763
3251.9692309569	0.0363408849
3253.8980383300	0.0363541692
3255.8268457030	0.0360772572
3257.7556530760	0.0361227542
3259.6844604491	0.0360252932
3261.6132678221	0.0359807760
3263.5420751952	0.0360085219
3265.4708825682	0.0358858593
3267.3996899413	0.0360353328
3269.3284973143	0.0357814804
3271.2573046874	0.0358036384
3273.1861120604	0.0357432440
3275.1149194335	0.0356002115
3277.0437268065	0.0356571041
3278.9725341796	0.0354641825
3280.9013415526	0.0356329978
3282.8301489257	0.0354835019
3284.7589562987	0.0353826880
3286.6877636717	0.0353646129
3288.6165710448	0.0351950899
3290.5453784178	0.0352061726
3292.4741857909	0.0350533910
3294.4029931639	0.0350874066
3296.3318005370	0.0350257717
3298.2606079100	0.0349394232
3300.1894152831	0.0349372886
3302.1182226561	0.0349166915
3304.0470300292	0.0348290503
3305.9758374022	0.0347294845
3307.9046447753	0.0347290635
3309.8334521483	0.0346013308
3311.7622595214	0.0345933065
3313.6910668944	0.0345529616
3315.6198742675	0.0345632918
3317.5486816405	0.0343940556
3319.4774890135	0.0343314335
3321.4062963866	0.0344402045
3323.3351037596	0.0341683738
3325.2639111327	0.0341489241
3327.1927185057	0.0340880267
3329.1215258788	0.0340149812
3331.0503332518	0.0339992493
3332.9791406249	0.0339599960
3334.9079479979	0.0339379013
3336.8367553710	0.0337485597
3338.7655627440	0.0337976180
3340.6943701171	0.0337154940
3342.6231774901	0.0336254053
3344.5519848632	0.0336489379
3346.4807922362	0.0335814133
3348.4095996092	0.0334572382
3350.3384069823	0.0333627760
3352.2672143553	0.0333380364
3354.1960217284	0.0331490859
3356.1248291014	0.0331288800
3358.0536364745	0.0330945477
3359.9824438475	0.0330633074
3361.9112512206	0.0330614373
3363.8400585936	0.0329764597
3365.7688659667	0.0328202397
3367.6976733397	0.0325496271
3369.6264807128	0.0326914676
3371.5552880858	0.0327160694
3373.4840954589	0.0325422511
3375.4129028319	0.0325527713
3377.3417102049	0.0324406400
3379.2705175780	0.0323742330
3381.1993249510	0.0323864222
3383.1281323241	0.0322340503
3385.0569396971	0.0320672989
3386.9857470702	0.0321096554
3388.9145544432	0.0320983566
3390.8433618163	0.0319635756
3392.7721691893	0.0317746922
3394.7009765624	0.0317714810
3396.6297839354	0.0317527242
3398.5585913085	0.0315669179
3400.4873986815	0.0315400064
3402.4162060546	0.0314479843
3404.3450134276	0.0315716863
3406.2738208006	0.0316075385
3408.2026281737	0.0313308500
3410.1314355467	0.0313119106
3412.0602429198	0.0312983915
3413.9890502928	0.0311689265
3415.9178576659	0.0311985686
3417.8466650389	0.0310990382
3419.7754724120	0.0307814237
3421.7042797850	0.0307607427
3423.6330871581	0.0307645574
3425.5618945311	0.0307993963
3427.4907019042	0.0307661165
3429.4195092772	0.0306098349
3431.3483166503	0.0306050628
3433.2771240233	0.0304985344
3435.2059313963	0.0305499434
3437.1347387694	0.0303751454
3439.0635461424	0.0302632712
3440.9923535155	0.0302155931
3442.9211608885	0.0301157106
3444.8499682616	0.0301844478
3446.7787756346	0.0297858976
3448.7075830077	0.0299317949
3450.6363903807	0.0300847702
3452.5651977538	0.0298884548
3454.4940051268	0.0300058667
3456.4228124999	0.0298936777
3458.3516198729	0.0299628042
3460.2804272460	0.0298028365
3462.2092346190	0.0295518581
3464.1380419921	0.0296792164
3466.0668493651	0.0296161566
3467.9956567381	0.0294809490
3469.9244641112	0.0295929275
3471.8532714842	0.0295432210
3473.7820788573	0.0292960182
3475.7108862303	0.0293070711
3477.6396936034	0.0293242224
3479.5685009764	0.0293020979
3481.4973083495	0.0291387569
3483.4261157225	0.0291186217
3485.3549230956	0.0291268304
3487.2837304686	0.0289707519
3489.2125378417	0.0290857330
3491.1413452147	0.0291294158
3493.0701525878	0.0290756859
3494.9989599608	0.0289750434
3496.9277673338	0.0290210135
3498.8565747069	0.0289823171
3500.7853820799	0.0288428962
3502.7141894530	0.0286093522
3504.6429968260	0.0285721403
3506.5718041991	0.0290063731
3508.5006115721	0.0286274292
3510.4294189452	0.0284696706
3512.3582263182	0.0287637226
3514.2870336913	0.0288385488
3516.2158410643	0.0288946480
3518.1446484374	0.0286457464
3520.0734558104	0.0288157836
3522.0022631835	0.0285498053
3523.9310705565	0.0281641874
3525.8598779295	0.0283618085
3527.7886853026	0.0283109695
3529.7174926756	0.0283001438
3531.6463000487	0.0285296775
3533.5751074217	0.0286349226
3535.5039147948	0.0283442326
3537.4327221678	0.0283425450
3539.3615295409	0.0285565853
3541.2903369139	0.0285370462
3543.2191442870	0.0282522738
3545.1479516600	0.0277542807
3547.0767590331	0.0276277550
3549.0055664061	0.0281871110
3550.9343737792	0.0283026248
3552.8631811522	0.0277808905
3554.7919885252	0.0282478537
3556.7207958983	0.0283460319
3558.6496032713	0.0280497279
3560.5784106444	0.0280187614
3562.5072180174	0.0278464817
3564.4360253905	0.0279716626
3566.3648327635	0.0265676528
3568.2936401366	0.0260177106
3570.2224475096	0.0276781879
3572.1512548827	0.0280591864
3574.0800622557	0.0278143082
3576.0088696288	0.0280055627
3577.9376770018	0.0279033668
3579.8664843749	0.0278760847
3581.7952917479	0.0278805513
3583.7240991210	0.0279313195
3585.6529064940	0.0273766182
3587.5817138670	0.0256214403
3589.5105212401	0.0262113214
3591.4393286131	0.0278517734
3593.3681359862	0.0272808801
3595.2969433592	0.0270258784
3597.2257507323	0.0273185205
3599.1545581053	0.0275034420
3601.0833654784	0.0272323564
3603.0121728514	0.0273000374
3604.9409802245	0.0277961753
3606.8697875975	0.0270430520
3608.7985949706	0.0258115381
3610.7274023436	0.0262181126
3612.6562097167	0.0266826190
3614.5850170897	0.0260978825
3616.5138244627	0.0273855329
3618.4426318358	0.0258123297
3620.3714392088	0.0251998007
3622.3002465819	0.0276196823
3624.2290539549	0.0270319358
3626.1578613280	0.0280248895
3628.0866687010	0.0244652107
3630.0154760741	0.0228035673
3631.9442834471	0.0273726843
3633.8730908202	0.0266171768
3635.8018981932	0.0270449221
3637.7307055663	0.0274344850
3639.6595129393	0.0270403251
3641.5883203124	0.0274043474
3643.5171276854	0.0269483533
3645.4459350584	0.0272265952
3647.3747424315	0.0249695200
3649.3035498045	0.0232366119
3651.2323571776	0.0237170830
3653.1611645506	0.0270903800
3655.0899719237	0.0266709402
3657.0187792967	0.0245889872
3658.9475866698	0.0274364389
3660.8763940428	0.0268290602
3662.8052014159	0.0271453913
3664.7340087889	0.0269701369
3666.6628161620	0.0268069245
3668.5916235350	0.0261360146
3670.5204309081	0.0221779644
3672.4492382811	0.0258528590
3674.3780456541	0.0247604400
3676.3068530272	0.0214786455
3678.2356604002	0.0257024355
3680.1644677733	0.0261374768
3682.0932751463	0.0261704605
3684.0220825194	0.0266626216
3685.9508898924	0.0263704751
3687.8796972655	0.0240932871
3689.8085046385	0.0226400532
3691.7373120116	0.0252515711
3693.6661193846	0.0255739689
3695.5949267577	0.0261768941
3697.5237341307	0.0261375420
3699.4525415038	0.0258870758
3701.3813488768	0.0254179537
3703.3101562499	0.0245453976
3705.2389636229	0.0264591984
3707.1677709959	0.0253078640
3709.0965783690	0.0248648804
3711.0253857420	0.0236578360
3712.9541931151	0.0224387199
3714.8830004881	0.0255584121
3716.8118078612	0.0252129566
3718.7406152342	0.0253666937
3720.6694226073	0.0249115825
3722.5982299803	0.0243021660
3724.5270373534	0.0249352679
3726.4558447264	0.0234540477
3728.3846520995	0.0250210129
3730.3134594725	0.0246170349
3732.2422668456	0.0230922326
3734.1710742186	0.0226580836
3736.0998815916	0.0218784958
3738.0286889647	0.0227588676
3739.9574963377	0.0242099706
3741.8863037108	0.0252800025
3743.8151110838	0.0202632807
3745.7439184569	0.0195765924
3747.6727258299	0.0242894664
3749.6015332030	0.0213055909
3751.5303405760	0.0199762620
3753.4591479491	0.0222476255
3755.3879553221	0.0236740895
3757.3167626952	0.0243652873
3759.2455700682	0.0229151323
3761.1743774413	0.0235643741
3763.1031848143	0.0246227533
3765.0319921873	0.0234147795
3766.9607995604	0.0237377379
3768.8896069334	0.0234221201
3770.8184143065	0.0226738732
3772.7472216795	0.0241464972
3774.6760290526	0.0240334291
3776.6048364256	0.0240803994
3778.5336437987	0.0235048942
3780.4624511717	0.0227064192
3782.3912585448	0.0239585843
3784.3200659178	0.0234220475
3786.2488732909	0.0233860202
3788.1776806639	0.0237792619
3790.1064880370	0.0235970076
3792.0352954100	0.0234390460
3793.9641027830	0.0236745011
3795.8929101561	0.0226011220
3797.8217175291	0.0224632956
3799.7505249022	0.0232390556
3801.6793322752	0.0192230102
3803.6081396483	0.0219520070
3805.5369470213	0.0232750997
3807.4657543944	0.0198495630
3809.3945617674	0.0231796522
3811.3233691405	0.0226498619
3813.2521765135	0.0234017223
3815.1809838866	0.0213405974
3817.1097912596	0.0193512514
3819.0385986327	0.0233949050
3820.9674060057	0.0195991658
3822.8962133787	0.0205079876
3824.8250207518	0.0231454298
3826.7538281248	0.0213873833
3828.6826354979	0.0226841196
3830.6114428709	0.0218480825
3832.5402502440	0.0212611109
3834.4690576170	0.0216880366
3836.3978649901	0.0207150783
3838.3266723631	0.0191217735
3840.2554797362	0.0205433946
3842.1842871092	0.0216686465
3844.1130944823	0.0208930746
3846.0419018553	0.0222446658
3847.9707092284	0.0218071640
3849.8995166014	0.0218650363
3851.8283239745	0.0200643223
3853.7571313475	0.0160006583
3855.6859387205	0.0183275826
3857.6147460936	0.0219616331
3859.5435534666	0.0213642530
3861.4723608397	0.0212569144
3863.4011682127	0.0208128318
3865.3299755858	0.0196157992
3867.2587829588	0.0214027017
3869.1875903319	0.0197817124
3871.1163977049	0.0187559426
3873.0452050780	0.0213491302
3874.9740124510	0.0199972577
3876.9028198241	0.0212428942
3878.8316271971	0.0214086883
3880.7604345702	0.0191307552
3882.6892419432	0.0212982185
3884.6180493162	0.0201079324
3886.5468566893	0.0187628157
3888.4756640623	0.0211829916
3890.4044714354	0.0203549713
3892.3332788084	0.0192942508
3894.2620861815	0.0207725540
3896.1908935545	0.0211696085
3898.1197009276	0.0202383026
3900.0485083006	0.0193828214
3901.9773156737	0.0191551857
3903.9061230467	0.0189152285
3905.8349304198	0.0192885008
3907.7637377928	0.0206171684
3909.6925451659	0.0206866488
3911.6213525389	0.0204340983
3913.5501599119	0.0205714293
3915.4789672850	0.0201450083
3917.4077746580	0.0195542052
3919.3365820311	0.0194916017
3921.2653894041	0.0200261027
3923.1941967772	0.0199220590
3925.1230041502	0.0197172090
3927.0518115233	0.0199598223
3928.9806188963	0.0201169644
3930.9094262694	0.0197006091
3932.8382336424	0.0192297157
3934.7670410155	0.0197965782
3936.6958483885	0.0199646689
3938.6246557616	0.0198153630
3940.5534631346	0.0198123418
3942.4822705076	0.0192918219
3944.4110778807	0.0194028076
3946.3398852537	0.0196830779
3948.2686926268	0.0192636997
3950.1974999998	0.0192564130
3952.1263073729	0.0194769260
3954.0551147459	0.0193891823
3955.9839221190	0.0193551518
3957.9127294920	0.0192697309
3959.8415368651	0.0193425082
3961.7703442381	0.0192580372
3963.6991516112	0.0191218145
3965.6279589842	0.0192358289
3967.5567663573	0.0191330388
3969.4855737303	0.0191230960
3971.4143811034	0.0190484226
3973.3431884764	0.0190094821
3975.2719958494	0.0189473256
3977.2008032225	0.0188471340
3979.1296105955	0.0189711116
3981.0584179686	0.0188602917
3982.9872253416	0.0188338049
3984.9160327147	0.0187486839
3986.8448400877	0.0186793022
3988.7736474608	0.0187465586
3990.7024548338	0.0186624080
3992.6312622069	0.0186679773
3994.5600695799	0.0185894333
3996.4888769530	0.0185240470
3998.4176843260	0.0184675157
4000.3464916991	0.0184298530
4002.2752990721	0.0184248164
4004.2041064451	0.0183888823
4006.1329138182	0.0183438063
4008.0617211912	0.0182089098
4009.9905285643	0.0182222947
4011.9193359373	0.0181674156
4013.8481433104	0.0181497000
4015.7769506834	0.0181776695
4017.7057580565	0.0180258211
4019.6345654295	0.0179992002
4021.5633728026	0.0179700032
4023.4921801756	0.0179510787
4025.4209875487	0.0178444348
4027.3497949217	0.0177571047
4029.2786022948	0.0178669151
4031.2074096678	0.0177516229
4033.1362170408	0.0177186765
4035.0650244139	0.0177139118
4036.9938317869	0.0175674260
4038.9226391600	0.0176265035
4040.8514465330	0.0176192299
4042.7802539061	0.0175042991
4044.7090612791	0.0174002256
4046.6378686522	0.0174454320
4048.5666760252	0.0174508039
4050.4954833983	0.0173660386
4052.4242907713	0.0174321420
4054.3530981444	0.0173007734
4056.2819055174	0.0172823668
4058.2107128905	0.0172475986
4060.1395202635	0.0170870498
4062.0683276365	0.0170789026
4063.9971350096	0.0170265548
4065.9259423826	0.0171026476
4067.8547497557	0.0170065388
4069.7835571287	0.0169258341
4071.7123645018	0.0169018079
4073.6411718748	0.0168332215
4075.5699792479	0.0168791991
4077.4987866209	0.0167917758
4079.4275939940	0.0168257691
4081.3564013670	0.0166957714
4083.2852087401	0.0166247003
4085.2140161131	0.0166785903
4087.1428234862	0.0165620055
4089.0716308592	0.0165804662
4091.0004382323	0.0164524131
4092.9292456053	0.0163891651
4094.8580529783	0.0164605528
4096.7868603514	0.0164310597
4098.7156677244	0.0163306054
4100.6444750975	0.0162929185
4102.5732824705	0.0162936747
4104.5020898436	0.0161873735
4106.4308972166	0.0161274038
4108.3597045897	0.0160649009
4110.2885119627	0.0161118433
4112.2173193358	0.0160965063
4114.1461267088	0.0160106122
4116.0749340819	0.0160046630
4118.0037414549	0.0159733482
4119.9325488280	0.0159914941
4121.8613562010	0.0159421787
4123.7901635740	0.0158210360
4125.7189709471	0.0157591738
4127.6477783201	0.0157894641
4129.5765856932	0.0157186091
4131.5053930662	0.0157150105
4133.4342004393	0.0156790242
4135.3630078123	0.0156290848
4137.2918151854	0.0156822354
4139.2206225584	0.0155279972
4141.1494299315	0.0155457659
4143.0782373045	0.0154780615
4145.0070446776	0.0154304337
4146.9358520506	0.0154319890
4148.8646594237	0.0152633749
4150.7934667967	0.0152621306
4152.7222741697	0.0151842125
4154.6510815428	0.0152386874
4156.5798889158	0.0152293602
4158.5086962889	0.0152132791
4160.4375036619	0.0151561182
4162.3663110350	0.0150613636
4164.2951184080	0.0151332226
4166.2239257811	0.0149710178
4168.1527331541	0.0149890725
4170.0815405272	0.0149265220
4172.0103479002	0.0149021456
4173.9391552733	0.0149194784
4175.8679626463	0.0147949941
4177.7967700194	0.0148271993
4179.7255773924	0.0147560518
4181.6543847654	0.0147830937
4183.5831921385	0.0146217523
4185.5119995115	0.0146003310
4187.4408068846	0.0146647580
4189.3696142576	0.0146290045
4191.2984216307	0.0146294888
4193.2272290037	0.0144541515
4195.1560363768	0.0145669384
4197.0848437498	0.0143910814
4199.0136511229	0.0143128531
4200.9424584959	0.0143991215
4202.8712658690	0.0142252175
4204.8000732420	0.0143125253
4206.7288806151	0.0142929424
4208.6576879881	0.0141962972
4210.5864953611	0.0140804872
4212.5153027342	0.0141322725
4214.4441101072	0.0141195627
4216.3729174803	0.0140789449
4218.3017248533	0.0141014401
4220.2305322264	0.0138978697
4222.1593395994	0.0139779244
4224.0881469725	0.0138773918
4226.0169543455	0.0138141531
4227.9457617186	0.0139470687
4229.8745690916	0.0138555486
4231.8033764647	0.0138450228
4233.7321838377	0.0138175711
4235.6609912108	0.0137475301
4237.5897985838	0.0136640873
4239.5186059569	0.0137461703
4241.4474133299	0.0136805428
4243.3762207029	0.0135048619
4245.3050280760	0.0136058005
4247.2338354490	0.0135993138
4249.1626428221	0.0135253537
4251.0914501951	0.0134916622
4253.0202575682	0.0134646446
4254.9490649412	0.0134769902
4256.8778723143	0.0133993439
4258.8066796873	0.0132721774
4260.7354870604	0.0133146383
4262.6642944334	0.0132748140
4264.5931018065	0.0132039785
4266.5219091795	0.0132664684
4268.4507165526	0.0131606413
4270.3795239256	0.0131017109
4272.3083312986	0.0131268399
4274.2371386717	0.0131421257
4276.1659460447	0.0130630154
4278.0947534178	0.0130180381
4280.0235607908	0.0130315181
4281.9523681639	0.0128764231
4283.8811755369	0.0128349774
4285.8099829100	0.0128191328
4287.7387902830	0.0127906660
4289.6675976561	0.0127399061
4291.5964050291	0.0126980441
4293.5252124022	0.0127277654
4295.4540197752	0.0126996189
4297.3828271483	0.0126909912
4299.3116345213	0.0126863960
4301.2404418943	0.0126433186
4303.1692492674	0.0124781495
4305.0980566404	0.0125079472
4307.0268640135	0.0125637092
4308.9556713865	0.0124770645
4310.8844787596	0.0124359261
4312.8132861326	0.0123958774
4314.7420935057	0.0124769099
4316.6709008787	0.0123510044
4318.5997082518	0.0123098195
4320.5285156248	0.0123131452
4322.4573229979	0.0122360354
4324.3861303709	0.0122826826
4326.3149377440	0.0121385735
4328.2437451170	0.0121849459
4330.1725524900	0.0121795777
4332.1013598631	0.0121074058
4334.0301672361	0.0121754715
4335.9589746092	0.0120639205
4337.8877819822	0.0119973905
4339.8165893553	0.0119562242
4341.7453967283	0.0119606666
4343.6742041014	0.0119295372
4345.6030114744	0.0118326535
4347.5318188475	0.0118978685
4349.4606262205	0.0118947681
4351.3894335936	0.0117521770
4353.3182409666	0.0117752291
4355.2470483397	0.0117209358
4357.1758557127	0.0116362544
4359.1046630858	0.0117095318
4361.0334704588	0.0116207227
4362.9622778318	0.0116586862
4364.8910852049	0.0116130672
4366.8198925779	0.0115040746
4368.7486999510	0.0115556158
4370.6775073240	0.0114906374
4372.6063146971	0.0115088103
4374.5351220701	0.0114633357
4376.4639294432	0.0114208348
4378.3927368162	0.0113351177
4380.3215441893	0.0113005117
4382.2503515623	0.0113773216
4384.1791589354	0.0112996930
4386.1079663084	0.0113293510
4388.0367736815	0.0113359177
4389.9655810545	0.0112937037
4391.8943884275	0.0111733414
4393.8231958006	0.0111460239
4395.7520031736	0.0111930268
4397.6808105467	0.0110983867
4399.6096179197	0.0111178411
4401.5384252928	0.0110181291
4403.4672326658	0.0109559074
4405.3960400389	0.0109999711
4407.3248474119	0.0109437685
4409.2536547850	0.0108997431
4411.1824621580	0.0108929835
4413.1112695311	0.0108609172
4415.0400769041	0.0108327363
4416.9688842772	0.0108774770
4418.8976916502	0.0108129885
4420.8264990232	0.0107507650
4422.7553063963	0.0107479608
4424.6841137693	0.0108069051
4426.6129211424	0.0107041895
4428.5417285154	0.0105867162
4430.4705358885	0.0106883962
4432.3993432615	0.0105469190
4434.3281506346	0.0105035901
4436.2569580076	0.0105132535
4438.1857653807	0.0104910759
4440.1145727537	0.0104874931
4442.0433801268	0.0103799272
4443.9721874998	0.0104718599
4445.9009948729	0.0104629770
4447.8298022459	0.0104130860
4449.7586096189	0.0103227384
4451.6874169920	0.0102862809
4453.6162243650	0.0103171570
4455.5450317381	0.0101873558
4457.4738391111	0.0102098230
4459.4026464842	0.0101727135
4461.3314538572	0.0101750279
4463.2602612303	0.0101941824
4465.1890686033	0.0101018734
4467.1178759764	0.0100507094
4469.0466833494	0.0100366101
4470.9754907225	0.0101047065
4472.9042980955	0.0100363782
4474.8331054686	0.0100196507
4476.7619128416	0.0100319181
4478.6907202147	0.0099504590
4480.6195275877	0.0099073239
4482.5483349607	0.0099099334
4484.4771423338	0.0098843351
4486.4059497068	0.0098167211
4488.3347570799	0.0098777413
4490.2635644529	0.0097981617
4492.1923718260	0.0097525790
4494.1211791990	0.0097785331
4496.0499865721	0.0096953940
4497.9787939451	0.0096767545
4499.9076013182	0.0095915850
4501.8364086912	0.0095886542
4503.7652160643	0.0095590055
4505.6940234373	0.0095446641
4507.6228308104	0.0095685963
4509.5516381834	0.0095590707
4511.4804455564	0.0095872004
4513.4092529295	0.0094144978
4515.3380603025	0.0094488142
4517.2668676756	0.0094840201
4519.1956750486	0.0093923919
4521.1244824217	0.0094395205
4523.0532897947	0.0092993965
4524.9820971678	0.0093123298
4526.9109045408	0.0093215611
4528.8397119139	0.0092407372
4530.7685192869	0.0093356948
4532.6973266600	0.0092163235
4534.6261340330	0.0090693599
4536.5549414061	0.0091093797
4538.4837487791	0.0091243964
4540.4125561521	0.0090800636
4542.3413635252	0.0090472093
4544.2701708982	0.0090395352
4546.1989782713	0.0090695359
4548.1277856443	0.0090466104
4550.0565930174	0.0090232398
4551.9854003904	0.0091066584
4553.9142077635	0.0090066567
4555.8430151365	0.0088779656
4557.7718225096	0.0088600237
4559.7006298826	0.0088279955
4561.6294372557	0.0088509265
4563.5582446287	0.0088344477
4565.4870520018	0.0088123158
4567.4158593748	0.0087420568
4569.3446667478	0.0087332614
4571.2734741209	0.0087723769
4573.2022814939	0.0086590433
4575.1310888670	0.0086435182
4577.0598962400	0.0087047089
4578.9887036131	0.0086451182
4580.9175109861	0.0085737053
4582.8463183592	0.0086242445
4584.7751257322	0.0085964687
4586.7039331053	0.0084998785
4588.6327404783	0.0085013211
4590.5615478514	0.0084548667
4592.4903552244	0.0084350556
4594.4191625975	0.0084974971
4596.3479699705	0.0085291984
4598.2767773435	0.0084249545
4600.2055847166	0.0083695473
4602.1343920896	0.0084036514
4604.0631994627	0.0083580725
4605.9920068357	0.0083668232
4607.9208142088	0.0083056204
4609.8496215818	0.0082143229
4611.7784289549	0.0082377857
4613.7072363279	0.0082587842
4615.6360437010	0.0082314834
4617.5648510740	0.0082293898
4619.4936584471	0.0082075903
4621.4224658201	0.0081219934
4623.3512731932	0.0081235031
4625.2800805662	0.0080902297
4627.2088879393	0.0080720801
4629.1376953123	0.0080370689
4631.0665026853	0.0079898247
4632.9953100584	0.0080186184
4634.9241174314	0.0079741580
4636.8529248045	0.0079698674
4638.7817321775	0.0078984201
4640.7105395506	0.0079233954
4642.6393469236	0.0079034558
4644.5681542967	0.0077672959
4646.4969616697	0.0078738146
4648.4257690428	0.0078180665
4650.3545764158	0.0077418732
4652.2833837889	0.0077801705
4654.2121911619	0.0077402210
4656.1409985350	0.0077242553
4658.0698059080	0.0077116517
4659.9986132810	0.0077011716
4661.9274206541	0.0076635224
4663.8562280271	0.0076761413
4665.7850354002	0.0076344460
4667.7138427732	0.0075802612
4669.6426501463	0.0076131462
4671.5714575193	0.0075391880
4673.5002648924	0.0075044846
4675.4290722654	0.0076045236
4677.3578796385	0.0075319004
4679.2866870115	0.0074369777
4681.2154943846	0.0074572479
4683.1443017576	0.0074357474
4685.0731091307	0.0075106504
4687.0019165037	0.0073868716
4688.9307238767	0.0072990479
4690.8595312498	0.0074056918
4692.7883386228	0.0073190113
4694.7171459959	0.0072945249
4696.6459533689	0.0072581870
4698.5747607420	0.0072701452
4700.5035681150	0.0072434777
4702.4323754881	0.0071750646
4704.3611828611	0.0072660544
4706.2899902342	0.0072255554
4708.2187976072	0.0071640974
4710.1476049803	0.0071891393
4712.0764123533	0.0071871104
4714.0052197264	0.0070803873
4715.9340270994	0.0070987809
4717.8628344724	0.0070866467
4719.7916418455	0.0070087984
4721.7204492185	0.0070582428
4723.6492565916	0.0070155310
4725.5780639646	0.0070555233
4727.5068713377	0.0070134895
4729.4356787107	0.0070004659
4731.3644860838	0.0070104497
4733.2932934568	0.0069518294
4735.2221008299	0.0069262972
4737.1509082029	0.0068407874
4739.0797155760	0.0069545489
4741.0085229490	0.0069006374
4742.9373303221	0.0068188813
4744.8661376951	0.0067855325
4746.7949450682	0.0067648003
4748.7237524412	0.0068038087
4750.6525598142	0.0066903117
4752.5813671873	0.0067701358
4754.5101745603	0.0066756830
4756.4389819334	0.0066749044
4758.3677893064	0.0067191264
4760.2965966795	0.0065915911
4762.2254040525	0.0066806991
4764.1542114256	0.0066542672
4766.0830187986	0.0066610570
4768.0118261717	0.0065862243
4769.9406335447	0.0065558748
4771.8694409178	0.0065673199
4773.7982482908	0.0065550795
4775.7270556639	0.0065998160
4777.6558630369	0.0064418148
4779.5846704099	0.0064557809
4781.5134777830	0.0064487299
4783.4422851560	0.0063769529
4785.3710925291	0.0063742916
4787.2998999021	0.0064210035
4789.2287072752	0.0063933460
4791.1575146482	0.0063043786
4793.0863220213	0.0063613784
4795.0151293943	0.0062565459
4796.9439367674	0.0063260719
4798.8727441404	0.0063583828
4800.8015515135	0.0062842555
4802.7303588865	0.0062860758
4804.6591662596	0.0062064002
4806.5879736326	0.0063137808
4808.5167810056	0.0062455460
4810.4455883787	0.0061688507
4812.3743957517	0.0062154992
4814.3032031248	0.0061864597
4816.2320104978	0.0061748074
4818.1608178709	0.0061411401
4820.0896252439	0.0060414337
4822.0184326170	0.0060096029
4823.9472399900	0.0061472263
4825.8760473631	0.0060424148
4827.8048547361	0.0060532754
4829.7336621092	0.0061625089
4831.6624694822	0.0060455776
4833.5912768553	0.0060149599
4835.5200842283	0.0059935432
4837.4488916013	0.0059718476
4839.3776989744	0.0058901692
4841.3065063474	0.0058858991
4843.2353137205	0.0058916379
4845.1641210935	0.0058466727
4847.0929284666	0.0058601480
4849.0217358396	0.0058858376
4850.9505432127	0.0059121656
4852.8793505857	0.0058352919
4854.8081579588	0.0058256583
4856.7369653318	0.0058033690
4858.6657727049	0.0058563231
4860.5945800779	0.0058351839
4862.5233874510	0.0057009086
4864.4521948240	0.0057025612
4866.3810021971	0.0056724898
4868.3098095701	0.0057706381
4870.2386169431	0.0057395920
4872.1674243162	0.0056571108
4874.0962316892	0.0056443941
4876.0250390623	0.0055964412
4877.9538464353	0.0056193396
4879.8826538084	0.0055666673
4881.8114611814	0.0055779987
4883.7402685545	0.0055688112
4885.6690759275	0.0055530053
4887.5978833006	0.0054540075
4889.5266906736	0.0054483609
4891.4554980467	0.0055769719
4893.3843054197	0.0054922700
4895.3131127928	0.0054721432
4897.2419201658	0.0054080123
4899.1707275388	0.0053899130
4901.0995349119	0.0054614441
4903.0283422849	0.0054628849
4904.9571496580	0.0054261955
4906.8859570310	0.0053774160
4908.8147644041	0.0053586303
4910.7435717771	0.0052807219
4912.6723791502	0.0053663957
4914.6011865232	0.0053458549
4916.5299938963	0.0052589308
4918.4588012693	0.0052602692
4920.3876086424	0.0052540428
4922.3164160154	0.0053414372
4924.2452233885	0.0052397009
4926.1740307615	0.0051519489
4928.1028381345	0.0051413812
4930.0316455076	0.0052175922
4931.9604528806	0.0052307742
4933.8892602537	0.0051455181
4935.8180676267	0.0052008140
4937.7468749998	0.0050917165
4939.6756823728	0.0051085157
4941.6044897459	0.0051393127
4943.5332971189	0.0050937161
4945.4621044920	0.0051125577
4947.3909118650	0.0050285165
4949.3197192381	0.0050412798
4951.2485266111	0.0050171819
4953.1773339842	0.0050425581
4955.1061413572	0.0050093303
4957.0349487302	0.0049390029
4958.9637561033	0.0049824258
4960.8925634763	0.0049529262
4962.8213708494	0.0050023906
4964.7501782224	0.0049300455
4966.6789855955	0.0049182158
4968.6077929685	0.0049932115
4970.5366003416	0.0048942100
4972.4654077146	0.0048691453
4974.3942150877	0.0047857100
4976.3230224607	0.0047487030
4978.2518298338	0.0048503121
4980.1806372068	0.0048498968
4982.1094445799	0.0047799302
4984.0382519529	0.0047496371
4985.9670593259	0.0047631906
4987.8958666990	0.0047329664
4989.8246740720	0.0047401097
4991.7534814451	0.0047767721
4993.6822888181	0.0047159698
4995.6110961912	0.0046909167
4997.5399035642	0.0047689518
4999.4687109373	0.0047326172
5001.3975183103	0.0046603940
5003.3263256834	0.0046858648
5005.2551330564	0.0046388865
5007.1839404295	0.0046630921
5009.1127478025	0.0046583004
5011.0415551756	0.0045550885
5012.9703625486	0.0046183807
5014.8991699217	0.0046085110
5016.8279772947	0.0045596645
5018.7567846677	0.0045740833
5020.6855920408	0.0045535779
5022.6143994138	0.0045707235
5024.5432067869	0.0045125578
5026.4720141599	0.0045069894
5028.4008215330	0.0045722513
5030.3296289060	0.0045212498
5032.2584362791	0.0044627599
5034.1872436521	0.0044228239
5036.1160510252	0.0043937317
5038.0448583982	0.0044093872
5039.9736657713	0.0044145705
5041.9024731443	0.0044110063
5043.8312805174	0.0043448564
5045.7600878904	0.0042829639
5047.6888952634	0.0043638451
5049.6177026365	0.0043439781
5051.5465100095	0.0042802170
5053.4753173826	0.0042873090
5055.4041247556	0.0042349184
5057.3329321287	0.0042589391
5059.2617395017	0.0042493697
5061.1905468748	0.0042369636
5063.1193542478	0.0043091816
5065.0481616209	0.0042824708
5066.9769689939	0.0042046914
5068.9057763670	0.0041798712
5070.8345837400	0.0041963612
5072.7633911131	0.0041830186
5074.6921984861	0.0041771941
5076.6210058591	0.0041735815
5078.5498132322	0.0041237874
5080.4786206052	0.0040742247
5082.4074279783	0.0041363146
5084.3362353513	0.0041106548
5086.2650427244	0.0039890707
5088.1938500974	0.0040592956
5090.1226574705	0.0040660752
5092.0514648435	0.0040823249
5093.9802722166	0.0040498967
5095.9090795896	0.0040189452
5097.8378869627	0.0040874043
5099.7666943357	0.0039131148
5101.6955017088	0.0039693490
5103.6243090818	0.0040252670
5105.5531164548	0.0039161332
5107.4819238279	0.0039950474
5109.4107312009	0.0039718468
5111.3395385740	0.0039187493
5113.2683459470	0.0038864054
5115.1971533201	0.0038655349
5117.1259606931	0.0038595935
5119.0547680662	0.0039352081
5120.9835754392	0.0038722875
5122.9123828123	0.0037877066
5124.8411901853	0.0039283098
5126.7699975584	0.0038346192
5128.6988049314	0.0038627351
5130.6276123045	0.0039204704
5132.5564196775	0.0037803361
5134.4852270506	0.0038080341
5136.4140344236	0.0037966813
5138.3428417966	0.0037308375
5140.2716491697	0.0037258384
5142.2004565427	0.0037554889
5144.1292639158	0.0037178393
5146.0580712888	0.0037376159
5147.9868786619	0.0037539608
5149.9156860349	0.0037027746
5151.8444934080	0.0036853894
5153.7733007810	0.0036738541
5155.7021081541	0.0037358985
5157.6309155271	0.0035965852
5159.5597229002	0.0036119723
5161.4885302732	0.0037641209
5163.4173376463	0.0036118650
5165.3461450193	0.0035694614
5167.2749523923	0.0036294810
5169.2037597654	0.0036699860
5171.1325671384	0.0036093574
5173.0613745115	0.0035638562
5174.9901818845	0.0035901843
5176.9189892576	0.0035274979
5178.8477966306	0.0035737534
5180.7766040037	0.0035623151
5182.7054113767	0.0034936161
5184.6342187498	0.0035266648
5186.5630261228	0.0035064281
5188.4918334959	0.0034581360
5190.4206408689	0.0035009398
5192.3494482420	0.0035411562
5194.2782556150	0.0034744758
5196.2070629880	0.0034826917
5198.1358703611	0.0035086833
5200.0646777341	0.0034049461
5201.9934851072	0.0034036995
5203.9222924802	0.0034378106
5205.8510998533	0.0033419533
5207.7799072263	0.0033165803
5209.7087145994	0.0033209291
5211.6375219724	0.0033846144
5213.5663293455	0.0034274478
5215.4951367185	0.0033365143
5217.4239440916	0.0034104511
5219.3527514646	0.0033634594
5221.2815588377	0.0032372274
5223.2103662107	0.0033384291
5225.1391735837	0.0032968665
5227.0679809568	0.0031997205
5228.9967883298	0.0032660826
5230.9255957029	0.0032908702
5232.8544030759	0.0032054195
5234.7832104490	0.0032064028
5236.7120178220	0.0032359203
5238.6408251951	0.0032287075
5240.5696325681	0.0032984465
5242.4984399412	0.0032276229
5244.4272473142	0.0031435431
5246.3560546873	0.0031598522
5248.2848620603	0.0030731028
5250.2136694334	0.0031267600
5252.1424768064	0.0031808987
5254.0712841795	0.0030919244
5256.0000915525	0.0031654309
5257.9288989255	0.0032506981
5259.8577062986	0.0031896033
5261.7865136716	0.0030264575
5263.7153210447	0.0030039414
5265.6441284177	0.0030789473
5267.5729357908	0.0030644634
5269.5017431638	0.0030849862
5271.4305505369	0.0030177834
5273.3593579099	0.0030501825
5275.2881652830	0.0030379782
5277.2169726560	0.0029879760
5279.1457800291	0.0030694259
5281.0745874021	0.0029765368
5283.0033947752	0.0030131151
5284.9322021482	0.0029736739
5286.8610095212	0.0029745447
5288.7898168943	0.0030701086
5290.7186242673	0.0028810338
5292.6474316404	0.0029071190
5294.5762390134	0.0030077370
5296.5050463865	0.0029831035
5298.4338537595	0.0029095430
5300.3626611326	0.0028977687
5302.2914685056	0.0028925678
5304.2202758787	0.0028775895
5306.1490832517	0.0029519349
5308.0778906248	0.0028029163
5310.0066979978	0.0028241880
5311.9355053709	0.0029034954
5313.8643127439	0.0028589722
5315.7931201169	0.0029136157
5317.7219274900	0.0028503027
5319.6507348630	0.0028046092
5321.5795422361	0.0028188461
5323.5083496091	0.0028554208
5325.4371569822	0.0028077676
5327.3659643552	0.0027755010
5329.2947717283	0.0028158897
5331.2235791013	0.0028162205
5333.1523864744	0.0027655219
5335.0811938474	0.0027565006
5337.0100012205	0.0027821655
5338.9388085935	0.0026134856
5340.8676159666	0.0027061207
5342.7964233396	0.0027703787
5344.7252307126	0.0026853802
5346.6540380857	0.0027360683
5348.5828454587	0.0026130625
5350.5116528318	0.0027047109
5352.4404602048	0.0027191930
5354.3692675779	0.0026306233
5356.2980749509	0.0026779920
5358.2268823240	0.0026558875
5360.1556896970	0.0027289782
5362.0844970701	0.0026997570
5364.0133044431	0.0026356704
5365.9421118162	0.0025778115
5367.8709191892	0.0025760634
5369.7997265623	0.0026440721
5371.7285339353	0.0025900761
5373.6573413083	0.0025685476
5375.5861486814	0.0025938530
5377.5149560544	0.0025608912
5379.4437634275	0.0025368491
5381.3725708005	0.0025972123
5383.3013781736	0.0025766944
5385.2301855466	0.0025726117
5387.1589929197	0.0025859806
5389.0878002927	0.0025010454
5391.0166076658	0.0024929545
5392.9454150388	0.0025351902
5394.8742224119	0.0024566983
5396.8030297849	0.0023962287
5398.7318371580	0.0025625336
5400.6606445310	0.0025523410
5402.5894519041	0.0024946386
5404.5182592771	0.0025191924
5406.4470666501	0.0024680549
5408.3758740232	0.0025048153
5410.3046813962	0.0024204249
5412.2334887693	0.0024000993
5414.1622961423	0.0023523187
5416.0911035154	0.0023539369
5418.0199108884	0.0025005795
5419.9487182615	0.0024419650
5421.8775256345	0.0024406365
5423.8063330076	0.0023769564
5425.7351403806	0.0023586694
5427.6639477537	0.0024108887
5429.5927551267	0.0023145122
5431.5215624998	0.0023391184
5433.4503698728	0.0023853867
5435.3791772458	0.0023108316
5437.3079846189	0.0022555590
5439.2367919919	0.0023132004
5441.1655993650	0.0022947155
5443.0944067380	0.0022685963
5445.0232141111	0.0023040681
5446.9520214841	0.0023282534
5448.8808288572	0.0023728192
5450.8096362302	0.0022982480
5452.7384436033	0.0022768350
5454.6672509763	0.0022685390
5456.5960583494	0.0021848050
5458.5248657224	0.0022398892
5460.4536730955	0.0022351011
5462.3824804685	0.0021778275
5464.3112878415	0.0022477144
5466.2400952146	0.0022045060
5468.1689025876	0.0021914528
5470.0977099607	0.0022486330
5472.0265173337	0.0021873303
5473.9553247068	0.0021799717
5475.8841320798	0.0021196953
5477.8129394529	0.0021754825
5479.7417468259	0.0022335076
5481.6705541990	0.0021395385
5483.5993615720	0.0021309946
5485.5281689451	0.0020964961
5487.4569763181	0.0021773903
5489.3857836912	0.0021339175
5491.3145910642	0.0020779110
5493.2433984372	0.0021556416
5495.1722058103	0.0021341359
5497.1010131833	0.0021298320
5499.0298205564	0.0020425557
5500.9586279294	0.0021361317
5502.8874353025	0.0021803670
5504.8162426755	0.0020431941
5506.7450500486	0.0019814721
5508.6738574216	0.0019936846
5510.6026647947	0.0021212609
5512.5314721677	0.0020913775
5514.4602795408	0.0021162096
5516.3890869138	0.0020797909
5518.3178942869	0.0019824742
5520.2467016599	0.0020336844
5522.1755090330	0.0019987891
5524.1043164060	0.0020280827
5526.0331237790	0.0020391368
5527.9619311521	0.0020667836
5529.8907385251	0.0020551267
5531.8195458982	0.0020206631
5533.7483532712	0.0020632083
5535.6771606443	0.0020372577
5537.6059680173	0.0019997803
5539.5347753904	0.0018912943
5541.4635827634	0.0019104327
5543.3923901365	0.0019325323
5545.3211975095	0.0019235513
5547.2500048826	0.0020001251
5549.1788122556	0.0019699833
5551.1076196287	0.0019743470
5553.0364270017	0.0019305320
5554.9652343747	0.0019428874
5556.8940417478	0.0019715377
5558.8228491208	0.0019083086
5560.7516564939	0.0019500698
5562.6804638669	0.0019284639
5564.6092712400	0.0018998551
5566.5380786130	0.0018689121
5568.4668859861	0.0018530007
5570.3956933591	0.0019113445
5572.3245007322	0.0019024144
5574.2533081052	0.0019305990
5576.1821154783	0.0019035332
5578.1109228513	0.0018330023
5580.0397302244	0.0018602231
5581.9685375974	0.0018519452
5583.8973449704	0.0018121487
5585.8261523435	0.0018368729
5587.7549597165	0.0018561690
5589.6837670896	0.0018096499
5591.6125744626	0.0018312556
5593.5413818357	0.0018090572
5595.4701892087	0.0017690278
5597.3989965818	0.0018565201
5599.3278039548	0.0018152201
5601.2566113279	0.0017815402
5603.1854187009	0.0017966174
5605.1142260740	0.0017521158
5607.0430334470	0.0017872748
5608.9718408201	0.0017761637
5610.9006481931	0.0017454354
5612.8294555661	0.0017241101
5614.7582629392	0.0017070988
5616.6870703122	0.0017303770
5618.6158776853	0.0017261788
5620.5446850583	0.0017341089
5622.4734924314	0.0017273538
5624.4022998044	0.0016807495
5626.3311071775	0.0017084309
5628.2599145505	0.0017541866
5630.1887219236	0.0016922477
5632.1175292966	0.0017360153
5634.0463366697	0.0017233202
5635.9751440427	0.0016456225
5637.9039514158	0.0017198120
5639.8327587888	0.0016573220
5641.7615661619	0.0016836673
5643.6903735349	0.0017121736
5645.6191809079	0.0016347857
5647.5479882810	0.0016547590
5649.4767956540	0.0015929075
5651.4056030271	0.0016644391
5653.3344104001	0.0017024300
5655.2632177732	0.0016051667
5657.1920251462	0.0016528403
5659.1208325193	0.0016853426
5661.0496398923	0.0016249357
5662.9784472654	0.0016052464
5664.9072546384	0.0016296811
5666.8360620115	0.0016160575
5668.7648693845	0.0016293067
5670.6936767576	0.0015764628
5672.6224841306	0.0015454574
5674.5512915036	0.0016062799
5676.4800988767	0.0015652366
5678.4089062497	0.0015576439
5680.3377136228	0.0015834083
5682.2665209958	0.0015982166
5684.1953283689	0.0016532801
5686.1241357419	0.0016261386
5688.0529431150	0.0015675446
5689.9817504880	0.0015638997
5691.9105578611	0.0015091391
5693.8393652341	0.0015151127
5695.7681726072	0.0015675840
5697.6969799802	0.0015128974
5699.6257873533	0.0014866781
5701.5545947263	0.0014916698
5703.4834020993	0.0015448568
5705.4122094724	0.0015076934
5707.3410168454	0.0014216190
5709.2698242185	0.0015112169
5711.1986315915	0.0015063396
5713.1274389646	0.0014384669
5715.0562463376	0.0014882749
5716.9850537107	0.0015171951
5718.9138610837	0.0015190337
5720.8426684568	0.0015710553
5722.7714758298	0.0015133545
5724.7002832029	0.0014425297
5726.6290905759	0.0014461050
5728.5578979490	0.0014157860
5730.4867053220	0.0014439964
5732.4155126950	0.0013901282
5734.3443200681	0.0014036226
5736.2731274411	0.0014250067
5738.2019348142	0.0013529717
5740.1307421872	0.0014235125
5742.0595495603	0.0014268579
5743.9883569333	0.0013623014
5745.9171643064	0.0013657222
5747.8459716794	0.0014290835
5749.7747790525	0.0013613632
5751.7035864255	0.0013474380
5753.6323937986	0.0014327264
5755.5612011716	0.0013923865
5757.4900085447	0.0014265443
5759.4188159177	0.0013476465
5761.3476232907	0.0012989137
5763.2764306638	0.0013422348
5765.2052380368	0.0013611490
5767.1340454099	0.0013255514
5769.0628527829	0.0012459822
5770.9916601560	0.0013653692
5772.9204675290	0.0013475155
5774.8492749021	0.0013089782
5776.7780822751	0.0013169716
5778.7068896482	0.0013022049
5780.6356970212	0.0013276722
5782.5645043943	0.0013034239
5784.4933117673	0.0013401095
5786.4221191404	0.0012367712
5788.3509265134	0.0012602978
5790.2797338865	0.0013131949
5792.2085412595	0.0012425066
5794.1373486325	0.0012998802
5796.0661560056	0.0012963668
5797.9949633786	0.0012877901
5799.9237707517	0.0012590608
5801.8525781247	0.0012827471
5803.7813854978	0.0013151213
5805.7101928708	0.0012340874
5807.6390002439	0.0011761377
5809.5678076169	0.0012236531
5811.4966149900	0.0012558242
5813.4254223630	0.0012508362
5815.3542297361	0.0012822801
5817.2830371091	0.0012031936
5819.2118444822	0.0012508046
5821.1406518552	0.0012011825
5823.0694592282	0.0011201773
5824.9982666013	0.0012644804
5826.9270739743	0.0012219632
5828.8558813474	0.0012292272
5830.7846887204	0.0012516797
5832.7134960935	0.0012224906
5834.6423034665	0.0012620676
5836.5711108396	0.0012361980
5838.4999182126	0.0011712241
5840.4287255857	0.0011635476
5842.3575329587	0.0011999359
5844.2863403318	0.0011649766
5846.2151477048	0.0011787277
5848.1439550779	0.0011387952
5850.0727624509	0.0011388460
5852.0015698239	0.0011505188
5853.9303771970	0.0011012282
5855.8591845700	0.0011609085
5857.7879919431	0.0011239570
5859.7167993161	0.0010874602
5861.6456066892	0.0011236430
5863.5744140622	0.0011762519
5865.5032214353	0.0011241934
5867.4320288083	0.0011088308
5869.3608361814	0.0011393829
5871.2896435544	0.0010533684
5873.2184509275	0.0011100477
5875.1472583005	0.0010948350
5877.0760656736	0.0010843016
5879.0048730466	0.0010914500
5880.9336804196	0.0010705693
5882.8624877927	0.0011037658
5884.7912951657	0.0010243133
5886.7201025388	0.0010633958
5888.6489099118	0.0010733651
5890.5777172849	0.0010631960
5892.5065246579	0.0010927834
5894.4353320310	0.0010317775
5896.3641394040	0.0010337671
5898.2929467771	0.0010556614
5900.2217541501	0.0010479484
5902.1505615232	0.0010439984
5904.0793688962	0.0010051184
5906.0081762693	0.0009412599
5907.9369836423	0.0009872862
5909.8657910154	0.0010181465
5911.7945983884	0.0010573934
5913.7234057614	0.0010410224
5915.6522131345	0.0010376212
5917.5810205075	0.0010724971
5919.5098278806	0.0009368332
5921.4386352536	0.0010562612
5923.3674426267	0.0010311496
5925.2962499997	0.0009408111
5927.2250573728	0.0010641962
5929.1538647458	0.0009607060
5931.0826721189	0.0009342874
5933.0114794919	0.0009201474
5934.9402868650	0.0009706240
5936.8690942380	0.0009915333
5938.7979016111	0.0009748188
5940.7267089841	0.0010097115
5942.6555163571	0.0009281995
5944.5843237302	0.0009749470
5946.5131311032	0.0010021117
5948.4419384763	0.0010423799
5950.3707458493	0.0009573302
5952.2995532224	0.0009193630
5954.2283605954	0.0009988484
5956.1571679685	0.0009162732
5958.0859753415	0.0009352727
5960.0147827146	0.0009172381
5961.9435900876	0.0009812708
5963.8723974607	0.0009672231
5965.8012048337	0.0009177300
5967.7300122068	0.0009653630
5969.6588195798	0.0009060344
5971.5876269528	0.0009826922
5973.5164343259	0.0009619657
5975.4452416989	0.0009038408
5977.3740490720	0.0008769253
5979.3028564450	0.0008835584
5981.2316638181	0.0008984567
5983.1604711911	0.0008473790
5985.0892785642	0.0008961349
5987.0180859372	0.0008547740
5988.9468933103	0.0009227268
5990.8757006833	0.0009387490
5992.8045080564	0.0008456912
5994.7333154294	0.0008877851
5996.6621228025	0.0008558512
5998.5909301755	0.0008525203
6000.5197375485	0.0008795391
