399.2631262207	0.0011697731
401.1919335938	0.0012046186
403.1207409668	0.0018648941
405.0495483398	0.0016887092
406.9783557129	0.0013957218
408.9071630859	0.0015995048
410.8359704590	0.0019106941
412.7647778320	0.0022485547
414.6935852051	0.0022909734
416.6223925781	0.0024907312
418.5511999512	0.0017651770
420.4800073242	0.0018172039
422.4088146973	0.0025655567
424.3376220703	0.0022820525
426.2664294434	0.0025784399
428.1952368164	0.0019593327
430.1240441895	0.0022033656
432.0528515625	0.0029100417
433.9816589355	0.0018903175
435.9104663086	0.0019688122
437.8392736816	0.0020262366
439.7680810547	0.0019511008
441.6968884277	0.0022385665
443.6256958008	0.0021326775
445.5545031738	0.0017235398
447.4833105469	0.0014550787
449.4121179199	0.0017035946
451.3409252930	0.0013128330
453.2697326660	0.0013422252
455.1985400391	0.0013213211
457.1273474121	0.0010116969
459.0561547852	0.0015689717
460.9849621582	0.0015565174
462.9137695313	0.0008902909
464.8425769043	0.0007641866
466.7713842773	0.0013300641
468.7001916504	0.0014601019
470.6289990234	0.0014451153
472.5578063965	0.0012673469
474.4866137695	0.0011352212
476.4154211426	0.0014810737
478.3442285156	0.0011676314
480.2730358887	0.0007422417
482.2018432617	0.0005597598
484.1306506348	0.0009515709
486.0594580078	0.0011119519
487.9882653809	0.0006656473
489.9170727539	0.0007467129
491.8458801270	0.0007219642
493.7746875000	0.0008365253
495.7034948730	0.0008240106
497.6323022461	0.0007983769
499.5611096191	0.0010179506
501.4899169922	0.0010078894
503.4187243652	0.0009343832
505.3475317383	0.0005865603
507.2763391113	0.0007507221
509.2051464844	0.0008509625
511.1339538574	0.0006432662
513.0627612305	0.0009864285
514.9915686035	0.0010292019
516.9203759766	0.0008360152
518.8491833496	0.0008348228
520.7779907227	0.0009961093
522.7067980957	0.0005980396
524.6356054688	0.0002650146
526.5644128418	0.0007571358
528.4932202148	0.0004999312
530.4220275879	0.0003022514
532.3508349609	0.0008075860
534.2796423340	0.0007047793
536.2084497070	0.0006789180
538.1372570801	0.0009207702
540.0660644531	0.0007258029
541.9948718262	0.0005985664
543.9236791992	0.0007335169
545.8524865723	0.0006226943
547.7812939453	0.0002820479
549.7101013184	0.0005707168
551.6389086914	0.0010611189
553.5677160645	0.0010740047
555.4965234375	0.0010969107
557.4253308105	0.0007613833
559.3541381836	0.0006106864
561.2829455566	0.0010634172
563.2117529297	0.0009919257
565.1405603027	0.0005081955
567.0693676758	0.0005136537
568.9981750488	0.0007829326
570.9269824219	0.0005957286
572.8557897949	0.0009231704
574.7845971680	0.0012436606
576.7134045410	0.0006822984
578.6422119141	0.0007347404
580.5710192871	0.0007725040
582.4998266602	0.0006719494
584.4286340332	0.0008310726
586.3574414063	0.0007173951
588.2862487793	0.0007046055
590.2150561523	0.0007650303
592.1438635254	0.0007874302
594.0726708984	0.0005204495
596.0014782715	0.0007160085
597.9302856445	0.0009091689
599.8590930176	0.0008419416
601.7879003906	0.0010132859
603.7167077637	0.0004136593
605.6455151367	0.0005657947
607.5743225098	0.0008060932
609.5031298828	0.0005697089
611.4319372559	0.0006236775
613.3607446289	-0.0000916836
615.2895520020	0.0003675292
617.2183593750	0.0006972277
619.1471667480	0.0005036647
621.0759741211	0.0007794229
623.0047814941	0.0002305193
624.9335888672	0.0005996759
626.8623962402	0.0006978182
628.7912036133	0.0002282844
630.7200109863	0.0009014464
632.6488183594	0.0011506992
634.5776257324	0.0012334073
636.5064331055	0.0016736449
638.4352404785	0.0014752337
640.3640478516	0.0017780059
642.2928552246	0.0018827391
644.2216625977	0.0017742303
646.1504699707	0.0025033588
648.0792773438	0.0024969270
650.0080847168	0.0023162500
651.9368920898	0.0023938224
653.8656994629	0.0028556990
655.7945068359	0.0028220550
657.7233142090	0.0026300433
659.6521215820	0.0032085816
661.5809289551	0.0028840441
663.5097363281	0.0032610404
665.4385437012	0.0031388737
667.3673510742	0.0026661181
669.2961584473	0.0034866487
671.2249658203	0.0035910695
673.1537731934	0.0039636036
675.0825805664	0.0038421983
677.0113879395	0.0039662831
678.9401953125	0.0043088244
680.8690026855	0.0038400274
682.7978100586	0.0042460505
684.7266174316	0.0040515177
686.6554248047	0.0040433491
688.5842321777	0.0044617159
690.5130395508	0.0045321630
692.4418469238	0.0046776049
694.3706542969	0.0045595840
696.2994616699	0.0051492387
698.2282690430	0.0059744795
700.1570764160	0.0066183363
702.0858837891	0.0066761612
704.0146911621	0.0059408993
705.9434985352	0.0051383954
707.8723059082	0.0045832936
709.8011132813	0.0038413568
711.7299206543	0.0026262682
713.6587280273	0.0018772096
715.5875354004	0.0009283144
717.5163427734	0.0004349261
719.4451501465	0.0008188685
721.3739575195	0.0009437696
723.3027648926	0.0008577900
725.2315722656	0.0004075774
727.1603796387	0.0004201903
729.0891870117	0.0005487199
731.0179943848	0.0005769629
732.9468017578	0.0004428989
734.8756091309	0.0004397043
736.8044165039	0.0005703738
738.7332238770	0.0003809767
740.6620312500	0.0005107707
742.5908386230	0.0004188335
744.5196459961	0.0007055055
746.4484533691	0.0005306642
748.3772607422	0.0003049073
750.3060681152	0.0008151385
752.2348754883	0.0005868138
754.1636828613	0.0004571720
756.0924902344	0.0006295227
758.0212976074	0.0007364074
759.9501049805	0.0004546714
761.8789123535	0.0004227246
763.8077197266	0.0008634476
765.7365270996	0.0007731435
767.6653344727	0.0008060728
769.5941418457	0.0005867493
771.5229492188	0.0005426225
773.4517565918	0.0006741358
775.3805639648	0.0006262031
777.3093713379	0.0009864783
779.2381787109	0.0007189935
781.1669860840	0.0005657392
783.0957934570	0.0006453228
785.0246008301	0.0005697994
786.9534082031	0.0007353712
788.8822155762	0.0006403186
790.8110229492	0.0007136296
792.7398303223	0.0007886098
794.6686376953	0.0005796302
796.5974450684	0.0005992324
798.5262524414	0.0009822790
800.4550598145	0.0010759920
802.3838671875	0.0009276642
804.3126745605	0.0008754374
806.2414819336	0.0005145351
808.1702893066	0.0004925374
810.0990966797	0.0007528467
812.0279040527	0.0008125466
813.9567114258	0.0008599010
815.8855187988	0.0006723139
817.8143261719	0.0005178166
819.7431335449	0.0006414627
821.6719409180	0.0007133099
823.6007482910	0.0005767798
825.5295556641	0.0005867619
827.4583630371	0.0008211405
829.3871704102	0.0008499451
831.3159777832	0.0010970539
833.2447851563	0.0014325040
835.1735925293	0.0014217508
837.1023999023	0.0016412695
839.0312072754	0.0014526678
840.9600146484	0.0013631880
842.8888220215	0.0014853668
844.8176293945	0.0011225247
846.7464367676	0.0013499645
848.6752441406	0.0010703589
850.6040515137	0.0009142873
852.5328588867	0.0011759065
854.4616662598	0.0008233877
856.3904736328	0.0008583772
858.3192810059	0.0006297240
860.2480883789	0.0006221556
862.1768957520	0.0006276392
864.1057031250	0.0006220659
866.0345104980	0.0008025607
867.9633178711	0.0004368199
869.8921252441	0.0006711009
871.8209326172	0.0004631460
873.7497399902	0.0001602172
875.6785473633	0.0005104334
877.6073547363	0.0005753920
879.5361621094	0.0002565666
881.4649694824	0.0000579769
883.3937768555	0.0006177693
885.3225842285	0.0006449559
887.2513916016	0.0003937321
889.1801989746	0.0003690708
891.1090063477	0.0004798184
893.0378137207	0.0006443211
894.9666210938	0.0004816289
896.8954284668	0.0009009144
898.8242358398	0.0006377695
900.7530432129	0.0002516530
902.6818505859	0.0004475471
904.6106579590	0.0003173829
906.5394653320	0.0004232732
908.4682727051	0.0005413163
910.3970800781	0.0007816332
912.3258874512	0.0008512778
914.2546948242	0.0008842770
916.1835021973	0.0008168205
918.1123095703	0.0007022266
920.0411169434	0.0011807007
921.9699243164	0.0011405870
923.8987316895	0.0009414431
925.8275390625	0.0013612600
927.7563464355	0.0012952168
929.6851538086	0.0013501140
931.6139611816	0.0019226882
933.5427685547	0.0016357099
935.4715759277	0.0014742326
937.4003833008	0.0018610975
939.3291906738	0.0019383845
941.2579980469	0.0021012418
943.1868054199	0.0022233131
945.1156127930	0.0020674560
947.0444201660	0.0018692071
948.9732275391	0.0021771237
950.9020349121	0.0022399696
952.8308422852	0.0020959361
954.7596496582	0.0021216432
956.6884570313	0.0016213456
958.6172644043	0.0016810298
960.5460717773	0.0020699017
962.4748791504	0.0020844194
964.4036865234	0.0021374614
966.3324938965	0.0022278661
968.2613012695	0.0021776252
970.1901086426	0.0021160149
972.1189160156	0.0023057600
974.0477233887	0.0024053911
975.9765307617	0.0027837022
977.9053381348	0.0030278740
979.8341455078	0.0031784039
981.7629528809	0.0035593836
983.6917602539	0.0038025025
985.6205676270	0.0044271946
987.5493750000	0.0048648650
989.4781823730	0.0052728150
991.4069897461	0.0059494479
993.3357971191	0.0064959973
995.2646044922	0.0069509223
997.1934118652	0.0075115399
999.1222192383	0.0082939938
1001.0510266113	0.0087834243
1002.9798339844	0.0095965574
1004.9086413574	0.0104564354
1006.8374487305	0.0109417560
1008.7662561035	0.0115312897
1010.6950634766	0.0119896904
1012.6238708496	0.0127130412
1014.5526782227	0.0133019481
1016.4814855957	0.0137588475
1018.4102929688	0.0146465786
1020.3391003418	0.0152187087
1022.2679077148	0.0158337522
1024.1967150879	0.0169483200
1026.1255224609	0.0175287090
1028.0543298340	0.0179881752
1029.9831372070	0.0186612047
1031.9119445801	0.0189489089
1033.8407519531	0.0195053555
1035.7695593262	0.0198792517
1037.6983666992	0.0200557280
1039.6271740723	0.0202612281
1041.5559814453	0.0199279636
1043.4847888184	0.0198904313
1045.4135961914	0.0197220221
1047.3424035645	0.0191708431
1049.2712109375	0.0190116633
1051.2000183105	0.0188729391
1053.1288256836	0.0184955783
1055.0576330566	0.0179306008
1056.9864404297	0.0175305679
1058.9152478027	0.0172867402
1060.8440551758	0.0168315340
1062.7728625488	0.0162727274
1064.7016699219	0.0155715896
1066.6304772949	0.0150084402
1068.5592846680	0.0146365780
1070.4880920410	0.0139053632
1072.4168994141	0.0131699657
1074.3457067871	0.0125897266
1076.2745141602	0.0119648818
1078.2033215332	0.0114550740
1080.1321289062	0.0108793303
1082.0609362793	0.0102741756
1083.9897436523	0.0098694712
1085.9185510254	0.0094720926
1087.8473583984	0.0089491792
1089.7761657715	0.0086122556
1091.7049731445	0.0082038958
1093.6337805176	0.0078996094
1095.5625878906	0.0077188779
1097.4913952637	0.0073127761
1099.4202026367	0.0072651147
1101.3490100098	0.0069566900
1103.2778173828	0.0065626381
1105.2066247559	0.0065607750
1107.1354321289	0.0066665667
1109.0642395019	0.0066662920
1110.9930468750	0.0062887920
1112.9218542480	0.0062848832
1114.8506616211	0.0060877362
1116.7794689941	0.0061496180
1118.7082763672	0.0064256834
1120.6370837402	0.0061536469
1122.5658911133	0.0064082392
1124.4946984863	0.0064478894
1126.4235058594	0.0064190491
1128.3523132324	0.0065870769
1130.2811206055	0.0067647961
1132.2099279785	0.0070900032
1134.1387353516	0.0072017470
1136.0675427246	0.0073373006
1137.9963500977	0.0075706216
1139.9251574707	0.0083527537
1141.8539648437	0.0088324528
1143.7827722168	0.0092352405
1145.7115795898	0.0102142058
1147.6403869629	0.0107399886
1149.5691943359	0.0111791827
1151.4980017090	0.0118341483
1153.4268090820	0.0123583702
1155.3556164551	0.0127696171
1157.2844238281	0.0134232175
1159.2132312012	0.0139377378
1161.1420385742	0.0144905439
1163.0708459473	0.0150118219
1164.9996533203	0.0154094044
1166.9284606934	0.0160815828
1168.8572680664	0.0163722672
1170.7860754394	0.0171927512
1172.7148828125	0.0179097392
1174.6436901855	0.0185626484
1176.5724975586	0.0195531324
1178.5013049316	0.0197624732
1180.4301123047	0.0206976458
1182.3589196777	0.0216667522
1184.2877270508	0.0225108638
1186.2165344238	0.0237627849
1188.1453417969	0.0246036835
1190.0741491699	0.0258460101
1192.0029565430	0.0270545073
1193.9317639160	0.0281299166
1195.8605712891	0.0294740312
1197.7893786621	0.0309203360
1199.7181860351	0.0323507637
1201.6469934082	0.0337238498
1203.5758007812	0.0351667181
1205.5046081543	0.0364039689
1207.4334155273	0.0377856568
1209.3622229004	0.0391881019
1211.2910302734	0.0402608067
1213.2198376465	0.0415179729
1215.1486450195	0.0426414050
1217.0774523926	0.0434850790
1219.0062597656	0.0443551168
1220.9350671387	0.0448481143
1222.8638745117	0.0453104526
1224.7926818848	0.0457965136
1226.7214892578	0.0461892262
1228.6502966308	0.0465432703
1230.5791040039	0.0465447754
1232.5079113769	0.0465905182
1234.4367187500	0.0466088206
1236.3655261230	0.0466339514
1238.2943334961	0.0464828759
1240.2231408691	0.0464254618
1242.1519482422	0.0464408696
1244.0807556152	0.0460819826
1246.0095629883	0.0458861887
1247.9383703613	0.0454528853
1249.8671777344	0.0452657230
1251.7959851074	0.0448448509
1253.7247924805	0.0444271490
1255.6535998535	0.0441142172
1257.5824072266	0.0430776030
1259.5112145996	0.0426825956
1261.4400219726	0.0418579578
1263.3688293457	0.0413232557
1265.2976367187	0.0410430171
1267.2264440918	0.0401604846
1269.1552514648	0.0399320498
1271.0840588379	0.0391615406
1273.0128662109	0.0385187343
1274.9416735840	0.0377891771
1276.8704809570	0.0369206667
1278.7992883301	0.0365368724
1280.7280957031	0.0356543511
1282.6569030762	0.0348328799
1284.5857104492	0.0342696160
1286.5145178223	0.0336412936
1288.4433251953	0.0328453258
1290.3721325683	0.0326399878
1292.3009399414	0.0324427001
1294.2297473144	0.0320735052
1296.1585546875	0.0318714343
1298.0873620605	0.0315927044
1300.0161694336	0.0319061801
1301.9449768066	0.0319613814
1303.8737841797	0.0321748294
1305.8025915527	0.0325402915
1307.7313989258	0.0329348296
1309.6602062988	0.0337430909
1311.5890136719	0.0340640694
1313.5178210449	0.0346385539
1315.4466284180	0.0355598330
1317.3754357910	0.0363013074
1319.3042431640	0.0372042283
1321.2330505371	0.0385296345
1323.1618579101	0.0396407172
1325.0906652832	0.0406968072
1327.0194726562	0.0419698879
1328.9482800293	0.0431050211
1330.8770874023	0.0442826003
1332.8058947754	0.0452694334
1334.7347021484	0.0462924168
1336.6635095215	0.0465886444
1338.5923168945	0.0464405343
1340.5211242676	0.0471264049
1342.4499316406	0.0484494790
1344.3787390137	0.0489444658
1346.3075463867	0.0487197228
1348.2363537597	0.0489998609
1350.1651611328	0.0486181378
1352.0939685058	0.0483887270
1354.0227758789	0.0480087288
1355.9515832519	0.0474415012
1357.8803906250	0.0473740995
1359.8091979980	0.0465448648
1361.7380053711	0.0449005924
1363.6668127441	0.0442046896
1365.5956201172	0.0457878485
1367.5244274902	0.0450312868
1369.4532348633	0.0446509793
1371.3820422363	0.0454687700
1373.3108496094	0.0432159938
1375.2396569824	0.0433155149
1377.1684643555	0.0442833416
1379.0972717285	0.0442529432
1381.0260791015	0.0440131649
1382.9548864746	0.0439307615
1384.8836938476	0.0440144017
1386.8125012207	0.0422537625
1388.7413085937	0.0430539399
1390.6701159668	0.0456817560
1392.5989233398	0.0449983925
1394.5277307129	0.0427031144
1396.4565380859	0.0444610491
1398.3853454590	0.0445837304
1400.3141528320	0.0439473763
1402.2429602051	0.0473295972
1404.1717675781	0.0451431274
1406.1005749512	0.0452576429
1408.0293823242	0.0466984510
1409.9581896972	0.0450647548
1411.8869970703	0.0459430739
1413.8158044433	0.0443679765
1415.7446118164	0.0451277271
1417.6734191894	0.0414415412
1419.6022265625	0.0376119241
1421.5310339355	0.0419799089
1423.4598413086	0.0408188440
1425.3886486816	0.0395902954
1427.3174560547	0.0398830362
1429.2462634277	0.0372726470
1431.1750708008	0.0359546952
1433.1038781738	0.0364408344
1435.0326855469	0.0335751101
1436.9614929199	0.0288876481
1438.8903002929	0.0318121389
1440.8191076660	0.0324124768
1442.7479150390	0.0303308628
1444.6767224121	0.0315210149
1446.6055297851	0.0293882769
1448.5343371582	0.0295753032
1450.4631445312	0.0306222197
1452.3919519043	0.0310565997
1454.3207592773	0.0322604328
1456.2495666504	0.0277666450
1458.1783740234	0.0286377408
1460.1071813965	0.0369864851
1462.0359887695	0.0394171961
1463.9647961426	0.0395907238
1465.8936035156	0.0412735082
1467.8224108886	0.0463414118
1469.7512182617	0.0499276370
1471.6800256347	0.0458315536
1473.6088330078	0.0481413454
1475.5376403808	0.0542529486
1477.4664477539	0.0581730530
1479.3952551269	0.0634406433
1481.3240625000	0.0647552237
1483.2528698730	0.0682316422
1485.1816772461	0.0710391328
1487.1104846191	0.0706155971
1489.0392919922	0.0705077425
1490.9680993652	0.0713728070
1492.8969067383	0.0810468793
1494.8257141113	0.0802910030
1496.7545214843	0.0734683350
1498.6833288574	0.0819028616
1500.6121362304	0.0846297294
1502.5409436035	0.0895689875
1504.4697509765	0.0861633867
1506.3985583496	0.0661279857
1508.3273657226	0.0780378133
1510.2561730957	0.0898517817
1512.1849804687	0.0871994719
1514.1137878418	0.0938139111
1516.0425952148	0.0861148834
1517.9714025879	0.0891967714
1519.9002099609	0.0866330117
1521.8290173340	0.0767348707
1523.7578247070	0.0909666717
1525.6866320801	0.0899265558
1527.6154394531	0.0894652754
1529.5442468261	0.0975203440
1531.4730541992	0.0945803225
1533.4018615722	0.0877587497
1535.3306689453	0.0918699801
1537.2594763183	0.0975909233
1539.1882836914	0.0737941861
1541.1170910644	0.0756991655
1543.0458984375	0.0891729444
1544.9747058105	0.0861115009
1546.9035131836	0.0986909866
1548.8323205566	0.0936331898
1550.7611279297	0.0958536565
1552.6899353027	0.0956058502
1554.6187426758	0.0879498199
1556.5475500488	0.0934422910
1558.4763574218	0.0700128376
1560.4051647949	0.0733289346
1562.3339721679	0.0994926244
1564.2627795410	0.0951920450
1566.1915869140	0.0972507000
1568.1203942871	0.0965977162
1570.0492016601	0.0871820599
1571.9780090332	0.0980911255
1573.9068164062	0.0993883088
1575.8356237793	0.0813779533
1577.7644311523	0.0898850709
1579.6932385254	0.1006551385
1581.6220458984	0.0966174155
1583.5508532715	0.0987245142
1585.4796606445	0.0974533707
1587.4084680175	0.0978785157
1589.3372753906	0.0973446369
1591.2660827636	0.0972217470
1593.1948901367	0.0974950641
1595.1236975097	0.0964211673
1597.0525048828	0.0976987779
1598.9813122558	0.0970713496
1600.9101196289	0.0977180675
1602.8389270019	0.0962491482
1604.7677343750	0.0975796133
1606.6965417480	0.0963767767
1608.6253491211	0.0960933417
1610.5541564941	0.0962597430
1612.4829638672	0.0963604450
1614.4117712402	0.0979907438
1616.3405786132	0.0824320018
1618.2693859863	0.0877081826
1620.1981933593	0.1005214304
1622.1270007324	0.0907588378
1624.0558081054	0.0912691206
1625.9846154785	0.0946449041
1627.9134228515	0.0947099477
1629.8422302246	0.0939802602
1631.7710375976	0.0990543962
1633.6998449707	0.0931845531
1635.6286523437	0.0786993578
1637.5574597168	0.0894193798
1639.4862670898	0.0973168015
1641.4150744629	0.0952291042
1643.3438818359	0.0973638743
1645.2726892090	0.0894237310
1647.2014965820	0.0802764893
1649.1303039550	0.0960808024
1651.0591113281	0.0921835303
1652.9879187011	0.0632067621
1654.9167260742	0.0815195292
1656.8455334472	0.0998027623
1658.7743408203	0.0955089927
1660.7031481933	0.0983667821
1662.6319555664	0.0907752737
1664.5607629394	0.0945301279
1666.4895703125	0.1005846187
1668.4183776855	0.0900612324
1670.3471850586	0.0876698717
1672.2759924316	0.0974965170
1674.2047998047	0.0913610905
1676.1336071777	0.0875797495
1678.0624145507	0.0990786925
1679.9912219238	0.0959123522
1681.9200292968	0.0954545140
1683.8488366699	0.0803830624
1685.7776440429	0.0781802088
1687.7064514160	0.1033254117
1689.6352587890	0.0918412507
1691.5640661621	0.0987317860
1693.4928735351	0.1012703329
1695.4216809082	0.0770353749
1697.3504882812	0.0918686241
1699.2792956543	0.0834341347
1701.2081030273	0.0753170699
1703.1369104004	0.0981422514
1705.0657177734	0.0916546434
1706.9945251464	0.0916469693
1708.9233325195	0.0986310169
1710.8521398925	0.0949081182
1712.7809472656	0.0966028646
1714.7097546386	0.0910004675
1716.6385620117	0.0826485753
1718.5673693847	0.0811469853
1720.4961767578	0.0937294811
1722.4249841308	0.0971887335
1724.3537915039	0.0910031646
1726.2825988769	0.0975411385
1728.2114062500	0.0910842121
1730.1402136230	0.0917936713
1732.0690209961	0.0900879800
1733.9978283691	0.0713534802
1735.9266357421	0.0849572048
1737.8554431152	0.0932036787
1739.7842504882	0.0844031498
1741.7130578613	0.0906930268
1743.6418652343	0.0922583789
1745.5706726074	0.0922011733
1747.4994799804	0.0929836482
1749.4282873535	0.0897853523
1751.3570947265	0.0863121152
1753.2859020996	0.0939749330
1755.2147094726	0.0980843231
1757.1435168457	0.0906876028
1759.0723242187	0.0980945379
1761.0011315918	0.0935474113
1762.9299389648	0.0901727304
1764.8587463379	0.1011737287
1766.7875537109	0.0928274989
1768.7163610839	0.0933384746
1770.6451684570	0.0932084322
1772.5739758300	0.0847619474
1774.5027832031	0.0929503590
1776.4315905761	0.0975299552
1778.3603979492	0.0963404179
1780.2892053222	0.0955208987
1782.2180126953	0.0958995223
1784.1468200683	0.0960967168
1786.0756274414	0.0943059176
1788.0044348144	0.0982078314
1789.9332421875	0.0963823646
1791.8620495605	0.0886029899
1793.7908569336	0.0916170031
1795.7196643066	0.0970808417
1797.6484716796	0.0960737616
1799.5772790527	0.0950038508
1801.5060864257	0.0936265290
1803.4348937988	0.0959229171
1805.3637011718	0.0979081243
1807.2925085449	0.0969092548
1809.2213159179	0.0970477834
1811.1501232910	0.0947774202
1813.0789306640	0.0970875993
1815.0077380371	0.0976041108
1816.9365454101	0.0966698676
1818.8653527832	0.0974461138
1820.7941601562	0.0970524698
1822.7229675293	0.0982403979
1824.6517749023	0.0927653015
1826.5805822753	0.0953155309
1828.5093896484	0.0958658457
1830.4381970214	0.0908804536
1832.3670043945	0.0972644389
1834.2958117675	0.0967228487
1836.2246191406	0.0966576487
1838.1534265136	0.0962937176
1840.0822338867	0.0967031866
1842.0110412597	0.0972376019
1843.9398486328	0.0877686590
1845.8686560058	0.0921835974
1847.7974633789	0.0968768895
1849.7262707519	0.0949123651
1851.6550781250	0.0970848277
1853.5838854980	0.0957428813
1855.5126928710	0.0964538306
1857.4415002441	0.0958772600
1859.3703076171	0.0954387262
1861.2991149902	0.0960331559
1863.2279223632	0.0950938463
1865.1567297363	0.0957986414
1867.0855371093	0.0932547301
1869.0143444824	0.0901020616
1870.9431518554	0.0927841216
1872.8719592285	0.0956218243
1874.8007666015	0.0943872184
1876.7295739746	0.0948924646
1878.6583813476	0.0946593434
1880.5871887207	0.0941004008
1882.5159960937	0.0946957171
1884.4448034667	0.0933666751
1886.3736108398	0.0944625884
1888.3024182128	0.0928565711
1890.2312255859	0.0912388712
1892.1600329589	0.0940277725
1894.0888403320	0.0931630731
1896.0176477050	0.0926151797
1897.9464550781	0.0933682770
1899.8752624511	0.0930043608
1901.8040698242	0.0931126028
1903.7328771972	0.0925977379
1905.6616845703	0.0929792896
1907.5904919433	0.0923159644
1909.5192993164	0.0917164981
1911.4481066894	0.0920125246
1913.3769140625	0.0919831246
1915.3057214355	0.0928917006
1917.2345288085	0.0895533264
1919.1633361816	0.0893955752
1921.0921435546	0.0924265236
1923.0209509277	0.0899371058
1924.9497583007	0.0911882892
1926.8785656738	0.0921040252
1928.8073730468	0.0912086368
1930.7361804199	0.0920285434
1932.6649877929	0.0911132768
1934.5937951660	0.0917745531
1936.5226025390	0.0911201239
1938.4514099121	0.0914786234
1940.3802172851	0.0914085284
1942.3090246582	0.0890346617
1944.2378320312	0.0903179199
1946.1666394042	0.0909567475
1948.0954467773	0.0908374935
1950.0242541503	0.0911666974
1951.9530615234	0.0910490751
1953.8818688964	0.0910769179
1955.8106762695	0.0907525569
1957.7394836425	0.0909120888
1959.6682910156	0.0906800926
1961.5970983886	0.0904480591
1963.5259057617	0.0905835778
1965.4547131347	0.0902818590
1967.3835205078	0.0895678550
1969.3123278808	0.0901048481
1971.2411352539	0.0906155258
1973.1699426269	0.0900474042
1975.0987499999	0.0903328955
1977.0275573730	0.0900759101
1978.9563647460	0.0899577290
1980.8851721191	0.0899389535
1982.8139794921	0.0896833390
1984.7427868652	0.0897908434
1986.6715942382	0.0892022997
1988.6004016113	0.0893092155
1990.5292089843	0.0887565166
1992.4580163574	0.0879213214
1994.3868237304	0.0889771581
1996.3156311035	0.0892350525
1998.2444384765	0.0886759534
2000.1732458496	0.0885954350
2002.1020532226	0.0882952586
2004.0308605956	0.0882272720
2005.9596679687	0.0880881548
2007.8884753417	0.0878323391
2009.8172827148	0.0877776444
2011.7460900878	0.0876070261
2013.6748974609	0.0876397341
2015.6037048339	0.0870401785
2017.5325122070	0.0865359977
2019.4613195800	0.0869621187
2021.3901269531	0.0869546980
2023.3189343261	0.0866592973
2025.2477416992	0.0864712819
2027.1765490722	0.0864138752
2029.1053564453	0.0862177908
2031.0341638183	0.0859372765
2032.9629711914	0.0858170688
2034.8917785644	0.0856208056
2036.8205859374	0.0855246931
2038.7493933105	0.0851939917
2040.6782006835	0.0847937763
2042.6070080566	0.0848571956
2044.5358154296	0.0848413110
2046.4646228027	0.0847015977
2048.3934301757	0.0847343057
2050.3222375488	0.0844775587
2052.2510449218	0.0843136311
2054.1798522949	0.0840869695
2056.1086596679	0.0837864727
2058.0374670410	0.0838198736
2059.9662744140	0.0836454779
2061.8950817871	0.0837853402
2063.8238891601	0.0833398104
2065.7526965331	0.0827690214
2067.6815039062	0.0830985457
2069.6103112792	0.0829616189
2071.5391186523	0.0828041881
2073.4679260253	0.0826507509
2075.3967333984	0.0824633986
2077.3255407714	0.0822947100
2079.2543481445	0.0820606425
2081.1831555175	0.0820405483
2083.1119628906	0.0818457827
2085.0407702636	0.0818070173
2086.9695776367	0.0817362815
2088.8983850097	0.0814085305
2090.8271923828	0.0811862648
2092.7559997558	0.0812217593
2094.6848071288	0.0810129791
2096.6136145019	0.0808345228
2098.5424218749	0.0809289515
2100.4712292480	0.0807834864
2102.4000366210	0.0806321725
2104.3288439941	0.0802304372
2106.2576513671	0.0801570117
2108.1864587402	0.0801965296
2110.1152661132	0.0800286233
2112.0440734863	0.0800319016
2113.9728808593	0.0798566788
2115.9016882324	0.0797484443
2117.8304956054	0.0794407576
2119.7593029785	0.0794156939
2121.6881103515	0.0795019567
2123.6169177245	0.0792994425
2125.5457250976	0.0791424215
2127.4745324706	0.0789545476
2129.4033398437	0.0789235085
2131.3321472167	0.0787755102
2133.2609545898	0.0788080990
2135.1897619628	0.0786366612
2137.1185693359	0.0784578994
2139.0473767089	0.0785609931
2140.9761840820	0.0783652365
2142.9049914550	0.0783074498
2144.8337988281	0.0781360716
2146.7626062011	0.0780294687
2148.6914135742	0.0780268610
2150.6202209472	0.0779160857
2152.5490283203	0.0778937638
2154.4778356933	0.0777501389
2156.4066430663	0.0776243359
2158.3354504394	0.0776195228
2160.2642578124	0.0775362551
2162.1930651855	0.0774028599
2164.1218725585	0.0773665905
2166.0506799316	0.0772685036
2167.9794873046	0.0772762001
2169.9082946777	0.0770818293
2171.8371020507	0.0769347548
2173.7659094238	0.0769660324
2175.6947167968	0.0766566098
2177.6235241699	0.0765801668
2179.5523315429	0.0765805393
2181.4811389160	0.0765558928
2183.4099462890	0.0764395967
2185.3387536620	0.0763725936
2187.2675610351	0.0762697309
2189.1963684081	0.0761499107
2191.1251757812	0.0762566328
2193.0539831542	0.0758164823
2194.9827905273	0.0758011043
2196.9115979003	0.0758765861
2198.8404052734	0.0755797476
2200.7692126464	0.0756063312
2202.6980200195	0.0754843950
2204.6268273925	0.0754601583
2206.5556347656	0.0754001588
2208.4844421386	0.0753491372
2210.4132495117	0.0752223432
2212.3420568847	0.0750726759
2214.2708642577	0.0750483871
2216.1996716308	0.0749885291
2218.1284790038	0.0749177933
2220.0572863769	0.0747686476
2221.9860937499	0.0747507513
2223.9149011230	0.0745460987
2225.8437084960	0.0745345131
2227.7725158691	0.0744460896
2229.7013232421	0.0742960274
2231.6301306152	0.0742616802
2233.5589379882	0.0739329979
2235.4877453613	0.0739047006
2237.4165527343	0.0737341940
2239.3453601074	0.0736373663
2241.2741674804	0.0736184567
2243.2029748534	0.0735717565
2245.1317822265	0.0734514669
2247.0605895995	0.0732027292
2248.9893969726	0.0733125433
2250.9182043456	0.0730802119
2252.8470117187	0.0729901120
2254.7758190917	0.0728375018
2256.7046264648	0.0726896822
2258.6334338378	0.0727849305
2260.5622412109	0.0725921541
2262.4910485839	0.0725431591
2264.4198559570	0.0723149925
2266.3486633300	0.0722789615
2268.2774707031	0.0722049326
2270.2062780761	0.0721366405
2272.1350854491	0.0720800608
2274.0638928222	0.0718738735
2275.9927001952	0.0719335228
2277.9215075683	0.0716385692
2279.8503149413	0.0716884881
2281.7791223144	0.0717335269
2283.7079296874	0.0715859830
2285.6367370605	0.0716018006
2287.5655444335	0.0712314844
2289.4943518066	0.0710435957
2291.4231591796	0.0710302442
2293.3519665527	0.0709384680
2295.2807739257	0.0706995055
2297.2095812988	0.0704858825
2299.1383886718	0.0702100471
2301.0671960449	0.0699123740
2302.9960034179	0.0696282238
2304.9248107909	0.0693161488
2306.8536181640	0.0690692589
2308.7824255370	0.0684485883
2310.7112329101	0.0680673569
2312.6400402831	0.0674880818
2314.5688476562	0.0666899607
2316.4976550292	0.0662275106
2318.4264624023	0.0654161572
2320.3552697753	0.0645649061
2322.2840771484	0.0636156648
2324.2128845214	0.0628392920
2326.1416918945	0.0623725131
2328.0704992675	0.0616778582
2329.9993066406	0.0608565658
2331.9281140136	0.0603266731
2333.8569213866	0.0602220967
2335.7857287597	0.0599594563
2337.7145361327	0.0597654842
2339.6433435058	0.0597959831
2341.5721508788	0.0601105168
2343.5009582519	0.0607966930
2345.4297656249	0.0617948882
2347.3585729980	0.0642809346
2349.2873803710	0.0661159009
2351.2161877441	0.0640784949
2353.1449951171	0.0610595495
2355.0738024902	0.0592017770
2357.0026098632	0.0574862063
2358.9314172363	0.0563271120
2360.8602246093	0.0557159744
2362.7890319823	0.0556616746
2364.7178393554	0.0559770204
2366.6466467284	0.0566576235
2368.5754541015	0.0577679202
2370.5042614745	0.0588839687
2372.4330688476	0.0604814813
2374.3618762206	0.0620208979
2376.2906835937	0.0634218901
2378.2194909667	0.0647572130
2380.1482983398	0.0656582862
2382.0771057128	0.0662913322
2384.0059130859	0.0666650683
2385.9347204589	0.0670073554
2387.8635278320	0.0670207143
2389.7923352050	0.0669039786
2391.7211425780	0.0667164922
2393.6499499511	0.0666784048
2395.5787573241	0.0667822361
2397.5075646972	0.0666153431
2399.4363720702	0.0665972605
2401.3651794433	0.0664102435
2403.2939868163	0.0664175451
2405.2227941894	0.0664282590
2407.1516015624	0.0661388710
2409.0804089355	0.0661252066
2411.0092163085	0.0661013797
2412.9380236816	0.0659837574
2414.8668310546	0.0659596175
2416.7956384277	0.0659199581
2418.7244458007	0.0655905157
2420.6532531738	0.0656216219
2422.5820605468	0.0656558573
2424.5108679198	0.0654659495
2426.4396752929	0.0654537827
2428.3684826659	0.0651608855
2430.2972900390	0.0651884526
2432.2260974120	0.0651672035
2434.1549047851	0.0649529323
2436.0837121581	0.0648922324
2438.0125195312	0.0648084283
2439.9413269042	0.0647570044
2441.8701342773	0.0647035092
2443.7989416503	0.0647461340
2445.7277490234	0.0644859523
2447.6565563964	0.0644398108
2449.5853637695	0.0644509792
2451.5141711425	0.0642809868
2453.4429785155	0.0642544627
2455.3717858886	0.0641504899
2457.3005932616	0.0641781539
2459.2294006347	0.0640129596
2461.1582080077	0.0640061200
2463.0870153808	0.0639615655
2465.0158227538	0.0637221262
2466.9446301269	0.0636700168
2468.8734374999	0.0635468513
2470.8022448730	0.0635982156
2472.7310522460	0.0635347068
2474.6598596191	0.0633984506
2476.5886669921	0.0633314103
2478.5174743652	0.0632757246
2480.4462817382	0.0631738454
2482.3750891112	0.0630590171
2484.3038964843	0.0630403906
2486.2327038573	0.0629448667
2488.1615112304	0.0629382730
2490.0903186034	0.0627782643
2492.0191259765	0.0626767427
2493.9479333495	0.0626268908
2495.8767407226	0.0624732003
2497.8055480956	0.0624035671
2499.7343554687	0.0623516887
2501.6631628417	0.0623129047
2503.5919702148	0.0621464700
2505.5207775878	0.0621583760
2507.4495849609	0.0621446632
2509.3783923339	0.0620506480
2511.3071997069	0.0619093552
2513.2360070800	0.0618681684
2515.1648144530	0.0618183687
2517.0936218261	0.0615055710
2519.0224291991	0.0616896003
2520.9512365722	0.0616181903
2522.8800439452	0.0614675805
2524.8088513183	0.0614563487
2526.7376586913	0.0611579381
2528.6664660644	0.0612173975
2530.5952734374	0.0611520223
2532.5240808105	0.0610752814
2534.4528881835	0.0609037355
2536.3816955566	0.0608534887
2538.3105029296	0.0609558485
2540.2393103027	0.0606848821
2542.1681176757	0.0606792010
2544.0969250487	0.0606133044
2546.0257324218	0.0605063103
2547.9545397948	0.0604571775
2549.8833471679	0.0603638738
2551.8121545409	0.0603589714
2553.7409619140	0.0602414235
2555.6697692870	0.0601461791
2557.5985766601	0.0600180402
2559.5273840331	0.0599819236
2561.4561914062	0.0598534793
2563.3849987792	0.0597064048
2565.3138061523	0.0598133206
2567.2426135253	0.0597517267
2569.1714208984	0.0596121103
2571.1002282714	0.0596238300
2573.0290356444	0.0594809540
2574.9578430175	0.0592827722
2576.8866503905	0.0593686476
2578.8154577636	0.0593446940
2580.7442651366	0.0591970012
2582.6730725097	0.0591104142
2584.6018798827	0.0589548461
2586.5306872558	0.0588840544
2588.4594946288	0.0588909611
2590.3883020019	0.0587862767
2592.3171093749	0.0586279780
2594.2459167480	0.0586105958
2596.1747241210	0.0585024878
2598.1035314941	0.0584340096
2600.0323388671	0.0584220588
2601.9611462401	0.0582797416
2603.8899536132	0.0582919493
2605.8187609862	0.0582035258
2607.7475683593	0.0580321923
2609.6763757323	0.0580207855
2611.6051831054	0.0581339858
2613.5339904784	0.0580345467
2615.4627978515	0.0577188730
2617.3916052245	0.0577904806
2619.3204125976	0.0577682853
2621.2492199706	0.0575621091
2623.1780273437	0.0574932992
2625.1068347167	0.0573168732
2627.0356420898	0.0573583096
2628.9644494628	0.0573450997
2630.8932568358	0.0571735501
2632.8220642089	0.0572115667
2634.7508715819	0.0571115389
2636.6796789550	0.0570233651
2638.6084863280	0.0569662601
2640.5372937011	0.0568349771
2642.4661010741	0.0567909032
2644.3949084472	0.0566860735
2646.3237158202	0.0566539019
2648.2525231933	0.0566025451
2650.1813305663	0.0565215722
2652.1101379394	0.0564529523
2654.0389453124	0.0563192815
2655.9677526855	0.0562525429
2657.8965600585	0.0561727062
2659.8253674315	0.0560714304
2661.7541748046	0.0559326783
2663.6829821776	0.0558328480
2665.6117895507	0.0557649098
2667.5405969237	0.0557854548
2669.4694042968	0.0557051972
2671.3982116698	0.0555563495
2673.3270190429	0.0556530729
2675.2558264159	0.0555217639
2677.1846337890	0.0554219708
2679.1134411620	0.0553879812
2681.0422485351	0.0552516580
2682.9710559081	0.0551487952
2684.8998632812	0.0550524220
2686.8286706542	0.0551574752
2688.7574780273	0.0550139658
2690.6862854003	0.0549045615
2692.6150927733	0.0548511371
2694.5439001464	0.0547304526
2696.4727075194	0.0547504127
2698.4015148925	0.0545760542
2700.3303222655	0.0544647500
2702.2591296386	0.0543519258
2704.1879370116	0.0543905646
2706.1167443847	0.0543969497
2708.0455517577	0.0542287380
2709.9743591308	0.0541823246
2711.9031665038	0.0540357456
2713.8319738769	0.0539970547
2715.7607812499	0.0539156199
2717.6895886230	0.0538331009
2719.6183959960	0.0537471920
2721.5472033690	0.0536549613
2723.4760107421	0.0536448359
2725.4048181151	0.0534679741
2727.3336254882	0.0534693934
2729.2624328612	0.0535108596
2731.1912402343	0.0533343852
2733.1200476073	0.0531516746
2735.0488549804	0.0531357005
2736.9776623534	0.0531415790
2738.9064697265	0.0530396923
2740.8352770995	0.0529478192
2742.7640844726	0.0528988540
2744.6928918456	0.0528185070
2746.6216992187	0.0527034365
2748.5505065917	0.0526596159
2750.4793139647	0.0524942167
2752.4081213378	0.0525410250
2754.3369287108	0.0525053181
2756.2657360839	0.0521780327
2758.1945434569	0.0521630906
2760.1233508300	0.0521257371
2762.0521582030	0.0520726666
2763.9809655761	0.0519978628
2765.9097729491	0.0519120917
2767.8385803222	0.0518523045
2769.7673876952	0.0517638363
2771.6961950683	0.0516222790
2773.6250024413	0.0514315143
2775.5538098144	0.0514990911
2777.4826171874	0.0513859540
2779.4114245604	0.0512700006
2781.3402319335	0.0511897169
2783.2690393065	0.0511850119
2785.1978466796	0.0512563288
2787.1266540526	0.0509939380
2789.0554614257	0.0509002656
2790.9842687987	0.0508153066
2792.9130761718	0.0508108959
2794.8418835448	0.0506545156
2796.7706909179	0.0504875630
2798.6994982909	0.0506314710
2800.6283056640	0.0504568554
2802.5571130370	0.0503108688
2804.4859204101	0.0501837172
2806.4147277831	0.0501668304
2808.3435351562	0.0500568077
2810.2723425292	0.0498109534
2812.2011499022	0.0497898981
2814.1299572753	0.0497831702
2816.0587646483	0.0497992337
2817.9875720214	0.0495276041
2819.9163793944	0.0493839383
2821.8451867675	0.0494051650
2823.7739941405	0.0493601039
2825.7028015136	0.0492243022
2827.6316088866	0.0490815416
2829.5604162597	0.0490909107
2831.4892236327	0.0487976745
2833.4180310058	0.0488079786
2835.3468383788	0.0488881618
2837.2756457519	0.0486204773
2839.2044531249	0.0484720133
2841.1332604979	0.0483950600
2843.0620678710	0.0482129306
2844.9908752440	0.0479092598
2846.9196826171	0.0477588624
2848.8484899901	0.0474710763
2850.7772973632	0.0473606214
2852.7061047362	0.0472848304
2854.6349121093	0.0471108481
2856.5637194823	0.0471922532
2858.4925268554	0.0470449291
2860.4213342284	0.0471145213
2862.3501416015	0.0471199676
2864.2789489745	0.0469773784
2866.2077563476	0.0469733924
2868.1365637206	0.0467788056
2870.0653710936	0.0467574559
2871.9941784667	0.0466962457
2873.9229858397	0.0466190651
2875.8517932128	0.0465662256
2877.7806005858	0.0464357249
2879.7094079589	0.0463538989
2881.6382153319	0.0462456606
2883.5670227050	0.0462515056
2885.4958300780	0.0461650416
2887.4246374511	0.0460864753
2889.3534448241	0.0461041182
2891.2822521972	0.0460053310
2893.2110595702	0.0459253266
2895.1398669433	0.0457453281
2897.0686743163	0.0455492660
2898.9974816893	0.0455419645
2900.9262890624	0.0454769954
2902.8550964354	0.0453701168
2904.7839038085	0.0452786833
2906.7127111815	0.0451163650
2908.6415185546	0.0450004935
2910.5703259276	0.0448451117
2912.4991333007	0.0445330292
2914.4279406737	0.0442562662
2916.3567480468	0.0441410802
2918.2855554198	0.0440532155
2920.2143627929	0.0439508148
2922.1431701659	0.0438589081
2924.0719775390	0.0438095853
2926.0007849120	0.0437085889
2927.9295922851	0.0436610878
2929.8583996581	0.0437497124
2931.7872070311	0.0436446667
2933.7160144042	0.0436433181
2935.6448217772	0.0436686054
2937.5736291503	0.0436580814
2939.5024365233	0.0436854288
2941.4312438964	0.0435291752
2943.3600512694	0.0435937345
2945.2888586425	0.0435650870
2947.2176660155	0.0435125194
2949.1464733886	0.0434365869
2951.0752807616	0.0432259664
2953.0040881347	0.0432097539
2954.9328955077	0.0430205539
2956.8617028808	0.0429641008
2958.7905102538	0.0428976342
2960.7193176268	0.0427448899
2962.6481249999	0.0426594391
2964.5769323729	0.0425709523
2966.5057397460	0.0425763577
2968.4345471190	0.0424857214
2970.3633544921	0.0426045954
2972.2921618651	0.0426079594
2974.2209692382	0.0425903201
2976.1497766112	0.0427199304
2978.0785839843	0.0426710211
2980.0073913573	0.0426435247
2981.9361987304	0.0426798165
2983.8650061034	0.0427268296
2985.7938134765	0.0425817035
2987.7226208495	0.0424907245
2989.6514282225	0.0423860550
2991.5802355956	0.0424022526
2993.5090429686	0.0423497707
2995.4378503417	0.0421912409
2997.3666577147	0.0423404910
2999.2954650878	0.0421443209
3001.2242724608	0.0421375260
3003.1530798339	0.0420279689
3005.0818872069	0.0418173000
3007.0106945800	0.0419044122
3008.9395019530	0.0416358560
3010.8683093261	0.0416712984
3012.7971166991	0.0416603461
3014.7259240722	0.0415250808
3016.6547314452	0.0414125845
3018.5835388182	0.0413454697
3020.5123461913	0.0414510071
3022.4411535643	0.0412198007
3024.3699609374	0.0411413535
3026.2987683104	0.0410400517
3028.2275756835	0.0409658290
3030.1563830565	0.0409538150
3032.0851904296	0.0408056490
3034.0139978026	0.0408033878
3035.9428051757	0.0406541713
3037.8716125487	0.0405391231
3039.8004199218	0.0405070111
3041.7292272948	0.0404449329
3043.6580346679	0.0403229222
3045.5868420409	0.0402462482
3047.5156494139	0.0401850417
3049.4444567870	0.0400945283
3051.3732641600	0.0401095673
3053.3020715331	0.0399601087
3055.2308789061	0.0398503765
3057.1596862792	0.0397864543
3059.0884936522	0.0397149883
3061.0173010253	0.0397203192
3062.9461083983	0.0396187678
3064.8749157714	0.0394802317
3066.8037231444	0.0394527167
3068.7325305175	0.0394769721
3070.6613378905	0.0394210741
3072.5901452636	0.0393411778
3074.5189526366	0.0392005667
3076.4477600097	0.0391202718
3078.3765673827	0.0390117094
3080.3053747557	0.0389566869
3082.2341821288	0.0388972461
3084.1629895018	0.0386727676
3086.0917968749	0.0387459397
3088.0206042479	0.0387528390
3089.9494116210	0.0386288762
3091.8782189940	0.0385244936
3093.8070263671	0.0383526012
3095.7358337401	0.0382665880
3097.6646411132	0.0381900519
3099.5934484862	0.0381732509
3101.5222558593	0.0380242243
3103.4510632323	0.0379719436
3105.3798706054	0.0380732641
3107.3086779784	0.0379848890
3109.2374853514	0.0377616175
3111.1662927245	0.0376487300
3113.0951000975	0.0377196819
3115.0239074706	0.0375862792
3116.9527148436	0.0373446420
3118.8815222167	0.0372830778
3120.8103295897	0.0373255983
3122.7391369628	0.0371954665
3124.6679443358	0.0370400175
3126.5967517089	0.0369736925
3128.5255590819	0.0368238762
3130.4543664550	0.0368318371
3132.3831738280	0.0368451178
3134.3119812011	0.0366487131
3136.2407885741	0.0364480391
3138.1695959471	0.0364692546
3140.0984033202	0.0363551229
3142.0272106932	0.0362965576
3143.9560180663	0.0363645591
3145.8848254393	0.0360716879
3147.8136328124	0.0361097977
3149.7424401854	0.0361136347
3151.6712475585	0.0358694606
3153.6000549315	0.0358172096
3155.5288623046	0.0356966816
3157.4576696776	0.0355890617
3159.3864770507	0.0353742316
3161.3152844237	0.0353561640
3163.2440917968	0.0354258269
3165.1728991698	0.0353144072
3167.1017065428	0.0351660512
3169.0305139159	0.0350292251
3170.9593212889	0.0350088440
3172.8881286620	0.0348949581
3174.8169360350	0.0347844735
3176.7457434081	0.0346636400
3178.6745507811	0.0346394703
3180.6033581542	0.0345814228
3182.5321655272	0.0344425589
3184.4609729003	0.0344400555
3186.3897802733	0.0342344381
3188.3185876464	0.0342048332
3190.2473950194	0.0341852084
3192.1762023925	0.0339545906
3194.1050097655	0.0339966640
3196.0338171386	0.0339158326
3197.9626245116	0.0337602198
3199.8914318846	0.0337730013
3201.8202392577	0.0336427540
3203.7490466307	0.0336012393
3205.6778540038	0.0335773304
3207.6066613768	0.0333748758
3209.5354687499	0.0333444476
3211.4642761229	0.0333149396
3213.3930834960	0.0332639888
3215.3218908690	0.0332258195
3217.2506982421	0.0331293307
3219.1795056151	0.0330689885
3221.1083129882	0.0329131112
3223.0371203612	0.0328794271
3224.9659277343	0.0329249389
3226.8947351073	0.0328997821
3228.8235424803	0.0327638835
3230.7523498534	0.0326735638
3232.6811572264	0.0327337235
3234.6099645995	0.0325925946
3236.5387719725	0.0324946791
3238.4675793456	0.0324808881
3240.3963867186	0.0324538052
3242.3251940917	0.0324640498
3244.2540014647	0.0323768221
3246.1828088378	0.0323357843
3248.1116162108	0.0323547199
3250.0404235839	0.0323175639
3251.9692309569	0.0321985111
3253.8980383300	0.0320855826
3255.8268457030	0.0320379809
3257.7556530760	0.0320572928
3259.6844604491	0.0320384726
3261.6132678221	0.0320049413
3263.5420751952	0.0320262387
3265.4708825682	0.0319539532
3267.3996899413	0.0318010449
3269.3284973143	0.0317872129
3271.2573046874	0.0318185091
3273.1861120604	0.0316705331
3275.1149194335	0.0316725262
3277.0437268065	0.0316489413
3278.9725341796	0.0316704288
3280.9013415526	0.0317617506
3282.8301489257	0.0315201432
3284.7589562987	0.0315113813
3286.6877636717	0.0315102488
3288.6165710448	0.0314052515
3290.5453784178	0.0313405395
3292.4741857909	0.0312768444
3294.4029931639	0.0313254073
3296.3318005370	0.0312764011
3298.2606079100	0.0313942656
3300.1894152831	0.0312352274
3302.1182226561	0.0310977455
3304.0470300292	0.0312052742
3305.9758374022	0.0310315192
3307.9046447753	0.0310276952
3309.8334521483	0.0309773684
3311.7622595214	0.0308754146
3313.6910668944	0.0308877826
3315.6198742675	0.0309283249
3317.5486816405	0.0309167840
3319.4774890135	0.0308044851
3321.4062963866	0.0307836216
3323.3351037596	0.0307619497
3325.2639111327	0.0307267681
3327.1927185057	0.0306060538
3329.1215258788	0.0306214355
3331.0503332518	0.0306426212
3332.9791406249	0.0305625182
3334.9079479979	0.0304972194
3336.8367553710	0.0303370934
3338.7655627440	0.0303821731
3340.6943701171	0.0303635783
3342.6231774901	0.0303002968
3344.5519848632	0.0302845389
3346.4807922362	0.0301632490
3348.4095996092	0.0301905312
3350.3384069823	0.0301042423
3352.2672143553	0.0299440995
3354.1960217284	0.0299330465
3356.1248291014	0.0298806615
3358.0536364745	0.0298965611
3359.9824438475	0.0299434923
3361.9112512206	0.0298032053
3363.8400585936	0.0296736322
3365.7688659667	0.0296242386
3367.6976733397	0.0295968987
3369.6264807128	0.0295370053
3371.5552880858	0.0295136273
3373.4840954589	0.0295093246
3375.4129028319	0.0294309072
3377.3417102049	0.0294458419
3379.2705175780	0.0293342080
3381.1993249510	0.0293115228
3383.1281323241	0.0292992108
3385.0569396971	0.0291434079
3386.9857470702	0.0291400664
3388.9145544432	0.0290427823
3390.8433618163	0.0289279744
3392.7721691893	0.0288302451
3394.7009765624	0.0289199539
3396.6297839354	0.0288150236
3398.5585913085	0.0286591090
3400.4873986815	0.0287871547
3402.4162060546	0.0286403745
3404.3450134276	0.0286875106
3406.2738208006	0.0286229178
3408.2026281737	0.0285584889
3410.1314355467	0.0286029130
3412.0602429198	0.0284520797
3413.9890502928	0.0284267403
3415.9178576659	0.0283207800
3417.8466650389	0.0284308828
3419.7754724120	0.0282092839
3421.7042797850	0.0279874932
3423.6330871581	0.0281774942
3425.5618945311	0.0281395577
3427.4907019042	0.0281032342
3429.4195092772	0.0279644355
3431.3483166503	0.0279079191
3433.2771240233	0.0277846474
3435.2059313963	0.0277629104
3437.1347387694	0.0278754607
3439.0635461424	0.0277313162
3440.9923535155	0.0275736153
3442.9211608885	0.0275441520
3444.8499682616	0.0276382640
3446.7787756346	0.0273519829
3448.7075830077	0.0273665190
3450.6363903807	0.0276219919
3452.5651977538	0.0274771731
3454.4940051268	0.0274585411
3456.4228124999	0.0273279473
3458.3516198729	0.0272922553
3460.2804272460	0.0273292307
3462.2092346190	0.0272280015
3464.1380419921	0.0272210538
3466.0668493651	0.0271160975
3467.9956567381	0.0270297062
3469.9244641112	0.0271216854
3471.8532714842	0.0271893032
3473.7820788573	0.0270629711
3475.7108862303	0.0269622710
3477.6396936034	0.0271354653
3479.5685009764	0.0270626359
3481.4973083495	0.0266632140
3483.4261157225	0.0267488249
3485.3549230956	0.0268880986
3487.2837304686	0.0268164445
3489.2125378417	0.0268325843
3491.1413452147	0.0269006025
3493.0701525878	0.0268973522
3494.9989599608	0.0266470518
3496.9277673338	0.0267175380
3498.8565747069	0.0267792679
3500.7853820799	0.0267086178
3502.7141894530	0.0263964888
3504.6429968260	0.0263177045
3506.5718041991	0.0268591978
3508.5006115721	0.0265184529
3510.4294189452	0.0264177024
3512.3582263182	0.0267091393
3514.2870336913	0.0266550072
3516.2158410643	0.0266752318
3518.1446484374	0.0265051033
3520.0734558104	0.0266304184
3522.0022631835	0.0263856910
3523.9310705565	0.0261753015
3525.8598779295	0.0263668392
3527.7886853026	0.0262493994
3529.7174926756	0.0262346528
3531.6463000487	0.0265066475
3533.5751074217	0.0267027505
3535.5039147948	0.0263384394
3537.4327221678	0.0263021439
3539.3615295409	0.0265773702
3541.2903369139	0.0264881961
3543.2191442870	0.0263555329
3545.1479516600	0.0259135868
3547.0767590331	0.0256243274
3549.0055664061	0.0262745209
3550.9343737792	0.0264023766
3552.8631811522	0.0259193350
3554.7919885252	0.0263148062
3556.7207958983	0.0263320394
3558.6496032713	0.0263278484
3560.5784106444	0.0262649767
3562.5072180174	0.0259645507
3564.4360253905	0.0261451602
3566.3648327635	0.0247939602
3568.2936401366	0.0242528319
3570.2224475096	0.0258030109
3572.1512548827	0.0262713209
3574.0800622557	0.0260372981
3576.0088696288	0.0261448938
3577.9376770018	0.0260443240
3579.8664843749	0.0260376837
3581.7952917479	0.0260770004
3583.7240991210	0.0260651000
3585.6529064940	0.0256979205
3587.5817138670	0.0240458716
3589.5105212401	0.0245177634
3591.4393286131	0.0261826254
3593.3681359862	0.0255586728
3595.2969433592	0.0253534019
3597.2257507323	0.0256245658
3599.1545581053	0.0257145464
3601.0833654784	0.0256272946
3603.0121728514	0.0257919803
3604.9409802245	0.0261991024
3606.8697875975	0.0253526811
3608.7985949706	0.0241602324
3610.7274023436	0.0246328823
3612.6562097167	0.0250602253
3614.5850170897	0.0245042145
3616.5138244627	0.0258948542
3618.4426318358	0.0243219882
3620.3714392088	0.0235645398
3622.3002465819	0.0260422286
3624.2290539549	0.0253788754
3626.1578613280	0.0263150483
3628.0866687010	0.0232230294
3630.0154760741	0.0213872567
3631.9442834471	0.0257121436
3633.8730908202	0.0252845660
3635.8018981932	0.0255802423
3637.7307055663	0.0259221494
3639.6595129393	0.0255278554
3641.5883203124	0.0258560479
3643.5171276854	0.0255818926
3645.4459350584	0.0257866047
3647.3747424315	0.0235673096
3649.3035498045	0.0219548363
3651.2323571776	0.0223682001
3653.1611645506	0.0256295111
3655.0899719237	0.0252130777
3657.0187792967	0.0231196731
3658.9475866698	0.0259083100
3660.8763940428	0.0253920760
3662.8052014159	0.0257615373
3664.7340087889	0.0256022718
3666.6628161620	0.0253573880
3668.5916235350	0.0248289667
3670.5204309081	0.0209125299
3672.4492382811	0.0244867615
3674.3780456541	0.0236895829
3676.3068530272	0.0202905759
3678.2356604002	0.0244408064
3680.1644677733	0.0249094833
3682.0932751463	0.0248649232
3684.0220825194	0.0254851654
3685.9508898924	0.0251187570
3687.8796972655	0.0230227225
3689.8085046385	0.0214966089
3691.7373120116	0.0239538997
3693.6661193846	0.0244166665
3695.5949267577	0.0249696150
3697.5237341307	0.0250051934
3699.4525415038	0.0247316733
3701.3813488768	0.0243543983
3703.3101562499	0.0234104022
3705.2389636229	0.0252614804
3707.1677709959	0.0243737772
3709.0965783690	0.0239561908
3711.0253857420	0.0227723736
3712.9541931151	0.0213829353
3714.8830004881	0.0244725775
3716.8118078612	0.0242217965
3718.7406152342	0.0243503749
3720.6694226073	0.0238831565
3722.5982299803	0.0232011117
3724.5270373534	0.0239743367
3726.4558447264	0.0224237218
3728.3846520995	0.0240723081
3730.3134594725	0.0237625241
3732.2422668456	0.0221232735
3734.1710742186	0.0217991658
3736.0998815916	0.0209105294
3738.0286889647	0.0218597203
3739.9574963377	0.0232899040
3741.8863037108	0.0243319310
3743.8151110838	0.0195527859
3745.7439184569	0.0186523385
3747.6727258299	0.0232932828
3749.6015332030	0.0204624459
3751.5303405760	0.0191659890
3753.4591479491	0.0213773623
3755.3879553221	0.0227546301
3757.3167626952	0.0236171894
3759.2455700682	0.0221410431
3761.1743774413	0.0227488577
3763.1031848143	0.0238543618
3765.0319921873	0.0224728584
3766.9607995604	0.0228565559
3768.8896069334	0.0226827357
3770.8184143065	0.0218268223
3772.7472216795	0.0233555064
3774.6760290526	0.0232999809
3776.6048364256	0.0233116299
3778.5336437987	0.0228169225
3780.4624511717	0.0220328495
3782.3912585448	0.0232702233
3784.3200659178	0.0227351766
3786.2488732909	0.0226855129
3788.1776806639	0.0230523143
3790.1064880370	0.0228251666
3792.0352954100	0.0227019303
3793.9641027830	0.0230540205
3795.8929101561	0.0219748132
3797.8217175291	0.0217507519
3799.7505249022	0.0226968136
3801.6793322752	0.0187786855
3803.6081396483	0.0213823654
3805.5369470213	0.0226735808
3807.4657543944	0.0192069113
3809.3945617674	0.0226244479
3811.3233691405	0.0221828073
3813.2521765135	0.0228787977
3815.1809838866	0.0209034495
3817.1097912596	0.0188043695
3819.0385986327	0.0227523763
3820.9674060057	0.0191464499
3822.8962133787	0.0200048164
3824.8250207518	0.0226226803
3826.7538281248	0.0208769497
3828.6826354979	0.0221372619
3830.6114428709	0.0214174949
3832.5402502440	0.0207619406
3834.4690576170	0.0212265924
3836.3978649901	0.0202945434
3838.3266723631	0.0185604729
3840.2554797362	0.0200187434
3842.1842871092	0.0212159641
3844.1130944823	0.0204458050
3846.0419018553	0.0217631646
3847.9707092284	0.0213971287
3849.8995166014	0.0214749798
3851.8283239745	0.0196344927
3853.7571313475	0.0154720638
3855.6859387205	0.0176638067
3857.6147460936	0.0215374604
3859.5435534666	0.0210183933
3861.4723608397	0.0208621025
3863.4011682127	0.0205093361
3865.3299755858	0.0192261077
3867.2587829588	0.0210913345
3869.1875903319	0.0195511729
3871.1163977049	0.0184314363
3873.0452050780	0.0210637935
3874.9740124510	0.0197425429
3876.9028198241	0.0209851488
3878.8316271971	0.0212273970
3880.7604345702	0.0188295506
3882.6892419432	0.0209507719
3884.6180493162	0.0199042819
3886.5468566893	0.0185720697
3888.4756640623	0.0210584067
3890.4044714354	0.0201571584
3892.3332788084	0.0190816894
3894.2620861815	0.0205076560
3896.1908935545	0.0207827035
3898.1197009276	0.0200224817
3900.0485083006	0.0191087797
3901.9773156737	0.0189798512
3903.9061230467	0.0187509023
3905.8349304198	0.0190243460
3907.7637377928	0.0205023028
3909.6925451659	0.0204000026
3911.6213525389	0.0203122403
3913.5501599119	0.0204880424
3915.4789672850	0.0199823901
3917.4077746580	0.0196406096
3919.3365820311	0.0194047857
3921.2653894041	0.0199954733
3923.1941967772	0.0199519619
3925.1230041502	0.0195328128
3927.0518115233	0.0197471529
3928.9806188963	0.0199745968
3930.9094262694	0.0196691081
3932.8382336424	0.0191113520
3934.7670410155	0.0197162125
3936.6958483885	0.0199230220
3938.6246557616	0.0197228659
3940.5534631346	0.0198511854
3942.4822705076	0.0193262920
3944.4110778807	0.0193493497
3946.3398852537	0.0196535811
3948.2686926268	0.0193037987
3950.1974999998	0.0192231424
3952.1263073729	0.0194680952
3954.0551147459	0.0194402561
3955.9839221190	0.0193921439
3957.9127294920	0.0194247458
3959.8415368651	0.0193201378
3961.7703442381	0.0192134418
3963.6991516112	0.0193135142
3965.6279589842	0.0193512700
3967.5567663573	0.0191994868
3969.4855737303	0.0191975702
3971.4143811034	0.0191171020
3973.3431884764	0.0190584362
3975.2719958494	0.0190214682
3977.2008032225	0.0189736579
3979.1296105955	0.0191032924
3981.0584179686	0.0190563314
3982.9872253416	0.0189713947
3984.9160327147	0.0188961830
3986.8448400877	0.0188208334
3988.7736474608	0.0187715702
3990.7024548338	0.0187490266
3992.6312622069	0.0187781770
3994.5600695799	0.0187453479
3996.4888769530	0.0187575407
3998.4176843260	0.0186804086
4000.3464916991	0.0186684318
4002.2752990721	0.0186515488
4004.2041064451	0.0185041465
4006.1329138182	0.0184989627
4008.0617211912	0.0184866022
4009.9905285643	0.0184472445
4011.9193359373	0.0184222013
4013.8481433104	0.0183229186
4015.7769506834	0.0182751808
4017.7057580565	0.0183446761
4019.6345654295	0.0182770193
4021.5633728026	0.0182106011
4023.4921801756	0.0182342492
4025.4209875487	0.0181201566
4027.3497949217	0.0181107856
4029.2786022948	0.0181423333
4031.2074096678	0.0180888120
4033.1362170408	0.0180234611
4035.0650244139	0.0179159511
4036.9938317869	0.0179005638
4038.9226391600	0.0179247484
4040.8514465330	0.0179429464
4042.7802539061	0.0179253668
4044.7090612791	0.0177759677
4046.6378686522	0.0177638642
4048.5666760252	0.0177752357
4050.4954833983	0.0176185165
4052.4242907713	0.0176726636
4054.3530981444	0.0177220032
4056.2819055174	0.0176079441
4058.2107128905	0.0175495036
4060.1395202635	0.0175188221
4062.0683276365	0.0175206047
4063.9971350096	0.0174572058
4065.9259423826	0.0174366646
4067.8547497557	0.0174014922
4069.7835571287	0.0173133425
4071.7123645018	0.0173480511
4073.6411718748	0.0172864962
4075.5699792479	0.0172022283
4077.4987866209	0.0172280893
4079.4275939940	0.0171013344
4081.3564013670	0.0170384161
4083.2852087401	0.0171443913
4085.2140161131	0.0170703083
4087.1428234862	0.0170365423
4089.0716308592	0.0170782246
4091.0004382323	0.0170288049
4092.9292456053	0.0169503409
4094.8580529783	0.0169018395
4096.7868603514	0.0168811344
4098.7156677244	0.0168152787
4100.6444750975	0.0168478154
4102.5732824705	0.0167484432
4104.5020898436	0.0167383533
4106.4308972166	0.0168199111
4108.3597045897	0.0166280605
4110.2885119627	0.0165518299
4112.2173193358	0.0165479314
4114.1461267088	0.0165785514
4116.0749340819	0.0165189952
4118.0037414549	0.0165096000
4119.9325488280	0.0165905878
4121.8613562010	0.0165131241
4123.7901635740	0.0164222904
4125.7189709471	0.0162729379
4127.6477783201	0.0163715668
4129.5765856932	0.0163262151
4131.5053930662	0.0161750242
4133.4342004393	0.0162305478
4135.3630078123	0.0161868632
4137.2918151854	0.0162308924
4139.2206225584	0.0161001049
4141.1494299315	0.0160439834
4143.0782373045	0.0161223840
4145.0070446776	0.0160617419
4146.9358520506	0.0160544440
4148.8646594237	0.0160212740
4150.7934667967	0.0159208439
4152.7222741697	0.0158425346
4154.6510815428	0.0159049258
4156.5798889158	0.0158962365
4158.5086962889	0.0157796368
4160.4375036619	0.0156751312
4162.3663110350	0.0157579016
4164.2951184080	0.0157317538
4166.2239257811	0.0156225264
4168.1527331541	0.0156997181
4170.0815405272	0.0155211762
4172.0103479002	0.0155484378
4173.9391552733	0.0155818798
4175.8679626463	0.0154542979
4177.7967700194	0.0154637005
4179.7255773924	0.0154327620
4181.6543847654	0.0154721467
4183.5831921385	0.0154068805
4185.5119995115	0.0154105742
4187.4408068846	0.0153508391
4189.3696142576	0.0153506063
4191.2984216307	0.0152718816
4193.2272290037	0.0151370857
4195.1560363768	0.0152919088
4197.0848437498	0.0151717607
4199.0136511229	0.0151741374
4200.9424584959	0.0151142031
4202.8712658690	0.0150219202
4204.8000732420	0.0150625613
4206.7288806151	0.0149644092
4208.6576879881	0.0149775539
4210.5864953611	0.0148338806
4212.5153027342	0.0148916580
4214.4441101072	0.0149047859
4216.3729174803	0.0148354974
4218.3017248533	0.0148327425
4220.2305322264	0.0147197777
4222.1593395994	0.0147928186
4224.0881469725	0.0147053655
4226.0169543455	0.0146818440
4227.9457617186	0.0146118347
4229.8745690916	0.0145494789
4231.8033764647	0.0146477604
4233.7321838377	0.0144872814
4235.6609912108	0.0144622512
4237.5897985838	0.0145255011
4239.5186059569	0.0144978762
4241.4474133299	0.0144927930
4243.3762207029	0.0144538824
4245.3050280760	0.0143909063
4247.2338354490	0.0143837025
4249.1626428221	0.0143585671
4251.0914501951	0.0143399099
4253.0202575682	0.0143260872
4254.9490649412	0.0142271807
4256.8778723143	0.0141857751
4258.8066796873	0.0141781941
4260.7354870604	0.0141905174
4262.6642944334	0.0140692573
4264.5931018065	0.0140569564
4266.5219091795	0.0140938442
4268.4507165526	0.0139961466
4270.3795239256	0.0140240202
4272.3083312986	0.0139553836
4274.2371386717	0.0139606465
4276.1659460447	0.0139522012
4278.0947534178	0.0139498077
4280.0235607908	0.0139533188
4281.9523681639	0.0138732353
4283.8811755369	0.0138681084
4285.8099829100	0.0137884375
4287.7387902830	0.0138507299
4289.6675976561	0.0137523869
4291.5964050291	0.0137210786
4293.5252124022	0.0137507953
4295.4540197752	0.0135598518
4297.3828271483	0.0135762226
4299.3116345213	0.0135729872
4301.2404418943	0.0136127230
4303.1692492674	0.0135782985
4305.0980566404	0.0135006662
4307.0268640135	0.0134375170
4308.9556713865	0.0133997723
4310.8844787596	0.0134697091
4312.8132861326	0.0134468786
4314.7420935057	0.0134442411
4316.6709008787	0.0132763693
4318.5997082518	0.0132821351
4320.5285156248	0.0132970242
4322.4573229979	0.0132329501
4324.3861303709	0.0132830162
4326.3149377440	0.0131251263
4328.2437451170	0.0131386407
4330.1725524900	0.0131913088
4332.1013598631	0.0131997848
4334.0301672361	0.0130829718
4335.9589746092	0.0130166477
4337.8877819822	0.0131045394
4339.8165893553	0.0129767442
4341.7453967283	0.0129231932
4343.6742041014	0.0129170967
4345.6030114744	0.0130000878
4347.5318188475	0.0129402187
4349.4606262205	0.0128148254
4351.3894335936	0.0127938334
4353.3182409666	0.0127338832
4355.2470483397	0.0127972085
4357.1758557127	0.0127563570
4359.1046630858	0.0127705112
4361.0334704588	0.0127152968
4362.9622778318	0.0126730744
4364.8910852049	0.0126498975
4366.8198925779	0.0125262300
4368.7486999510	0.0125881163
4370.6775073240	0.0124753397
4372.6063146971	0.0124964714
4374.5351220701	0.0125513077
4376.4639294432	0.0124395993
4378.3927368162	0.0124800242
4380.3215441893	0.0124056311
4382.2503515623	0.0123738609
4384.1791589354	0.0123974383
4386.1079663084	0.0123726632
4388.0367736815	0.0123384781
4389.9655810545	0.0122803552
4391.8943884275	0.0123067554
4393.8231958006	0.0122553725
4395.7520031736	0.0122092972
4397.6808105467	0.0122537268
4399.6096179197	0.0120972656
4401.5384252928	0.0120930234
4403.4672326658	0.0122241583
4405.3960400389	0.0120681785
4407.3248474119	0.0120094875
4409.2536547850	0.0119714644
4411.1824621580	0.0119610652
4413.1112695311	0.0120177679
4415.0400769041	0.0119321290
4416.9688842772	0.0119226407
4418.8976916502	0.0118979327
4420.8264990232	0.0118330074
4422.7553063963	0.0117649194
4424.6841137693	0.0117851542
4426.6129211424	0.0117734484
4428.5417285154	0.0117165716
4430.4705358885	0.0117311813
4432.3993432615	0.0116804997
4434.3281506346	0.0117364749
4436.2569580076	0.0116872145
4438.1857653807	0.0116514899
4440.1145727537	0.0116390195
4442.0433801268	0.0115427542
4443.9721874998	0.0116078630
4445.9009948729	0.0115787555
4447.8298022459	0.0115260994
4449.7586096189	0.0114394212
4451.6874169920	0.0114528416
4453.6162243650	0.0114615373
4455.5450317381	0.0113054365
4457.4738391111	0.0113483630
4459.4026464842	0.0113625554
4461.3314538572	0.0113843810
4463.2602612303	0.0113455094
4465.1890686033	0.0112506859
4467.1178759764	0.0112863816
4469.0466833494	0.0112182377
4470.9754907225	0.0111562684
4472.9042980955	0.0110736014
4474.8331054686	0.0110823270
4476.7619128416	0.0111731943
4478.6907202147	0.0110727865
4480.6195275877	0.0110906512
4482.5483349607	0.0111694355
4484.4771423338	0.0110610016
4486.4059497068	0.0110373134
4488.3347570799	0.0110610956
4490.2635644529	0.0110118389
4492.1923718260	0.0109423157
4494.1211791990	0.0108865844
4496.0499865721	0.0109394137
4497.9787939451	0.0108753890
4499.9076013182	0.0108229518
4501.8364086912	0.0108751860
4503.7652160643	0.0107427174
4505.6940234373	0.0107077435
4507.6228308104	0.0107563827
4509.5516381834	0.0107042184
4511.4804455564	0.0106880469
4513.4092529295	0.0106722582
4515.3380603025	0.0106780808
4517.2668676756	0.0106741944
4519.1956750486	0.0105920304
4521.1244824217	0.0105269495
4523.0532897947	0.0105246753
4524.9820971678	0.0104879439
4526.9109045408	0.0104431417
4528.8397119139	0.0104441140
4530.7685192869	0.0104181711
4532.6973266600	0.0104737449
4534.6261340330	0.0105007822
4536.5549414061	0.0104081817
4538.4837487791	0.0104478355
4540.4125561521	0.0104258247
4542.3413635252	0.0103063155
4544.2701708982	0.0102628749
4546.1989782713	0.0102212019
4548.1277856443	0.0102579035
4550.0565930174	0.0102627808
4551.9854003904	0.0102209440
4553.9142077635	0.0101870149
4555.8430151365	0.0101507949
4557.7718225096	0.0101567553
4559.7006298826	0.0101272929
4561.6294372557	0.0100844782
4563.5582446287	0.0100527704
4565.4870520018	0.0100510996
4567.4158593748	0.0099775549
4569.3446667478	0.0099500977
4571.2734741209	0.0099912100
4573.2022814939	0.0099278875
4575.1310888670	0.0099492762
4577.0598962400	0.0099721551
4578.9887036131	0.0099137146
4580.9175109861	0.0098321382
4582.8463183592	0.0098286765
4584.7751257322	0.0098434351
4586.7039331053	0.0097884275
4588.6327404783	0.0097804768
4590.5615478514	0.0097450335
4592.4903552244	0.0097271837
4594.4191625975	0.0096385404
4596.3479699705	0.0096636657
4598.2767773435	0.0097039528
4600.2055847166	0.0095418477
4602.1343920896	0.0095918356
4604.0631994627	0.0096024442
4605.9920068357	0.0095298719
4607.9208142088	0.0095591005
4609.8496215818	0.0095008304
4611.7784289549	0.0094834650
4613.7072363279	0.0095312735
4615.6360437010	0.0094525255
4617.5648510740	0.0094300658
4619.4936584471	0.0094187288
4621.4224658201	0.0092970775
4623.3512731932	0.0094467457
4625.2800805662	0.0094656637
4627.2088879393	0.0093402583
4629.1376953123	0.0093529671
4631.0665026853	0.0093269926
4632.9953100584	0.0093908263
4634.9241174314	0.0092893541
4636.8529248045	0.0091662724
4638.7817321775	0.0091230478
4640.7105395506	0.0091923792
4642.6393469236	0.0092422329
4644.5681542967	0.0090503432
4646.4969616697	0.0090966402
4648.4257690428	0.0091614621
4650.3545764158	0.0091034230
4652.2833837889	0.0090853861
4654.2121911619	0.0090706237
4656.1409985350	0.0090358369
4658.0698059080	0.0090147760
4659.9986132810	0.0089763515
4661.9274206541	0.0089186188
4663.8562280271	0.0089870403
4665.7850354002	0.0088849422
4667.7138427732	0.0088836607
4669.6426501463	0.0089292247
4671.5714575193	0.0088504106
4673.5002648924	0.0088748801
4675.4290722654	0.0088389255
4677.3578796385	0.0088398755
4679.2866870115	0.0087604858
4681.2154943846	0.0088242181
4683.1443017576	0.0088514443
4685.0731091307	0.0087458221
4687.0019165037	0.0087790973
4688.9307238767	0.0087189702
4690.8595312498	0.0087119918
4692.7883386228	0.0085945334
4694.7171459959	0.0085521732
4696.6459533689	0.0086251758
4698.5747607420	0.0086188540
4700.5035681150	0.0086239642
4702.4323754881	0.0086277314
4704.3611828611	0.0086673051
4706.2899902342	0.0085502667
4708.2187976072	0.0084904376
4710.1476049803	0.0084419511
4712.0764123533	0.0084617771
4714.0052197264	0.0084943939
4715.9340270994	0.0084018847
4717.8628344724	0.0083936080
4719.7916418455	0.0083359862
4721.7204492185	0.0083664600
4723.6492565916	0.0083209183
4725.5780639646	0.0083431378
4727.5068713377	0.0083658472
4729.4356787107	0.0083101140
4731.3644860838	0.0083310017
4733.2932934568	0.0082012163
4735.2221008299	0.0082642911
4737.1509082029	0.0082538733
4739.0797155760	0.0082163457
4741.0085229490	0.0082491552
4742.9373303221	0.0081836581
4744.8661376951	0.0081786439
4746.7949450682	0.0081135761
4748.7237524412	0.0081195468
4750.6525598142	0.0080987941
4752.5813671873	0.0081418827
4754.5101745603	0.0080716368
4756.4389819334	0.0080148112
4758.3677893064	0.0080921166
4760.2965966795	0.0079785325
4762.2254040525	0.0079644639
4764.1542114256	0.0079001421
4766.0830187986	0.0078933109
4768.0118261717	0.0079232417
4769.9406335447	0.0079037212
4771.8694409178	0.0079149380
4773.7982482908	0.0078787403
4775.7270556639	0.0078514563
4777.6558630369	0.0077824490
4779.5846704099	0.0078324676
4781.5134777830	0.0077431062
4783.4422851560	0.0077331206
4785.3710925291	0.0077512693
4787.2998999021	0.0076633245
4789.2287072752	0.0077461004
4791.1575146482	0.0076867952
4793.0863220213	0.0077189193
4795.0151293943	0.0077253208
4796.9439367674	0.0076908879
4798.8727441404	0.0076521756
4800.8015515135	0.0075564543
4802.7303588865	0.0076041603
4804.6591662596	0.0075971205
4806.5879736326	0.0075585870
4808.5167810056	0.0075017903
4810.4455883787	0.0075661372
4812.3743957517	0.0075148842
4814.3032031248	0.0075256703
4816.2320104978	0.0075777182
4818.1608178709	0.0074606454
4820.0896252439	0.0074931611
4822.0184326170	0.0073200306
4823.9472399900	0.0074315444
4825.8760473631	0.0074923784
4827.8048547361	0.0072877128
4829.7336621092	0.0074200910
4831.6624694822	0.0073809652
4833.5912768553	0.0073686494
4835.5200842283	0.0073403353
4837.4488916013	0.0073115854
4839.3776989744	0.0073583191
4841.3065063474	0.0072413730
4843.2353137205	0.0071819192
4845.1641210935	0.0071853502
4847.0929284666	0.0072645051
4849.0217358396	0.0072859880
4850.9505432127	0.0072376197
4852.8793505857	0.0071470910
4854.8081579588	0.0071606478
4856.7369653318	0.0072458698
4858.6657727049	0.0072011175
4860.5945800779	0.0071566161
4862.5233874510	0.0071094446
4864.4521948240	0.0070986301
4866.3810021971	0.0070187515
4868.3098095701	0.0069779260
4870.2386169431	0.0069973329
4872.1674243162	0.0069907252
4874.0962316892	0.0069864066
4876.0250390623	0.0069454508
4877.9538464353	0.0069612544
4879.8826538084	0.0068795593
4881.8114611814	0.0068631582
4883.7402685545	0.0068847500
4885.6690759275	0.0068728179
4887.5978833006	0.0069073001
4889.5266906736	0.0068375748
4891.4554980467	0.0068291770
4893.3843054197	0.0068217805
4895.3131127928	0.0068149706
4897.2419201658	0.0067697396
4899.1707275388	0.0066904286
4901.0995349119	0.0067526344
4903.0283422849	0.0067961938
4904.9571496580	0.0067563066
4906.8859570310	0.0067305057
4908.8147644041	0.0067020608
4910.7435717771	0.0066011846
4912.6723791502	0.0066389013
4914.6011865232	0.0066563608
4916.5299938963	0.0066058673
4918.4588012693	0.0066378834
4920.3876086424	0.0066045010
4922.3164160154	0.0066231135
4924.2452233885	0.0065522902
4926.1740307615	0.0065534422
4928.1028381345	0.0066123218
4930.0316455076	0.0065376787
4931.9604528806	0.0065294206
4933.8892602537	0.0064206459
4935.8180676267	0.0064279772
4937.7468749998	0.0064870249
4939.6756823728	0.0064317333
4941.6044897459	0.0064630536
4943.5332971189	0.0064138547
4945.4621044920	0.0063596759
4947.3909118650	0.0063823825
4949.3197192381	0.0063803233
4951.2485266111	0.0063701333
4953.1773339842	0.0063929381
4955.1061413572	0.0063361144
4957.0349487302	0.0063016620
4958.9637561033	0.0063643493
4960.8925634763	0.0062992745
4962.8213708494	0.0063092411
4964.7501782224	0.0063005053
4966.6789855955	0.0062098280
4968.6077929685	0.0062765791
4970.5366003416	0.0062380098
4972.4654077146	0.0061614132
4974.3942150877	0.0061640283
4976.3230224607	0.0061501986
4978.2518298338	0.0061744568
4980.1806372068	0.0061277142
4982.1094445799	0.0060890615
4984.0382519529	0.0061562210
4985.9670593259	0.0061295982
4987.8958666990	0.0060291155
4989.8246740720	0.0060439110
4991.7534814451	0.0060452106
4993.6822888181	0.0060056378
4995.6110961912	0.0060309567
4997.5399035642	0.0059857043
4999.4687109373	0.0059767081
5001.3975183103	0.0059942156
5003.3263256834	0.0059123263
5005.2551330564	0.0059119724
5007.1839404295	0.0059152837
5009.1127478025	0.0058937548
5011.0415551756	0.0059100781
5012.9703625486	0.0058715492
5014.8991699217	0.0058440706
5016.8279772947	0.0058479742
5018.7567846677	0.0058804527
5020.6855920408	0.0058703460
5022.6143994138	0.0058056312
5024.5432067869	0.0058173025
5026.4720141599	0.0057794475
5028.4008215330	0.0057539968
5030.3296289060	0.0057951529
5032.2584362791	0.0057633491
5034.1872436521	0.0057420405
5036.1160510252	0.0056748907
5038.0448583982	0.0056846049
5039.9736657713	0.0057413764
5041.9024731443	0.0056443419
5043.8312805174	0.0056630857
5045.7600878904	0.0056923395
5047.6888952634	0.0056193341
5049.6177026365	0.0056231446
5051.5465100095	0.0056266589
5053.4753173826	0.0055946698
5055.4041247556	0.0055779982
5057.3329321287	0.0055257385
5059.2617395017	0.0054887570
5061.1905468748	0.0055565955
5063.1193542478	0.0055115037
5065.0481616209	0.0054681040
5066.9769689939	0.0054965834
5068.9057763670	0.0054634032
5070.8345837400	0.0054906043
5072.7633911131	0.0054375441
5074.6921984861	0.0054360647
5076.6210058591	0.0054757893
5078.5498132322	0.0053961836
5080.4786206052	0.0053770463
5082.4074279783	0.0054240362
5084.3362353513	0.0054693045
5086.2650427244	0.0054071634
5088.1938500974	0.0053721680
5090.1226574705	0.0053731226
5092.0514648435	0.0053441999
5093.9802722166	0.0053257556
5095.9090795896	0.0052838032
5097.8378869627	0.0052640126
5099.7666943357	0.0052508116
5101.6955017088	0.0052962219
5103.6243090818	0.0052799070
5105.5531164548	0.0052769296
5107.4819238279	0.0052584559
5109.4107312009	0.0051712478
5111.3395385740	0.0052134302
5113.2683459470	0.0052245203
5115.1971533201	0.0052552000
5117.1259606931	0.0051837424
5119.0547680662	0.0051323096
5120.9835754392	0.0051906761
5122.9123828123	0.0050670775
5124.8411901853	0.0050723632
5126.7699975584	0.0051292777
5128.6988049314	0.0050950246
5130.6276123045	0.0051085968
5132.5564196775	0.0050901305
5134.4852270506	0.0050476636
5136.4140344236	0.0050736689
5138.3428417966	0.0050952574
5140.2716491697	0.0050446205
5142.2004565427	0.0050144931
5144.1292639158	0.0049714549
5146.0580712888	0.0049973903
5147.9868786619	0.0049678544
5149.9156860349	0.0049245888
5151.8444934080	0.0049782912
5153.7733007810	0.0049222168
5155.7021081541	0.0049542524
5157.6309155271	0.0049873590
5159.5597229002	0.0048730923
5161.4885302732	0.0048158458
5163.4173376463	0.0048521548
5165.3461450193	0.0048892195
5167.2749523923	0.0048894137
5169.2037597654	0.0048288265
5171.1325671384	0.0047964379
5173.0613745115	0.0048130471
5174.9901818845	0.0047343606
5176.9189892576	0.0047862297
5178.8477966306	0.0047910679
5180.7766040037	0.0047454871
5182.7054113767	0.0047795624
5184.6342187498	0.0046688300
5186.5630261228	0.0046949144
5188.4918334959	0.0046874695
5190.4206408689	0.0046686912
5192.3494482420	0.0047218883
5194.2782556150	0.0046884026
5196.2070629880	0.0047034714
5198.1358703611	0.0046912367
5200.0646777341	0.0046923319
5201.9934851072	0.0046340395
5203.9222924802	0.0046657687
5205.8510998533	0.0045795511
5207.7799072263	0.0044474918
5209.7087145994	0.0046077445
5211.6375219724	0.0045836633
5213.5663293455	0.0045924317
5215.4951367185	0.0045747384
5217.4239440916	0.0045354730
5219.3527514646	0.0046016597
5221.2815588377	0.0045460854
5223.2103662107	0.0046100067
5225.1391735837	0.0044263862
5227.0679809568	0.0043965657
5228.9967883298	0.0046412800
5230.9255957029	0.0045192689
5232.8544030759	0.0044792821
5234.7832104490	0.0044434620
5236.7120178220	0.0044248207
5238.6408251951	0.0044745440
5240.5696325681	0.0044067297
5242.4984399412	0.0044317544
5244.4272473142	0.0042997273
5246.3560546873	0.0043306313
5248.2848620603	0.0044247042
5250.2136694334	0.0042667273
5252.1424768064	0.0043409821
5254.0712841795	0.0043379264
5256.0000915525	0.0043222187
5257.9288989255	0.0043988880
5259.8577062986	0.0043393495
5261.7865136716	0.0043059033
5263.7153210447	0.0042152312
5265.6441284177	0.0042567374
5267.5729357908	0.0042967899
5269.5017431638	0.0042454093
5271.4305505369	0.0043084421
5273.3593579099	0.0043013124
5275.2881652830	0.0042767203
5277.2169726560	0.0043196850
5279.1457800291	0.0042520245
5281.0745874021	0.0041682408
5283.0033947752	0.0042491648
5284.9322021482	0.0041753431
5286.8610095212	0.0041690506
5288.7898168943	0.0042013209
5290.7186242673	0.0040597003
5292.6474316404	0.0041477466
5294.5762390134	0.0041277530
5296.5050463865	0.0041426416
5298.4338537595	0.0041731158
5300.3626611326	0.0040956270
5302.2914685056	0.0041872039
5304.2202758787	0.0041040480
5306.1490832517	0.0040816409
5308.0778906248	0.0040941993
5310.0066979978	0.0040924912
5311.9355053709	0.0041346895
5313.8643127439	0.0040552653
5315.7931201169	0.0040597767
5317.7219274900	0.0040606027
5319.6507348630	0.0040372936
5321.5795422361	0.0040212534
5323.5083496091	0.0040874225
5325.4371569822	0.0040765610
5327.3659643552	0.0039619361
5329.2947717283	0.0039541740
5331.2235791013	0.0039369813
5333.1523864744	0.0039287442
5335.0811938474	0.0039435672
5337.0100012205	0.0039573046
5338.9388085935	0.0038188703
5340.8676159666	0.0038441285
5342.7964233396	0.0039140731
5344.7252307126	0.0037757871
5346.6540380857	0.0038708770
5348.5828454587	0.0038550464
5350.5116528318	0.0038361703
5352.4404602048	0.0038569889
5354.3692675779	0.0037626359
5356.2980749509	0.0038763501
5358.2268823240	0.0039017298
5360.1556896970	0.0038573537
5362.0844970701	0.0038018394
5364.0133044431	0.0037227813
5365.9421118162	0.0037706229
5367.8709191892	0.0038130062
5369.7997265623	0.0037843226
5371.7285339353	0.0037646093
5373.6573413083	0.0037771126
5375.5861486814	0.0037186826
5377.5149560544	0.0037014959
5379.4437634275	0.0037807771
5381.3725708005	0.0037955041
5383.3013781736	0.0037128171
5385.2301855466	0.0036554672
5387.1589929197	0.0036378261
5389.0878002927	0.0036790599
5391.0166076658	0.0037131910
5392.9454150388	0.0036112159
5394.8742224119	0.0036655902
5396.8030297849	0.0037217443
5398.7318371580	0.0035876778
5400.6606445310	0.0036073111
5402.5894519041	0.0036763004
5404.5182592771	0.0036491908
5406.4470666501	0.0036516963
5408.3758740232	0.0035984055
5410.3046813962	0.0035300977
5412.2334887693	0.0035351042
5414.1622961423	0.0034652080
5416.0911035154	0.0035255773
5418.0199108884	0.0036068829
5419.9487182615	0.0035703327
5421.8775256345	0.0036621923
5423.8063330076	0.0035778549
5425.7351403806	0.0034634774
5427.6639477537	0.0034974304
5429.5927551267	0.0034267721
5431.5215624998	0.0034427261
5433.4503698728	0.0035002404
5435.3791772458	0.0034366832
5437.3079846189	0.0034628059
5439.2367919919	0.0034922115
5441.1655993650	0.0033749926
5443.0944067380	0.0033922724
5445.0232141111	0.0034158337
5446.9520214841	0.0033515347
5448.8808288572	0.0033803647
5450.8096362302	0.0033974582
5452.7384436033	0.0033725975
5454.6672509763	0.0033327916
5456.5960583494	0.0033760583
5458.5248657224	0.0033806222
5460.4536730955	0.0033239052
5462.3824804685	0.0033248561
5464.3112878415	0.0033503487
5466.2400952146	0.0033866796
5468.1689025876	0.0033244244
5470.0977099607	0.0033200106
5472.0265173337	0.0033377321
5473.9553247068	0.0032796655
5475.8841320798	0.0032390039
5477.8129394529	0.0032790736
5479.7417468259	0.0033313932
5481.6705541990	0.0032302558
5483.5993615720	0.0032760426
5485.5281689451	0.0033193752
5487.4569763181	0.0032295873
5489.3857836912	0.0032170839
5491.3145910642	0.0031714235
5493.2433984372	0.0032275375
5495.1722058103	0.0032402722
5497.1010131833	0.0032194983
5499.0298205564	0.0032634805
5500.9586279294	0.0031930986
5502.8874353025	0.0032290164
5504.8162426755	0.0032380999
5506.7450500486	0.0031604862
5508.6738574216	0.0032183239
5510.6026647947	0.0031563328
5512.5314721677	0.0031017752
5514.4602795408	0.0031865495
5516.3890869138	0.0031372821
5518.3178942869	0.0031220526
5520.2467016599	0.0031481683
5522.1755090330	0.0030855564
5524.1043164060	0.0030844449
5526.0331237790	0.0030985079
5527.9619311521	0.0030624368
5529.8907385251	0.0030906876
5531.8195458982	0.0031669624
5533.7483532712	0.0031168547
5535.6771606443	0.0030139498
5537.6059680173	0.0029961290
5539.5347753904	0.0030871804
5541.4635827634	0.0030941397
5543.3923901365	0.0029641194
5545.3211975095	0.0030160793
5547.2500048826	0.0030338485
5549.1788122556	0.0029687127
5551.1076196287	0.0030551574
5553.0364270017	0.0030409805
5554.9652343747	0.0029641588
5556.8940417478	0.0029816469
5558.8228491208	0.0029693854
5560.7516564939	0.0029464299
5562.6804638669	0.0029290789
5564.6092712400	0.0029017045
5566.5380786130	0.0029625995
5568.4668859861	0.0029612146
5570.3956933591	0.0029317797
5572.3245007322	0.0029487181
5574.2533081052	0.0028579496
5576.1821154783	0.0028891736
5578.1109228513	0.0029555634
5580.0397302244	0.0029021604
5581.9685375974	0.0028950737
5583.8973449704	0.0028736016
5585.8261523435	0.0028662826
5587.7549597165	0.0028967066
5589.6837670896	0.0028560718
5591.6125744626	0.0028211111
5593.5413818357	0.0028408282
5595.4701892087	0.0027861949
5597.3989965818	0.0027972306
5599.3278039548	0.0028634351
5601.2566113279	0.0028423737
5603.1854187009	0.0028349366
5605.1142260740	0.0028436906
5607.0430334470	0.0028425676
5608.9718408201	0.0027484419
5610.9006481931	0.0027417750
5612.8294555661	0.0027550547
5614.7582629392	0.0027095592
5616.6870703122	0.0027977820
5618.6158776853	0.0027239700
5620.5446850583	0.0026658401
5622.4734924314	0.0027282252
5624.4022998044	0.0027540640
5626.3311071775	0.0027956285
5628.2599145505	0.0027289649
5630.1887219236	0.0027242759
5632.1175292966	0.0027255160
5634.0463366697	0.0026954350
5635.9751440427	0.0027273577
5637.9039514158	0.0027232738
5639.8327587888	0.0027162698
5641.7615661619	0.0026746425
5643.6903735349	0.0026847334
5645.6191809079	0.0026986597
5647.5479882810	0.0026241629
5649.4767956540	0.0026343069
5651.4056030271	0.0026950738
5653.3344104001	0.0026208772
5655.2632177732	0.0025673122
5657.1920251462	0.0026790993
5659.1208325193	0.0026360943
5661.0496398923	0.0025256465
5662.9784472654	0.0026087686
5664.9072546384	0.0026211459
5666.8360620115	0.0025800874
5668.7648693845	0.0025997846
5670.6936767576	0.0025495554
5672.6224841306	0.0025182043
5674.5512915036	0.0025233333
5676.4800988767	0.0025103814
5678.4089062497	0.0025901925
5680.3377136228	0.0026418800
5682.2665209958	0.0025996096
5684.1953283689	0.0026064157
5686.1241357419	0.0025114724
5688.0529431150	0.0024511260
5689.9817504880	0.0025706473
5691.9105578611	0.0025521985
5693.8393652341	0.0025127572
5695.7681726072	0.0024910613
5697.6969799802	0.0024692984
5699.6257873533	0.0025164210
5701.5545947263	0.0024392079
5703.4834020993	0.0024463390
5705.4122094724	0.0025444366
5707.3410168454	0.0025555484
5709.2698242185	0.0024651163
5711.1986315915	0.0024222611
5713.1274389646	0.0024765127
5715.0562463376	0.0023677186
5716.9850537107	0.0023821164
5718.9138610837	0.0024515935
5720.8426684568	0.0024371091
5722.7714758298	0.0024563740
5724.7002832029	0.0023860584
5726.6290905759	0.0024177339
5728.5578979490	0.0023721913
5730.4867053220	0.0023413035
5732.4155126950	0.0024352616
5734.3443200681	0.0023601442
5736.2731274411	0.0023086094
5738.2019348142	0.0023391522
5740.1307421872	0.0023716374
5742.0595495603	0.0023011472
5743.9883569333	0.0022815713
5745.9171643064	0.0024007636
5747.8459716794	0.0023603053
5749.7747790525	0.0023419724
5751.7035864255	0.0023499769
5753.6323937986	0.0022667460
5755.5612011716	0.0023260559
5757.4900085447	0.0023055994
5759.4188159177	0.0022444180
5761.3476232907	0.0023314331
5763.2764306638	0.0022730906
5765.2052380368	0.0022894314
5767.1340454099	0.0023253518
5769.0628527829	0.0022295681
5770.9916601560	0.0022630114
5772.9204675290	0.0022592219
5774.8492749021	0.0022494858
5776.7780822751	0.0022274284
5778.7068896482	0.0022025020
5780.6356970212	0.0022459337
5782.5645043943	0.0022342294
5784.4933117673	0.0021776319
5786.4221191404	0.0021325315
5788.3509265134	0.0021825265
5790.2797338865	0.0021966868
5792.2085412595	0.0022344156
5794.1373486325	0.0022241520
5796.0661560056	0.0021574353
5797.9949633786	0.0021772522
5799.9237707517	0.0021551528
5801.8525781247	0.0021608267
5803.7813854978	0.0021249531
5805.7101928708	0.0021886074
5807.6390002439	0.0021890732
5809.5678076169	0.0021017455
5811.4966149900	0.0021604914
5813.4254223630	0.0021118768
5815.3542297361	0.0021410314
5817.2830371091	0.0021213461
5819.2118444822	0.0020513108
5821.1406518552	0.0020444691
5823.0694592282	0.0020873705
5824.9982666013	0.0021715849
5826.9270739743	0.0020447243
5828.8558813474	0.0020607638
5830.7846887204	0.0020704772
5832.7134960935	0.0020632716
5834.6423034665	0.0021188795
5836.5711108396	0.0020347950
5838.4999182126	0.0020991969
5840.4287255857	0.0020269444
5842.3575329587	0.0019739550
5844.2863403318	0.0020633992
5846.2151477048	0.0020366823
5848.1439550779	0.0020650038
5850.0727624509	0.0020476449
5852.0015698239	0.0020118719
5853.9303771970	0.0020040497
5855.8591845700	0.0020000052
5857.7879919431	0.0019812221
5859.7167993161	0.0019724015
5861.6456066892	0.0019747484
5863.5744140622	0.0019329279
5865.5032214353	0.0019873478
5867.4320288083	0.0019947407
5869.3608361814	0.0019631917
5871.2896435544	0.0019549855
5873.2184509275	0.0018958875
5875.1472583005	0.0019640590
5877.0760656736	0.0019947821
5879.0048730466	0.0019454388
5880.9336804196	0.0019275527
5882.8624877927	0.0018855846
5884.7912951657	0.0019336472
5886.7201025388	0.0018689854
5888.6489099118	0.0018246591
5890.5777172849	0.0019634650
5892.5065246579	0.0018919549
5894.4353320310	0.0018373484
5896.3641394040	0.0018993549
5898.2929467771	0.0018680518
5900.2217541501	0.0018592683
5902.1505615232	0.0018514509
5904.0793688962	0.0018456664
5906.0081762693	0.0018559503
5907.9369836423	0.0018049974
5909.8657910154	0.0017803776
5911.7945983884	0.0018583001
5913.7234057614	0.0018430990
5915.6522131345	0.0018579247
5917.5810205075	0.0019061321
5919.5098278806	0.0017961626
5921.4386352536	0.0017817859
5923.3674426267	0.0018109436
5925.2962499997	0.0018444289
5927.2250573728	0.0018343359
5929.1538647458	0.0017752952
5931.0826721189	0.0017992650
5933.0114794919	0.0018059183
5934.9402868650	0.0018512685
5936.8690942380	0.0017854015
5938.7979016111	0.0017863899
5940.7267089841	0.0018813151
5942.6555163571	0.0018053399
5944.5843237302	0.0018104989
5946.5131311032	0.0017889957
5948.4419384763	0.0017077441
5950.3707458493	0.0017295046
5952.2995532224	0.0017420014
5954.2283605954	0.0017090810
5956.1571679685	0.0017667839
5958.0859753415	0.0018107055
5960.0147827146	0.0017011038
5961.9435900876	0.0016682264
5963.8723974607	0.0016850089
5965.8012048337	0.0017229833
5967.7300122068	0.0017627564
5969.6588195798	0.0016905889
5971.5876269528	0.0016281593
5973.5164343259	0.0016566750
5975.4452416989	0.0016784470
5977.3740490720	0.0016118374
5979.3028564450	0.0016435282
5981.2316638181	0.0017028415
5983.1604711911	0.0016874088
5985.0892785642	0.0017004914
5987.0180859372	0.0016593640
5988.9468933103	0.0016206659
5990.8757006833	0.0016397533
5992.8045080564	0.0016393793
5994.7333154294	0.0016153624
5996.6621228025	0.0016418512
5998.5909301755	0.0016332557
6000.5197375485	0.0015666976
