399.2631262207	0.0004309083
401.1919335938	0.0007924006
403.1207409668	0.0005501058
405.0495483398	0.0006048825
406.9783557129	0.0004324444
408.9071630859	0.0003817509
410.8359704590	0.0007384864
412.7647778320	0.0009391129
414.6935852051	0.0007358689
416.6223925781	0.0003773766
418.5511999512	0.0011135873
420.4800073242	0.0007253919
422.4088146973	0.0004612464
424.3376220703	0.0010558355
426.2664294434	0.0005404938
428.1952368164	0.0007664250
430.1240441895	0.0007365288
432.0528515625	0.0008398420
433.9816589355	0.0009144398
435.9104663086	0.0004206395
437.8392736816	0.0006746792
439.7680810547	0.0006098588
441.6968884277	0.0007643929
443.6256958008	0.0004697662
445.5545031738	0.0007111505
447.4833105469	0.0010663283
449.4121179199	0.0004028015
451.3409252930	0.0007380585
453.2697326660	0.0008084076
455.1985400391	0.0006013110
457.1273474121	-0.0000290172
459.0561547852	0.0000025469
460.9849621582	0.0009194472
462.9137695313	0.0007837268
464.8425769043	0.0006589803
466.7713842773	0.0001191372
468.7001916504	0.0003372777
470.6289990234	0.0007228992
472.5578063965	0.0000110585
474.4866137695	-0.0000454589
476.4154211426	0.0002460665
478.3442285156	0.0002526941
480.2730358887	-0.0000003528
482.2018432617	0.0003138580
484.1306506348	0.0001996751
486.0594580078	0.0000942137
487.9882653809	0.0005295438
489.9170727539	0.0002691299
491.8458801270	0.0000593847
493.7746875000	0.0001536519
495.7034948730	0.0002896544
497.6323022461	0.0002195308
499.5611096191	0.0001855713
501.4899169922	-0.0000142768
503.4187243652	0.0004202441
505.3475317383	0.0004608235
507.2763391113	-0.0000117112
509.2051464844	0.0002492840
511.1339538574	0.0001430643
513.0627612305	0.0000813777
514.9915686035	0.0002488602
516.9203759766	0.0002265175
518.8491833496	-0.0000291838
520.7779907227	0.0003465025
522.7067980957	0.0002684184
524.6356054688	0.0001588793
526.5644128418	0.0006863734
528.4932202148	0.0001514585
530.4220275879	0.0001966077
532.3508349609	0.0003562325
534.2796423340	0.0002540327
536.2084497070	0.0003437714
538.1372570801	0.0000123029
540.0660644531	-0.0001351352
541.9948718262	-0.0001409688
543.9236791992	0.0001872285
545.8524865723	-0.0000210363
547.7812939453	0.0000275796
549.7101013184	0.0003575644
551.6389086914	0.0003495782
553.5677160645	0.0005571366
555.4965234375	0.0000088624
557.4253308105	0.0000293678
559.3541381836	0.0006144684
561.2829455566	0.0005527890
563.2117529297	0.0003077610
565.1405603027	0.0000406784
567.0693676758	0.0002606615
568.9981750488	0.0004781225
570.9269824219	0.0003740586
572.8557897949	0.0001766612
574.7845971680	0.0002819150
576.7134045410	0.0003499009
578.6422119141	0.0001555701
580.5710192871	0.0001311902
582.4998266602	-0.0000562822
584.4286340332	0.0000280029
586.3574414063	0.0000358837
588.2862487793	0.0000476023
590.2150561523	0.0003171515
592.1438635254	0.0003885351
594.0726708984	0.0001912804
596.0014782715	-0.0001908132
597.9302856445	0.0000171470
599.8590930176	0.0000879776
601.7879003906	0.0000783999
603.7167077637	0.0001492254
605.6455151367	0.0002375339
607.5743225098	0.0003804141
609.5031298828	0.0003245332
611.4319372559	0.0001459209
613.3607446289	0.0001136187
615.2895520020	0.0002720576
617.2183593750	0.0000081761
619.1471667480	0.0001616369
621.0759741211	-0.0000546181
623.0047814941	0.0001575397
624.9335888672	0.0005165904
626.8623962402	-0.0001229813
628.7912036133	0.0002459372
630.7200109863	0.0002194113
632.6488183594	0.0002465170
634.5776257324	0.0005189062
636.5064331055	0.0005135632
638.4352404785	0.0006768259
640.3640478516	0.0007389531
642.2928552246	0.0007500809
644.2216625977	0.0004653936
646.1504699707	0.0008050690
648.0792773438	0.0009225109
650.0080847168	0.0009761992
651.9368920898	0.0009759578
653.8656994629	0.0005215916
655.7945068359	0.0014086056
657.7233142090	0.0013976444
659.6521215820	0.0010464625
661.5809289551	0.0014982058
663.5097363281	0.0011834257
665.4385437012	0.0014190180
667.3673510742	0.0012898187
669.2961584473	0.0010360596
671.2249658203	0.0015324985
673.1537731934	0.0014675565
675.0825805664	0.0014334773
677.0113879395	0.0015948307
678.9401953125	0.0017110368
680.8690026855	0.0018513382
682.7978100586	0.0015826970
684.7266174316	0.0016419969
686.6554248047	0.0018846877
688.5842321777	0.0014694448
690.5130395508	0.0017227349
692.4418469238	0.0018949074
694.3706542969	0.0018049488
696.2994616699	0.0023959950
698.2282690430	0.0025410212
700.1570764160	0.0028986768
702.0858837891	0.0026898612
704.0146911621	0.0024324832
705.9434985352	0.0026077963
707.8723059082	0.0017924858
709.8011132813	0.0014962256
711.7299206543	0.0011516779
713.6587280273	0.0007245422
715.5875354004	0.0005119694
717.5163427734	0.0004367896
719.4451501465	0.0005026531
721.3739575195	-0.0000873669
723.3027648926	0.0001989455
725.2315722656	0.0001819147
727.1603796387	0.0000920055
729.0891870117	0.0003804615
731.0179943848	-0.0001509038
732.9468017578	0.0001853270
734.8756091309	0.0002904321
736.8044165039	0.0000149757
738.7332238770	0.0001467897
740.6620312500	0.0001518364
742.5908386230	0.0000419606
744.5196459961	0.0001422496
746.4484533691	0.0004470445
748.3772607422	0.0001931045
750.3060681152	0.0002373752
752.2348754883	-0.0000011100
754.1636828613	-0.0000111859
756.0924902344	0.0002574321
758.0212976074	-0.0001593692
759.9501049805	0.0001036922
761.8789123535	0.0004281639
763.8077197266	0.0004909820
765.7365270996	0.0000809848
767.6653344727	0.0000401195
769.5941418457	0.0002579745
771.5229492188	0.0000425187
773.4517565918	0.0002760639
775.3805639648	0.0001177628
777.3093713379	0.0004069396
779.2381787109	0.0004957024
781.1669860840	0.0002124115
783.0957934570	0.0003938327
785.0246008301	0.0001746481
786.9534082031	0.0003327979
788.8822155762	0.0003294493
790.8110229492	0.0001981195
792.7398303223	0.0002851210
794.6686376953	0.0002902796
796.5974450684	0.0003487876
798.5262524414	0.0003343105
800.4550598145	0.0003542406
802.3838671875	0.0002786673
804.3126745605	0.0003702836
806.2414819336	0.0003580836
808.1702893066	0.0004060616
810.0990966797	0.0003991465
812.0279040527	0.0003199060
813.9567114258	0.0004087820
815.8855187988	0.0003502055
817.8143261719	0.0006267771
819.7431335449	0.0002799041
821.6719409180	0.0000413801
823.6007482910	0.0005080343
825.5295556641	0.0001468697
827.4583630371	0.0002096120
829.3871704102	0.0006609956
831.3159777832	0.0004322669
833.2447851563	0.0005976948
835.1735925293	0.0008526742
837.1023999023	0.0006770325
839.0312072754	0.0007969128
840.9600146484	0.0007420800
842.8888220215	0.0005249123
844.8176293945	0.0007448631
846.7464367676	0.0006943116
848.6752441406	0.0004262859
850.6040515137	0.0004605114
852.5328588867	0.0004549953
854.4616662598	0.0004301405
856.3904736328	0.0005663955
858.3192810059	0.0004863505
860.2480883789	0.0002893178
862.1768957520	0.0003741203
864.1057031250	0.0004695103
866.0345104980	0.0003426775
867.9633178711	0.0002788223
869.8921252441	0.0002393011
871.8209326172	0.0002633171
873.7497399902	0.0003936326
875.6785473633	0.0003724408
877.6073547363	0.0006062838
879.5361621094	0.0004670236
881.4649694824	0.0001198770
883.3937768555	0.0004234706
885.3225842285	0.0003728436
887.2513916016	0.0003895969
889.1801989746	0.0004543222
891.1090063477	0.0001091202
893.0378137207	0.0001978261
894.9666210938	0.0002184716
896.8954284668	0.0004111459
898.8242358398	0.0004503344
900.7530432129	0.0001868072
902.6818505859	0.0005455011
904.6106579590	0.0004767260
906.5394653320	0.0002540497
908.4682727051	0.0002983504
910.3970800781	0.0004731736
912.3258874512	0.0006369547
914.2546948242	0.0003799637
916.1835021973	0.0005942891
918.1123095703	0.0004209880
920.0411169434	0.0004614094
921.9699243164	0.0006885302
923.8987316895	0.0002699127
925.8275390625	0.0008231743
927.7563464355	0.0008143812
929.6851538086	0.0006722804
931.6139611816	0.0008105048
933.5427685547	0.0003460899
935.4715759277	0.0007387631
937.4003833008	0.0009952339
939.3291906738	0.0008862102
941.2579980469	0.0007968886
943.1868054199	0.0009151226
945.1156127930	0.0011393179
947.0444201660	0.0009251471
948.9732275391	0.0009125994
950.9020349121	0.0008097967
952.8308422852	0.0009857400
954.7596496582	0.0009362848
956.6884570313	0.0007283536
958.6172644043	0.0009171972
960.5460717773	0.0008442236
962.4748791504	0.0011131568
964.4036865234	0.0010665049
966.3324938965	0.0009792505
968.2613012695	0.0010996504
970.1901086426	0.0010043455
972.1189160156	0.0011435091
974.0477233887	0.0009931946
975.9765307617	0.0012525530
977.9053381348	0.0016234093
979.8341455078	0.0014263279
981.7629528809	0.0015530358
983.6917602539	0.0019299884
985.6205676270	0.0020528431
987.5493750000	0.0021019571
989.4781823730	0.0022243429
991.4069897461	0.0023444647
993.3357971191	0.0027238196
995.2646044922	0.0030207662
997.1934118652	0.0032847975
999.1222192383	0.0035359934
1001.0510266113	0.0037719107
1002.9798339844	0.0042379610
1004.9086413574	0.0044201305
1006.8374487305	0.0047201356
1008.7662561035	0.0050083371
1010.6950634766	0.0051515922
1012.6238708496	0.0055432697
1014.5526782227	0.0058592046
1016.4814855957	0.0060894545
1018.4102929688	0.0063666012
1020.3391003418	0.0065878937
1022.2679077148	0.0067478120
1024.1967150879	0.0073512830
1026.1255224609	0.0077006537
1028.0543298340	0.0076519130
1029.9831372070	0.0078633204
1031.9119445801	0.0079690292
1033.8407519531	0.0081770578
1035.7695593262	0.0083827870
1037.6983666992	0.0085268216
1039.6271740723	0.0085758446
1041.5559814453	0.0085571390
1043.4847888184	0.0083992509
1045.4135961914	0.0081736324
1047.3424035645	0.0082826968
1049.2712109375	0.0080336928
1051.2000183105	0.0079366611
1053.1288256836	0.0079378933
1055.0576330566	0.0076019457
1056.9864404297	0.0076234583
1058.9152478027	0.0074564940
1060.8440551758	0.0070424397
1062.7728625488	0.0066927783
1064.7016699219	0.0063603325
1066.6304772949	0.0062505919
1068.5592846680	0.0060926257
1070.4880920410	0.0057762861
1072.4168994141	0.0057370556
1074.3457067871	0.0054530553
1076.2745141602	0.0051189540
1078.2033215332	0.0050962670
1080.1321289062	0.0045166221
1082.0609362793	0.0044716289
1083.9897436523	0.0045999368
1085.9185510254	0.0039945319
1087.8473583984	0.0038493723
1089.7761657715	0.0038340613
1091.7049731445	0.0036704824
1093.6337805176	0.0034791292
1095.5625878906	0.0032606521
1097.4913952637	0.0031862769
1099.4202026367	0.0032613138
1101.3490100098	0.0031582776
1103.2778173828	0.0029352847
1105.2066247559	0.0031195350
1107.1354321289	0.0029481947
1109.0642395019	0.0026543522
1110.9930468750	0.0028336258
1112.9218542480	0.0027641407
1114.8506616211	0.0025803668
1116.7794689941	0.0027115582
1118.7082763672	0.0029363311
1120.6370837402	0.0031115944
1122.5658911133	0.0030844824
1124.4946984863	0.0028975359
1126.4235058594	0.0029749498
1128.3523132324	0.0030264973
1130.2811206055	0.0029357732
1132.2099279785	0.0029662531
1134.1387353516	0.0031491651
1136.0675427246	0.0033247005
1137.9963500977	0.0035246594
1139.9251574707	0.0038522112
1141.8539648437	0.0039577447
1143.7827722168	0.0041543990
1145.7115795898	0.0042872149
1147.6403869629	0.0045141806
1149.5691943359	0.0047966707
1151.4980017090	0.0048217159
1153.4268090820	0.0054503763
1155.3556164551	0.0058881780
1157.2844238281	0.0060018301
1159.2132312012	0.0061737746
1161.1420385742	0.0061573456
1163.0708459473	0.0063758311
1164.9996533203	0.0066435565
1166.9284606934	0.0070146895
1168.8572680664	0.0072844019
1170.7860754394	0.0074577192
1172.7148828125	0.0077820392
1174.6436901855	0.0080576036
1176.5724975586	0.0082330778
1178.5013049316	0.0085100373
1180.4301123047	0.0088307280
1182.3589196777	0.0090431478
1184.2877270508	0.0095702559
1186.2165344238	0.0100680385
1188.1453417969	0.0105643328
1190.0741491699	0.0109479912
1192.0029565430	0.0113227973
1193.9317639160	0.0120450435
1195.8605712891	0.0123741189
1197.7893786621	0.0130973849
1199.7181860351	0.0138100572
1201.6469934082	0.0141602242
1203.5758007812	0.0151394401
1205.5046081543	0.0155806905
1207.4334155273	0.0157831982
1209.3622229004	0.0165724419
1211.2910302734	0.0169518832
1213.2198376465	0.0173454918
1215.1486450195	0.0179852713
1217.0774523926	0.0181182623
1219.0062597656	0.0184193552
1220.9350671387	0.0187355913
1222.8638745117	0.0188344922
1224.7926818848	0.0191656798
1226.7214892578	0.0192360878
1228.6502966308	0.0194154903
1230.5791040039	0.0195689313
1232.5079113769	0.0194649640
1234.4367187500	0.0195664428
1236.3655261230	0.0195907541
1238.2943334961	0.0195871890
1240.2231408691	0.0195258707
1242.1519482422	0.0193016231
1244.0807556152	0.0194323696
1246.0095629883	0.0195075721
1247.9383703613	0.0190253854
1249.8671777344	0.0190217309
1251.7959851074	0.0189538077
1253.7247924805	0.0185083896
1255.6535998535	0.0185160749
1257.5824072266	0.0182958394
1259.5112145996	0.0180678200
1261.4400219726	0.0177302267
1263.3688293457	0.0174177345
1265.2976367187	0.0173283089
1267.2264440918	0.0168228708
1269.1552514648	0.0166787989
1271.0840588379	0.0166875795
1273.0128662109	0.0163787156
1274.9416735840	0.0160224345
1276.8704809570	0.0156370308
1278.7992883301	0.0151890665
1280.7280957031	0.0148234274
1282.6569030762	0.0148036182
1284.5857104492	0.0146063641
1286.5145178223	0.0141996592
1288.4433251953	0.0140326004
1290.3721325683	0.0138866361
1292.3009399414	0.0136914793
1294.2297473144	0.0138382325
1296.1585546875	0.0137742814
1298.0873620605	0.0134223737
1300.0161694336	0.0135229072
1301.9449768066	0.0135371890
1303.8737841797	0.0135309715
1305.8025915527	0.0139266197
1307.7313989258	0.0141577749
1309.6602062988	0.0141238682
1311.5890136719	0.0144803217
1313.5178210449	0.0149092339
1315.4466284180	0.0151342209
1317.3754357910	0.0154530006
1319.3042431640	0.0157383382
1321.2330505371	0.0163917448
1323.1618579101	0.0168942995
1325.0906652832	0.0173071958
1327.0194726562	0.0177558213
1328.9482800293	0.0180624127
1330.8770874023	0.0187834688
1332.8058947754	0.0190602280
1334.7347021484	0.0193937998
1336.6635095215	0.0196680017
1338.5923168945	0.0195217710
1340.5211242676	0.0199663937
1342.4499316406	0.0203446001
1344.3787390137	0.0205183253
1346.3075463867	0.0206351802
1348.2363537597	0.0207259469
1350.1651611328	0.0205984302
1352.0939685058	0.0202015471
1354.0227758789	0.0201020781
1355.9515832519	0.0200630985
1357.8803906250	0.0198857673
1359.8091979980	0.0195826180
1361.7380053711	0.0190195739
1363.6668127441	0.0188179817
1365.5956201172	0.0193710756
1367.5244274902	0.0191226900
1369.4532348633	0.0187594853
1371.3820422363	0.0189207215
1373.3108496094	0.0183261279
1375.2396569824	0.0182320140
1377.1684643555	0.0186376311
1379.0972717285	0.0187102202
1381.0260791015	0.0185516253
1382.9548864746	0.0187311172
1384.8836938476	0.0187057406
1386.8125012207	0.0177724399
1388.7413085937	0.0182849988
1390.6701159668	0.0196159780
1392.5989233398	0.0190690644
1394.5277307129	0.0181517266
1396.4565380859	0.0188896544
1398.3853454590	0.0188056827
1400.3141528320	0.0187571049
1402.2429602051	0.0197750647
1404.1717675781	0.0188388620
1406.1005749512	0.0190976597
1408.0293823242	0.0196075924
1409.9581896972	0.0190426521
1411.8869970703	0.0192781612
1413.8158044433	0.0187540222
1415.7446118164	0.0191576481
1417.6734191894	0.0176872090
1419.6022265625	0.0162178874
1421.5310339355	0.0176838767
1423.4598413086	0.0171281248
1425.3886486816	0.0168996677
1427.3174560547	0.0170293339
1429.2462634277	0.0158211440
1431.1750708008	0.0154690528
1433.1038781738	0.0153942332
1435.0326855469	0.0139365140
1436.9614929199	0.0124896709
1438.8903002929	0.0136146443
1440.8191076660	0.0137271956
1442.7479150390	0.0131027848
1444.6767224121	0.0134364199
1446.6055297851	0.0125262206
1448.5343371582	0.0126801692
1450.4631445312	0.0130638555
1452.3919519043	0.0133417686
1454.3207592773	0.0136852115
1456.2495666504	0.0120171923
1458.1783740234	0.0129697453
1460.1071813965	0.0158949271
1462.0359887695	0.0165545531
1463.9647961426	0.0168798789
1465.8936035156	0.0174228288
1467.8224108886	0.0196821913
1469.7512182617	0.0209784508
1471.6800256347	0.0192180313
1473.6088330078	0.0205291342
1475.5376403808	0.0230260752
1477.4664477539	0.0246183984
1479.3952551269	0.0264220890
1481.3240625000	0.0269764680
1483.2528698730	0.0286657400
1485.1816772461	0.0294908844
1487.1104846191	0.0291875899
1489.0392919922	0.0292505324
1490.9680993652	0.0298352316
1492.8969067383	0.0333976597
1494.8257141113	0.0328041539
1496.7545214843	0.0306826252
1498.6833288574	0.0339028835
1500.6121362304	0.0347761363
1502.5409436035	0.0366745889
1504.4697509765	0.0350461937
1506.3985583496	0.0279748812
1508.3273657226	0.0326035395
1510.2561730957	0.0365729444
1512.1849804687	0.0357738733
1514.1137878418	0.0380620509
1516.0425952148	0.0352445692
1517.9714025879	0.0365431681
1519.9002099609	0.0353219211
1521.8290173340	0.0319432318
1523.7578247070	0.0370409340
1525.6866320801	0.0365533605
1527.6154394531	0.0366132334
1529.5442468261	0.0393141434
1531.4730541992	0.0382774621
1533.4018615722	0.0358814299
1535.3306689453	0.0374622568
1537.2594763183	0.0391303003
1539.1882836914	0.0304064881
1541.1170910644	0.0317165181
1543.0458984375	0.0363400057
1544.9747058105	0.0354944840
1546.9035131836	0.0399187431
1548.8323205566	0.0377286710
1550.7611279297	0.0389709845
1552.6899353027	0.0385144949
1554.6187426758	0.0359805152
1556.5475500488	0.0378519818
1558.4763574218	0.0291300099
1560.4051647949	0.0310495123
1562.3339721679	0.0403215736
1564.2627795410	0.0384920426
1566.1915869140	0.0392308421
1568.1203942871	0.0389842764
1570.0492016601	0.0356815979
1571.9780090332	0.0396886654
1573.9068164062	0.0397923067
1575.8356237793	0.0332492851
1577.7644311523	0.0368849784
1579.6932385254	0.0402467363
1581.6220458984	0.0386754721
1583.5508532715	0.0398074389
1585.4796606445	0.0391816497
1587.4084680175	0.0394926816
1589.3372753906	0.0393456072
1591.2660827636	0.0391196012
1593.1948901367	0.0391436666
1595.1236975097	0.0389852747
1597.0525048828	0.0393647030
1598.9813122558	0.0390655771
1600.9101196289	0.0393234193
1602.8389270019	0.0386313014
1604.7677343750	0.0392653532
1606.6965417480	0.0386944339
1608.6253491211	0.0384876430
1610.5541564941	0.0385192819
1612.4829638672	0.0386342704
1614.4117712402	0.0391117670
1616.3405786132	0.0334237367
1618.2693859863	0.0358442739
1620.1981933593	0.0401308537
1622.1270007324	0.0364654399
1624.0558081054	0.0369653478
1625.9846154785	0.0380772501
1627.9134228515	0.0380870067
1629.8422302246	0.0378772803
1631.7710375976	0.0396827161
1633.6998449707	0.0371997915
1635.6286523437	0.0322666243
1637.5574597168	0.0365730971
1639.4862670898	0.0390532911
1641.4150744629	0.0381053984
1643.3438818359	0.0390072539
1645.2726892090	0.0359977335
1647.2014965820	0.0327388719
1649.1303039550	0.0387233272
1651.0591113281	0.0367818847
1652.9879187011	0.0266157016
1654.9167260742	0.0337242447
1656.8455334472	0.0396997109
1658.7743408203	0.0382754281
1660.7031481933	0.0392851457
1662.6319555664	0.0363414139
1664.5607629394	0.0379519090
1666.4895703125	0.0399773009
1668.4183776855	0.0360593200
1670.3471850586	0.0355630443
1672.2759924316	0.0390303843
1674.2047998047	0.0365732461
1676.1336071777	0.0355868116
1678.0624145507	0.0392980278
1679.9912219238	0.0381697640
1681.9200292968	0.0381605700
1683.8488366699	0.0321863741
1685.7776440429	0.0321740359
1687.7064514160	0.0410735421
1689.6352587890	0.0366944894
1691.5640661621	0.0396703556
1693.4928735351	0.0399690792
1695.4216809082	0.0315322354
1697.3504882812	0.0368163213
1699.2792956543	0.0334776640
1701.2081030273	0.0312589779
1703.1369104004	0.0391331911
1705.0657177734	0.0366445445
1706.9945251464	0.0369545668
1708.9233325195	0.0391959175
1710.8521398925	0.0379423350
1712.7809472656	0.0385388993
1714.7097546386	0.0361617953
1716.6385620117	0.0331361368
1718.5673693847	0.0329344198
1720.4961767578	0.0375999399
1722.4249841308	0.0384436063
1724.3537915039	0.0361531302
1726.2825988769	0.0386364385
1728.2114062500	0.0362505093
1730.1402136230	0.0365587249
1732.0690209961	0.0356665067
1733.9978283691	0.0291132703
1735.9266357421	0.0342899486
1737.8554431152	0.0368622839
1739.7842504882	0.0338163972
1741.7130578613	0.0361867771
1743.6418652343	0.0366420075
1745.5706726074	0.0367584527
1747.4994799804	0.0370491184
1749.4282873535	0.0358074382
1751.3570947265	0.0346336067
1753.2859020996	0.0375988334
1755.2147094726	0.0388474613
1757.1435168457	0.0361696519
1759.0723242187	0.0388690718
1761.0011315918	0.0370334908
1762.9299389648	0.0361602306
1764.8587463379	0.0400823802
1766.7875537109	0.0368025750
1768.7163610839	0.0370348990
1770.6451684570	0.0370604768
1772.5739758300	0.0340467617
1774.5027832031	0.0370240919
1776.4315905761	0.0387173593
1778.3603979492	0.0380544737
1780.2892053222	0.0378355160
1782.2180126953	0.0379654057
1784.1468200683	0.0378005207
1786.0756274414	0.0373208188
1788.0044348144	0.0387281924
1789.9332421875	0.0380769446
1791.8620495605	0.0354278833
1793.7908569336	0.0365303569
1795.7196643066	0.0383679047
1797.6484716796	0.0379654467
1799.5772790527	0.0375006422
1801.5060864257	0.0370337144
1803.4348937988	0.0381160676
1805.3637011718	0.0386202708
1807.2925085449	0.0381834805
1809.2213159179	0.0384045169
1811.1501232910	0.0376438722
1813.0789306640	0.0383660272
1815.0077380371	0.0383730456
1816.9365454101	0.0380295701
1818.8653527832	0.0382487923
1820.7941601562	0.0382152423
1822.7229675293	0.0384863019
1824.6517749023	0.0367117673
1826.5805822753	0.0378809832
1828.5093896484	0.0377360880
1830.4381970214	0.0361284539
1832.3670043945	0.0383057296
1834.2958117675	0.0380571485
1836.2246191406	0.0381077379
1838.1534265136	0.0378075838
1840.0822338867	0.0381611511
1842.0110412597	0.0381089374
1843.9398486328	0.0348619968
1845.8686560058	0.0367993936
1847.7974633789	0.0381647870
1849.7262707519	0.0374204665
1851.6550781250	0.0382722989
1853.5838854980	0.0377349332
1855.5126928710	0.0379290283
1857.4415002441	0.0376321040
1859.3703076171	0.0375046358
1861.2991149902	0.0376587659
1863.2279223632	0.0372680463
1865.1567297363	0.0376757644
1867.0855371093	0.0365899578
1869.0143444824	0.0354426913
1870.9431518554	0.0365922078
1872.8719592285	0.0374840721
1874.8007666015	0.0371328630
1876.7295739746	0.0372428447
1878.6583813476	0.0371207297
1880.5871887207	0.0368872806
1882.5159960937	0.0369741097
1884.4448034667	0.0367341563
1886.3736108398	0.0370407254
1888.3024182128	0.0364511125
1890.2312255859	0.0359250829
1892.1600329589	0.0366925672
1894.0888403320	0.0363928564
1896.0176477050	0.0363424011
1897.9464550781	0.0366561711
1899.8752624511	0.0364400633
1901.8040698242	0.0365094617
1903.7328771972	0.0362169221
1905.6616845703	0.0361810364
1907.5904919433	0.0360954925
1909.5192993164	0.0359809175
1911.4481066894	0.0361697003
1913.3769140625	0.0361488685
1915.3057214355	0.0362136886
1917.2345288085	0.0350463465
1919.1633361816	0.0351211205
1921.0921435546	0.0360122100
1923.0209509277	0.0351120085
1924.9497583007	0.0357905179
1926.8785656738	0.0360203236
1928.8073730468	0.0354390740
1930.7361804199	0.0358751491
1932.6649877929	0.0355500504
1934.5937951660	0.0357024744
1936.5226025390	0.0357491784
1938.4514099121	0.0357198715
1940.3802172851	0.0355981439
1942.3090246582	0.0348495319
1944.2378320312	0.0352576971
1946.1666394042	0.0355607644
1948.0954467773	0.0353414044
1950.0242541503	0.0353950635
1951.9530615234	0.0353822932
1953.8818688964	0.0353376195
1955.8106762695	0.0351679027
1957.7394836425	0.0352827311
1959.6682910156	0.0353705883
1961.5970983886	0.0351605490
1963.5259057617	0.0351920426
1965.4547131347	0.0350729823
1967.3835205078	0.0347461328
1969.3123278808	0.0349325016
1971.2411352539	0.0350660011
1973.1699426269	0.0349059999
1975.0987499999	0.0349879041
1977.0275573730	0.0349097550
1978.9563647460	0.0349067822
1980.8851721191	0.0348532312
1982.8139794921	0.0346775167
1984.7427868652	0.0348631293
1986.6715942382	0.0345370993
1988.6004016113	0.0343682356
1990.5292089843	0.0344788879
1992.4580163574	0.0341313295
1994.3868237304	0.0344176069
1996.3156311035	0.0344594344
1998.2444384765	0.0341692567
2000.1732458496	0.0342402905
2002.1020532226	0.0340835229
2004.0308605956	0.0340492949
2005.9596679687	0.0339251086
2007.8884753417	0.0339758769
2009.8172827148	0.0338975936
2011.7460900878	0.0337282345
2013.6748974609	0.0338883884
2015.6037048339	0.0335166864
2017.5325122070	0.0334254690
2019.4613195800	0.0334632546
2021.3901269531	0.0333594903
2023.3189343261	0.0333741680
2025.2477416992	0.0331429020
2027.1765490722	0.0331872031
2029.1053564453	0.0330889970
2031.0341638183	0.0330071524
2032.9629711914	0.0331164561
2034.8917785644	0.0329585969
2036.8205859374	0.0329085812
2038.7493933105	0.0328188613
2040.6782006835	0.0325716548
2042.6070080566	0.0325741395
2044.5358154296	0.0326298364
2046.4646228027	0.0324694365
2048.3934301757	0.0324384756
2050.3222375488	0.0323445350
2052.2510449218	0.0322688781
2054.1798522949	0.0322325751
2056.1086596679	0.0320232958
2058.0374670410	0.0319794305
2059.9662744140	0.0319728777
2061.8950817871	0.0319529176
2063.8238891601	0.0317783654
2065.7526965331	0.0317232013
2067.6815039062	0.0318353809
2069.6103112792	0.0317784920
2071.5391186523	0.0316444412
2073.4679260253	0.0314798281
2075.3967333984	0.0315584242
2077.3255407714	0.0314509310
2079.2543481445	0.0313073918
2081.1831555175	0.0312464330
2083.1119628906	0.0311025120
2085.0407702636	0.0311366152
2086.9695776367	0.0310161598
2088.8983850097	0.0310519487
2090.8271923828	0.0310770050
2092.7559997558	0.0309113599
2094.6848071288	0.0307979099
2096.6136145019	0.0307681467
2098.5424218749	0.0307247229
2100.4712292480	0.0305942893
2102.4000366210	0.0306923799
2104.3288439941	0.0304671917
2106.2576513671	0.0305108763
2108.1864587402	0.0307426192
2110.1152661132	0.0303431228
2112.0440734863	0.0303260311
2113.9728808593	0.0302958377
2115.9016882324	0.0302303582
2117.8304956054	0.0303672999
2119.7593029785	0.0301532019
2121.6881103515	0.0301629305
2123.6169177245	0.0302051604
2125.5457250976	0.0300468542
2127.4745324706	0.0299174283
2129.4033398437	0.0298379399
2131.3321472167	0.0298904777
2133.2609545898	0.0297976881
2135.1897619628	0.0298660472
2137.1185693359	0.0298622623
2139.0473767089	0.0295852572
2140.9761840820	0.0297322311
2142.9049914550	0.0297032334
2144.8337988281	0.0296155717
2146.7626062011	0.0297225900
2148.6914135742	0.0295502804
2150.6202209472	0.0295186583
2152.5490283203	0.0294538438
2154.4778356933	0.0294443518
2156.4066430663	0.0293959621
2158.3354504394	0.0291721709
2160.2642578124	0.0291965902
2162.1930651855	0.0292430148
2164.1218725585	0.0292254984
2166.0506799316	0.0291087721
2167.9794873046	0.0292000510
2169.9082946777	0.0292655043
2171.8371020507	0.0290992912
2173.7659094238	0.0290454179
2175.6947167968	0.0289073233
2177.6235241699	0.0289073139
2179.5523315429	0.0289372690
2181.4811389160	0.0289284568
2183.4099462890	0.0289352424
2185.3387536620	0.0288151242
2187.2675610351	0.0287410282
2189.1963684081	0.0286696963
2191.1251757812	0.0286399983
2193.0539831542	0.0286955312
2194.9827905273	0.0287072435
2196.9115979003	0.0285859182
2198.8404052734	0.0286146794
2200.7692126464	0.0286565721
2202.6980200195	0.0285407640
2204.6268273925	0.0284695961
2206.5556347656	0.0283249244
2208.4844421386	0.0283002816
2210.4132495117	0.0283176377
2212.3420568847	0.0282849874
2214.2708642577	0.0282006189
2216.1996716308	0.0281728022
2218.1284790038	0.0282737873
2220.0572863769	0.0280659162
2221.9860937499	0.0279741958
2223.9149011230	0.0281345434
2225.8437084960	0.0279922448
2227.7725158691	0.0278683826
2229.7013232421	0.0280140750
2231.6301306152	0.0279340409
2233.5589379882	0.0277810544
2235.4877453613	0.0277194791
2237.4165527343	0.0275906920
2239.3453601074	0.0277184248
2241.2741674804	0.0277256034
2243.2029748534	0.0276370123
2245.1317822265	0.0275619682
2247.0605895995	0.0273614936
2248.9893969726	0.0274496451
2250.9182043456	0.0274617933
2252.8470117187	0.0274365284
2254.7758190917	0.0274777673
2256.7046264648	0.0272899717
2258.6334338378	0.0272238888
2260.5622412109	0.0272661168
2262.4910485839	0.0271359608
2264.4198559570	0.0271277577
2266.3486633300	0.0271790829
2268.2774707031	0.0270120502
2270.2062780761	0.0270176455
2272.1350854491	0.0269879773
2274.0638928222	0.0269180331
2275.9927001952	0.0269237366
2277.9215075683	0.0268336292
2279.8503149413	0.0269734040
2281.7791223144	0.0268868282
2283.7079296874	0.0267680958
2285.6367370605	0.0268586054
2287.5655444335	0.0266165696
2289.4943518066	0.0265053585
2291.4231591796	0.0265418012
2293.3519665527	0.0263823774
2295.2807739257	0.0263280850
2297.2095812988	0.0262951776
2299.1383886718	0.0261644833
2301.0671960449	0.0261311159
2302.9960034179	0.0258997306
2304.9248107909	0.0257613119
2306.8536181640	0.0258190520
2308.7824255370	0.0254775509
2310.7112329101	0.0253179595
2312.6400402831	0.0251503922
2314.5688476562	0.0247781388
2316.4976550292	0.0247463994
2318.4264624023	0.0245042555
2320.3552697753	0.0241524242
2322.2840771484	0.0238401759
2324.2128845214	0.0234507695
2326.1416918945	0.0232456364
2328.0704992675	0.0230048262
2329.9993066406	0.0227605402
2331.9281140136	0.0225576833
2333.8569213866	0.0224540755
2335.7857287597	0.0224360507
2337.7145361327	0.0223901663
2339.6433435058	0.0224442668
2341.5721508788	0.0224747937
2343.5009582519	0.0226929262
2345.4297656249	0.0230985023
2347.3585729980	0.0239314102
2349.2873803710	0.0246886499
2351.2161877441	0.0239341147
2353.1449951171	0.0227863677
2355.0738024902	0.0220345538
2357.0026098632	0.0214032568
2358.9314172363	0.0210945792
2360.8602246093	0.0207745545
2362.7890319823	0.0208093524
2364.7178393554	0.0209320374
2366.6466467284	0.0210365355
2368.5754541015	0.0214536879
2370.5042614745	0.0219283290
2372.4330688476	0.0225657001
2374.3618762206	0.0230827704
2376.2906835937	0.0236006565
2378.2194909667	0.0241140164
2380.1482983398	0.0243836660
2382.0771057128	0.0244929977
2384.0059130859	0.0245159250
2385.9347204589	0.0247339699
2387.8635278320	0.0247986540
2389.7923352050	0.0246857889
2391.7211425780	0.0246616919
2393.6499499511	0.0246321838
2395.5787573241	0.0246744566
2397.5075646972	0.0247513689
2399.4363720702	0.0246565938
2401.3651794433	0.0244863797
2403.2939868163	0.0244941842
2405.2227941894	0.0244832821
2407.1516015624	0.0244540088
2409.0804089355	0.0244834367
2411.0092163085	0.0244446546
2412.9380236816	0.0243741814
2414.8668310546	0.0243234243
2416.7956384277	0.0242071860
2418.7244458007	0.0241558142
2420.6532531738	0.0241866671
2422.5820605468	0.0241030119
2424.5108679198	0.0242266282
2426.4396752929	0.0241246149
2428.3684826659	0.0240340531
2430.2972900390	0.0242394246
2432.2260974120	0.0239766389
2434.1549047851	0.0239611678
2436.0837121581	0.0239606556
2438.0125195312	0.0238205902
2439.9413269042	0.0239671096
2441.8701342773	0.0238483138
2443.7989416503	0.0237989314
2445.7277490234	0.0237303860
2447.6565563964	0.0236091670
2449.5853637695	0.0236222409
2451.5141711425	0.0236562490
2453.4429785155	0.0236611608
2455.3717858886	0.0235466957
2457.3005932616	0.0235785730
2459.2294006347	0.0235302001
2461.1582080077	0.0234405585
2463.0870153808	0.0234454013
2465.0158227538	0.0234126765
2466.9446301269	0.0233562253
2468.8734374999	0.0233480893
2470.8022448730	0.0234386958
2472.7310522460	0.0233066119
2474.6598596191	0.0232843775
2476.5886669921	0.0233605057
2478.5174743652	0.0232576597
2480.4462817382	0.0232197046
2482.3750891112	0.0230277181
2484.3038964843	0.0229826123
2486.2327038573	0.0230544209
2488.1615112304	0.0229257103
2490.0903186034	0.0230612904
2492.0191259765	0.0230435338
2493.9479333495	0.0227593035
2495.8767407226	0.0228444748
2497.8055480956	0.0228432491
2499.7343554687	0.0227081366
2501.6631628417	0.0228245426
2503.5919702148	0.0228078812
2505.5207775878	0.0226496477
2507.4495849609	0.0226748139
2509.3783923339	0.0227012634
2511.3071997069	0.0226209313
2513.2360070800	0.0226571597
2515.1648144530	0.0225991867
2517.0936218261	0.0225454494
2519.0224291991	0.0226008482
2520.9512365722	0.0224392489
2522.8800439452	0.0223717112
2524.8088513183	0.0223431494
2526.7376586913	0.0223128572
2528.6664660644	0.0224492699
2530.5952734374	0.0223412495
2532.5240808105	0.0221997201
2534.4528881835	0.0223198384
2536.3816955566	0.0222964324
2538.3105029296	0.0222422518
2540.2393103027	0.0223100074
2542.1681176757	0.0221113376
2544.0969250487	0.0220524110
2546.0257324218	0.0220837034
2547.9545397948	0.0219245814
2549.8833471679	0.0220139008
2551.8121545409	0.0219558850
2553.7409619140	0.0218416750
2555.6697692870	0.0218975954
2557.5985766601	0.0218166374
2559.5273840331	0.0217676163
2561.4561914062	0.0218319651
2563.3849987792	0.0219063833
2565.3138061523	0.0217888597
2567.2426135253	0.0217444841
2569.1714208984	0.0217735823
2571.1002282714	0.0215843208
2573.0290356444	0.0215909369
2574.9578430175	0.0217252895
2576.8866503905	0.0215643756
2578.8154577636	0.0214754287
2580.7442651366	0.0215743594
2582.6730725097	0.0214397199
2584.6018798827	0.0213396177
2586.5306872558	0.0212800205
2588.4594946288	0.0212658904
2590.3883020019	0.0213857852
2592.3171093749	0.0212324224
2594.2459167480	0.0212080833
2596.1747241210	0.0212560613
2598.1035314941	0.0211455598
2600.0323388671	0.0211201031
2601.9611462401	0.0211328641
2603.8899536132	0.0212135948
2605.8187609862	0.0211049877
2607.7475683593	0.0209735613
2609.6763757323	0.0208981484
2611.6051831054	0.0208421312
2613.5339904784	0.0209710859
2615.4627978515	0.0209745020
2617.3916052245	0.0209171660
2619.3204125976	0.0207925215
2621.2492199706	0.0207449719
2623.1780273437	0.0208718665
2625.1068347167	0.0207672641
2627.0356420898	0.0206667893
2628.9644494628	0.0206675343
2630.8932568358	0.0206644535
2632.8220642089	0.0207456145
2634.7508715819	0.0207185838
2636.6796789550	0.0206417851
2638.6084863280	0.0206192192
2640.5372937011	0.0205005463
2642.4661010741	0.0204536151
2644.3949084472	0.0204776712
2646.3237158202	0.0203934107
2648.2525231933	0.0203887261
2650.1813305663	0.0203712825
2652.1101379394	0.0203235671
2654.0389453124	0.0202978291
2655.9677526855	0.0202358514
2657.8965600585	0.0203070045
2659.8253674315	0.0202247966
2661.7541748046	0.0201142244
2663.6829821776	0.0201919712
2665.6117895507	0.0200638361
2667.5405969237	0.0200132448
2669.4694042968	0.0201171637
2671.3982116698	0.0200476255
2673.3270190429	0.0200515054
2675.2558264159	0.0200688951
2677.1846337890	0.0198528841
2679.1134411620	0.0198682081
2681.0422485351	0.0200102925
2682.9710559081	0.0197956972
2684.8998632812	0.0197458863
2686.8286706542	0.0198549051
2688.7574780273	0.0197798423
2690.6862854003	0.0197364371
2692.6150927733	0.0196982510
2694.5439001464	0.0196355134
2696.4727075194	0.0196668357
2698.4015148925	0.0197260939
2700.3303222655	0.0196207389
2702.2591296386	0.0195990205
2704.1879370116	0.0195627213
2706.1167443847	0.0194295868
2708.0455517577	0.0194815155
2709.9743591308	0.0194056742
2711.9031665038	0.0194175504
2713.8319738769	0.0193454586
2715.7607812499	0.0191776752
2717.6895886230	0.0194064546
2719.6183959960	0.0193811134
2721.5472033690	0.0192471035
2723.4760107421	0.0192299485
2725.4048181151	0.0191354230
2727.3336254882	0.0191818886
2729.2624328612	0.0191432051
2731.1912402343	0.0190093331
2733.1200476073	0.0189176686
2735.0488549804	0.0189638436
2736.9776623534	0.0190252066
2738.9064697265	0.0188958868
2740.8352770995	0.0188087299
2742.7640844726	0.0188990198
2744.6928918456	0.0189689659
2746.6216992187	0.0187906697
2748.5505065917	0.0186616741
2750.4793139647	0.0187959112
2752.4081213378	0.0188170560
2754.3369287108	0.0186544955
2756.2657360839	0.0186404288
2758.1945434569	0.0186914951
2760.1233508300	0.0185647905
2762.0521582030	0.0185310878
2763.9809655761	0.0186083764
2765.9097729491	0.0185163580
2767.8385803222	0.0184104592
2769.7673876952	0.0183965266
2771.6961950683	0.0183701105
2773.6250024413	0.0183894020
2775.5538098144	0.0184012838
2777.4826171874	0.0182275437
2779.4114245604	0.0181226991
2781.3402319335	0.0182616748
2783.2690393065	0.0182066336
2785.1978466796	0.0181611925
2787.1266540526	0.0182874072
2789.0554614257	0.0180713348
2790.9842687987	0.0179807767
2792.9130761718	0.0180568732
2794.8418835448	0.0179470815
2796.7706909179	0.0179707911
2798.6994982909	0.0179784354
2800.6283056640	0.0179511048
2802.5571130370	0.0178605858
2804.4859204101	0.0178186968
2806.4147277831	0.0178777650
2808.3435351562	0.0178208537
2810.2723425292	0.0177997071
2812.2011499022	0.0177174509
2814.1299572753	0.0176672544
2816.0587646483	0.0175962485
2817.9875720214	0.0175721180
2819.9163793944	0.0176701285
2821.8451867675	0.0175819732
2823.7739941405	0.0175074749
2825.7028015136	0.0174588189
2827.6316088866	0.0174681563
2829.5604162597	0.0174043886
2831.4892236327	0.0172805153
2833.4180310058	0.0173500627
2835.3468383788	0.0173356719
2837.2756457519	0.0172353536
2839.2044531249	0.0171360523
2841.1332604979	0.0171509422
2843.0620678710	0.0171431154
2844.9908752440	0.0170278549
2846.9196826171	0.0169267207
2848.8484899901	0.0167515315
2850.7772973632	0.0167217124
2852.7061047362	0.0167197436
2854.6349121093	0.0166482069
2856.5637194823	0.0166921541
2858.4925268554	0.0167788975
2860.4213342284	0.0167200323
2862.3501416015	0.0165714547
2864.2789489745	0.0165858380
2866.2077563476	0.0165915899
2868.1365637206	0.0165817123
2870.0653710936	0.0165367369
2871.9941784667	0.0163727067
2873.9229858397	0.0164375789
2875.8517932128	0.0164911076
2877.7806005858	0.0163588133
2879.7094079589	0.0163760465
2881.6382153319	0.0163403656
2883.5670227050	0.0163075142
2885.4958300780	0.0163010545
2887.4246374511	0.0162008516
2889.3534448241	0.0162746385
2891.2822521972	0.0161379334
2893.2110595702	0.0160712209
2895.1398669433	0.0162494369
2897.0686743163	0.0160702467
2898.9974816893	0.0159873907
2900.9262890624	0.0159511045
2902.8550964354	0.0158271715
2904.7839038085	0.0158603210
2906.7127111815	0.0157970972
2908.6415185546	0.0157557949
2910.5703259276	0.0158094503
2912.4991333007	0.0156868510
2914.4279406737	0.0154292230
2916.3567480468	0.0153877586
2918.2855554198	0.0154314544
2920.2143627929	0.0154077047
2922.1431701659	0.0154035846
2924.0719775390	0.0153601486
2926.0007849120	0.0153150856
2927.9295922851	0.0153555740
2929.8583996581	0.0154377557
2931.7872070311	0.0153162777
2933.7160144042	0.0152762253
2935.6448217772	0.0153753124
2937.5736291503	0.0152915549
2939.5024365233	0.0152676636
2941.4312438964	0.0153213143
2943.3600512694	0.0152234929
2945.2888586425	0.0151398582
2947.2176660155	0.0152976643
2949.1464733886	0.0152793415
2951.0752807616	0.0151217859
2953.0040881347	0.0151400901
2954.9328955077	0.0151318684
2956.8617028808	0.0150986109
2958.7905102538	0.0150133362
2960.7193176268	0.0149459718
2962.6481249999	0.0149133485
2964.5769323729	0.0149799688
2966.5057397460	0.0149214212
2968.4345471190	0.0148188770
2970.3633544921	0.0149647351
2972.2921618651	0.0148608014
2974.2209692382	0.0148409605
2976.1497766112	0.0149318483
2978.0785839843	0.0148982527
2980.0073913573	0.0149089154
2981.9361987304	0.0148700811
2983.8650061034	0.0149998013
2985.7938134765	0.0149719892
2987.7226208495	0.0147777647
2989.6514282225	0.0147698214
2991.5802355956	0.0148616098
2993.5090429686	0.0148162581
2995.4378503417	0.0147383260
2997.3666577147	0.0147869177
2999.2954650878	0.0146576464
3001.2242724608	0.0146675501
3003.1530798339	0.0147299450
3005.0818872069	0.0146609852
3007.0106945800	0.0146445204
3008.9395019530	0.0144976275
3010.8683093261	0.0144310556
3012.7971166991	0.0145234121
3014.7259240722	0.0145887416
3016.6547314452	0.0145607218
3018.5835388182	0.0145138297
3020.5123461913	0.0143568367
3022.4411535643	0.0142890736
3024.3699609374	0.0144414594
3026.2987683104	0.0144244814
3028.2275756835	0.0143164527
3030.1563830565	0.0142598916
3032.0851904296	0.0142675517
3034.0139978026	0.0141809266
3035.9428051757	0.0141783142
3037.8716125487	0.0142007545
3039.8004199218	0.0140896868
3041.7292272948	0.0141367801
3043.6580346679	0.0140568707
3045.5868420409	0.0140484385
3047.5156494139	0.0139759574
3049.4444567870	0.0138890371
3051.3732641600	0.0140018892
3053.3020715331	0.0138692800
3055.2308789061	0.0139013641
3057.1596862792	0.0138464682
3059.0884936522	0.0138003528
3061.0173010253	0.0139211500
3062.9461083983	0.0137412213
3064.8749157714	0.0137359388
3066.8037231444	0.0137820868
3068.7325305175	0.0137359612
3070.6613378905	0.0136162238
3072.5901452636	0.0134774148
3074.5189526366	0.0136410575
3076.4477600097	0.0136460718
3078.3765673827	0.0134368874
3080.3053747557	0.0134793371
3082.2341821288	0.0135529861
3084.1629895018	0.0134582296
3086.0917968749	0.0134843979
3088.0206042479	0.0135281989
3089.9494116210	0.0134096164
3091.8782189940	0.0133186895
3093.8070263671	0.0132970996
3095.7358337401	0.0132480990
3097.6646411132	0.0131983310
3099.5934484862	0.0131539367
3101.5222558593	0.0131644513
3103.4510632323	0.0132304095
3105.3798706054	0.0131448153
3107.3086779784	0.0131636271
3109.2374853514	0.0131199528
3111.1662927245	0.0129368491
3113.0951000975	0.0130134830
3115.0239074706	0.0129555613
3116.9527148436	0.0129081793
3118.8815222167	0.0129643064
3120.8103295897	0.0129486360
3122.7391369628	0.0128932837
3124.6679443358	0.0128344959
3126.5967517089	0.0129104555
3128.5255590819	0.0127032874
3130.4543664550	0.0126394276
3132.3831738280	0.0127171101
3134.3119812011	0.0125929024
3136.2407885741	0.0126466490
3138.1695959471	0.0125680445
3140.0984033202	0.0125789130
3142.0272106932	0.0125523675
3143.9560180663	0.0124201905
3145.8848254393	0.0125081586
3147.8136328124	0.0124465767
3149.7424401854	0.0124025596
3151.6712475585	0.0123401675
3153.6000549315	0.0122800209
3155.5288623046	0.0122591071
3157.4576696776	0.0122294268
3159.3864770507	0.0123456605
3161.3152844237	0.0122173466
3163.2440917968	0.0120967571
3165.1728991698	0.0121644773
3167.1017065428	0.0120958406
3169.0305139159	0.0120530045
3170.9593212889	0.0120386407
3172.8881286620	0.0120379301
3174.8169360350	0.0120615736
3176.7457434081	0.0120067131
3178.6745507811	0.0119938049
3180.6033581542	0.0119481962
3182.5321655272	0.0118492302
3184.4609729003	0.0118276458
3186.3897802733	0.0117564388
3188.3185876464	0.0117779914
3190.2473950194	0.0117535247
3192.1762023925	0.0116168093
3194.1050097655	0.0116404779
3196.0338171386	0.0116462288
3197.9626245116	0.0117076226
3199.8914318846	0.0116446726
3201.8202392577	0.0115554146
3203.7490466307	0.0116504682
3205.6778540038	0.0115484260
3207.6066613768	0.0114810839
3209.5354687499	0.0114698168
3211.4642761229	0.0114234220
3213.3930834960	0.0113773020
3215.3218908690	0.0113658980
3217.2506982421	0.0113936160
3219.1795056151	0.0113277668
3221.1083129882	0.0113485884
3223.0371203612	0.0112737017
3224.9659277343	0.0112327132
3226.8947351073	0.0112359002
3228.8235424803	0.0111633129
3230.7523498534	0.0112163387
3232.6811572264	0.0111998040
3234.6099645995	0.0111477505
3236.5387719725	0.0110592339
3238.4675793456	0.0111514004
3240.3963867186	0.0111660808
3242.3251940917	0.0110151619
3244.2540014647	0.0111018661
3246.1828088378	0.0110623557
3248.1116162108	0.0110598980
3250.0404235839	0.0109980647
3251.9692309569	0.0109509099
3253.8980383300	0.0109998537
3255.8268457030	0.0108801108
3257.7556530760	0.0109289959
3259.6844604491	0.0109172855
3261.6132678221	0.0108924247
3263.5420751952	0.0108078308
3265.4708825682	0.0107618570
3267.3996899413	0.0109112924
3269.3284973143	0.0108800670
3271.2573046874	0.0108577553
3273.1861120604	0.0107429512
3275.1149194335	0.0107223615
3277.0437268065	0.0107801054
3278.9725341796	0.0106963199
3280.9013415526	0.0106745791
3282.8301489257	0.0106673380
3284.7589562987	0.0107200723
3286.6877636717	0.0106419036
3288.6165710448	0.0106410719
3290.5453784178	0.0106724799
3292.4741857909	0.0105927028
3294.4029931639	0.0106529295
3296.3318005370	0.0105948951
3298.2606079100	0.0105857942
3300.1894152831	0.0106072323
3302.1182226561	0.0105286939
3304.0470300292	0.0105961841
3305.9758374022	0.0106040351
3307.9046447753	0.0104829548
3309.8334521483	0.0104545141
3311.7622595214	0.0104876207
3313.6910668944	0.0105355140
3315.6198742675	0.0105215423
3317.5486816405	0.0104217008
3319.4774890135	0.0104876226
3321.4062963866	0.0105061708
3323.3351037596	0.0104478197
3325.2639111327	0.0104274657
3327.1927185057	0.0102720782
3329.1215258788	0.0102671003
3331.0503332518	0.0103270151
3332.9791406249	0.0102550257
3334.9079479979	0.0101941209
3336.8367553710	0.0102154883
3338.7655627440	0.0102375345
3340.6943701171	0.0102090910
3342.6231774901	0.0102179199
3344.5519848632	0.0101298373
3346.4807922362	0.0101292608
3348.4095996092	0.0102044642
3350.3384069823	0.0100936750
3352.2672143553	0.0100705512
3354.1960217284	0.0101468228
3356.1248291014	0.0100742541
3358.0536364745	0.0100271460
3359.9824438475	0.0101237679
3361.9112512206	0.0100385025
3363.8400585936	0.0099207330
3365.7688659667	0.0099608256
3367.6976733397	0.0098745469
3369.6264807128	0.0098818634
3371.5552880858	0.0099385995
3373.4840954589	0.0097964713
3375.4129028319	0.0098616797
3377.3417102049	0.0099359974
3379.2705175780	0.0097640082
3381.1993249510	0.0097059496
3383.1281323241	0.0097091785
3385.0569396971	0.0097216032
3386.9857470702	0.0096986871
3388.9145544432	0.0097296350
3390.8433618163	0.0097779008
3392.7721691893	0.0096584121
3394.7009765624	0.0096552121
3396.6297839354	0.0096568167
3398.5585913085	0.0096180029
3400.4873986815	0.0095311524
3402.4162060546	0.0095474133
3404.3450134276	0.0096324943
3406.2738208006	0.0094927251
3408.2026281737	0.0095114671
3410.1314355467	0.0094455173
3412.0602429198	0.0094730929
3413.9890502928	0.0095355613
3415.9178576659	0.0094298590
3417.8466650389	0.0095761837
3419.7754724120	0.0093455054
3421.7042797850	0.0092237033
3423.6330871581	0.0094171055
3425.5618945311	0.0093604950
3427.4907019042	0.0093284938
3429.4195092772	0.0092519009
3431.3483166503	0.0092585236
3433.2771240233	0.0092400815
3435.2059313963	0.0091981273
3437.1347387694	0.0092696212
3439.0635461424	0.0092638582
3440.9923535155	0.0091919377
3442.9211608885	0.0091848997
3444.8499682616	0.0091677960
3446.7787756346	0.0090142498
3448.7075830077	0.0090880115
3450.6363903807	0.0091737602
3452.5651977538	0.0091623310
3454.4940051268	0.0092458054
3456.4228124999	0.0091442317
3458.3516198729	0.0090586003
3460.2804272460	0.0090885367
3462.2092346190	0.0090338234
3464.1380419921	0.0090046544
3466.0668493651	0.0090813413
3467.9956567381	0.0090630231
3469.9244641112	0.0089923758
3471.8532714842	0.0089647286
3473.7820788573	0.0089614484
3475.7108862303	0.0089499541
3477.6396936034	0.0090002408
3479.5685009764	0.0090250568
3481.4973083495	0.0087482203
3483.4261157225	0.0088061560
3485.3549230956	0.0089527592
3487.2837304686	0.0088738874
3489.2125378417	0.0090205036
3491.1413452147	0.0089558400
3493.0701525878	0.0088785905
3494.9989599608	0.0088750897
3496.9277673338	0.0088103563
3498.8565747069	0.0087876143
3500.7853820799	0.0088076405
3502.7141894530	0.0087370910
3504.6429968260	0.0086595193
3506.5718041991	0.0089357691
3508.5006115721	0.0088193752
3510.4294189452	0.0086828899
3512.3582263182	0.0088190921
3514.2870336913	0.0087763723
3516.2158410643	0.0088634510
3518.1446484374	0.0087231640
3520.0734558104	0.0086720288
3522.0022631835	0.0087807979
3523.9310705565	0.0087521533
3525.8598779295	0.0086674467
3527.7886853026	0.0085977502
3529.7174926756	0.0085996315
3531.6463000487	0.0085613821
3533.5751074217	0.0087434780
3535.5039147948	0.0086311977
3537.4327221678	0.0085539427
3539.3615295409	0.0087766238
3541.2903369139	0.0086574815
3543.2191442870	0.0086199082
3545.1479516600	0.0085041504
3547.0767590331	0.0084534297
3549.0055664061	0.0086705694
3550.9343737792	0.0085777100
3552.8631811522	0.0084209414
3554.7919885252	0.0086230049
3556.7207958983	0.0086909384
3558.6496032713	0.0085029136
3560.5784106444	0.0085323099
3562.5072180174	0.0085627269
3564.4360253905	0.0085461428
3566.3648327635	0.0081525128
3568.2936401366	0.0079628285
3570.2224475096	0.0085595082
3572.1512548827	0.0085872700
3574.0800622557	0.0084546180
3576.0088696288	0.0086105969
3577.9376770018	0.0085318424
3579.8664843749	0.0085603837
3581.7952917479	0.0084738890
3583.7240991210	0.0084798150
3585.6529064940	0.0083816350
3587.5817138670	0.0079367450
3589.5105212401	0.0081601962
3591.4393286131	0.0084950253
3593.3681359862	0.0082698287
3595.2969433592	0.0082599809
3597.2257507323	0.0084520346
3599.1545581053	0.0084226467
3601.0833654784	0.0083125141
3603.0121728514	0.0084048603
3604.9409802245	0.0085334359
3606.8697875975	0.0082948618
3608.7985949706	0.0079097701
3610.7274023436	0.0080673043
3612.6562097167	0.0080685876
3614.5850170897	0.0079668611
3616.5138244627	0.0084336614
3618.4426318358	0.0079083210
3620.3714392088	0.0078067048
3622.3002465819	0.0084013976
3624.2290539549	0.0082476856
3626.1578613280	0.0084797777
3628.0866687010	0.0074426970
3630.0154760741	0.0070845885
3631.9442834471	0.0083255302
3633.8730908202	0.0081732413
3635.8018981932	0.0082324054
3637.7307055663	0.0083877733
3639.6595129393	0.0083033824
3641.5883203124	0.0083070397
3643.5171276854	0.0082561085
3645.4459350584	0.0082429452
3647.3747424315	0.0076582972
3649.3035498045	0.0071640871
3651.2323571776	0.0071937651
3653.1611645506	0.0082344916
3655.0899719237	0.0079954118
3657.0187792967	0.0074417647
3658.9475866698	0.0083830580
3660.8763940428	0.0081697609
3662.8052014159	0.0083266087
3664.7340087889	0.0082973586
3666.6628161620	0.0082273465
3668.5916235350	0.0080161430
3670.5204309081	0.0069048610
3672.4492382811	0.0079647750
3674.3780456541	0.0075649004
3676.3068530272	0.0066958414
3678.2356604002	0.0078986567
3680.1644677733	0.0079752542
3682.0932751463	0.0080701020
3684.0220825194	0.0081805997
3685.9508898924	0.0081272684
3687.8796972655	0.0074149817
3689.8085046385	0.0068945112
3691.7373120116	0.0077456022
3693.6661193846	0.0079203751
3695.5949267577	0.0080942828
3697.5237341307	0.0080098873
3699.4525415038	0.0079391655
3701.3813488768	0.0078022499
3703.3101562499	0.0075032217
3705.2389636229	0.0080563482
3707.1677709959	0.0077205300
3709.0965783690	0.0076224897
3711.0253857420	0.0072980300
3712.9541931151	0.0070438581
3714.8830004881	0.0079355724
3716.8118078612	0.0077161072
3718.7406152342	0.0077819377
3720.6694226073	0.0076244809
3722.5982299803	0.0074174991
3724.5270373534	0.0076320730
3726.4558447264	0.0071935477
3728.3846520995	0.0076655019
3730.3134594725	0.0076288534
3732.2422668456	0.0071704453
3734.1710742186	0.0069264350
3736.0998815916	0.0067155613
3738.0286889647	0.0070322515
3739.9574963377	0.0074302936
3741.8863037108	0.0076797260
3743.8151110838	0.0062551596
3745.7439184569	0.0061979117
3747.6727258299	0.0074255923
3749.6015332030	0.0064406134
3751.5303405760	0.0062774559
3753.4591479491	0.0069240602
3755.3879553221	0.0072746864
3757.3167626952	0.0075078970
3759.2455700682	0.0070513655
3761.1743774413	0.0072809518
3763.1031848143	0.0075053172
3765.0319921873	0.0071308324
3766.9607995604	0.0073327720
3768.8896069334	0.0072620749
3770.8184143065	0.0069391616
3772.7472216795	0.0073831938
3774.6760290526	0.0074315220
3776.6048364256	0.0073228427
3778.5336437987	0.0072899293
3780.4624511717	0.0070386892
3782.3912585448	0.0072851591
3784.3200659178	0.0072513903
3786.2488732909	0.0071772011
3788.1776806639	0.0073527675
3790.1064880370	0.0072211251
3792.0352954100	0.0071708425
3793.9641027830	0.0073375441
3795.8929101561	0.0069391364
3797.8217175291	0.0070039309
3799.7505249022	0.0071467170
3801.6793322752	0.0060325544
3803.6081396483	0.0068594078
3805.5369470213	0.0070925308
3807.4657543944	0.0062636239
3809.3945617674	0.0072325310
3811.3233691405	0.0069708880
3813.2521765135	0.0071476945
3815.1809838866	0.0066184858
3817.1097912596	0.0060697505
3819.0385986327	0.0070761763
3820.9674060057	0.0061231484
3822.8962133787	0.0064401748
3824.8250207518	0.0070439968
3826.7538281248	0.0066389181
3828.6826354979	0.0069406237
3830.6114428709	0.0066485051
3832.5402502440	0.0065874932
3834.4690576170	0.0066154795
3836.3978649901	0.0063673682
3838.3266723631	0.0058829640
3840.2554797362	0.0063074157
3842.1842871092	0.0066718431
3844.1130944823	0.0063276617
3846.0419018553	0.0068331510
3847.9707092284	0.0067165992
3849.8995166014	0.0067410273
3851.8283239745	0.0061731040
3853.7571313475	0.0049637156
3855.6859387205	0.0057567428
3857.6147460936	0.0066649495
3859.5435534666	0.0065680402
3861.4723608397	0.0065550595
3863.4011682127	0.0064222468
3865.3299755858	0.0061391112
3867.2587829588	0.0065260488
3869.1875903319	0.0061906818
3871.1163977049	0.0058263838
3873.0452050780	0.0065132761
3874.9740124510	0.0062227026
3876.9028198241	0.0065386966
3878.8316271971	0.0066208951
3880.7604345702	0.0059993900
3882.6892419432	0.0066069262
3884.6180493162	0.0061424877
3886.5468566893	0.0059148790
3888.4756640623	0.0066304109
3890.4044714354	0.0061277281
3892.3332788084	0.0060015758
3894.2620861815	0.0064710267
3896.1908935545	0.0064185653
3898.1197009276	0.0061860885
3900.0485083006	0.0060247201
3901.9773156737	0.0060003418
3903.9061230467	0.0058946488
3905.8349304198	0.0059659109
3907.7637377928	0.0063375449
3909.6925451659	0.0063826353
3911.6213525389	0.0062847612
3913.5501599119	0.0062747402
3915.4789672850	0.0061683813
3917.4077746580	0.0060186991
3919.3365820311	0.0060067782
3921.2653894041	0.0061295880
3923.1941967772	0.0061386768
3925.1230041502	0.0061533577
3927.0518115233	0.0061562080
3928.9806188963	0.0061400640
3930.9094262694	0.0060402616
3932.8382336424	0.0059055490
3934.7670410155	0.0060504265
3936.6958483885	0.0060821092
3938.6246557616	0.0060543381
3940.5534631346	0.0061206892
3942.4822705076	0.0059595192
3944.4110778807	0.0058514788
3946.3398852537	0.0060198437
3948.2686926268	0.0060017342
3950.1974999998	0.0058751605
3952.1263073729	0.0059843310
3954.0551147459	0.0059608798
3955.9839221190	0.0059525603
3957.9127294920	0.0059233201
3959.8415368651	0.0058617210
3961.7703442381	0.0059624705
3963.6991516112	0.0059151356
3965.6279589842	0.0059755119
3967.5567663573	0.0059796330
3969.4855737303	0.0058779246
3971.4143811034	0.0058529624
3973.3431884764	0.0058295950
3975.2719958494	0.0058625136
3977.2008032225	0.0057868138
3979.1296105955	0.0058465330
3981.0584179686	0.0058536804
3982.9872253416	0.0057870098
3984.9160327147	0.0057863081
3986.8448400877	0.0057502538
3988.7736474608	0.0057937056
3990.7024548338	0.0057208845
3992.6312622069	0.0057938555
3994.5600695799	0.0056976117
3996.4888769530	0.0055745244
3998.4176843260	0.0057507465
4000.3464916991	0.0056125317
4002.2752990721	0.0056173922
4004.2041064451	0.0056405184
4006.1329138182	0.0055877138
4008.0617211912	0.0056510190
4009.9905285643	0.0055580898
4011.9193359373	0.0056502922
4013.8481433104	0.0056190696
4015.7769506834	0.0055314722
4017.7057580565	0.0055869156
4019.6345654295	0.0055495333
4021.5633728026	0.0056003332
4023.4921801756	0.0055594514
4025.4209875487	0.0055037122
4027.3497949217	0.0055381460
4029.2786022948	0.0055289650
4031.2074096678	0.0055082217
4033.1362170408	0.0055008112
4035.0650244139	0.0055381749
4036.9938317869	0.0054938518
4038.9226391600	0.0054071723
4040.8514465330	0.0053896136
4042.7802539061	0.0053689610
4044.7090612791	0.0053605149
4046.6378686522	0.0053862631
4048.5666760252	0.0053571099
4050.4954833983	0.0053724898
4052.4242907713	0.0053992420
4054.3530981444	0.0053322557
4056.2819055174	0.0053201476
4058.2107128905	0.0052916002
4060.1395202635	0.0052935765
4062.0683276365	0.0053031635
4063.9971350096	0.0052796449
4065.9259423826	0.0053371731
4067.8547497557	0.0052754227
4069.7835571287	0.0052228151
4071.7123645018	0.0052755508
4073.6411718748	0.0052218502
4075.5699792479	0.0051826267
4077.4987866209	0.0052209534
4079.4275939940	0.0051971804
4081.3564013670	0.0052207876
4083.2852087401	0.0052114949
4085.2140161131	0.0050858664
4087.1428234862	0.0051134741
4089.0716308592	0.0051474134
4091.0004382323	0.0051312810
4092.9292456053	0.0051047374
4094.8580529783	0.0050680256
4096.7868603514	0.0050552292
4098.7156677244	0.0049837213
4100.6444750975	0.0050029634
4102.5732824705	0.0049992609
4104.5020898436	0.0050480934
4106.4308972166	0.0050354176
4108.3597045897	0.0049484093
4110.2885119627	0.0050538513
4112.2173193358	0.0049841395
4114.1461267088	0.0049550082
4116.0749340819	0.0049681244
4118.0037414549	0.0048434651
4119.9325488280	0.0048349076
4121.8613562010	0.0049088518
4123.7901635740	0.0049388837
4125.7189709471	0.0048627402
4127.6477783201	0.0048735142
4129.5765856932	0.0047657210
4131.5053930662	0.0047565345
4133.4342004393	0.0048860912
4135.3630078123	0.0047593624
4137.2918151854	0.0048175738
4139.2206225584	0.0048249369
4141.1494299315	0.0047159656
4143.0782373045	0.0047915997
4145.0070446776	0.0047580828
4146.9358520506	0.0047213165
4148.8646594237	0.0047978433
4150.7934667967	0.0048299078
4152.7222741697	0.0047828015
4154.6510815428	0.0046700165
4156.5798889158	0.0046387529
4158.5086962889	0.0047117560
4160.4375036619	0.0046287621
4162.3663110350	0.0046329331
4164.2951184080	0.0046862443
4166.2239257811	0.0046725105
4168.1527331541	0.0047634868
4170.0815405272	0.0046063745
4172.0103479002	0.0045392411
4173.9391552733	0.0046415008
4175.8679626463	0.0045966012
4177.7967700194	0.0045661665
4179.7255773924	0.0045219692
4181.6543847654	0.0045856107
4183.5831921385	0.0045897849
4185.5119995115	0.0045083649
4187.4408068846	0.0045753443
4189.3696142576	0.0046354984
4191.2984216307	0.0045453291
4193.2272290037	0.0044366559
4195.1560363768	0.0044229901
4197.0848437498	0.0044748308
4199.0136511229	0.0045553558
4200.9424584959	0.0045014154
4202.8712658690	0.0045114504
4204.8000732420	0.0045409389
4206.7288806151	0.0044192667
4208.6576879881	0.0044293744
4210.5864953611	0.0044276733
4212.5153027342	0.0043331636
4214.4441101072	0.0044005718
4216.3729174803	0.0044751931
4218.3017248533	0.0043420522
4220.2305322264	0.0043563205
4222.1593395994	0.0043890607
4224.0881469725	0.0042738095
4226.0169543455	0.0043430934
4227.9457617186	0.0043520276
4229.8745690916	0.0042959563
4231.8033764647	0.0043075299
4233.7321838377	0.0042690653
4235.6609912108	0.0042073149
4237.5897985838	0.0042761639
4239.5186059569	0.0043074815
4241.4474133299	0.0042282273
4243.3762207029	0.0043489225
4245.3050280760	0.0042885714
4247.2338354490	0.0041862405
4249.1626428221	0.0042232419
4251.0914501951	0.0041584945
4253.0202575682	0.0042310250
4254.9490649412	0.0041904552
4256.8778723143	0.0040808227
4258.8066796873	0.0041335067
4260.7354870604	0.0041614901
4262.6642944334	0.0041643837
4264.5931018065	0.0041824188
4266.5219091795	0.0041348473
4268.4507165526	0.0040598214
4270.3795239256	0.0040243780
4272.3083312986	0.0040717116
4274.2371386717	0.0041759401
4276.1659460447	0.0040892311
4278.0947534178	0.0040524034
4280.0235607908	0.0040547615
4281.9523681639	0.0039885626
4283.8811755369	0.0039973613
4285.8099829100	0.0040150583
4287.7387902830	0.0040680720
4289.6675976561	0.0039235866
4291.5964050291	0.0039369119
4293.5252124022	0.0040163510
4295.4540197752	0.0039861947
4297.3828271483	0.0040452881
4299.3116345213	0.0039305091
4301.2404418943	0.0040367232
4303.1692492674	0.0039550341
4305.0980566404	0.0038436898
4307.0268640135	0.0039880057
4308.9556713865	0.0038199942
4310.8844787596	0.0038741005
4312.8132861326	0.0039014253
4314.7420935057	0.0038645291
4316.6709008787	0.0039108731
4318.5997082518	0.0038029354
4320.5285156248	0.0038432817
4322.4573229979	0.0037934340
4324.3861303709	0.0037995607
4326.3149377440	0.0038781594
4328.2437451170	0.0037852542
4330.1725524900	0.0037621194
4332.1013598631	0.0037599299
4334.0301672361	0.0037525289
4335.9589746092	0.0037683896
4337.8877819822	0.0037013432
4339.8165893553	0.0036582039
4341.7453967283	0.0037350878
4343.6742041014	0.0037528742
4345.6030114744	0.0036888462
4347.5318188475	0.0036693900
4349.4606262205	0.0037137195
4351.3894335936	0.0036937008
4353.3182409666	0.0036739300
4355.2470483397	0.0037342575
4357.1758557127	0.0036284472
4359.1046630858	0.0035748547
4361.0334704588	0.0036839305
4362.9622778318	0.0036399974
4364.8910852049	0.0035925326
4366.8198925779	0.0036435490
4368.7486999510	0.0036084503
4370.6775073240	0.0036127779
4372.6063146971	0.0036213757
4374.5351220701	0.0035137702
4376.4639294432	0.0035621761
4378.3927368162	0.0036119719
4380.3215441893	0.0035354765
4382.2503515623	0.0035271479
4384.1791589354	0.0035463837
4386.1079663084	0.0035610562
4388.0367736815	0.0035603668
4389.9655810545	0.0035321754
4391.8943884275	0.0034301872
4393.8231958006	0.0034264904
4395.7520031736	0.0034923782
4397.6808105467	0.0034374350
4399.6096179197	0.0034281914
4401.5384252928	0.0034057444
4403.4672326658	0.0033627506
4405.3960400389	0.0034381482
4407.3248474119	0.0034762872
4409.2536547850	0.0034100842
4411.1824621580	0.0034070481
4413.1112695311	0.0033848535
4415.0400769041	0.0033755563
4416.9688842772	0.0034297940
4418.8976916502	0.0033214244
4420.8264990232	0.0032782115
4422.7553063963	0.0033118306
4424.6841137693	0.0032953215
4426.6129211424	0.0033141370
4428.5417285154	0.0033473293
4430.4705358885	0.0033619651
4432.3993432615	0.0032522988
4434.3281506346	0.0032882183
4436.2569580076	0.0033366429
4438.1857653807	0.0032875626
4440.1145727537	0.0033276100
4442.0433801268	0.0032529277
4443.9721874998	0.0032940386
4445.9009948729	0.0032915017
4447.8298022459	0.0032064260
4449.7586096189	0.0032847705
4451.6874169920	0.0032128775
4453.6162243650	0.0032089702
4455.5450317381	0.0032630090
4457.4738391111	0.0032230210
4459.4026464842	0.0032363429
4461.3314538572	0.0032192031
4463.2602612303	0.0032739653
4465.1890686033	0.0032624388
4467.1178759764	0.0031552464
4469.0466833494	0.0031332360
4470.9754907225	0.0031383848
4472.9042980955	0.0031655743
4474.8331054686	0.0031348513
4476.7619128416	0.0030802875
4478.6907202147	0.0030286391
4480.6195275877	0.0030738427
4482.5483349607	0.0031421692
4484.4771423338	0.0030601225
4486.4059497068	0.0031467099
4488.3347570799	0.0031551491
4490.2635644529	0.0029979628
4492.1923718260	0.0030410390
4494.1211791990	0.0030091319
4496.0499865721	0.0029685711
4497.9787939451	0.0030810675
4499.9076013182	0.0031177578
4501.8364086912	0.0030710143
4503.7652160643	0.0030372185
4505.6940234373	0.0029936777
4507.6228308104	0.0029960184
4509.5516381834	0.0030429619
4511.4804455564	0.0030124369
4513.4092529295	0.0030002869
4515.3380603025	0.0029215971
4517.2668676756	0.0029008070
4519.1956750486	0.0030355856
4521.1244824217	0.0029859832
4523.0532897947	0.0029534865
4524.9820971678	0.0029688303
4526.9109045408	0.0028961725
4528.8397119139	0.0028919093
4530.7685192869	0.0029057739
4532.6973266600	0.0029344822
4534.6261340330	0.0028880504
4536.5549414061	0.0028895843
4538.4837487791	0.0029874775
4540.4125561521	0.0028796319
4542.3413635252	0.0028291033
4544.2701708982	0.0029542167
4546.1989782713	0.0029168543
4548.1277856443	0.0028043808
4550.0565930174	0.0028039278
4551.9854003904	0.0028055622
4553.9142077635	0.0028198692
4555.8430151365	0.0028719320
4557.7718225096	0.0027957736
4559.7006298826	0.0027729999
4561.6294372557	0.0028198126
4563.5582446287	0.0027870783
4565.4870520018	0.0028207060
4567.4158593748	0.0027899269
4569.3446667478	0.0027442684
4571.2734741209	0.0027076851
4573.2022814939	0.0026792223
4575.1310888670	0.0028015575
4577.0598962400	0.0027806344
4578.9887036131	0.0026901313
4580.9175109861	0.0026984666
4582.8463183592	0.0027078767
4584.7751257322	0.0026935765
4586.7039331053	0.0026756793
4588.6327404783	0.0027406593
4590.5615478514	0.0027482971
4592.4903552244	0.0026925257
4594.4191625975	0.0026655812
4596.3479699705	0.0026739049
4598.2767773435	0.0026525375
4600.2055847166	0.0025953962
4602.1343920896	0.0026074299
4604.0631994627	0.0026007968
4605.9920068357	0.0026284927
4607.9208142088	0.0026305593
4609.8496215818	0.0025761761
4611.7784289549	0.0026590310
4613.7072363279	0.0026707132
4615.6360437010	0.0025594556
4617.5648510740	0.0025921757
4619.4936584471	0.0025417688
4621.4224658201	0.0024505924
4623.3512731932	0.0026436085
4625.2800805662	0.0026502134
4627.2088879393	0.0024834326
4629.1376953123	0.0025380950
4631.0665026853	0.0025873398
4632.9953100584	0.0025589787
4634.9241174314	0.0025908977
4636.8529248045	0.0026013877
4638.7817321775	0.0025039611
4640.7105395506	0.0025143549
4642.6393469236	0.0024952726
4644.5681542967	0.0024850299
4646.4969616697	0.0025574951
4648.4257690428	0.0024868655
4650.3545764158	0.0025383201
4652.2833837889	0.0025330756
4654.2121911619	0.0024263049
4656.1409985350	0.0024222564
4658.0698059080	0.0024610362
4659.9986132810	0.0024574972
4661.9274206541	0.0024169488
4663.8562280271	0.0025060184
4665.7850354002	0.0024050018
4667.7138427732	0.0023889351
4669.6426501463	0.0024439762
4671.5714575193	0.0023260149
4673.5002648924	0.0024276921
4675.4290722654	0.0024208198
4677.3578796385	0.0024086945
4679.2866870115	0.0024437413
4681.2154943846	0.0023900508
4683.1443017576	0.0023787012
4685.0731091307	0.0022837422
4687.0019165037	0.0023417929
4688.9307238767	0.0023685358
4690.8595312498	0.0022790856
4692.7883386228	0.0023484521
4694.7171459959	0.0023784637
4696.6459533689	0.0023000068
4698.5747607420	0.0022617513
4700.5035681150	0.0022906447
4702.4323754881	0.0023105796
4704.3611828611	0.0022865296
4706.2899902342	0.0022855215
4708.2187976072	0.0022460308
4710.1476049803	0.0021992093
4712.0764123533	0.0022663265
4714.0052197264	0.0022241971
4715.9340270994	0.0022750772
4717.8628344724	0.0023409293
4719.7916418455	0.0021876178
4721.7204492185	0.0022440259
4723.6492565916	0.0022487775
4725.5780639646	0.0022263527
4727.5068713377	0.0022802153
4729.4356787107	0.0021876132
4731.3644860838	0.0022267555
4733.2932934568	0.0022457545
4735.2221008299	0.0021745251
4737.1509082029	0.0021699700
4739.0797155760	0.0021392871
4741.0085229490	0.0021124596
4742.9373303221	0.0022181459
4744.8661376951	0.0022220183
4746.7949450682	0.0021443707
4748.7237524412	0.0021711434
4750.6525598142	0.0020896175
4752.5813671873	0.0021208015
4754.5101745603	0.0021390701
4756.4389819334	0.0021085977
4758.3677893064	0.0021751863
4760.2965966795	0.0021031592
4762.2254040525	0.0021087076
4764.1542114256	0.0020784438
4766.0830187986	0.0020783856
4768.0118261717	0.0021880534
4769.9406335447	0.0021366011
4771.8694409178	0.0020737289
4773.7982482908	0.0020028991
4775.7270556639	0.0020248923
4777.6558630369	0.0021134808
4779.5846704099	0.0020741750
4781.5134777830	0.0020543002
4783.4422851560	0.0020380919
4785.3710925291	0.0020257132
4787.2998999021	0.0020762198
4789.2287072752	0.0020306529
4791.1575146482	0.0019854391
4793.0863220213	0.0020187157
4795.0151293943	0.0020108996
4796.9439367674	0.0019931728
4798.8727441404	0.0020315456
4800.8015515135	0.0020819309
4802.7303588865	0.0019868393
4804.6591662596	0.0019434346
4806.5879736326	0.0019972892
4808.5167810056	0.0020305398
4810.4455883787	0.0020052427
4812.3743957517	0.0019104234
4814.3032031248	0.0019826549
4816.2320104978	0.0019307784
4818.1608178709	0.0019424953
4820.0896252439	0.0020267037
4822.0184326170	0.0018979530
4823.9472399900	0.0019802032
4825.8760473631	0.0019605483
4827.8048547361	0.0019233451
4829.7336621092	0.0019179797
4831.6624694822	0.0018398456
4833.5912768553	0.0019284510
4835.5200842283	0.0019103368
4837.4488916013	0.0019552764
4839.3776989744	0.0019503748
4841.3065063474	0.0018485386
4843.2353137205	0.0018051014
4845.1641210935	0.0018071185
4847.0929284666	0.0018701287
4849.0217358396	0.0018003053
4850.9505432127	0.0018245726
4852.8793505857	0.0018584775
4854.8081579588	0.0018904156
4856.7369653318	0.0018874975
4858.6657727049	0.0017511166
4860.5945800779	0.0017904781
4862.5233874510	0.0018335318
4864.4521948240	0.0018739521
4866.3810021971	0.0018450581
4868.3098095701	0.0017275108
4870.2386169431	0.0017392088
4872.1674243162	0.0017921559
4874.0962316892	0.0018453763
4876.0250390623	0.0018114585
4877.9538464353	0.0017504615
4879.8826538084	0.0017627133
4881.8114611814	0.0018434484
4883.7402685545	0.0017991586
4885.6690759275	0.0017260683
4887.5978833006	0.0018292373
4889.5266906736	0.0017763531
4891.4554980467	0.0017291936
4893.3843054197	0.0017728803
4895.3131127928	0.0017613510
4897.2419201658	0.0017841598
4899.1707275388	0.0017413714
4901.0995349119	0.0017215069
4903.0283422849	0.0017483147
4904.9571496580	0.0018082988
4906.8859570310	0.0017310532
4908.8147644041	0.0016561430
4910.7435717771	0.0017812987
4912.6723791502	0.0017114335
4914.6011865232	0.0017073756
4916.5299938963	0.0016954818
4918.4588012693	0.0016445502
4920.3876086424	0.0017582220
4922.3164160154	0.0016481997
4924.2452233885	0.0016672306
4926.1740307615	0.0016678575
4928.1028381345	0.0015834020
4930.0316455076	0.0016901894
4931.9604528806	0.0016871670
4933.8892602537	0.0016527415
4935.8180676267	0.0015600616
4937.7468749998	0.0016283209
4939.6756823728	0.0016482626
4941.6044897459	0.0015498282
4943.5332971189	0.0016522110
4945.4621044920	0.0016170461
4947.3909118650	0.0016087925
4949.3197192381	0.0016085941
4951.2485266111	0.0016004185
4953.1773339842	0.0016074342
4955.1061413572	0.0015887017
4957.0349487302	0.0016485152
4958.9637561033	0.0015857283
4960.8925634763	0.0015979443
4962.8213708494	0.0016297424
4964.7501782224	0.0016488424
4966.6789855955	0.0016213360
4968.6077929685	0.0015425344
4970.5366003416	0.0016064928
4972.4654077146	0.0015719921
4974.3942150877	0.0015479208
4976.3230224607	0.0015836551
4978.2518298338	0.0015770686
4980.1806372068	0.0015329428
4982.1094445799	0.0015736574
4984.0382519529	0.0015680362
4985.9670593259	0.0014711008
4987.8958666990	0.0016073731
4989.8246740720	0.0016076183
4991.7534814451	0.0015200346
4993.6822888181	0.0015351058
4995.6110961912	0.0015053763
4997.5399035642	0.0014775523
4999.4687109373	0.0015012209
5001.3975183103	0.0015504530
5003.3263256834	0.0014793989
5005.2551330564	0.0014840986
5007.1839404295	0.0014568267
5009.1127478025	0.0014574379
5011.0415551756	0.0014845463
5012.9703625486	0.0013903631
5014.8991699217	0.0014582691
5016.8279772947	0.0014904615
5018.7567846677	0.0014640701
5020.6855920408	0.0014452587
5022.6143994138	0.0014652400
5024.5432067869	0.0014004612
5026.4720141599	0.0013577768
5028.4008215330	0.0014531948
5030.3296289060	0.0013623467
5032.2584362791	0.0014552915
5034.1872436521	0.0014814690
5036.1160510252	0.0013995129
5038.0448583982	0.0014297874
5039.9736657713	0.0013393665
5041.9024731443	0.0014226877
5043.8312805174	0.0014773448
5045.7600878904	0.0014799215
5047.6888952634	0.0014296942
5049.6177026365	0.0013564632
5051.5465100095	0.0014215230
5053.4753173826	0.0014230781
5055.4041247556	0.0014486313
5057.3329321287	0.0014286246
5059.2617395017	0.0014100373
5061.1905468748	0.0013796317
5063.1193542478	0.0013759220
5065.0481616209	0.0013882148
5066.9769689939	0.0012959465
5068.9057763670	0.0013473693
5070.8345837400	0.0013929452
5072.7633911131	0.0013574276
5074.6921984861	0.0013484729
5076.6210058591	0.0013779742
5078.5498132322	0.0013538892
5080.4786206052	0.0013328195
5082.4074279783	0.0013688372
5084.3362353513	0.0012875553
5086.2650427244	0.0013028877
5088.1938500974	0.0012996037
5090.1226574705	0.0012741594
5092.0514648435	0.0013298951
5093.9802722166	0.0013020055
5095.9090795896	0.0013445446
5097.8378869627	0.0013090172
5099.7666943357	0.0012353486
5101.6955017088	0.0012981647
5103.6243090818	0.0013128950
5105.5531164548	0.0012966304
5107.4819238279	0.0013442215
5109.4107312009	0.0013207665
5111.3395385740	0.0012340480
5113.2683459470	0.0012908563
5115.1971533201	0.0013008709
5117.1259606931	0.0012192680
5119.0547680662	0.0012646429
5120.9835754392	0.0013134259
5122.9123828123	0.0012688513
5124.8411901853	0.0012425461
5126.7699975584	0.0012672396
5128.6988049314	0.0012367917
5130.6276123045	0.0011566191
5132.5564196775	0.0011744241
5134.4852270506	0.0012725733
5136.4140344236	0.0012678104
5138.3428417966	0.0012439233
5140.2716491697	0.0012395520
5142.2004565427	0.0011839124
5144.1292639158	0.0012143406
5146.0580712888	0.0012501596
5147.9868786619	0.0012425601
5149.9156860349	0.0012002112
5151.8444934080	0.0012101789
5153.7733007810	0.0012610927
5155.7021081541	0.0011257008
5157.6309155271	0.0011282165
5159.5597229002	0.0012193372
5161.4885302732	0.0011406624
5163.4173376463	0.0011406362
5165.3461450193	0.0011798774
5167.2749523923	0.0012059679
5169.2037597654	0.0011682143
5171.1325671384	0.0011247266
5173.0613745115	0.0011908422
5174.9901818845	0.0011858089
5176.9189892576	0.0011260565
5178.8477966306	0.0011062450
5180.7766040037	0.0011185812
5182.7054113767	0.0011277304
5184.6342187498	0.0011407763
5186.5630261228	0.0011303895
5188.4918334959	0.0011061693
5190.4206408689	0.0011743503
5192.3494482420	0.0011510216
5194.2782556150	0.0010855689
5196.2070629880	0.0011422165
5198.1358703611	0.0011026363
5200.0646777341	0.0010690361
5201.9934851072	0.0011322657
5203.9222924802	0.0011271939
5205.8510998533	0.0011225196
5207.7799072263	0.0010715784
5209.7087145994	0.0010393916
5211.6375219724	0.0010990778
5213.5663293455	0.0010785253
5215.4951367185	0.0010811343
5217.4239440916	0.0010674801
5219.3527514646	0.0010475027
5221.2815588377	0.0010800768
5223.2103662107	0.0010581505
5225.1391735837	0.0011118017
5227.0679809568	0.0011069472
5228.9967883298	0.0010459588
5230.9255957029	0.0010146389
5232.8544030759	0.0010007061
5234.7832104490	0.0010492459
5236.7120178220	0.0010089311
5238.6408251951	0.0010492597
5240.5696325681	0.0010823526
5242.4984399412	0.0010507430
5244.4272473142	0.0010979699
5246.3560546873	0.0010472196
5248.2848620603	0.0009937703
5250.2136694334	0.0009820835
5252.1424768064	0.0010037444
5254.0712841795	0.0010094816
5256.0000915525	0.0009880528
5257.9288989255	0.0009924083
5259.8577062986	0.0009889012
5261.7865136716	0.0010055003
5263.7153210447	0.0009885840
5265.6441284177	0.0010524334
5267.5729357908	0.0010546840
5269.5017431638	0.0009955459
5271.4305505369	0.0010380092
5273.3593579099	0.0009709118
5275.2881652830	0.0009691418
5277.2169726560	0.0010475251
5279.1457800291	0.0009653260
5281.0745874021	0.0009328919
5283.0033947752	0.0010058946
5284.9322021482	0.0009803607
5286.8610095212	0.0010014942
5288.7898168943	0.0009813032
5290.7186242673	0.0009283990
5292.6474316404	0.0010266051
5294.5762390134	0.0009720261
5296.5050463865	0.0009641680
5298.4338537595	0.0009654242
5300.3626611326	0.0009307286
5302.2914685056	0.0010284474
5304.2202758787	0.0009100884
5306.1490832517	0.0009058660
5308.0778906248	0.0010375688
5310.0066979978	0.0009982667
5311.9355053709	0.0009578222
5313.8643127439	0.0009277920
5315.7931201169	0.0009082383
5317.7219274900	0.0009118305
5319.6507348630	0.0009291138
5321.5795422361	0.0009878023
5323.5083496091	0.0010163744
5325.4371569822	0.0009167179
5327.3659643552	0.0009454053
5329.2947717283	0.0009679572
5331.2235791013	0.0009169839
5333.1523864744	0.0009105026
5335.0811938474	0.0008758222
5337.0100012205	0.0009962124
5338.9388085935	0.0008391690
5340.8676159666	0.0008171530
5342.7964233396	0.0010203462
5344.7252307126	0.0008837137
5346.6540380857	0.0009662755
5348.5828454587	0.0009317232
5350.5116528318	0.0008248625
5352.4404602048	0.0008506412
5354.3692675779	0.0008065698
5356.2980749509	0.0009119794
5358.2268823240	0.0008997672
5360.1556896970	0.0008919393
5362.0844970701	0.0008596944
5364.0133044431	0.0008159835
5365.9421118162	0.0008810405
5367.8709191892	0.0008639313
5369.7997265623	0.0008260123
5371.7285339353	0.0007971431
5373.6573413083	0.0008520148
5375.5861486814	0.0008462528
5377.5149560544	0.0008231254
5379.4437634275	0.0008456646
5381.3725708005	0.0008605670
5383.3013781736	0.0008512628
5385.2301855466	0.0007973482
5387.1589929197	0.0008646059
5389.0878002927	0.0008384093
5391.0166076658	0.0008040219
5392.9454150388	0.0008487409
5394.8742224119	0.0008208583
5396.8030297849	0.0008258095
5398.7318371580	0.0008024714
5400.6606445310	0.0007782583
5402.5894519041	0.0007721438
5404.5182592771	0.0008059862
5406.4470666501	0.0008196350
5408.3758740232	0.0007898897
5410.3046813962	0.0008211322
5412.2334887693	0.0008171113
5414.1622961423	0.0007554609
5416.0911035154	0.0007257737
5418.0199108884	0.0007307293
5419.9487182615	0.0007105386
5421.8775256345	0.0007959283
5423.8063330076	0.0008014914
5425.7351403806	0.0007307096
5427.6639477537	0.0008471943
5429.5927551267	0.0007774376
5431.5215624998	0.0007392565
5433.4503698728	0.0008408615
5435.3791772458	0.0007459465
5437.3079846189	0.0007558586
5439.2367919919	0.0008024056
5441.1655993650	0.0007986005
5443.0944067380	0.0007975179
5445.0232141111	0.0007640568
5446.9520214841	0.0008058371
5448.8808288572	0.0007435129
5450.8096362302	0.0007372018
5452.7384436033	0.0007939786
5454.6672509763	0.0007324083
5456.5960583494	0.0007758792
5458.5248657224	0.0007527971
5460.4536730955	0.0007249534
5462.3824804685	0.0007530387
5464.3112878415	0.0006997072
5466.2400952146	0.0007550175
5468.1689025876	0.0007585306
5470.0977099607	0.0007290005
5472.0265173337	0.0007643594
5473.9553247068	0.0007384712
5475.8841320798	0.0006779536
5477.8129394529	0.0006599409
5479.7417468259	0.0007439045
5481.6705541990	0.0007749415
5483.5993615720	0.0007667237
5485.5281689451	0.0007495310
5487.4569763181	0.0007247795
5489.3857836912	0.0007505475
5491.3145910642	0.0007178687
5493.2433984372	0.0007073752
5495.1722058103	0.0006898029
5497.1010131833	0.0006482812
5499.0298205564	0.0007000117
5500.9586279294	0.0007123602
5502.8874353025	0.0006363097
5504.8162426755	0.0006119065
5506.7450500486	0.0006718051
5508.6738574216	0.0007087941
5510.6026647947	0.0006847262
5512.5314721677	0.0006952684
5514.4602795408	0.0007112788
5516.3890869138	0.0006783282
5518.3178942869	0.0006965003
5520.2467016599	0.0006622819
5522.1755090330	0.0006245506
5524.1043164060	0.0006581898
5526.0331237790	0.0006361777
5527.9619311521	0.0006570161
5529.8907385251	0.0006512268
5531.8195458982	0.0006508405
5533.7483532712	0.0006448864
5535.6771606443	0.0006114193
5537.6059680173	0.0006377732
5539.5347753904	0.0005904646
5541.4635827634	0.0006375689
5543.3923901365	0.0006370173
5545.3211975095	0.0005771063
5547.2500048826	0.0006757890
5549.1788122556	0.0006828515
5551.1076196287	0.0006303373
5553.0364270017	0.0006735958
5554.9652343747	0.0007568171
5556.8940417478	0.0006453957
5558.8228491208	0.0005901778
5560.7516564939	0.0006948404
5562.6804638669	0.0006660777
5564.6092712400	0.0006820207
5566.5380786130	0.0006258334
5568.4668859861	0.0005895073
5570.3956933591	0.0006273963
5572.3245007322	0.0006176493
5574.2533081052	0.0006482813
5576.1821154783	0.0005860384
5578.1109228513	0.0005949381
5580.0397302244	0.0005677551
5581.9685375974	0.0005443355
5583.8973449704	0.0006241109
5585.8261523435	0.0005748036
5587.7549597165	0.0005944434
5589.6837670896	0.0006237220
5591.6125744626	0.0006071806
5593.5413818357	0.0005952867
5595.4701892087	0.0005899299
5597.3989965818	0.0006002714
5599.3278039548	0.0005766772
5601.2566113279	0.0006097872
5603.1854187009	0.0005780379
5605.1142260740	0.0005990518
5607.0430334470	0.0006370931
5608.9718408201	0.0005430079
5610.9006481931	0.0005699835
5612.8294555661	0.0006590853
5614.7582629392	0.0006580595
5616.6870703122	0.0005692418
5618.6158776853	0.0005659339
5620.5446850583	0.0005808305
5622.4734924314	0.0005573764
5624.4022998044	0.0006336057
5626.3311071775	0.0005765321
5628.2599145505	0.0005834968
5630.1887219236	0.0006492061
5632.1175292966	0.0005318829
5634.0463366697	0.0005522575
5635.9751440427	0.0006178089
5637.9039514158	0.0006070849
5639.8327587888	0.0005805487
5641.7615661619	0.0005471748
5643.6903735349	0.0005843239
5645.6191809079	0.0005866845
5647.5479882810	0.0006028746
5649.4767956540	0.0005517228
5651.4056030271	0.0004755586
5653.3344104001	0.0005955140
5655.2632177732	0.0006052779
5657.1920251462	0.0005237659
5659.1208325193	0.0005354844
5661.0496398923	0.0005295670
5662.9784472654	0.0005290213
5664.9072546384	0.0005181042
5666.8360620115	0.0005463234
5668.7648693845	0.0005574574
5670.6936767576	0.0005297307
5672.6224841306	0.0005170606
5674.5512915036	0.0004793832
5676.4800988767	0.0004941011
5678.4089062497	0.0005164918
5680.3377136228	0.0005468013
5682.2665209958	0.0005294549
5684.1953283689	0.0004907725
5686.1241357419	0.0005378344
5688.0529431150	0.0005327233
5689.9817504880	0.0005161601
5691.9105578611	0.0004903037
5693.8393652341	0.0004761578
5695.7681726072	0.0004855503
5697.6969799802	0.0004339997
5699.6257873533	0.0004323634
5701.5545947263	0.0005054374
5703.4834020993	0.0005286611
5705.4122094724	0.0004609892
5707.3410168454	0.0004703838
5709.2698242185	0.0005212316
5711.1986315915	0.0005053381
5713.1274389646	0.0004907924
5715.0562463376	0.0005110379
5716.9850537107	0.0004875418
5718.9138610837	0.0003943218
5720.8426684568	0.0004472787
5722.7714758298	0.0005011846
5724.7002832029	0.0005003429
5726.6290905759	0.0005487000
5728.5578979490	0.0005271320
5730.4867053220	0.0004764284
5732.4155126950	0.0004152710
5734.3443200681	0.0004631338
5736.2731274411	0.0004918214
5738.2019348142	0.0004371079
5740.1307421872	0.0004201884
5742.0595495603	0.0004088701
5743.9883569333	0.0005161245
5745.9171643064	0.0005545983
5747.8459716794	0.0004624656
5749.7747790525	0.0004577009
5751.7035864255	0.0004914546
5753.6323937986	0.0004395040
5755.5612011716	0.0004561902
5757.4900085447	0.0004732795
5759.4188159177	0.0003464904
5761.3476232907	0.0004092657
5763.2764306638	0.0005120942
5765.2052380368	0.0005008911
5767.1340454099	0.0004760755
5769.0628527829	0.0004264015
5770.9916601560	0.0004452945
5772.9204675290	0.0004736966
5774.8492749021	0.0004655487
5776.7780822751	0.0004167198
5778.7068896482	0.0004593311
5780.6356970212	0.0004647098
5782.5645043943	0.0004244981
5784.4933117673	0.0004327641
5786.4221191404	0.0003793589
5788.3509265134	0.0004603543
5790.2797338865	0.0005070969
5792.2085412595	0.0004794212
5794.1373486325	0.0004596660
5796.0661560056	0.0004391568
5797.9949633786	0.0004346044
5799.9237707517	0.0003541912
5801.8525781247	0.0003880759
5803.7813854978	0.0004057641
5805.7101928708	0.0003653108
5807.6390002439	0.0003497184
5809.5678076169	0.0003629109
5811.4966149900	0.0004106772
5813.4254223630	0.0004000149
5815.3542297361	0.0003951887
5817.2830371091	0.0003806663
5819.2118444822	0.0004208561
5821.1406518552	0.0003919126
5823.0694592282	0.0003647856
5824.9982666013	0.0004332415
5826.9270739743	0.0004167106
5828.8558813474	0.0003554179
5830.7846887204	0.0003818113
5832.7134960935	0.0005328102
5834.6423034665	0.0004265774
5836.5711108396	0.0003443618
5838.4999182126	0.0004453871
5840.4287255857	0.0003999574
5842.3575329587	0.0003892350
5844.2863403318	0.0003712291
5846.2151477048	0.0004037363
5848.1439550779	0.0003996820
5850.0727624509	0.0003733281
5852.0015698239	0.0003769750
5853.9303771970	0.0003585590
5855.8591845700	0.0004167500
5857.7879919431	0.0003806297
5859.7167993161	0.0003890203
5861.6456066892	0.0004222158
5863.5744140622	0.0004571011
5865.5032214353	0.0004354646
5867.4320288083	0.0003027063
5869.3608361814	0.0003070724
5871.2896435544	0.0003740747
5873.2184509275	0.0004098475
5875.1472583005	0.0003454073
5877.0760656736	0.0003764742
5879.0048730466	0.0003784829
5880.9336804196	0.0003493947
5882.8624877927	0.0004302590
5884.7912951657	0.0003118546
5886.7201025388	0.0003204767
5888.6489099118	0.0003894677
5890.5777172849	0.0003583778
5892.5065246579	0.0003684886
5894.4353320310	0.0003491776
5896.3641394040	0.0003957080
5898.2929467771	0.0003498762
5900.2217541501	0.0003264825
5902.1505615232	0.0003895265
5904.0793688962	0.0003389475
5906.0081762693	0.0003091313
5907.9369836423	0.0003437457
5909.8657910154	0.0003543209
5911.7945983884	0.0003675778
5913.7234057614	0.0003286696
5915.6522131345	0.0002904770
5917.5810205075	0.0003675249
5919.5098278806	0.0003811774
5921.4386352536	0.0003477363
5923.3674426267	0.0003109138
5925.2962499997	0.0003518079
5927.2250573728	0.0004284763
5929.1538647458	0.0003932000
5931.0826721189	0.0004263067
5933.0114794919	0.0003776551
5934.9402868650	0.0003303354
5936.8690942380	0.0003614053
5938.7979016111	0.0002934736
5940.7267089841	0.0003139519
5942.6555163571	0.0003470546
5944.5843237302	0.0003097245
5946.5131311032	0.0002940320
5948.4419384763	0.0002836474
5950.3707458493	0.0003056202
5952.2995532224	0.0003374679
5954.2283605954	0.0003163688
5956.1571679685	0.0003625276
5958.0859753415	0.0003736457
5960.0147827146	0.0002836672
5961.9435900876	0.0003097068
5963.8723974607	0.0002931674
5965.8012048337	0.0002583532
5967.7300122068	0.0003086282
5969.6588195798	0.0003491995
5971.5876269528	0.0003602714
5973.5164343259	0.0002874426
5975.4452416989	0.0002406566
5977.3740490720	0.0002906774
5979.3028564450	0.0003093767
5981.2316638181	0.0002895345
5983.1604711911	0.0003503296
5985.0892785642	0.0002983509
5987.0180859372	0.0002459752
5988.9468933103	0.0002814320
5990.8757006833	0.0002293368
5992.8045080564	0.0003192195
5994.7333154294	0.0003499869
5996.6621228025	0.0002750715
5998.5909301755	0.0002610116
6000.5197375485	0.0002855538
