399.2631262207	0.0007131810
401.1919335938	0.0015627134
403.1207409668	0.0011418452
405.0495483398	0.0006927246
406.9783557129	0.0013746661
408.9071630859	0.0010661697
410.8359704590	0.0009017756
412.7647778320	0.0017306000
414.6935852051	0.0013927710
416.6223925781	0.0009816968
418.5511999512	0.0011245852
420.4800073242	0.0011419464
422.4088146973	0.0017523512
424.3376220703	0.0015250169
426.2664294434	0.0014582092
428.1952368164	0.0017748447
430.1240441895	0.0012459061
432.0528515625	0.0014845129
433.9816589355	0.0014041311
435.9104663086	0.0008143781
437.8392736816	0.0013428126
439.7680810547	0.0016417273
441.6968884277	0.0010189352
443.6256958008	0.0007970382
445.5545031738	0.0011792798
447.4833105469	0.0009988083
449.4121179199	0.0009120906
451.3409252930	0.0012345985
453.2697326660	0.0009768168
455.1985400391	0.0010723628
457.1273474121	0.0010022012
459.0561547852	0.0009015229
460.9849621582	0.0013856089
462.9137695313	0.0010195347
464.8425769043	0.0009677380
466.7713842773	0.0008667836
468.7001916504	0.0004824700
470.6289990234	0.0008313339
472.5578063965	0.0007273633
474.4866137695	0.0006327282
476.4154211426	0.0005713227
478.3442285156	0.0004727688
480.2730358887	0.0004074855
482.2018432617	0.0001892550
484.1306506348	0.0003089252
486.0594580078	0.0001047072
487.9882653809	0.0001116009
489.9170727539	0.0003411009
491.8458801270	0.0003473807
493.7746875000	0.0004201889
495.7034948730	0.0004184580
497.6323022461	0.0001801585
499.5611096191	-0.0000155008
501.4899169922	0.0001885042
503.4187243652	0.0003344799
505.3475317383	0.0002176510
507.2763391113	0.0001542725
509.2051464844	0.0002037810
511.1339538574	-0.0001090779
513.0627612305	0.0000288650
514.9915686035	0.0006026504
516.9203759766	0.0001805582
518.8491833496	0.0001294988
520.7779907227	0.0005443420
522.7067980957	0.0002878026
524.6356054688	0.0002300971
526.5644128418	0.0004419413
528.4932202148	0.0003277284
530.4220275879	0.0001286952
532.3508349609	0.0002028537
534.2796423340	0.0000870049
536.2084497070	0.0001443186
538.1372570801	0.0001372709
540.0660644531	0.0000167318
541.9948718262	0.0002862783
543.9236791992	0.0003445037
545.8524865723	0.0004172476
547.7812939453	0.0000935956
549.7101013184	-0.0001295695
551.6389086914	0.0001012283
553.5677160645	-0.0001550958
555.4965234375	-0.0001770258
557.4253308105	0.0001911283
559.3541381836	0.0003062552
561.2829455566	0.0002763586
563.2117529297	0.0002436424
565.1405603027	0.0001403004
567.0693676758	0.0001314681
568.9981750488	0.0002934101
570.9269824219	0.0002446581
572.8557897949	0.0002298578
574.7845971680	0.0001745351
576.7134045410	0.0000997874
578.6422119141	0.0002372276
580.5710192871	-0.0000147323
582.4998266602	0.0000723229
584.4286340332	0.0002207802
586.3574414063	0.0001663621
588.2862487793	0.0002622711
590.2150561523	0.0001355289
592.1438635254	0.0002456180
594.0726708984	0.0004091288
596.0014782715	0.0001088205
597.9302856445	-0.0001631231
599.8590930176	0.0000330602
601.7879003906	0.0000023514
603.7167077637	0.0001425771
605.6455151367	0.0002529084
607.5743225098	-0.0003358981
609.5031298828	0.0001078526
611.4319372559	0.0001429229
613.3607446289	0.0001375993
615.2895520020	0.0000036012
617.2183593750	0.0000398450
619.1471667480	0.0001634121
621.0759741211	0.0001087312
623.0047814941	0.0001242011
624.9335888672	-0.0000513930
626.8623962402	-0.0002718773
628.7912036133	0.0001468534
630.7200109863	0.0006387814
632.6488183594	0.0006539749
634.5776257324	0.0010034533
636.5064331055	0.0008063175
638.4352404785	0.0007896697
640.3640478516	0.0010116163
642.2928552246	0.0010669308
644.2216625977	0.0017161060
646.1504699707	0.0014313876
648.0792773438	0.0014781599
650.0080847168	0.0017528408
651.9368920898	0.0016671547
653.8656994629	0.0020876226
655.7945068359	0.0016721197
657.7233142090	0.0017045005
659.6521215820	0.0020580150
661.5809289551	0.0019954958
663.5097363281	0.0022828900
665.4385437012	0.0022718683
667.3673510742	0.0021630297
669.2961584473	0.0023454609
671.2249658203	0.0027783150
673.1537731934	0.0025740219
675.0825805664	0.0024718358
677.0113879395	0.0031871637
678.9401953125	0.0031107264
680.8690026855	0.0028841123
682.7978100586	0.0028830194
684.7266174316	0.0027866676
686.6554248047	0.0028696954
688.5842321777	0.0027631111
690.5130395508	0.0030460260
692.4418469238	0.0030102008
694.3706542969	0.0030701421
696.2994616699	0.0041302284
698.2282690430	0.0043417113
700.1570764160	0.0045275223
702.0858837891	0.0046909032
704.0146911621	0.0040413542
705.9434985352	0.0038230596
707.8723059082	0.0030966760
709.8011132813	0.0024822496
711.7299206543	0.0022927271
713.6587280273	0.0013377557
715.5875354004	0.0006857478
717.5163427734	0.0004351084
719.4451501465	0.0003508323
721.3739575195	0.0005091169
723.3027648926	0.0003021762
725.2315722656	-0.0000598791
727.1603796387	-0.0002281167
729.0891870117	0.0000128162
731.0179943848	0.0002703558
732.9468017578	-0.0000238539
734.8756091309	0.0000973941
736.8044165039	0.0002403445
738.7332238770	-0.0000663583
740.6620312500	0.0000017568
742.5908386230	0.0001403677
744.5196459961	0.0003322659
746.4484533691	0.0002382399
748.3772607422	0.0000053862
750.3060681152	0.0001373656
752.2348754883	0.0000242431
754.1636828613	0.0000285873
756.0924902344	0.0003586929
758.0212976074	0.0003101549
759.9501049805	0.0003548515
761.8789123535	0.0002264868
763.8077197266	0.0000790855
765.7365270996	0.0005940394
767.6653344727	0.0003469439
769.5941418457	-0.0000278719
771.5229492188	0.0001458473
773.4517565918	0.0002553075
775.3805639648	0.0004342293
777.3093713379	0.0003165020
779.2381787109	0.0004394396
781.1669860840	0.0003753040
783.0957934570	0.0000989686
785.0246008301	0.0003833436
786.9534082031	0.0002676729
788.8822155762	0.0002677485
790.8110229492	0.0005256046
792.7398303223	0.0002316135
794.6686376953	0.0001256826
796.5974450684	0.0004721943
798.5262524414	0.0008645465
800.4550598145	0.0009041256
802.3838671875	0.0006793351
804.3126745605	0.0005309735
806.2414819336	0.0006691720
808.1702893066	0.0007313630
810.0990966797	0.0002004250
812.0279040527	0.0000965689
813.9567114258	0.0003901149
815.8855187988	0.0002921842
817.8143261719	0.0003128867
819.7431335449	0.0002077531
821.6719409180	0.0001435291
823.6007482910	0.0005617850
825.5295556641	0.0005627621
827.4583630371	0.0006543794
829.3871704102	0.0009967388
831.3159777832	0.0008068951
833.2447851563	0.0008370384
835.1735925293	0.0008181055
837.1023999023	0.0008616318
839.0312072754	0.0009546317
840.9600146484	0.0007553244
842.8888220215	0.0009676102
844.8176293945	0.0006662703
846.7464367676	0.0006282355
848.6752441406	0.0009036351
850.6040515137	0.0005461915
852.5328588867	0.0006930424
854.4616662598	0.0006535008
856.3904736328	0.0005985689
858.3192810059	0.0006504123
860.2480883789	0.0002655456
862.1768957520	0.0003898020
864.1057031250	0.0006042658
866.0345104980	0.0003592613
867.9633178711	0.0002791649
869.8921252441	0.0002639781
871.8209326172	0.0002263276
873.7497399902	0.0004791460
875.6785473633	0.0003399207
877.6073547363	0.0004794353
879.5361621094	0.0006435364
881.4649694824	0.0001307292
883.3937768555	0.0004121028
885.3225842285	0.0006360886
887.2513916016	0.0004085893
889.1801989746	0.0004241127
891.1090063477	0.0004085120
893.0378137207	0.0005292947
894.9666210938	0.0002056743
896.8954284668	0.0001324273
898.8242358398	0.0006107430
900.7530432129	0.0005253247
902.6818505859	0.0003952910
904.6106579590	0.0005613263
906.5394653320	0.0006523615
908.4682727051	0.0005610596
910.3970800781	0.0006020491
912.3258874512	0.0007247630
914.2546948242	0.0006867984
916.1835021973	0.0007620340
918.1123095703	0.0008120355
920.0411169434	0.0009115802
921.9699243164	0.0009591311
923.8987316895	0.0008856580
925.8275390625	0.0009829924
927.7563464355	0.0010233317
929.6851538086	0.0012361177
931.6139611816	0.0012692583
933.5427685547	0.0010111848
935.4715759277	0.0015199255
937.4003833008	0.0018713075
939.3291906738	0.0016178594
941.2579980469	0.0019131881
943.1868054199	0.0020021354
945.1156127930	0.0016051410
947.0444201660	0.0015882750
948.9732275391	0.0016231607
950.9020349121	0.0016874127
952.8308422852	0.0016880037
954.7596496582	0.0013400775
956.6884570313	0.0015414339
958.6172644043	0.0017198855
960.5460717773	0.0013186183
962.4748791504	0.0016191467
964.4036865234	0.0018395060
966.3324938965	0.0015064564
968.2613012695	0.0017973850
970.1901086426	0.0019475797
972.1189160156	0.0017725151
974.0477233887	0.0019310629
975.9765307617	0.0020055214
977.9053381348	0.0023558377
979.8341455078	0.0025244774
981.7629528809	0.0024622125
983.6917602539	0.0030728215
985.6205676270	0.0033960533
987.5493750000	0.0037467529
989.4781823730	0.0041635912
991.4069897461	0.0042710360
993.3357971191	0.0048095947
995.2646044922	0.0051612565
997.1934118652	0.0056072539
999.1222192383	0.0061021843
1001.0510266113	0.0064444011
1002.9798339844	0.0068768635
1004.9086413574	0.0073699574
1006.8374487305	0.0081248693
1008.7662561035	0.0083206818
1010.6950634766	0.0088494718
1012.6238708496	0.0094606047
1014.5526782227	0.0095582455
1016.4814855957	0.0103500802
1018.4102929688	0.0109290434
1020.3391003418	0.0112357400
1022.2679077148	0.0116908103
1024.1967150879	0.0121913031
1026.1255224609	0.0125689982
1028.0543298340	0.0129352100
1029.9831372070	0.0134701068
1031.9119445801	0.0134495199
1033.8407519531	0.0138626955
1035.7695593262	0.0143948700
1037.6983666992	0.0142850270
1039.6271740723	0.0144236805
1041.5559814453	0.0144574028
1043.4847888184	0.0142537542
1045.4135961914	0.0140663655
1047.3424035645	0.0139512261
1049.2712109375	0.0136697963
1051.2000183105	0.0134217935
1053.1288256836	0.0133585827
1055.0576330566	0.0128770685
1056.9864404297	0.0125841349
1058.9152478027	0.0124185393
1060.8440551758	0.0119070495
1062.7728625488	0.0117607452
1064.7016699219	0.0114120431
1066.6304772949	0.0106076933
1068.5592846680	0.0102626868
1070.4880920410	0.0099887922
1072.4168994141	0.0095572900
1074.3457067871	0.0091679962
1076.2745141602	0.0087011969
1078.2033215332	0.0083231758
1080.1321289062	0.0080220215
1082.0609362793	0.0077528227
1083.9897436523	0.0073222327
1085.9185510254	0.0068506361
1087.8473583984	0.0065586185
1089.7761657715	0.0061877687
1091.7049731445	0.0059627248
1093.6337805176	0.0058958251
1095.5625878906	0.0055274852
1097.4913952637	0.0054257121
1099.4202026367	0.0055608461
1101.3490100098	0.0052471221
1103.2778173828	0.0051573948
1105.2066247559	0.0050598439
1107.1354321289	0.0048142336
1109.0642395019	0.0047700745
1110.9930468750	0.0047851624
1112.9218542480	0.0049422933
1114.8506616211	0.0046803290
1116.7794689941	0.0046933591
1118.7082763672	0.0048145237
1120.6370837402	0.0047123684
1122.5658911133	0.0050165821
1124.4946984863	0.0048861373
1126.4235058594	0.0048030578
1128.3523132324	0.0049441680
1130.2811206055	0.0050127604
1132.2099279785	0.0051318835
1134.1387353516	0.0052714674
1136.0675427246	0.0055188322
1137.9963500977	0.0056834687
1139.9251574707	0.0060440665
1141.8539648437	0.0064049363
1143.7827722168	0.0070699621
1145.7115795898	0.0074971886
1147.6403869629	0.0076636332
1149.5691943359	0.0082339244
1151.4980017090	0.0085724955
1153.4268090820	0.0092037190
1155.3556164551	0.0095807211
1157.2844238281	0.0098179802
1159.2132312012	0.0102441423
1161.1420385742	0.0105119208
1163.0708459473	0.0110566253
1164.9996533203	0.0113009010
1166.9284606934	0.0117315445
1168.8572680664	0.0121504050
1170.7860754394	0.0125675239
1172.7148828125	0.0133274887
1174.6436901855	0.0136039127
1176.5724975586	0.0141004818
1178.5013049316	0.0147205070
1180.4301123047	0.0149772223
1182.3589196777	0.0155903185
1184.2877270508	0.0165525321
1186.2165344238	0.0172207840
1188.1453417969	0.0177950189
1190.0741491699	0.0184552073
1192.0029565430	0.0193192847
1193.9317639160	0.0205281060
1195.8605712891	0.0213040411
1197.7893786621	0.0221118480
1199.7181860351	0.0232191831
1201.6469934082	0.0240795165
1203.5758007812	0.0250918344
1205.5046081543	0.0261320546
1207.4334155273	0.0268781036
1209.3622229004	0.0277988762
1211.2910302734	0.0290072039
1213.2198376465	0.0297252256
1215.1486450195	0.0301818028
1217.0774523926	0.0309889670
1219.0062597656	0.0315926597
1220.9350671387	0.0318825394
1222.8638745117	0.0323420130
1224.7926818848	0.0326443985
1226.7214892578	0.0327192992
1228.6502966308	0.0329983048
1230.5791040039	0.0331476927
1232.5079113769	0.0331330523
1234.4367187500	0.0331458896
1236.3655261230	0.0332147628
1238.2943334961	0.0332882889
1240.2231408691	0.0332648456
1242.1519482422	0.0330762453
1244.0807556152	0.0328052640
1246.0095629883	0.0328585654
1247.9383703613	0.0327693261
1249.8671777344	0.0323364735
1251.7959851074	0.0318245776
1253.7247924805	0.0316774920
1255.6535998535	0.0315860137
1257.5824072266	0.0307447650
1259.5112145996	0.0302896760
1261.4400219726	0.0300405361
1263.3688293457	0.0294828322
1265.2976367187	0.0292600729
1267.2264440918	0.0288946237
1269.1552514648	0.0283989869
1271.0840588379	0.0281026326
1273.0128662109	0.0277349018
1274.9416735840	0.0271933898
1276.8704809570	0.0267141908
1278.7992883301	0.0261630695
1280.7280957031	0.0256171152
1282.6569030762	0.0251986496
1284.5857104492	0.0246902965
1286.5145178223	0.0241996888
1288.4433251953	0.0239968970
1290.3721325683	0.0238511153
1292.3009399414	0.0232621431
1294.2297473144	0.0231127720
1296.1585546875	0.0232246444
1298.0873620605	0.0229550935
1300.0161694336	0.0230912939
1301.9449768066	0.0233092103
1303.8737841797	0.0233080350
1305.8025915527	0.0235096961
1307.7313989258	0.0238417666
1309.6602062988	0.0241820142
1311.5890136719	0.0247621201
1313.5178210449	0.0250984021
1315.4466284180	0.0256092027
1317.3754357910	0.0263781156
1319.3042431640	0.0268271491
1321.2330505371	0.0278724898
1323.1618579101	0.0285895355
1325.0906652832	0.0293024369
1327.0194726562	0.0303485934
1328.9482800293	0.0309044346
1330.8770874023	0.0317863598
1332.8058947754	0.0323325321
1334.7347021484	0.0330436118
1336.6635095215	0.0337154418
1338.5923168945	0.0334135219
1340.5211242676	0.0338884294
1342.4499316406	0.0349361524
1344.3787390137	0.0350852385
1346.3075463867	0.0352184623
1348.2363537597	0.0350914896
1350.1651611328	0.0345922969
1352.0939685058	0.0348401219
1354.0227758789	0.0343115330
1355.9515832519	0.0339527726
1357.8803906250	0.0340668410
1359.8091979980	0.0334485099
1361.7380053711	0.0325706862
1363.6668127441	0.0321308561
1365.5956201172	0.0329086408
1367.5244274902	0.0320901796
1369.4532348633	0.0320976526
1371.3820422363	0.0325821713
1373.3108496094	0.0308941770
1375.2396569824	0.0314559862
1377.1684643555	0.0318642408
1379.0972717285	0.0316714905
1381.0260791015	0.0318303518
1382.9548864746	0.0315742791
1384.8836938476	0.0315611362
1386.8125012207	0.0304573458
1388.7413085937	0.0310263894
1390.6701159668	0.0328856409
1392.5989233398	0.0324042067
1394.5277307129	0.0309695899
1396.4565380859	0.0320903659
1398.3853454590	0.0321097411
1400.3141528320	0.0318849534
1402.2429602051	0.0338668749
1404.1717675781	0.0323581100
1406.1005749512	0.0326433033
1408.0293823242	0.0333981588
1409.9581896972	0.0323346779
1411.8869970703	0.0328087509
1413.8158044433	0.0317906812
1415.7446118164	0.0323799029
1417.6734191894	0.0297128800
1419.6022265625	0.0274528898
1421.5310339355	0.0303160269
1423.4598413086	0.0293421689
1425.3886486816	0.0286100432
1427.3174560547	0.0286132880
1429.2462634277	0.0268480945
1431.1750708008	0.0259603504
1433.1038781738	0.0261800531
1435.0326855469	0.0242412351
1436.9614929199	0.0212633833
1438.8903002929	0.0233250409
1440.8191076660	0.0235246290
1442.7479150390	0.0221943855
1444.6767224121	0.0229554437
1446.6055297851	0.0212499984
1448.5343371582	0.0214788541
1450.4631445312	0.0223384239
1452.3919519043	0.0226487666
1454.3207592773	0.0233474541
1456.2495666504	0.0204580463
1458.1783740234	0.0215414986
1460.1071813965	0.0269910041
1462.0359887695	0.0283878818
1463.9647961426	0.0288247913
1465.8936035156	0.0301086139
1467.8224108886	0.0335811228
1469.7512182617	0.0357834585
1471.6800256347	0.0331658684
1473.6088330078	0.0351160057
1475.5376403808	0.0391421802
1477.4664477539	0.0417908616
1479.3952551269	0.0450527146
1481.3240625000	0.0461455695
1483.2528698730	0.0486385822
1485.1816772461	0.0500605479
1487.1104846191	0.0502130389
1489.0392919922	0.0502189174
1490.9680993652	0.0509034842
1492.8969067383	0.0573213212
1494.8257141113	0.0562791750
1496.7545214843	0.0523718111
1498.6833288574	0.0578436404
1500.6121362304	0.0595503785
1502.5409436035	0.0629272237
1504.4697509765	0.0600113422
1506.3985583496	0.0479494408
1508.3273657226	0.0559492633
1510.2561730957	0.0627879798
1512.1849804687	0.0613649860
1514.1137878418	0.0651265830
1516.0425952148	0.0604956970
1517.9714025879	0.0626769289
1519.9002099609	0.0603687465
1521.8290173340	0.0550767481
1523.7578247070	0.0639690161
1525.6866320801	0.0626992732
1527.6154394531	0.0627971515
1529.5442468261	0.0675749779
1531.4730541992	0.0656924844
1533.4018615722	0.0615107231
1535.3306689453	0.0643897504
1537.2594763183	0.0672515929
1539.1882836914	0.0524386726
1541.1170910644	0.0548533276
1543.0458984375	0.0622297823
1544.9747058105	0.0606329665
1546.9035131836	0.0686293617
1548.8323205566	0.0648486093
1550.7611279297	0.0668254793
1552.6899353027	0.0660777390
1554.6187426758	0.0617201030
1556.5475500488	0.0648790970
1558.4763574218	0.0503196865
1560.4051647949	0.0536238775
1562.3339721679	0.0689647570
1564.2627795410	0.0662068576
1566.1915869140	0.0675026476
1568.1203942871	0.0666365623
1570.0492016601	0.0613456182
1571.9780090332	0.0679416731
1573.9068164062	0.0681334585
1575.8356237793	0.0572662130
1577.7644311523	0.0631776005
1579.6932385254	0.0693807155
1581.6220458984	0.0666393936
1583.5508532715	0.0679721832
1585.4796606445	0.0670706183
1587.4084680175	0.0676321313
1589.3372753906	0.0672083870
1591.2660827636	0.0671423450
1593.1948901367	0.0673321337
1595.1236975097	0.0665263683
1597.0525048828	0.0672633871
1598.9813122558	0.0669372901
1600.9101196289	0.0673100948
1602.8389270019	0.0663466454
1604.7677343750	0.0672178119
1606.6965417480	0.0664458424
1608.6253491211	0.0663797706
1610.5541564941	0.0661902428
1612.4829638672	0.0662956014
1614.4117712402	0.0671169013
1616.3405786132	0.0574595928
1618.2693859863	0.0614871420
1620.1981933593	0.0687935650
1622.1270007324	0.0625752360
1624.0558081054	0.0633649081
1625.9846154785	0.0652721673
1627.9134228515	0.0652122796
1629.8422302246	0.0648198724
1631.7710375976	0.0678893775
1633.6998449707	0.0638602749
1635.6286523437	0.0555980727
1637.5574597168	0.0624212325
1639.4862670898	0.0666276589
1641.4150744629	0.0655647963
1643.3438818359	0.0667361245
1645.2726892090	0.0615234450
1647.2014965820	0.0565597564
1649.1303039550	0.0664796084
1651.0591113281	0.0628127754
1652.9879187011	0.0457852744
1654.9167260742	0.0579163581
1656.8455334472	0.0679946542
1658.7743408203	0.0657243356
1660.7031481933	0.0671564192
1662.6319555664	0.0623767860
1664.5607629394	0.0653502792
1666.4895703125	0.0683825761
1668.4183776855	0.0622173473
1670.3471850586	0.0611629337
1672.2759924316	0.0667255670
1674.2047998047	0.0629076362
1676.1336071777	0.0611608997
1678.0624145507	0.0678922907
1679.9912219238	0.0656934306
1681.9200292968	0.0653530806
1683.8488366699	0.0556611829
1685.7776440429	0.0556153581
1687.7064514160	0.0704339817
1689.6352587890	0.0628966391
1691.5640661621	0.0680600405
1693.4928735351	0.0681808442
1695.4216809082	0.0541595556
1697.3504882812	0.0635631382
1699.2792956543	0.0575563125
1701.2081030273	0.0539505035
1703.1369104004	0.0671732575
1705.0657177734	0.0629262179
1706.9945251464	0.0634453893
1708.9233325195	0.0670384914
1710.8521398925	0.0651349947
1712.7809472656	0.0660615042
1714.7097546386	0.0621095896
1716.6385620117	0.0570458472
1718.5673693847	0.0566204898
1720.4961767578	0.0644639432
1722.4249841308	0.0659178048
1724.3537915039	0.0623500645
1726.2825988769	0.0661683753
1728.2114062500	0.0620973483
1730.1402136230	0.0629068762
1732.0690209961	0.0609997511
1733.9978283691	0.0501496792
1735.9266357421	0.0590195209
1737.8554431152	0.0632258058
1739.7842504882	0.0582881868
1741.7130578613	0.0620777234
1743.6418652343	0.0627881959
1745.5706726074	0.0630934238
1747.4994799804	0.0636415929
1749.4282873535	0.0614683330
1751.3570947265	0.0594171509
1753.2859020996	0.0645387620
1755.2147094726	0.0664349347
1757.1435168457	0.0621285811
1759.0723242187	0.0665793791
1761.0011315918	0.0633610711
1762.9299389648	0.0623612553
1764.8587463379	0.0684764236
1766.7875537109	0.0632148236
1768.7163610839	0.0639260337
1770.6451684570	0.0633221120
1772.5739758300	0.0586919934
1774.5027832031	0.0636268929
1776.4315905761	0.0661712214
1778.3603979492	0.0653335303
1780.2892053222	0.0648351386
1782.2180126953	0.0653305948
1784.1468200683	0.0650851578
1786.0756274414	0.0642388761
1788.0044348144	0.0667230338
1789.9332421875	0.0651665032
1791.8620495605	0.0607302114
1793.7908569336	0.0628976747
1795.7196643066	0.0659276843
1797.6484716796	0.0652086288
1799.5772790527	0.0645692050
1801.5060864257	0.0636999682
1803.4348937988	0.0652212352
1805.3637011718	0.0662195012
1807.2925085449	0.0655927882
1809.2213159179	0.0657918230
1811.1501232910	0.0645167157
1813.0789306640	0.0657888576
1815.0077380371	0.0659228116
1816.9365454101	0.0656488389
1818.8653527832	0.0659295321
1820.7941601562	0.0656273812
1822.7229675293	0.0663809776
1824.6517749023	0.0631822944
1826.5805822753	0.0648312196
1828.5093896484	0.0647806823
1830.4381970214	0.0620784909
1832.3670043945	0.0659608245
1834.2958117675	0.0654075891
1836.2246191406	0.0653307810
1838.1534265136	0.0651128739
1840.0822338867	0.0655387342
1842.0110412597	0.0654775500
1843.9398486328	0.0600756407
1845.8686560058	0.0629612133
1847.7974633789	0.0654022694
1849.7262707519	0.0643556416
1851.6550781250	0.0655244142
1853.5838854980	0.0645811111
1855.5126928710	0.0649800301
1857.4415002441	0.0647031218
1859.3703076171	0.0644973516
1861.2991149902	0.0646148473
1863.2279223632	0.0641999394
1865.1567297363	0.0646515191
1867.0855371093	0.0629786327
1869.0143444824	0.0611252412
1870.9431518554	0.0626478493
1872.8719592285	0.0644465312
1874.8007666015	0.0636163205
1876.7295739746	0.0637050122
1878.6583813476	0.0636604056
1880.5871887207	0.0632243305
1882.5159960937	0.0636949986
1884.4448034667	0.0630516261
1886.3736108398	0.0634215549
1888.3024182128	0.0624315888
1890.2312255859	0.0616381764
1892.1600329589	0.0631534010
1894.0888403320	0.0624249466
1896.0176477050	0.0622491464
1897.9464550781	0.0626861155
1899.8752624511	0.0624727160
1901.8040698242	0.0626805946
1903.7328771972	0.0621400476
1905.6616845703	0.0622905195
1907.5904919433	0.0619894862
1909.5192993164	0.0615841076
1911.4481066894	0.0616777986
1913.3769140625	0.0618051216
1915.3057214355	0.0622209981
1917.2345288085	0.0601247028
1919.1633361816	0.0602971762
1921.0921435546	0.0617555827
1923.0209509277	0.0603937693
1924.9497583007	0.0612463802
1926.8785656738	0.0614161566
1928.8073730468	0.0611480065
1930.7361804199	0.0614778958
1932.6649877929	0.0607885569
1934.5937951660	0.0612990558
1936.5226025390	0.0608162805
1938.4514099121	0.0610512346
1940.3802172851	0.0610180870
1942.3090246582	0.0596609935
1944.2378320312	0.0603244081
1946.1666394042	0.0607046038
1948.0954467773	0.0606466606
1950.0242541503	0.0607045293
1951.9530615234	0.0606655031
1953.8818688964	0.0607019663
1955.8106762695	0.0604922026
1957.7394836425	0.0606203824
1959.6682910156	0.0604794696
1961.5970983886	0.0602671206
1963.5259057617	0.0602946505
1965.4547131347	0.0601054952
1967.3835205078	0.0597740747
1969.3123278808	0.0600382760
1971.2411352539	0.0602614507
1973.1699426269	0.0599618107
1975.0987499999	0.0601026639
1977.0275573730	0.0600608662
1978.9563647460	0.0598768592
1980.8851721191	0.0597065091
1982.8139794921	0.0595834441
1984.7427868652	0.0596720502
1986.6715942382	0.0593070723
1988.6004016113	0.0592399761
1990.5292089843	0.0589867756
1992.4580163574	0.0585204139
1994.3868237304	0.0590632707
1996.3156311035	0.0590441376
1998.2444384765	0.0586740598
2000.1732458496	0.0588455833
2002.1020532226	0.0585355610
2004.0308605956	0.0583535209
2005.9596679687	0.0583427809
2007.8884753417	0.0582567714
2009.8172827148	0.0581620559
2011.7460900878	0.0579321533
2013.6748974609	0.0579264350
2015.6037048339	0.0576852895
2017.5325122070	0.0574681610
2019.4613195800	0.0574600548
2021.3901269531	0.0572860241
2023.3189343261	0.0571298078
2025.2477416992	0.0570758805
2027.1765490722	0.0570208430
2029.1053564453	0.0568495952
2031.0341638183	0.0566760637
2032.9629711914	0.0564896986
2034.8917785644	0.0564597920
2036.8205859374	0.0563386232
2038.7493933105	0.0561358109
2040.6782006835	0.0559261814
2042.6070080566	0.0556695275
2044.5358154296	0.0557314679
2046.4646228027	0.0556665137
2048.3934301757	0.0555046052
2050.3222375488	0.0553840324
2052.2510449218	0.0554169342
2054.1798522949	0.0552567691
2056.1086596679	0.0549866557
2058.0374670410	0.0550364107
2059.9662744140	0.0547562763
2061.8950817871	0.0546775162
2063.8238891601	0.0544579960
2065.7526965331	0.0542801991
2067.6815039062	0.0544387102
2069.6103112792	0.0542585030
2071.5391186523	0.0541649945
2073.4679260253	0.0539250001
2075.3967333984	0.0540048890
2077.3255407714	0.0538751930
2079.2543481445	0.0536001027
2081.1831555175	0.0537375882
2083.1119628906	0.0534338579
2085.0407702636	0.0534775704
2086.9695776367	0.0534635410
2088.8983850097	0.0531290695
2090.8271923828	0.0530509166
2092.7559997558	0.0529776737
2094.6848071288	0.0528844371
2096.6136145019	0.0527657531
2098.5424218749	0.0527816042
2100.4712292480	0.0525981374
2102.4000366210	0.0524222925
2104.3288439941	0.0524652824
2106.2576513671	0.0524248630
2108.1864587402	0.0523012467
2110.1152661132	0.0521519333
2112.0440734863	0.0520508774
2113.9728808593	0.0519079529
2115.9016882324	0.0518262088
2117.8304956054	0.0517442301
2119.7593029785	0.0516336262
2121.6881103515	0.0516548082
2123.6169177245	0.0515764803
2125.5457250976	0.0514077395
2127.4745324706	0.0514918640
2129.4033398437	0.0513323955
2131.3321472167	0.0511293709
2133.2609545898	0.0512850806
2135.1897619628	0.0510956869
2137.1185693359	0.0509749055
2139.0473767089	0.0508837067
2140.9761840820	0.0507893525
2142.9049914550	0.0508826561
2144.8337988281	0.0507220179
2146.7626062011	0.0507115647
2148.6914135742	0.0506738052
2150.6202209472	0.0505750105
2152.5490283203	0.0504786596
2154.4778356933	0.0503017418
2156.4066430663	0.0502369106
2158.3354504394	0.0502212569
2160.2642578124	0.0502374023
2162.1930651855	0.0500881374
2164.1218725585	0.0499962196
2166.0506799316	0.0499379374
2167.9794873046	0.0498236120
2169.9082946777	0.0498206653
2171.8371020507	0.0498207398
2173.7659094238	0.0496918596
2175.6947167968	0.0496124551
2177.6235241699	0.0495821685
2179.5523315429	0.0494423993
2181.4811389160	0.0495655611
2183.4099462890	0.0495101288
2185.3387536620	0.0493381992
2187.2675610351	0.0492500886
2189.1963684081	0.0490590259
2191.1251757812	0.0490528718
2193.0539831542	0.0489794090
2194.9827905273	0.0490268096
2196.9115979003	0.0489799194
2198.8404052734	0.0489052311
2200.7692126464	0.0487894267
2202.6980200195	0.0485890396
2204.6268273925	0.0487487242
2206.5556347656	0.0486646891
2208.4844421386	0.0486038551
2210.4132495117	0.0485176295
2212.3420568847	0.0485028476
2214.2708642577	0.0485086292
2216.1996716308	0.0481547676
2218.1284790038	0.0482803881
2220.0572863769	0.0482120141
2221.9860937499	0.0480679050
2223.9149011230	0.0481714457
2225.8437084960	0.0478910692
2227.7725158691	0.0478277840
2229.7013232421	0.0478406101
2231.6301306152	0.0477071404
2233.5589379882	0.0476422310
2235.4877453613	0.0475329161
2237.4165527343	0.0474596396
2239.3453601074	0.0473770127
2241.2741674804	0.0472598672
2243.2029748534	0.0472667739
2245.1317822265	0.0472980142
2247.0605895995	0.0471762046
2248.9893969726	0.0469589271
2250.9182043456	0.0468811356
2252.8470117187	0.0469260663
2254.7758190917	0.0468326285
2256.7046264648	0.0467021167
2258.6334338378	0.0465834849
2260.5622412109	0.0465101898
2262.4910485839	0.0465386212
2264.4198559570	0.0464821272
2266.3486633300	0.0463012382
2268.2774707031	0.0463098213
2270.2062780761	0.0463598035
2272.1350854491	0.0461625643
2274.0638928222	0.0461869314
2275.9927001952	0.0461274721
2277.9215075683	0.0459921733
2279.8503149413	0.0461360589
2281.7791223144	0.0459659770
2283.7079296874	0.0456667468
2285.6367370605	0.0456541292
2287.5655444335	0.0457322970
2289.4943518066	0.0456151478
2291.4231591796	0.0454333872
2293.3519665527	0.0452975370
2295.2807739257	0.0451913998
2297.2095812988	0.0450251251
2299.1383886718	0.0448686145
2301.0671960449	0.0447448567
2302.9960034179	0.0443588309
2304.9248107909	0.0444321707
2306.8536181640	0.0442798436
2308.7824255370	0.0436568893
2310.7112329101	0.0435683653
2312.6400402831	0.0431428105
2314.5688476562	0.0427083857
2316.4976550292	0.0424640737
2318.4264624023	0.0420284346
2320.3552697753	0.0415827408
2322.2840771484	0.0409427434
2324.2128845214	0.0405213200
2326.1416918945	0.0401250683
2328.0704992675	0.0397018231
2329.9993066406	0.0394330509
2331.9281140136	0.0391581468
2333.8569213866	0.0389424935
2335.7857287597	0.0387580544
2337.7145361327	0.0387456901
2339.6433435058	0.0387159958
2341.5721508788	0.0389140397
2343.5009582519	0.0394344926
2345.4297656249	0.0398831479
2347.3585729980	0.0412664823
2349.2873803710	0.0422893241
2351.2161877441	0.0409911498
2353.1449951171	0.0394331142
2355.0738024902	0.0381943434
2357.0026098632	0.0370263271
2358.9314172363	0.0365461446
2360.8602246093	0.0362594202
2362.7890319823	0.0362485796
2364.7178393554	0.0362999439
2366.6466467284	0.0367849395
2368.5754541015	0.0374166891
2370.5042614745	0.0378924981
2372.4330688476	0.0388271399
2374.3618762206	0.0397110134
2376.2906835937	0.0406305082
2378.2194909667	0.0413157940
2380.1482983398	0.0418309048
2382.0771057128	0.0421877801
2384.0059130859	0.0423206948
2385.9347204589	0.0425394401
2387.8635278320	0.0425079614
2389.7923352050	0.0425671339
2391.7211425780	0.0423837006
2393.6499499511	0.0423032418
2395.5787573241	0.0423962697
2397.5075646972	0.0422509089
2399.4363720702	0.0421377048
2401.3651794433	0.0419550873
2403.2939868163	0.0421186760
2405.2227941894	0.0419665724
2407.1516015624	0.0417653434
2409.0804089355	0.0419494472
2411.0092163085	0.0418697596
2412.9380236816	0.0417537168
2414.8668310546	0.0417429656
2416.7956384277	0.0417412966
2418.7244458007	0.0415697172
2420.6532531738	0.0416033641
2422.5820605468	0.0414932817
2424.5108679198	0.0413493738
2426.4396752929	0.0413929261
2428.3684826659	0.0412454978
2430.2972900390	0.0412885584
2432.2260974120	0.0412015617
2434.1549047851	0.0411626101
2436.0837121581	0.0410655551
2438.0125195312	0.0409992859
2439.9413269042	0.0410701185
2441.8701342773	0.0409548655
2443.7989416503	0.0408570878
2445.7277490234	0.0405985266
2447.6565563964	0.0407633930
2449.5853637695	0.0407200307
2451.5141711425	0.0404576249
2453.4429785155	0.0405441374
2455.3717858886	0.0403981283
2457.3005932616	0.0405135080
2459.2294006347	0.0404914096
2461.1582080077	0.0403173417
2463.0870153808	0.0402927995
2465.0158227538	0.0401960649
2466.9446301269	0.0402066484
2468.8734374999	0.0401026905
2470.8022448730	0.0399641618
2472.7310522460	0.0399051085
2474.6598596191	0.0398598164
2476.5886669921	0.0397583209
2478.5174743652	0.0397578254
2480.4462817382	0.0398124009
2482.3750891112	0.0396348014
2484.3038964843	0.0395143628
2486.2327038573	0.0396114215
2488.1615112304	0.0394639820
2490.0903186034	0.0393292978
2492.0191259765	0.0394480899
2493.9479333495	0.0392462164
2495.8767407226	0.0392272100
2497.8055480956	0.0393271819
2499.7343554687	0.0392147787
2501.6631628417	0.0391152427
2503.5919702148	0.0389603525
2505.5207775878	0.0389739498
2507.4495849609	0.0389033668
2509.3783923339	0.0388982221
2511.3071997069	0.0387707800
2513.2360070800	0.0386403501
2515.1648144530	0.0388164148
2517.0936218261	0.0386396199
2519.0224291991	0.0385489054
2520.9512365722	0.0386116728
2522.8800439452	0.0385433659
2524.8088513183	0.0384716615
2526.7376586913	0.0384745337
2528.6664660644	0.0384480171
2530.5952734374	0.0382729359
2532.5240808105	0.0382800400
2534.4528881835	0.0382391512
2536.3816955566	0.0381189659
2538.3105029296	0.0379952192
2540.2393103027	0.0379086584
2542.1681176757	0.0379706547
2544.0969250487	0.0379683487
2546.0257324218	0.0378676802
2547.9545397948	0.0376867577
2549.8833471679	0.0377141088
2551.8121545409	0.0377250016
2553.7409619140	0.0374510586
2555.6697692870	0.0374628231
2557.5985766601	0.0375526845
2559.5273840331	0.0373512208
2561.4561914062	0.0373676792
2563.3849987792	0.0373237431
2565.3138061523	0.0372541323
2567.2426135253	0.0373818949
2569.1714208984	0.0371728204
2571.1002282714	0.0371798314
2573.0290356444	0.0371353254
2574.9578430175	0.0369092897
2576.8866503905	0.0370142236
2578.8154577636	0.0369454473
2580.7442651366	0.0368993729
2582.6730725097	0.0368788019
2584.6018798827	0.0368101858
2586.5306872558	0.0367313027
2588.4594946288	0.0366521776
2590.3883020019	0.0365869179
2592.3171093749	0.0364536978
2594.2459167480	0.0365158096
2596.1747241210	0.0364643410
2598.1035314941	0.0363346711
2600.0323388671	0.0362894982
2601.9611462401	0.0362742729
2603.8899536132	0.0362110585
2605.8187609862	0.0361297056
2607.7475683593	0.0361256115
2609.6763757323	0.0359907076
2611.6051831054	0.0359959379
2613.5339904784	0.0359634236
2615.4627978515	0.0358408242
2617.3916052245	0.0358403772
2619.3204125976	0.0358088315
2621.2492199706	0.0356639326
2623.1780273437	0.0356136709
2625.1068347167	0.0356913209
2627.0356420898	0.0355230048
2628.9644494628	0.0355749391
2630.8932568358	0.0355377197
2632.8220642089	0.0354065746
2634.7508715819	0.0355314575
2636.6796789550	0.0353426710
2638.6084863280	0.0352530777
2640.5372937011	0.0352282971
2642.4661010741	0.0352686308
2644.3949084472	0.0352487229
2646.3237158202	0.0349902585
2648.2525231933	0.0350377038
2650.1813305663	0.0350530632
2652.1101379394	0.0349071473
2654.0389453124	0.0347505026
2655.9677526855	0.0346319228
2657.8965600585	0.0346122421
2659.8253674315	0.0346290544
2661.7541748046	0.0346313417
2663.6829821776	0.0346115306
2665.6117895507	0.0344861783
2667.5405969237	0.0343229026
2669.4694042968	0.0343803205
2671.3982116698	0.0343725458
2673.3270190429	0.0343406200
2675.2558264159	0.0343141854
2677.1846337890	0.0342262536
2679.1134411620	0.0340838805
2681.0422485351	0.0340157151
2682.9710559081	0.0341002159
2684.8998632812	0.0338864550
2686.8286706542	0.0338500142
2688.7574780273	0.0338287875
2690.6862854003	0.0337470844
2692.6150927733	0.0338973999
2694.5439001464	0.0337485075
2696.4727075194	0.0337142572
2698.4015148925	0.0336423591
2700.3303222655	0.0335718319
2702.2591296386	0.0336078778
2704.1879370116	0.0334169641
2706.1167443847	0.0334840789
2708.0455517577	0.0334350243
2709.9743591308	0.0332792327
2711.9031665038	0.0333323330
2713.8319738769	0.0332433656
2715.7607812499	0.0331238322
2717.6895886230	0.0330617391
2719.6183959960	0.0330306739
2721.5472033690	0.0329572782
2723.4760107421	0.0328726396
2725.4048181151	0.0328772031
2727.3336254882	0.0327976644
2729.2624328612	0.0327144042
2731.1912402343	0.0326946341
2733.1200476073	0.0325935930
2735.0488549804	0.0325079933
2736.9776623534	0.0324926376
2738.9064697265	0.0325026996
2740.8352770995	0.0324673578
2742.7640844726	0.0324333757
2744.6928918456	0.0323782153
2746.6216992187	0.0323003456
2748.5505065917	0.0323305130
2750.4793139647	0.0322639272
2752.4081213378	0.0321975201
2754.3369287108	0.0321137235
2756.2657360839	0.0319539271
2758.1945434569	0.0319457687
2760.1233508300	0.0319225416
2762.0521582030	0.0318758115
2763.9809655761	0.0318662301
2765.9097729491	0.0318611488
2767.8385803222	0.0317427367
2769.7673876952	0.0315907598
2771.6961950683	0.0315244645
2773.6250024413	0.0314545631
2775.5538098144	0.0314173847
2777.4826171874	0.0313408934
2779.4114245604	0.0313477404
2781.3402319335	0.0313603431
2783.2690393065	0.0312597491
2785.1978466796	0.0311085898
2787.1266540526	0.0310553927
2789.0554614257	0.0311053023
2790.9842687987	0.0309664737
2792.9130761718	0.0309814587
2794.8418835448	0.0310470834
2796.7706909179	0.0308590084
2798.6994982909	0.0307370909
2800.6283056640	0.0307259373
2802.5571130370	0.0306675211
2804.4859204101	0.0305630546
2806.4147277831	0.0305040851
2808.3435351562	0.0304289311
2810.2723425292	0.0304490421
2812.2011499022	0.0304279607
2814.1299572753	0.0302748494
2816.0587646483	0.0302082598
2817.9875720214	0.0302122515
2819.9163793944	0.0301630106
2821.8451867675	0.0300180949
2823.7739941405	0.0299853832
2825.7028015136	0.0299881361
2827.6316088866	0.0300151911
2829.5604162597	0.0298943631
2831.4892236327	0.0297113843
2833.4180310058	0.0297691114
2835.3468383788	0.0296671428
2837.2756457519	0.0295440573
2839.2044531249	0.0294775032
2841.1332604979	0.0293860584
2843.0620678710	0.0292293541
2844.9908752440	0.0290467702
2846.9196826171	0.0289219189
2848.8484899901	0.0287127346
2850.7772973632	0.0287587345
2852.7061047362	0.0287105665
2854.6349121093	0.0286507830
2856.5637194823	0.0287700295
2858.4925268554	0.0285500363
2860.4213342284	0.0285108685
2862.3501416015	0.0286124796
2864.2789489745	0.0284606814
2866.2077563476	0.0283825696
2868.1365637206	0.0284362920
2870.0653710936	0.0283732731
2871.9941784667	0.0281989016
2873.9229858397	0.0282237753
2875.8517932128	0.0283133872
2877.7806005858	0.0281951576
2879.7094079589	0.0281646997
2881.6382153319	0.0281938575
2883.5670227050	0.0280428380
2885.4958300780	0.0280191991
2887.4246374511	0.0279994160
2889.3534448241	0.0278380476
2891.2822521972	0.0277493484
2893.2110595702	0.0277329013
2895.1398669433	0.0276292376
2897.0686743163	0.0275670420
2898.9974816893	0.0276128054
2900.9262890624	0.0274653845
2902.8550964354	0.0274887905
2904.7839038085	0.0273543522
2906.7127111815	0.0271668881
2908.6415185546	0.0272608995
2910.5703259276	0.0269735157
2912.4991333007	0.0268696547
2914.4279406737	0.0266566481
2916.3567480468	0.0264748801
2918.2855554198	0.0266169719
2920.2143627929	0.0263716169
2922.1431701659	0.0264491066
2924.0719775390	0.0264413785
2926.0007849120	0.0262278561
2927.9295922851	0.0263328925
2929.8583996581	0.0262998492
2931.7872070311	0.0262559578
2933.7160144042	0.0263474807
2935.6448217772	0.0264277924
2937.5736291503	0.0263452232
2939.5024365233	0.0262990333
2941.4312438964	0.0262807161
2943.3600512694	0.0262704268
2945.2888586425	0.0263226330
2947.2176660155	0.0262215082
2949.1464733886	0.0260973535
2951.0752807616	0.0260962248
2953.0040881347	0.0261026714
2954.9328955077	0.0259162318
2956.8617028808	0.0258714557
2958.7905102538	0.0258338898
2960.7193176268	0.0256877467
2962.6481249999	0.0257010981
2964.5769323729	0.0255936868
2966.5057397460	0.0256047770
2968.4345471190	0.0255585331
2970.3633544921	0.0255674142
2972.2921618651	0.0257506333
2974.2209692382	0.0256126113
2976.1497766112	0.0256454628
2978.0785839843	0.0256579798
2980.0073913573	0.0255754851
2981.9361987304	0.0256483480
2983.8650061034	0.0255692303
2985.7938134765	0.0255652182
2987.7226208495	0.0254755728
2989.6514282225	0.0254428517
2991.5802355956	0.0255245306
2993.5090429686	0.0253682211
2995.4378503417	0.0253351554
2997.3666577147	0.0252835378
2999.2954650878	0.0252027847
3001.2242724608	0.0252190158
3003.1530798339	0.0252140164
3005.0818872069	0.0252083987
3007.0106945800	0.0250243060
3008.9395019530	0.0249932036
3010.8683093261	0.0249857977
3012.7971166991	0.0248972364
3014.7259240722	0.0248700548
3016.6547314452	0.0247071944
3018.5835388182	0.0247262716
3020.5123461913	0.0246950984
3022.4411535643	0.0246023275
3024.3699609374	0.0246086363
3026.2987683104	0.0245585013
3028.2275756835	0.0244938135
3030.1563830565	0.0243885964
3032.0851904296	0.0244329870
3034.0139978026	0.0243083574
3035.9428051757	0.0242691245
3037.8716125487	0.0243174322
3039.8004199218	0.0240903459
3041.7292272948	0.0241739489
3043.6580346679	0.0241330583
3045.5868420409	0.0239517391
3047.5156494139	0.0240331776
3049.4444567870	0.0239382572
3051.3732641600	0.0237298403
3053.3020715331	0.0236838423
3055.2308789061	0.0237921774
3057.1596862792	0.0237564109
3059.0884936522	0.0236299727
3061.0173010253	0.0235659778
3062.9461083983	0.0235127080
3064.8749157714	0.0235872827
3066.8037231444	0.0234751049
3068.7325305175	0.0232357532
3070.6613378905	0.0232996047
3072.5901452636	0.0233061053
3074.5189526366	0.0232409276
3076.4477600097	0.0232398752
3078.3765673827	0.0231398027
3080.3053747557	0.0231028348
3082.2341821288	0.0230740346
3084.1629895018	0.0230643414
3086.0917968749	0.0229196176
3088.0206042479	0.0228396468
3089.9494116210	0.0229600929
3091.8782189940	0.0228621755
3093.8070263671	0.0228245221
3095.7358337401	0.0227247942
3097.6646411132	0.0226710401
3099.5934484862	0.0226465538
3101.5222558593	0.0225216672
3103.4510632323	0.0226333439
3105.3798706054	0.0225107633
3107.3086779784	0.0224484503
3109.2374853514	0.0224214420
3111.1662927245	0.0222759284
3113.0951000975	0.0222924985
3115.0239074706	0.0221525840
3116.9527148436	0.0221074894
3118.8815222167	0.0220683254
3120.8103295897	0.0220367387
3122.7391369628	0.0219917931
3124.6679443358	0.0218746476
3126.5967517089	0.0218760893
3128.5255590819	0.0217904933
3130.4543664550	0.0217882693
3132.3831738280	0.0216573346
3134.3119812011	0.0215689763
3136.2407885741	0.0216732789
3138.1695959471	0.0215914063
3140.0984033202	0.0215050858
3142.0272106932	0.0214044917
3143.9560180663	0.0213841833
3145.8848254393	0.0212781429
3147.8136328124	0.0211336166
3149.7424401854	0.0211940371
3151.6712475585	0.0210792851
3153.6000549315	0.0210099649
3155.5288623046	0.0210759826
3157.4576696776	0.0209209360
3159.3864770507	0.0207665674
3161.3152844237	0.0208700337
3163.2440917968	0.0208779108
3165.1728991698	0.0207083523
3167.1017065428	0.0206485596
3169.0305139159	0.0205767322
3170.9593212889	0.0205862187
3172.8881286620	0.0205977447
3174.8169360350	0.0204973742
3176.7457434081	0.0204142779
3178.6745507811	0.0203178041
3180.6033581542	0.0203026272
3182.5321655272	0.0200890116
3184.4609729003	0.0200131852
3186.3897802733	0.0202016290
3188.3185876464	0.0201004650
3190.2473950194	0.0200710297
3192.1762023925	0.0200199820
3194.1050097655	0.0199011769
3196.0338171386	0.0198771507
3197.9626245116	0.0198159479
3199.8914318846	0.0197664537
3201.8202392577	0.0196445622
3203.7490466307	0.0196174122
3205.6778540038	0.0196024049
3207.6066613768	0.0196832567
3209.5354687499	0.0195835754
3211.4642761229	0.0193201862
3213.3930834960	0.0195262469
3215.3218908690	0.0194791704
3217.2506982421	0.0192454755
3219.1795056151	0.0193324368
3221.1083129882	0.0192945190
3223.0371203612	0.0191954188
3224.9659277343	0.0192546193
3226.8947351073	0.0191281997
3228.8235424803	0.0189662874
3230.7523498534	0.0191412047
3232.6811572264	0.0191134103
3234.6099645995	0.0190730095
3236.5387719725	0.0190628432
3238.4675793456	0.0189800058
3240.3963867186	0.0190248042
3242.3251940917	0.0188071821
3244.2540014647	0.0187617410
3246.1828088378	0.0188098885
3248.1116162108	0.0187861659
3250.0404235839	0.0188173279
3251.9692309569	0.0186787173
3253.8980383300	0.0186545029
3255.8268457030	0.0186518300
3257.7556530760	0.0186302271
3259.6844604491	0.0185958389
3261.6132678221	0.0185433514
3263.5420751952	0.0186009407
3265.4708825682	0.0186287947
3267.3996899413	0.0185286291
3269.3284973143	0.0185485929
3271.2573046874	0.0185887702
3273.1861120604	0.0184115209
3275.1149194335	0.0184513275
3277.0437268065	0.0184275806
3278.9725341796	0.0183806643
3280.9013415526	0.0184376985
3282.8301489257	0.0183286965
3284.7589562987	0.0183184631
3286.6877636717	0.0182413980
3288.6165710448	0.0182816796
3290.5453784178	0.0182765573
3292.4741857909	0.0181602053
3294.4029931639	0.0181727074
3296.3318005370	0.0181370825
3298.2606079100	0.0181737579
3300.1894152831	0.0181063656
3302.1182226561	0.0181165449
3304.0470300292	0.0181074366
3305.9758374022	0.0179797430
3307.9046447753	0.0180213712
3309.8334521483	0.0179999880
3311.7622595214	0.0179587193
3313.6910668944	0.0179667119
3315.6198742675	0.0179332756
3317.5486816405	0.0178342238
3319.4774890135	0.0177878216
3321.4062963866	0.0178103801
3323.3351037596	0.0177858472
3325.2639111327	0.0176930167
3327.1927185057	0.0177408233
3329.1215258788	0.0178130493
3331.0503332518	0.0176381394
3332.9791406249	0.0175986849
3334.9079479979	0.0175556969
3336.8367553710	0.0175275337
3338.7655627440	0.0176000558
3340.6943701171	0.0174428336
3342.6231774901	0.0173782445
3344.5519848632	0.0175428651
3346.4807922362	0.0176053438
3348.4095996092	0.0174226835
3350.3384069823	0.0173002519
3352.2672143553	0.0172669701
3354.1960217284	0.0172085036
3356.1248291014	0.0172038712
3358.0536364745	0.0172284469
3359.9824438475	0.0171751790
3361.9112512206	0.0171819776
3363.8400585936	0.0172465704
3365.7688659667	0.0170465112
3367.6976733397	0.0170645658
3369.6264807128	0.0170519017
3371.5552880858	0.0169759877
3373.4840954589	0.0170393400
3375.4129028319	0.0168310069
3377.3417102049	0.0169328488
3379.2705175780	0.0169040002
3381.1993249510	0.0168050248
3383.1281323241	0.0168947689
3385.0569396971	0.0166921783
3386.9857470702	0.0166583061
3388.9145544432	0.0167163555
3390.8433618163	0.0166706964
3392.7721691893	0.0165325701
3394.7009765624	0.0165477972
3396.6297839354	0.0165143870
3398.5585913085	0.0164493993
3400.4873986815	0.0165300369
3402.4162060546	0.0163959488
3404.3450134276	0.0163704418
3406.2738208006	0.0163902622
3408.2026281737	0.0164304879
3410.1314355467	0.0163425356
3412.0602429198	0.0162642486
3413.9890502928	0.0162377506
3415.9178576659	0.0161953755
3417.8466650389	0.0163362827
3419.7754724120	0.0160547681
3421.7042797850	0.0160288736
3423.6330871581	0.0161338486
3425.5618945311	0.0160521511
3427.4907019042	0.0160756819
3429.4195092772	0.0159071125
3431.3483166503	0.0160155259
3433.2771240233	0.0159872770
3435.2059313963	0.0159246735
3437.1347387694	0.0158961657
3439.0635461424	0.0158120599
3440.9923535155	0.0158230085
3442.9211608885	0.0156967826
3444.8499682616	0.0157630742
3446.7787756346	0.0155670848
3448.7075830077	0.0155598549
3450.6363903807	0.0157543644
3452.5651977538	0.0156311113
3454.4940051268	0.0156651419
3456.4228124999	0.0156388078
3458.3516198729	0.0156166162
3460.2804272460	0.0155880563
3462.2092346190	0.0155930175
3464.1380419921	0.0155659225
3466.0668493651	0.0154685555
3467.9956567381	0.0154026952
3469.9244641112	0.0153141282
3471.8532714842	0.0154437348
3473.7820788573	0.0153711597
3475.7108862303	0.0153163839
3477.6396936034	0.0154388901
3479.5685009764	0.0153325163
3481.4973083495	0.0152550088
3483.4261157225	0.0152636115
3485.3549230956	0.0153584164
3487.2837304686	0.0153641123
3489.2125378417	0.0153042972
3491.1413452147	0.0152813978
3493.0701525878	0.0151013145
3494.9989599608	0.0151212588
3496.9277673338	0.0152678248
3498.8565747069	0.0152223017
3500.7853820799	0.0152050219
3502.7141894530	0.0150442999
3504.6429968260	0.0149977254
3506.5718041991	0.0152002927
3508.5006115721	0.0151460227
3510.4294189452	0.0151113458
3512.3582263182	0.0151685961
3514.2870336913	0.0151201123
3516.2158410643	0.0150386952
3518.1446484374	0.0150728840
3520.0734558104	0.0150998654
3522.0022631835	0.0149389589
3523.9310705565	0.0149313770
3525.8598779295	0.0149507765
3527.7886853026	0.0148827014
3529.7174926756	0.0148408879
3531.6463000487	0.0149366185
3533.5751074217	0.0150871575
3535.5039147948	0.0149662383
3537.4327221678	0.0148810688
3539.3615295409	0.0149427801
3541.2903369139	0.0149336075
3543.2191442870	0.0148452166
3545.1479516600	0.0146197556
3547.0767590331	0.0144563504
3549.0055664061	0.0148126911
3550.9343737792	0.0149594713
3552.8631811522	0.0146548189
3554.7919885252	0.0147493575
3556.7207958983	0.0148341563
3558.6496032713	0.0148602584
3560.5784106444	0.0147714317
3562.5072180174	0.0147506446
3564.4360253905	0.0148144495
3566.3648327635	0.0140671246
3568.2936401366	0.0138113443
3570.2224475096	0.0145722134
3572.1512548827	0.0148443142
3574.0800622557	0.0146332309
3576.0088696288	0.0146838520
3577.9376770018	0.0146818217
3579.8664843749	0.0146411322
3581.7952917479	0.0147095127
3583.7240991210	0.0147080431
3585.6529064940	0.0144582270
3587.5817138670	0.0136045264
3589.5105212401	0.0138856564
3591.4393286131	0.0147901010
3593.3681359862	0.0143986885
3595.2969433592	0.0142587144
3597.2257507323	0.0145283919
3599.1545581053	0.0144798784
3601.0833654784	0.0144423973
3603.0121728514	0.0145106129
3604.9409802245	0.0146244653
3606.8697875975	0.0143810362
3608.7985949706	0.0136766657
3610.7274023436	0.0138700688
3612.6562097167	0.0141094858
3614.5850170897	0.0139296474
3616.5138244627	0.0146806035
3618.4426318358	0.0136348866
3620.3714392088	0.0134327710
3622.3002465819	0.0146147329
3624.2290539549	0.0142315468
3626.1578613280	0.0147900507
3628.0866687010	0.0130329318
3630.0154760741	0.0122825634
3631.9442834471	0.0145075154
3633.8730908202	0.0142498761
3635.8018981932	0.0142955305
3637.7307055663	0.0144014237
3639.6595129393	0.0143502411
3641.5883203124	0.0144158173
3643.5171276854	0.0142016280
3645.4459350584	0.0144137386
3647.3747424315	0.0134463748
3649.3035498045	0.0124840885
3651.2323571776	0.0126447212
3653.1611645506	0.0143731944
3655.0899719237	0.0141444271
3657.0187792967	0.0132088456
3658.9475866698	0.0144510698
3660.8763940428	0.0141737554
3662.8052014159	0.0143656991
3664.7340087889	0.0142362993
3666.6628161620	0.0142876431
3668.5916235350	0.0139020067
3670.5204309081	0.0120208627
3672.4492382811	0.0137671484
3674.3780456541	0.0131315738
3676.3068530272	0.0116895754
3678.2356604002	0.0138158835
3680.1644677733	0.0139194531
3682.0932751463	0.0138223991
3684.0220825194	0.0141226761
3685.9508898924	0.0139912358
3687.8796972655	0.0128581505
3689.8085046385	0.0122378971
3691.7373120116	0.0134951398
3693.6661193846	0.0136321746
3695.5949267577	0.0138623603
3697.5237341307	0.0138263302
3699.4525415038	0.0137398243
3701.3813488768	0.0133848023
3703.3101562499	0.0130958129
3705.2389636229	0.0140868966
3707.1677709959	0.0133697409
3709.0965783690	0.0132763190
3711.0253857420	0.0127196833
3712.9541931151	0.0121429190
3714.8830004881	0.0136241857
3716.8118078612	0.0133489799
3718.7406152342	0.0135152396
3720.6694226073	0.0132721765
3722.5982299803	0.0129482020
3724.5270373534	0.0133481212
3726.4558447264	0.0126210814
3728.3846520995	0.0132936053
3730.3134594725	0.0131621016
3732.2422668456	0.0124547947
3734.1710742186	0.0121980263
3736.0998815916	0.0118518332
3738.0286889647	0.0122776013
3739.9574963377	0.0130047780
3741.8863037108	0.0134009691
3743.8151110838	0.0109366085
3745.7439184569	0.0106693562
3747.6727258299	0.0129209328
3749.6015332030	0.0115564484
3751.5303405760	0.0109270737
3753.4591479491	0.0120172948
3755.3879553221	0.0126970625
3757.3167626952	0.0130600799
3759.2455700682	0.0123456726
3761.1743774413	0.0126091633
3763.1031848143	0.0131409969
3765.0319921873	0.0124610662
3766.9607995604	0.0126483366
3768.8896069334	0.0125520425
3770.8184143065	0.0121298805
3772.7472216795	0.0128841503
3774.6760290526	0.0128508341
3776.6048364256	0.0127467290
3778.5336437987	0.0125198402
3780.4624511717	0.0122262202
3782.3912585448	0.0127617717
3784.3200659178	0.0125588011
3786.2488732909	0.0124923401
3788.1776806639	0.0127245188
3790.1064880370	0.0125905797
3792.0352954100	0.0124429259
3793.9641027830	0.0127325337
3795.8929101561	0.0120782638
3797.8217175291	0.0120656323
3799.7505249022	0.0125083048
3801.6793322752	0.0105050169
3803.6081396483	0.0118296575
3805.5369470213	0.0123902233
3807.4657543944	0.0108927768
3809.3945617674	0.0124365054
3811.3233691405	0.0121200150
3813.2521765135	0.0125212520
3815.1809838866	0.0114924377
3817.1097912596	0.0106531624
3819.0385986327	0.0124796489
3820.9674060057	0.0106569212
3822.8962133787	0.0112450896
3824.8250207518	0.0123391058
3826.7538281248	0.0114183947
3828.6826354979	0.0121530406
3830.6114428709	0.0117270313
3832.5402502440	0.0114968363
3834.4690576170	0.0117531996
3836.3978649901	0.0111845080
3838.3266723631	0.0104600005
3840.2554797362	0.0111542381
3842.1842871092	0.0116104186
3844.1130944823	0.0111989928
3846.0419018553	0.0118899122
3847.9707092284	0.0117833689
3849.8995166014	0.0118050305
3851.8283239745	0.0108177895
3853.7571313475	0.0087960269
3855.6859387205	0.0099924831
3857.6147460936	0.0117606949
3859.5435534666	0.0114669120
3861.4723608397	0.0114509147
3863.4011682127	0.0111898137
3865.3299755858	0.0105892783
3867.2587829588	0.0114970598
3869.1875903319	0.0106843747
3871.1163977049	0.0101509001
3873.0452050780	0.0114217587
3874.9740124510	0.0107236765
3876.9028198241	0.0113736317
3878.8316271971	0.0114253052
3880.7604345702	0.0102797952
3882.6892419432	0.0114854109
3884.6180493162	0.0109305605
3886.5468566893	0.0102743898
3888.4756640623	0.0114536695
3890.4044714354	0.0109936725
3892.3332788084	0.0104551744
3894.2620861815	0.0111687714
3896.1908935545	0.0112826452
3898.1197009276	0.0108065251
3900.0485083006	0.0104817413
3901.9773156737	0.0103868879
3903.9061230467	0.0103677325
3905.8349304198	0.0104919672
3907.7637377928	0.0109906662
3909.6925451659	0.0110450136
3911.6213525389	0.0109691871
3913.5501599119	0.0110385017
3915.4789672850	0.0107992068
3917.4077746580	0.0106594991
3919.3365820311	0.0106110983
3921.2653894041	0.0108535131
3923.1941967772	0.0108165089
3925.1230041502	0.0105543900
3927.0518115233	0.0107720494
3928.9806188963	0.0109215807
3930.9094262694	0.0106953904
3932.8382336424	0.0104169045
3934.7670410155	0.0106947357
3936.6958483885	0.0107371211
3938.6246557616	0.0105514498
3940.5534631346	0.0106585715
3942.4822705076	0.0104157664
3944.4110778807	0.0104441848
3946.3398852537	0.0105562024
3948.2686926268	0.0104271127
3950.1974999998	0.0104597658
3952.1263073729	0.0104404604
3954.0551147459	0.0104924086
3955.9839221190	0.0105136475
3957.9127294920	0.0104642278
3959.8415368651	0.0104112551
3961.7703442381	0.0103370398
3963.6991516112	0.0103856204
3965.6279589842	0.0103990994
3967.5567663573	0.0103293424
3969.4855737303	0.0102807926
3971.4143811034	0.0102764703
3973.3431884764	0.0102794040
3975.2719958494	0.0101778843
3977.2008032225	0.0101777073
3979.1296105955	0.0102899801
3981.0584179686	0.0102083217
3982.9872253416	0.0101223616
3984.9160327147	0.0101125985
3986.8448400877	0.0101227639
3988.7736474608	0.0100936322
3990.7024548338	0.0100027081
3992.6312622069	0.0100687239
3994.5600695799	0.0100468537
3996.4888769530	0.0099643255
3998.4176843260	0.0099912044
4000.3464916991	0.0099386685
4002.2752990721	0.0098244194
4004.2041064451	0.0097716153
4006.1329138182	0.0098409019
4008.0617211912	0.0098141339
4009.9905285643	0.0098326849
4011.9193359373	0.0098825172
4013.8481433104	0.0097680613
4015.7769506834	0.0098095480
4017.7057580565	0.0097837895
4019.6345654295	0.0096764863
4021.5633728026	0.0097191427
4023.4921801756	0.0096719060
4025.4209875487	0.0096722450
4027.3497949217	0.0097230729
4029.2786022948	0.0095902570
4031.2074096678	0.0095908409
4033.1362170408	0.0096757710
4035.0650244139	0.0094990442
4036.9938317869	0.0095187668
4038.9226391600	0.0096110301
4040.8514465330	0.0094763357
4042.7802539061	0.0094453394
4044.7090612791	0.0093832398
4046.6378686522	0.0094106253
4048.5666760252	0.0094232420
4050.4954833983	0.0093158046
4052.4242907713	0.0093383566
4054.3530981444	0.0093082851
4056.2819055174	0.0093372706
4058.2107128905	0.0093002040
4060.1395202635	0.0091969837
4062.0683276365	0.0092372587
4063.9971350096	0.0092666103
4065.9259423826	0.0092351940
4067.8547497557	0.0091312788
4069.7835571287	0.0092089474
4071.7123645018	0.0092371702
4073.6411718748	0.0090537649
4075.5699792479	0.0090807136
4077.4987866209	0.0091954581
4079.4275939940	0.0091551393
4081.3564013670	0.0090868799
4083.2852087401	0.0090932883
4085.2140161131	0.0090879323
4087.1428234862	0.0090722684
4089.0716308592	0.0089786546
4091.0004382323	0.0089682285
4092.9292456053	0.0089680720
4094.8580529783	0.0088661658
4096.7868603514	0.0089396751
4098.7156677244	0.0088538621
4100.6444750975	0.0088046025
4102.5732824705	0.0088447370
4104.5020898436	0.0087616034
4106.4308972166	0.0088032298
4108.3597045897	0.0087418891
4110.2885119627	0.0087165479
4112.2173193358	0.0087452549
4114.1461267088	0.0087541752
4116.0749340819	0.0087519288
4118.0037414549	0.0086805671
4119.9325488280	0.0086018601
4121.8613562010	0.0085655311
4123.7901635740	0.0086894603
4125.7189709471	0.0085908417
4127.6477783201	0.0084956940
4129.5765856932	0.0085272584
4131.5053930662	0.0085071083
4133.4342004393	0.0085364748
4135.3630078123	0.0084504280
4137.2918151854	0.0085063782
4139.2206225584	0.0084559722
4141.1494299315	0.0084075546
4143.0782373045	0.0084752776
4145.0070446776	0.0082971603
4146.9358520506	0.0082962783
4148.8646594237	0.0083564082
4150.7934667967	0.0083380267
4152.7222741697	0.0083475523
4154.6510815428	0.0082984557
4156.5798889158	0.0082677845
4158.5086962889	0.0082280710
4160.4375036619	0.0081998250
4162.3663110350	0.0082307309
4164.2951184080	0.0081849555
4166.2239257811	0.0081472090
4168.1527331541	0.0081747770
4170.0815405272	0.0080861785
4172.0103479002	0.0081166262
4173.9391552733	0.0080574788
4175.8679626463	0.0079762023
4177.7967700194	0.0080768149
4179.7255773924	0.0080372700
4181.6543847654	0.0080263615
4183.5831921385	0.0079545602
4185.5119995115	0.0080074649
4187.4408068846	0.0080294274
4189.3696142576	0.0079488046
4191.2984216307	0.0079712039
4193.2272290037	0.0078238500
4195.1560363768	0.0078444509
4197.0848437498	0.0078245178
4199.0136511229	0.0078327246
4200.9424584959	0.0078438222
4202.8712658690	0.0077780774
4204.8000732420	0.0078587942
4206.7288806151	0.0077262302
4208.6576879881	0.0077790068
4210.5864953611	0.0077654403
4212.5153027342	0.0076784333
4214.4441101072	0.0077314302
4216.3729174803	0.0076625077
4218.3017248533	0.0076679555
4220.2305322264	0.0075386986
4222.1593395994	0.0075754267
4224.0881469725	0.0076185726
4226.0169543455	0.0075546335
4227.9457617186	0.0076197218
4229.8745690916	0.0075834165
4231.8033764647	0.0075472239
4233.7321838377	0.0074112909
4235.6609912108	0.0074039097
4237.5897985838	0.0075029926
4239.5186059569	0.0074990308
4241.4474133299	0.0074689277
4243.3762207029	0.0074204169
4245.3050280760	0.0074075861
4247.2338354490	0.0073544383
4249.1626428221	0.0073736520
4251.0914501951	0.0073539875
4253.0202575682	0.0073331324
4254.9490649412	0.0073777055
4256.8778723143	0.0073135011
4258.8066796873	0.0072174757
4260.7354870604	0.0072637852
4262.6642944334	0.0073427721
4264.5931018065	0.0072198026
4266.5219091795	0.0072339084
4268.4507165526	0.0072635314
4270.3795239256	0.0071690427
4272.3083312986	0.0071605379
4274.2371386717	0.0071471585
4276.1659460447	0.0072068553
4278.0947534178	0.0071508302
4280.0235607908	0.0070829913
4281.9523681639	0.0070839217
4283.8811755369	0.0070496798
4285.8099829100	0.0071199397
4287.7387902830	0.0070493398
4289.6675976561	0.0069535058
4291.5964050291	0.0069908909
4293.5252124022	0.0069502913
4295.4540197752	0.0069221668
4297.3828271483	0.0069444655
4299.3116345213	0.0069393474
4301.2404418943	0.0069453409
4303.1692492674	0.0068916362
4305.0980566404	0.0068303877
4307.0268640135	0.0068763550
4308.9556713865	0.0068501397
4310.8844787596	0.0068114335
4312.8132861326	0.0068783816
4314.7420935057	0.0068541779
4316.6709008787	0.0067839995
4318.5997082518	0.0067425501
4320.5285156248	0.0067256289
4322.4573229979	0.0067989025
4324.3861303709	0.0067437347
4326.3149377440	0.0066809622
4328.2437451170	0.0067171846
4330.1725524900	0.0066362610
4332.1013598631	0.0066848993
4334.0301672361	0.0066981199
4335.9589746092	0.0065692626
4337.8877819822	0.0065885046
4339.8165893553	0.0065950458
4341.7453967283	0.0065468722
4343.6742041014	0.0065507283
4345.6030114744	0.0065701576
4347.5318188475	0.0065329866
4349.4606262205	0.0065420112
4351.3894335936	0.0065216785
4353.3182409666	0.0064602662
4355.2470483397	0.0064921216
4357.1758557127	0.0064341500
4359.1046630858	0.0063931039
4361.0334704588	0.0064786952
4362.9622778318	0.0065321866
4364.8910852049	0.0064351950
4366.8198925779	0.0063835098
4368.7486999510	0.0063640545
4370.6775073240	0.0062646093
4372.6063146971	0.0063007604
4374.5351220701	0.0062809633
4376.4639294432	0.0062815854
4378.3927368162	0.0062524490
4380.3215441893	0.0062413374
4382.2503515623	0.0064114872
4384.1791589354	0.0063055907
4386.1079663084	0.0062229922
4388.0367736815	0.0062563880
4389.9655810545	0.0062088287
4391.8943884275	0.0062251678
4393.8231958006	0.0061851982
4395.7520031736	0.0061823507
4397.6808105467	0.0062152944
4399.6096179197	0.0061385520
4401.5384252928	0.0060774214
4403.4672326658	0.0061425902
4405.3960400389	0.0061520627
4407.3248474119	0.0061001075
4409.2536547850	0.0060379729
4411.1824621580	0.0059852181
4413.1112695311	0.0059952624
4415.0400769041	0.0059825387
4416.9688842772	0.0059473841
4418.8976916502	0.0058702482
4420.8264990232	0.0059459228
4422.7553063963	0.0059931139
4424.6841137693	0.0059674149
4426.6129211424	0.0060196929
4428.5417285154	0.0059108874
4430.4705358885	0.0058679702
4432.3993432615	0.0058202567
4434.3281506346	0.0058255065
4436.2569580076	0.0058551934
4438.1857653807	0.0057656425
4440.1145727537	0.0057773022
4442.0433801268	0.0057015056
4443.9721874998	0.0057699634
4445.9009948729	0.0058266721
4447.8298022459	0.0057067433
4449.7586096189	0.0056999587
4451.6874169920	0.0057305745
4453.6162243650	0.0057019917
4455.5450317381	0.0055741379
4457.4738391111	0.0056589153
4459.4026464842	0.0056398176
4461.3314538572	0.0055474192
4463.2602612303	0.0057155355
4465.1890686033	0.0056184460
4467.1178759764	0.0055457591
4469.0466833494	0.0056732856
4470.9754907225	0.0056614392
4472.9042980955	0.0056146290
4474.8331054686	0.0055966894
4476.7619128416	0.0055687893
4478.6907202147	0.0055311485
4480.6195275877	0.0055148397
4482.5483349607	0.0055245012
4484.4771423338	0.0054831132
4486.4059497068	0.0053975787
4488.3347570799	0.0054211221
4490.2635644529	0.0053876536
4492.1923718260	0.0053871879
4494.1211791990	0.0054033827
4496.0499865721	0.0052942140
4497.9787939451	0.0054372251
4499.9076013182	0.0054173302
4501.8364086912	0.0052697686
4503.7652160643	0.0053820442
4505.6940234373	0.0053587807
4507.6228308104	0.0053045005
4509.5516381834	0.0053273095
4511.4804455564	0.0053523229
4513.4092529295	0.0053197229
4515.3380603025	0.0052996636
4517.2668676756	0.0052448898
4519.1956750486	0.0051714396
4521.1244824217	0.0052659083
4523.0532897947	0.0051733316
4524.9820971678	0.0051701721
4526.9109045408	0.0052445317
4528.8397119139	0.0051334538
4530.7685192869	0.0051753959
4532.6973266600	0.0051673912
4534.6261340330	0.0051411893
4536.5549414061	0.0050907368
4538.4837487791	0.0051001189
4540.4125561521	0.0051550707
4542.3413635252	0.0050592544
4544.2701708982	0.0051160455
4546.1989782713	0.0050859493
4548.1277856443	0.0050465474
4550.0565930174	0.0050117248
4551.9854003904	0.0049330145
4553.9142077635	0.0050649191
4555.8430151365	0.0049670702
4557.7718225096	0.0048570889
4559.7006298826	0.0049264468
4561.6294372557	0.0049076891
4563.5582446287	0.0049242317
4565.4870520018	0.0049363906
4567.4158593748	0.0049151015
4569.3446667478	0.0048930044
4571.2734741209	0.0048475470
4573.2022814939	0.0048647663
4575.1310888670	0.0049695522
4577.0598962400	0.0048899362
4578.9887036131	0.0048313187
4580.9175109861	0.0048794542
4582.8463183592	0.0047553116
4584.7751257322	0.0047950237
4586.7039331053	0.0048368927
4588.6327404783	0.0047350279
4590.5615478514	0.0047495128
4592.4903552244	0.0047574504
4594.4191625975	0.0047473330
4596.3479699705	0.0047449418
4598.2767773435	0.0047116447
4600.2055847166	0.0046421317
4602.1343920896	0.0046493253
4604.0631994627	0.0046926113
4605.9920068357	0.0046794545
4607.9208142088	0.0046502072
4609.8496215818	0.0045736684
4611.7784289549	0.0045788269
4613.7072363279	0.0046297754
4615.6360437010	0.0045986655
4617.5648510740	0.0045538009
4619.4936584471	0.0045003993
4621.4224658201	0.0044893022
4623.3512731932	0.0045702760
4625.2800805662	0.0045806812
4627.2088879393	0.0045037409
4629.1376953123	0.0044828644
4631.0665026853	0.0045038024
4632.9953100584	0.0045088744
4634.9241174314	0.0044753468
4636.8529248045	0.0044196974
4638.7817321775	0.0043793805
4640.7105395506	0.0044461517
4642.6393469236	0.0044380426
4644.5681542967	0.0043854928
4646.4969616697	0.0044585317
4648.4257690428	0.0043895189
4650.3545764158	0.0043551982
4652.2833837889	0.0043406878
4654.2121911619	0.0043036165
4656.1409985350	0.0043659750
4658.0698059080	0.0043320996
4659.9986132810	0.0043459549
4661.9274206541	0.0043395846
4663.8562280271	0.0043210806
4665.7850354002	0.0042472640
4667.7138427732	0.0041757040
4669.6426501463	0.0042864149
4671.5714575193	0.0042663291
4673.5002648924	0.0042301444
4675.4290722654	0.0042236969
4677.3578796385	0.0042565186
4679.2866870115	0.0042595631
4681.2154943846	0.0041850479
4683.1443017576	0.0042838706
4685.0731091307	0.0042766430
4687.0019165037	0.0041739265
4688.9307238767	0.0041601430
4690.8595312498	0.0041763112
4692.7883386228	0.0041336268
4694.7171459959	0.0041406807
4696.6459533689	0.0042500934
4698.5747607420	0.0041475799
4700.5035681150	0.0041053593
4702.4323754881	0.0041428562
4704.3611828611	0.0040279673
4706.2899902342	0.0040388089
4708.2187976072	0.0040892488
4710.1476049803	0.0040870588
4712.0764123533	0.0041196672
4714.0052197264	0.0040631788
4715.9340270994	0.0039867032
4717.8628344724	0.0040294090
4719.7916418455	0.0040465826
4721.7204492185	0.0040082494
4723.6492565916	0.0039900080
4725.5780639646	0.0039245402
4727.5068713377	0.0038854775
4729.4356787107	0.0039364179
4731.3644860838	0.0039019040
4733.2932934568	0.0038459115
4735.2221008299	0.0038503779
4737.1509082029	0.0038628294
4739.0797155760	0.0039435858
4741.0085229490	0.0038849728
4742.9373303221	0.0038689403
4744.8661376951	0.0039474349
4746.7949450682	0.0038607758
4748.7237524412	0.0038933635
4750.6525598142	0.0038556061
4752.5813671873	0.0037549576
4754.5101745603	0.0038234973
4756.4389819334	0.0038383412
4758.3677893064	0.0038083280
4760.2965966795	0.0037741284
4762.2254040525	0.0038064839
4764.1542114256	0.0038208493
4766.0830187986	0.0037722150
4768.0118261717	0.0037737612
4769.9406335447	0.0037648394
4771.8694409178	0.0037077111
4773.7982482908	0.0036945222
4775.7270556639	0.0037551047
4777.6558630369	0.0037245229
4779.5846704099	0.0037000133
4781.5134777830	0.0037508379
4783.4422851560	0.0037547254
4785.3710925291	0.0037548374
4787.2998999021	0.0037165366
4789.2287072752	0.0036253433
4791.1575146482	0.0036115118
4793.0863220213	0.0036142902
4795.0151293943	0.0035870075
4796.9439367674	0.0036144382
4798.8727441404	0.0036031546
4800.8015515135	0.0036479211
4802.7303588865	0.0036410862
4804.6591662596	0.0035742584
4806.5879736326	0.0036179437
4808.5167810056	0.0035244739
4810.4455883787	0.0035343189
4812.3743957517	0.0035803807
4814.3032031248	0.0035232969
4816.2320104978	0.0035493274
4818.1608178709	0.0034545797
4820.0896252439	0.0034491501
4822.0184326170	0.0034903600
4823.9472399900	0.0034443382
4825.8760473631	0.0034210877
4827.8048547361	0.0033754464
4829.7336621092	0.0034258603
4831.6624694822	0.0034455769
4833.5912768553	0.0034466879
4835.5200842283	0.0034581982
4837.4488916013	0.0033806178
4839.3776989744	0.0034244142
4841.3065063474	0.0034493110
4843.2353137205	0.0033847159
4845.1641210935	0.0034439459
4847.0929284666	0.0034289269
4849.0217358396	0.0033616510
4850.9505432127	0.0033594249
4852.8793505857	0.0033286959
4854.8081579588	0.0033806218
4856.7369653318	0.0034291481
4858.6657727049	0.0033675029
4860.5945800779	0.0033033495
4862.5233874510	0.0033143819
4864.4521948240	0.0033369418
4866.3810021971	0.0032981825
4868.3098095701	0.0032784706
4870.2386169431	0.0032384654
4872.1674243162	0.0032155034
4874.0962316892	0.0032781260
4876.0250390623	0.0032282025
4877.9538464353	0.0031256638
4879.8826538084	0.0031769904
4881.8114611814	0.0031777208
4883.7402685545	0.0031871644
4885.6690759275	0.0032422761
4887.5978833006	0.0031748894
4889.5266906736	0.0031844995
4891.4554980467	0.0031879123
4893.3843054197	0.0031798319
4895.3131127928	0.0031383000
4897.2419201658	0.0031349184
4899.1707275388	0.0031845095
4901.0995349119	0.0030832947
4903.0283422849	0.0031575391
4904.9571496580	0.0031035834
4906.8859570310	0.0030543921
4908.8147644041	0.0031727552
4910.7435717771	0.0030745473
4912.6723791502	0.0030691260
4914.6011865232	0.0030125468
4916.5299938963	0.0030298899
4918.4588012693	0.0030889907
4920.3876086424	0.0030484451
4922.3164160154	0.0030541397
4924.2452233885	0.0029929318
4926.1740307615	0.0030483967
4928.1028381345	0.0030102176
4930.0316455076	0.0029951846
4931.9604528806	0.0030244919
4933.8892602537	0.0029538043
4935.8180676267	0.0029902803
4937.7468749998	0.0030276687
4939.6756823728	0.0029921685
4941.6044897459	0.0028925037
4943.5332971189	0.0029396997
4945.4621044920	0.0029232327
4947.3909118650	0.0028895345
4949.3197192381	0.0029150101
4951.2485266111	0.0028543354
4953.1773339842	0.0029356731
4955.1061413572	0.0029196362
4957.0349487302	0.0029437421
4958.9637561033	0.0029389446
4960.8925634763	0.0028569538
4962.8213708494	0.0029352391
4964.7501782224	0.0029387916
4966.6789855955	0.0028803563
4968.6077929685	0.0027714004
4970.5366003416	0.0027908133
4972.4654077146	0.0028354879
4974.3942150877	0.0028455788
4976.3230224607	0.0028448661
4978.2518298338	0.0027537725
4980.1806372068	0.0028079015
4982.1094445799	0.0028246003
4984.0382519529	0.0028229500
4985.9670593259	0.0027796405
4987.8958666990	0.0027526333
4989.8246740720	0.0028218930
4991.7534814451	0.0027562652
4993.6822888181	0.0028009312
4995.6110961912	0.0028021741
4997.5399035642	0.0027084192
4999.4687109373	0.0027808775
5001.3975183103	0.0027390257
5003.3263256834	0.0026267383
5005.2551330564	0.0027122865
5007.1839404295	0.0027175967
5009.1127478025	0.0026579760
5011.0415551756	0.0027051894
5012.9703625486	0.0026354184
5014.8991699217	0.0026493394
5016.8279772947	0.0027122363
5018.7567846677	0.0026363363
5020.6855920408	0.0026329120
5022.6143994138	0.0026468853
5024.5432067869	0.0026068343
5026.4720141599	0.0025925580
5028.4008215330	0.0025975718
5030.3296289060	0.0025627692
5032.2584362791	0.0025840029
5034.1872436521	0.0026156793
5036.1160510252	0.0025916300
5038.0448583982	0.0025906474
5039.9736657713	0.0025786553
5041.9024731443	0.0025940391
5043.8312805174	0.0026050601
5045.7600878904	0.0025405684
5047.6888952634	0.0024867873
5049.6177026365	0.0025558027
5051.5465100095	0.0025618579
5053.4753173826	0.0024991112
5055.4041247556	0.0024974463
5057.3329321287	0.0024898029
5059.2617395017	0.0025281464
5061.1905468748	0.0024387804
5063.1193542478	0.0024109827
5065.0481616209	0.0025256074
5066.9769689939	0.0025205174
5068.9057763670	0.0025063809
5070.8345837400	0.0024691564
5072.7633911131	0.0024667541
5074.6921984861	0.0024136715
5076.6210058591	0.0023924857
5078.5498132322	0.0024624863
5080.4786206052	0.0024237880
5082.4074279783	0.0024344572
5084.3362353513	0.0024008248
5086.2650427244	0.0023805457
5088.1938500974	0.0024533179
5090.1226574705	0.0024525588
5092.0514648435	0.0024221051
5093.9802722166	0.0023522615
5095.9090795896	0.0023058974
5097.8378869627	0.0023347735
5099.7666943357	0.0023742295
5101.6955017088	0.0023511748
5103.6243090818	0.0022989889
5105.5531164548	0.0022769782
5107.4819238279	0.0022826572
5109.4107312009	0.0023111021
5111.3395385740	0.0023167147
5113.2683459470	0.0023491997
5115.1971533201	0.0023979601
5117.1259606931	0.0023448789
5119.0547680662	0.0022611059
5120.9835754392	0.0023178072
5122.9123828123	0.0023556734
5124.8411901853	0.0022618312
5126.7699975584	0.0022664079
5128.6988049314	0.0023195462
5130.6276123045	0.0022561876
5132.5564196775	0.0022119833
5134.4852270506	0.0022548540
5136.4140344236	0.0022609874
5138.3428417966	0.0022536609
5140.2716491697	0.0022572812
5142.2004565427	0.0022398434
5144.1292639158	0.0022031902
5146.0580712888	0.0021858839
5147.9868786619	0.0022077658
5149.9156860349	0.0021540918
5151.8444934080	0.0021718594
5153.7733007810	0.0022186420
5155.7021081541	0.0021772326
5157.6309155271	0.0021578162
5159.5597229002	0.0020975089
5161.4885302732	0.0021583186
5163.4173376463	0.0021645878
5165.3461450193	0.0020464226
5167.2749523923	0.0021017846
5169.2037597654	0.0021285685
5171.1325671384	0.0020861092
5173.0613745115	0.0021127984
5174.9901818845	0.0021772962
5176.9189892576	0.0021367730
5178.8477966306	0.0021304316
5180.7766040037	0.0022085709
5182.7054113767	0.0021286025
5184.6342187498	0.0020557912
5186.5630261228	0.0019979575
5188.4918334959	0.0019959805
5190.4206408689	0.0020656516
5192.3494482420	0.0020840201
5194.2782556150	0.0020969440
5196.2070629880	0.0020305915
5198.1358703611	0.0020503616
5200.0646777341	0.0020755145
5201.9934851072	0.0020518312
5203.9222924802	0.0020839360
5205.8510998533	0.0020381822
5207.7799072263	0.0020136288
5209.7087145994	0.0019813674
5211.6375219724	0.0019724583
5213.5663293455	0.0019833767
5215.4951367185	0.0019603642
5217.4239440916	0.0020146687
5219.3527514646	0.0020370912
5221.2815588377	0.0019944778
5223.2103662107	0.0019614541
5225.1391735837	0.0019491538
5227.0679809568	0.0019317246
5228.9967883298	0.0019794654
5230.9255957029	0.0020096735
5232.8544030759	0.0019639456
5234.7832104490	0.0019658331
5236.7120178220	0.0019604356
5238.6408251951	0.0019330850
5240.5696325681	0.0018918717
5242.4984399412	0.0019170764
5244.4272473142	0.0018922158
5246.3560546873	0.0018717740
5248.2848620603	0.0019038056
5250.2136694334	0.0018307151
5252.1424768064	0.0018906402
5254.0712841795	0.0018515394
5256.0000915525	0.0018187744
5257.9288989255	0.0019391882
5259.8577062986	0.0019310322
5261.7865136716	0.0019179175
5263.7153210447	0.0018155130
5265.6441284177	0.0018469389
5267.5729357908	0.0019151045
5269.5017431638	0.0018460708
5271.4305505369	0.0018678779
5273.3593579099	0.0018385570
5275.2881652830	0.0018391947
5277.2169726560	0.0018634058
5279.1457800291	0.0017893321
5281.0745874021	0.0017517323
5283.0033947752	0.0018438324
5284.9322021482	0.0018131961
5286.8610095212	0.0018160907
5288.7898168943	0.0019154206
5290.7186242673	0.0017722392
5292.6474316404	0.0017758735
5294.5762390134	0.0018401719
5296.5050463865	0.0018115451
5298.4338537595	0.0017955642
5300.3626611326	0.0017792664
5302.2914685056	0.0018168334
5304.2202758787	0.0017366757
5306.1490832517	0.0017464275
5308.0778906248	0.0017621079
5310.0066979978	0.0017720535
5311.9355053709	0.0018146485
5313.8643127439	0.0017603458
5315.7931201169	0.0017158891
5317.7219274900	0.0017067844
5319.6507348630	0.0018270162
5321.5795422361	0.0017576723
5323.5083496091	0.0017269717
5325.4371569822	0.0018006950
5327.3659643552	0.0016926832
5329.2947717283	0.0017208989
5331.2235791013	0.0016910008
5333.1523864744	0.0016644928
5335.0811938474	0.0017325717
5337.0100012205	0.0016730849
5338.9388085935	0.0015562910
5340.8676159666	0.0016131753
5342.7964233396	0.0017012230
5344.7252307126	0.0015859876
5346.6540380857	0.0016257630
5348.5828454587	0.0016841835
5350.5116528318	0.0016271109
5352.4404602048	0.0015922810
5354.3692675779	0.0016075128
5356.2980749509	0.0016456946
5358.2268823240	0.0015841441
5360.1556896970	0.0016059093
5362.0844970701	0.0016300352
5364.0133044431	0.0016206084
5365.9421118162	0.0015921824
5367.8709191892	0.0015738930
5369.7997265623	0.0016325735
5371.7285339353	0.0015936325
5373.6573413083	0.0015346950
5375.5861486814	0.0015332592
5377.5149560544	0.0016088116
5379.4437634275	0.0016152735
5381.3725708005	0.0015660361
5383.3013781736	0.0015893016
5385.2301855466	0.0015559773
5387.1589929197	0.0015171213
5389.0878002927	0.0015505746
5391.0166076658	0.0015916675
5392.9454150388	0.0015346617
5394.8742224119	0.0014934402
5396.8030297849	0.0015251047
5398.7318371580	0.0015395123
5400.6606445310	0.0014850714
5402.5894519041	0.0014850500
5404.5182592771	0.0015251508
5406.4470666501	0.0014707616
5408.3758740232	0.0015626806
5410.3046813962	0.0015390888
5412.2334887693	0.0014279623
5414.1622961423	0.0014999420
5416.0911035154	0.0015011756
5418.0199108884	0.0014897691
5419.9487182615	0.0014773433
5421.8775256345	0.0014721118
5423.8063330076	0.0014417529
5425.7351403806	0.0014583417
5427.6639477537	0.0014789850
5429.5927551267	0.0014197291
5431.5215624998	0.0014334441
5433.4503698728	0.0013886209
5435.3791772458	0.0014574053
5437.3079846189	0.0015312859
5439.2367919919	0.0014852681
5441.1655993650	0.0014603087
5443.0944067380	0.0013712989
5445.0232141111	0.0013551558
5446.9520214841	0.0014142958
5448.8808288572	0.0015019998
5450.8096362302	0.0014550877
5452.7384436033	0.0013653398
5454.6672509763	0.0013750645
5456.5960583494	0.0013788104
5458.5248657224	0.0014433712
5460.4536730955	0.0013799628
5462.3824804685	0.0013226087
5464.3112878415	0.0013652409
5466.2400952146	0.0013648958
5468.1689025876	0.0013953529
5470.0977099607	0.0013796785
5472.0265173337	0.0014095104
5473.9553247068	0.0014414042
5475.8841320798	0.0013696167
5477.8129394529	0.0013457665
5479.7417468259	0.0013537415
5481.6705541990	0.0013365922
5483.5993615720	0.0013487231
5485.5281689451	0.0013600255
5487.4569763181	0.0013014360
5489.3857836912	0.0012949295
5491.3145910642	0.0013213942
5493.2433984372	0.0012858976
5495.1722058103	0.0013444824
5497.1010131833	0.0013740817
5499.0298205564	0.0013157469
5500.9586279294	0.0013357520
5502.8874353025	0.0013347883
5504.8162426755	0.0013198743
5506.7450500486	0.0013300262
5508.6738574216	0.0013838662
5510.6026647947	0.0013276249
5512.5314721677	0.0012189148
5514.4602795408	0.0013195737
5516.3890869138	0.0012887785
5518.3178942869	0.0012385868
5520.2467016599	0.0013147087
5522.1755090330	0.0013113284
5524.1043164060	0.0012988710
5526.0331237790	0.0012822988
5527.9619311521	0.0013441842
5529.8907385251	0.0013361634
5531.8195458982	0.0012814940
5533.7483532712	0.0012633661
5535.6771606443	0.0012734992
5537.6059680173	0.0013159530
5539.5347753904	0.0012812326
5541.4635827634	0.0012935335
5543.3923901365	0.0012248248
5545.3211975095	0.0012116706
5547.2500048826	0.0012383343
5549.1788122556	0.0012112276
5551.1076196287	0.0012430601
5553.0364270017	0.0012319351
5554.9652343747	0.0013384793
5556.8940417478	0.0012405296
5558.8228491208	0.0011586375
5560.7516564939	0.0012388364
5562.6804638669	0.0011627888
5564.6092712400	0.0011775381
5566.5380786130	0.0011271257
5568.4668859861	0.0012143112
5570.3956933591	0.0012540568
5572.3245007322	0.0011361463
5574.2533081052	0.0011711582
5576.1821154783	0.0011045641
5578.1109228513	0.0011569934
5580.0397302244	0.0012159504
5581.9685375974	0.0011803585
5583.8973449704	0.0011875704
5585.8261523435	0.0011938207
5587.7549597165	0.0011998384
5589.6837670896	0.0011378914
5591.6125744626	0.0011578409
5593.5413818357	0.0011094727
5595.4701892087	0.0010938753
5597.3989965818	0.0011522323
5599.3278039548	0.0011406471
5601.2566113279	0.0012006103
5603.1854187009	0.0011239649
5605.1142260740	0.0010663237
5607.0430334470	0.0011361247
5608.9718408201	0.0011166113
5610.9006481931	0.0010800350
5612.8294555661	0.0010812795
5614.7582629392	0.0010931138
5616.6870703122	0.0011234514
5618.6158776853	0.0011559117
5620.5446850583	0.0010802003
5622.4734924314	0.0010907892
5624.4022998044	0.0011237781
5626.3311071775	0.0010483353
5628.2599145505	0.0011189482
5630.1887219236	0.0010877205
5632.1175292966	0.0010384449
5634.0463366697	0.0011125624
5635.9751440427	0.0010332156
5637.9039514158	0.0010298117
5639.8327587888	0.0010724536
5641.7615661619	0.0010819947
5643.6903735349	0.0011245057
5645.6191809079	0.0010811528
5647.5479882810	0.0010990496
5649.4767956540	0.0010686221
5651.4056030271	0.0009992381
5653.3344104001	0.0010510327
5655.2632177732	0.0010573510
5657.1920251462	0.0010732207
5659.1208325193	0.0010857058
5661.0496398923	0.0010600006
5662.9784472654	0.0010579618
5664.9072546384	0.0010292938
5666.8360620115	0.0009892765
5668.7648693845	0.0010000349
5670.6936767576	0.0010541707
5672.6224841306	0.0010133891
5674.5512915036	0.0010152853
5676.4800988767	0.0010629621
5678.4089062497	0.0009794324
5680.3377136228	0.0009803600
5682.2665209958	0.0010003389
5684.1953283689	0.0009878167
5686.1241357419	0.0010259281
5688.0529431150	0.0009954586
5689.9817504880	0.0009759486
5691.9105578611	0.0010016147
5693.8393652341	0.0010594670
5695.7681726072	0.0010312280
5697.6969799802	0.0009646494
5699.6257873533	0.0009899782
5701.5545947263	0.0009653484
5703.4834020993	0.0010066091
5705.4122094724	0.0010028805
5707.3410168454	0.0009484978
5709.2698242185	0.0010315913
5711.1986315915	0.0010031410
5713.1274389646	0.0009390952
5715.0562463376	0.0009535457
5716.9850537107	0.0009481492
5718.9138610837	0.0009416202
5720.8426684568	0.0009072685
5722.7714758298	0.0008785118
5724.7002832029	0.0009131207
5726.6290905759	0.0009008221
5728.5578979490	0.0009114515
5730.4867053220	0.0010143003
5732.4155126950	0.0009270845
5734.3443200681	0.0008888206
5736.2731274411	0.0009616690
5738.2019348142	0.0009101956
5740.1307421872	0.0009055396
5742.0595495603	0.0008430824
5743.9883569333	0.0008889728
5745.9171643064	0.0009675332
5747.8459716794	0.0008979251
5749.7747790525	0.0009317767
5751.7035864255	0.0009391247
5753.6323937986	0.0009136313
5755.5612011716	0.0008253925
5757.4900085447	0.0008426302
5759.4188159177	0.0009419955
5761.3476232907	0.0008360420
5763.2764306638	0.0009022189
5765.2052380368	0.0009322983
5767.1340454099	0.0008077204
5769.0628527829	0.0008913260
5770.9916601560	0.0009275054
5772.9204675290	0.0008999917
5774.8492749021	0.0008638574
5776.7780822751	0.0008578426
5778.7068896482	0.0009646998
5780.6356970212	0.0008926866
5782.5645043943	0.0008326932
5784.4933117673	0.0008706906
5786.4221191404	0.0008232701
5788.3509265134	0.0008607146
5790.2797338865	0.0008524762
5792.2085412595	0.0008562154
5794.1373486325	0.0009256336
5796.0661560056	0.0008515267
5797.9949633786	0.0007554725
5799.9237707517	0.0007982478
5801.8525781247	0.0008445459
5803.7813854978	0.0007960087
5805.7101928708	0.0009023462
5807.6390002439	0.0009093349
5809.5678076169	0.0007842347
5811.4966149900	0.0007917734
5813.4254223630	0.0007768661
5815.3542297361	0.0008696301
5817.2830371091	0.0008478613
5819.2118444822	0.0007491349
5821.1406518552	0.0007984200
5823.0694592282	0.0007974240
5824.9982666013	0.0008202323
5826.9270739743	0.0008355295
5828.8558813474	0.0008106849
5830.7846887204	0.0007956696
5832.7134960935	0.0007901027
5834.6423034665	0.0007849373
5836.5711108396	0.0008684401
5838.4999182126	0.0008235064
5840.4287255857	0.0007636999
5842.3575329587	0.0008979784
5844.2863403318	0.0007791889
5846.2151477048	0.0008178988
5848.1439550779	0.0008493448
5850.0727624509	0.0007101143
5852.0015698239	0.0007863664
5853.9303771970	0.0006953324
5855.8591845700	0.0007723908
5857.7879919431	0.0008151255
5859.7167993161	0.0007419930
5861.6456066892	0.0008269898
5863.5744140622	0.0007395549
5865.5032214353	0.0007750745
5867.4320288083	0.0008042245
5869.3608361814	0.0007673235
5871.2896435544	0.0007955485
5873.2184509275	0.0007815760
5875.1472583005	0.0008085752
5877.0760656736	0.0008097296
5879.0048730466	0.0007792010
5880.9336804196	0.0007377872
5882.8624877927	0.0007728189
5884.7912951657	0.0007260237
5886.7201025388	0.0006290443
5888.6489099118	0.0006968612
5890.5777172849	0.0007210004
5892.5065246579	0.0006705316
5894.4353320310	0.0006987415
5896.3641394040	0.0007816158
5898.2929467771	0.0007445167
5900.2217541501	0.0006835380
5902.1505615232	0.0007094902
5904.0793688962	0.0007187563
5906.0081762693	0.0007073686
5907.9369836423	0.0007033406
5909.8657910154	0.0006985522
5911.7945983884	0.0006867455
5913.7234057614	0.0007134955
5915.6522131345	0.0006988333
5917.5810205075	0.0006634489
5919.5098278806	0.0006762241
5921.4386352536	0.0007104845
5923.3674426267	0.0007010675
5925.2962499997	0.0006243840
5927.2250573728	0.0006312090
5929.1538647458	0.0006773702
5931.0826721189	0.0007261861
5933.0114794919	0.0007216380
5934.9402868650	0.0006449910
5936.8690942380	0.0006293171
5938.7979016111	0.0006670278
5940.7267089841	0.0006943165
5942.6555163571	0.0006303515
5944.5843237302	0.0006297693
5946.5131311032	0.0006561500
5948.4419384763	0.0006202895
5950.3707458493	0.0006882517
5952.2995532224	0.0007323991
5954.2283605954	0.0006594991
5956.1571679685	0.0005973895
5958.0859753415	0.0006114093
5960.0147827146	0.0006345254
5961.9435900876	0.0006432469
5963.8723974607	0.0006160420
5965.8012048337	0.0006208678
5967.7300122068	0.0006483681
5969.6588195798	0.0005999032
5971.5876269528	0.0006228298
5973.5164343259	0.0006346036
5975.4452416989	0.0006557329
5977.3740490720	0.0006475798
5979.3028564450	0.0005553683
5981.2316638181	0.0005890169
5983.1604711911	0.0005962298
5985.0892785642	0.0006324556
5987.0180859372	0.0006559232
5988.9468933103	0.0006173078
5990.8757006833	0.0006635687
5992.8045080564	0.0006308974
5994.7333154294	0.0006009906
5996.6621228025	0.0005932060
5998.5909301755	0.0006200275
6000.5197375485	0.0006369380
