399.2631262207	0.0008042137
401.1919335938	0.0010658412
403.1207409668	0.0012042902
405.0495483398	0.0017666821
406.9783557129	0.0015709983
408.9071630859	0.0010767070
410.8359704590	0.0015013341
412.7647778320	0.0011463375
414.6935852051	0.0014559587
416.6223925781	0.0023645274
418.5511999512	0.0014993884
420.4800073242	0.0016513015
422.4088146973	0.0020399301
424.3376220703	0.0016603430
426.2664294434	0.0020760361
428.1952368164	0.0017654538
430.1240441895	0.0019807182
432.0528515625	0.0022816446
433.9816589355	0.0017327184
435.9104663086	0.0014618440
437.8392736816	0.0012869638
439.7680810547	0.0017275456
441.6968884277	0.0014717972
443.6256958008	0.0014449825
445.5545031738	0.0016627981
447.4833105469	0.0012697163
449.4121179199	0.0017090396
451.3409252930	0.0012101118
453.2697326660	0.0011633028
455.1985400391	0.0014004309
457.1273474121	0.0006894868
459.0561547852	0.0010730426
460.9849621582	0.0010809602
462.9137695313	0.0011367429
464.8425769043	0.0013802545
466.7713842773	0.0010393221
468.7001916504	0.0008920592
470.6289990234	0.0007074159
472.5578063965	0.0006878196
474.4866137695	0.0004780460
476.4154211426	0.0004549382
478.3442285156	0.0005144802
480.2730358887	0.0005801052
482.2018432617	0.0004304066
484.1306506348	0.0000953987
486.0594580078	0.0006816725
487.9882653809	0.0005903751
489.9170727539	0.0002509508
491.8458801270	0.0005345654
493.7746875000	0.0004721091
495.7034948730	0.0005867048
497.6323022461	0.0007530401
499.5611096191	0.0001703727
501.4899169922	-0.0001127235
503.4187243652	0.0007397286
505.3475317383	0.0002837151
507.2763391113	-0.0003643895
509.2051464844	0.0003155408
511.1339538574	0.0004591953
513.0627612305	0.0004503091
514.9915686035	0.0003704290
516.9203759766	0.0001845781
518.8491833496	-0.0002820218
520.7779907227	-0.0002145587
522.7067980957	0.0001567665
524.6356054688	0.0000832024
526.5644128418	0.0004979272
528.4932202148	0.0003278429
530.4220275879	0.0005389740
532.3508349609	0.0003231289
534.2796423340	-0.0000415787
536.2084497070	0.0007655252
538.1372570801	0.0002556306
540.0660644531	0.0000002381
541.9948718262	0.0001513416
543.9236791992	-0.0000840591
545.8524865723	0.0001827742
547.7812939453	0.0004931929
549.7101013184	0.0005313255
551.6389086914	0.0001885254
553.5677160645	0.0001613801
555.4965234375	-0.0001009793
557.4253308105	0.0000228522
559.3541381836	0.0002968614
561.2829455566	0.0000011211
563.2117529297	0.0004130914
565.1405603027	0.0003503315
567.0693676758	-0.0003335862
568.9981750488	-0.0001946728
570.9269824219	0.0004607731
572.8557897949	0.0003398784
574.7845971680	-0.0002531617
576.7134045410	0.0001976170
578.6422119141	0.0004892015
580.5710192871	0.0000478796
582.4998266602	0.0000888404
584.4286340332	0.0001341687
586.3574414063	0.0002374526
588.2862487793	0.0005137133
590.2150561523	0.0002000239
592.1438635254	0.0001991751
594.0726708984	0.0004860168
596.0014782715	0.0002939771
597.9302856445	0.0000567693
599.8590930176	-0.0000537571
601.7879003906	0.0000191732
603.7167077637	0.0004122391
605.6455151367	0.0002974386
607.5743225098	-0.0001369435
609.5031298828	0.0001096448
611.4319372559	0.0000865518
613.3607446289	-0.0001735950
615.2895520020	-0.0000084511
617.2183593750	0.0003179248
619.1471667480	-0.0001591226
621.0759741211	-0.0002927117
623.0047814941	0.0006426571
624.9335888672	0.0001649768
626.8623962402	0.0000717637
628.7912036133	0.0007612763
630.7200109863	0.0003851288
632.6488183594	0.0007879850
634.5776257324	0.0013733882
636.5064331055	0.0011927963
638.4352404785	0.0012882841
640.3640478516	0.0016528002
642.2928552246	0.0017425263
644.2216625977	0.0014165683
646.1504699707	0.0014551792
648.0792773438	0.0021203535
650.0080847168	0.0023867874
651.9368920898	0.0022511755
653.8656994629	0.0024540401
655.7945068359	0.0024403189
657.7233142090	0.0022575953
659.6521215820	0.0023119864
661.5809289551	0.0024503490
663.5097363281	0.0027192263
665.4385437012	0.0028557528
667.3673510742	0.0029194511
669.2961584473	0.0029565394
671.2249658203	0.0030752975
673.1537731934	0.0033817310
675.0825805664	0.0033930345
677.0113879395	0.0032768087
678.9401953125	0.0035555316
680.8690026855	0.0037278612
682.7978100586	0.0035611107
684.7266174316	0.0037356911
686.6554248047	0.0036998247
688.5842321777	0.0034362408
690.5130395508	0.0038955275
692.4418469238	0.0040703472
694.3706542969	0.0038871930
696.2994616699	0.0045729065
698.2282690430	0.0053450875
700.1570764160	0.0056599025
702.0858837891	0.0057907877
704.0146911621	0.0055234116
705.9434985352	0.0048372149
707.8723059082	0.0037668836
709.8011132813	0.0030828048
711.7299206543	0.0023224647
713.6587280273	0.0010548034
715.5875354004	0.0007482881
717.5163427734	0.0006832943
719.4451501465	0.0004789623
721.3739575195	0.0004571301
723.3027648926	0.0001400239
725.2315722656	0.0002012641
727.1603796387	0.0003231160
729.0891870117	0.0002861577
731.0179943848	0.0002817331
732.9468017578	0.0002316535
734.8756091309	0.0001790172
736.8044165039	0.0001587582
738.7332238770	0.0002600907
740.6620312500	-0.0000843542
742.5908386230	-0.0000280684
744.5196459961	0.0001483504
746.4484533691	0.0000172221
748.3772607422	0.0003714643
750.3060681152	0.0002138328
752.2348754883	0.0000974744
754.1636828613	0.0002017702
756.0924902344	0.0000124727
758.0212976074	0.0003047388
759.9501049805	0.0004300230
761.8789123535	0.0002373937
763.8077197266	0.0001095767
765.7365270996	0.0001504349
767.6653344727	0.0003799738
769.5941418457	0.0001782464
771.5229492188	0.0003201710
773.4517565918	0.0003846667
775.3805639648	0.0001018641
777.3093713379	0.0003909857
779.2381787109	0.0003953810
781.1669860840	0.0004227996
783.0957934570	0.0004640695
785.0246008301	0.0001395532
786.9534082031	0.0003522850
788.8822155762	0.0004507656
790.8110229492	0.0003378879
792.7398303223	0.0007460505
794.6686376953	0.0005842739
796.5974450684	0.0003814508
798.5262524414	0.0007428062
800.4550598145	0.0006034713
802.3838671875	0.0007501287
804.3126745605	0.0005983513
806.2414819336	0.0004368456
808.1702893066	0.0009519425
810.0990966797	0.0005090707
812.0279040527	0.0003800374
813.9567114258	0.0005006996
815.8855187988	0.0001231504
817.8143261719	0.0001613710
819.7431335449	0.0002708419
821.6719409180	0.0005424127
823.6007482910	0.0004408323
825.5295556641	0.0001881498
827.4583630371	0.0005706291
829.3871704102	0.0009274383
831.3159777832	0.0008915328
833.2447851563	0.0011429284
835.1735925293	0.0014751141
837.1023999023	0.0013475495
839.0312072754	0.0014303359
840.9600146484	0.0012297560
842.8888220215	0.0010899821
844.8176293945	0.0013291155
846.7464367676	0.0011280236
848.6752441406	0.0008844162
850.6040515137	0.0007619099
852.5328588867	0.0007387540
854.4616662598	0.0005911223
856.3904736328	0.0006080756
858.3192810059	0.0006802390
860.2480883789	0.0003584915
862.1768957520	0.0002703078
864.1057031250	0.0004289941
866.0345104980	0.0004394011
867.9633178711	0.0004196542
869.8921252441	0.0004325035
871.8209326172	0.0002722798
873.7497399902	0.0005099290
875.6785473633	0.0005142199
877.6073547363	0.0002203133
879.5361621094	0.0002638885
881.4649694824	0.0001196292
883.3937768555	0.0004289948
885.3225842285	0.0003620255
887.2513916016	0.0002468299
889.1801989746	0.0006614126
891.1090063477	0.0004859701
893.0378137207	0.0007424008
894.9666210938	0.0006908441
896.8954284668	0.0002358100
898.8242358398	0.0004445891
900.7530432129	0.0003838274
902.6818505859	0.0004397780
904.6106579590	0.0005545964
906.5394653320	0.0004087451
908.4682727051	0.0004989038
910.3970800781	0.0003836144
912.3258874512	0.0003764369
914.2546948242	0.0008123999
916.1835021973	0.0007956354
918.1123095703	0.0007161638
920.0411169434	0.0010290105
921.9699243164	0.0010605732
923.8987316895	0.0010209380
925.8275390625	0.0009180418
927.7563464355	0.0009904072
929.6851538086	0.0011705266
931.6139611816	0.0010674696
933.5427685547	0.0014324923
935.4715759277	0.0016763152
937.4003833008	0.0014952874
939.3291906738	0.0016868615
941.2579980469	0.0019884000
943.1868054199	0.0020173835
945.1156127930	0.0019065264
947.0444201660	0.0019465166
948.9732275391	0.0017173029
950.9020349121	0.0014854573
952.8308422852	0.0017890958
954.7596496582	0.0017236929
956.6884570313	0.0015908181
958.6172644043	0.0017396279
960.5460717773	0.0017282009
962.4748791504	0.0017908487
964.4036865234	0.0016202282
966.3324938965	0.0017063452
968.2613012695	0.0019792896
970.1901086426	0.0020268525
972.1189160156	0.0024206773
974.0477233887	0.0023500053
975.9765307617	0.0022848477
977.9053381348	0.0026810307
979.8341455078	0.0027449082
981.7629528809	0.0030283998
983.6917602539	0.0035207327
985.6205676270	0.0039562071
987.5493750000	0.0043476894
989.4781823730	0.0046701729
991.4069897461	0.0050218897
993.3357971191	0.0055141826
995.2646044922	0.0062088063
997.1934118652	0.0069438154
999.1222192383	0.0075518424
1001.0510266113	0.0077364487
1002.9798339844	0.0082335602
1004.9086413574	0.0088250227
1006.8374487305	0.0090580834
1008.7662561035	0.0099409353
1010.6950634766	0.0107787009
1012.6238708496	0.0113280602
1014.5526782227	0.0117839947
1016.4814855957	0.0122744357
1018.4102929688	0.0131947268
1020.3391003418	0.0135210510
1022.2679077148	0.0140699381
1024.1967150879	0.0148474462
1026.1255224609	0.0151237883
1028.0543298340	0.0158816613
1029.9831372070	0.0162285585
1031.9119445801	0.0164216608
1033.8407519531	0.0170086268
1035.7695593262	0.0171961635
1037.6983666992	0.0172376093
1039.6271740723	0.0171754155
1041.5559814453	0.0171873774
1043.4847888184	0.0172103439
1045.4135961914	0.0170793459
1047.3424035645	0.0167827196
1049.2712109375	0.0165408887
1051.2000183105	0.0161787458
1053.1288256836	0.0156358890
1055.0576330566	0.0156816691
1056.9864404297	0.0152552109
1058.9152478027	0.0148124173
1060.8440551758	0.0147500085
1062.7728625488	0.0140042054
1064.7016699219	0.0136184609
1066.6304772949	0.0131373238
1068.5592846680	0.0124853263
1070.4880920410	0.0121251065
1072.4168994141	0.0114178639
1074.3457067871	0.0109513709
1076.2745141602	0.0104847029
1078.2033215332	0.0096560949
1080.1321289062	0.0091898181
1082.0609362793	0.0090551656
1083.9897436523	0.0086792978
1085.9185510254	0.0083053820
1087.8473583984	0.0080986321
1089.7761657715	0.0077279992
1091.7049731445	0.0073404140
1093.6337805176	0.0070545077
1095.5625878906	0.0065148072
1097.4913952637	0.0062115723
1099.4202026367	0.0063718418
1101.3490100098	0.0060575763
1103.2778173828	0.0058936439
1105.2066247559	0.0058707148
1107.1354321289	0.0057468647
1109.0642395019	0.0057855449
1110.9930468750	0.0054735858
1112.9218542480	0.0056430772
1114.8506616211	0.0057628220
1116.7794689941	0.0055023544
1118.7082763672	0.0054357694
1120.6370837402	0.0053465823
1122.5658911133	0.0055178236
1124.4946984863	0.0056515392
1126.4235058594	0.0056484472
1128.3523132324	0.0055730492
1130.2811206055	0.0057958146
1132.2099279785	0.0060852859
1134.1387353516	0.0063327933
1136.0675427246	0.0065736105
1137.9963500977	0.0066053215
1139.9251574707	0.0072260695
1141.8539648437	0.0076101059
1143.7827722168	0.0080293138
1145.7115795898	0.0088200793
1147.6403869629	0.0091950186
1149.5691943359	0.0097006746
1151.4980017090	0.0103287715
1153.4268090820	0.0109447204
1155.3556164551	0.0111032017
1157.2844238281	0.0114211468
1159.2132312012	0.0121178031
1161.1420385742	0.0123871304
1163.0708459473	0.0127692614
1164.9996533203	0.0133518269
1166.9284606934	0.0138248410
1168.8572680664	0.0143038444
1170.7860754394	0.0149731655
1172.7148828125	0.0155036990
1174.6436901855	0.0159811564
1176.5724975586	0.0165751427
1178.5013049316	0.0173289105
1180.4301123047	0.0179384332
1182.3589196777	0.0184585974
1184.2877270508	0.0196128786
1186.2165344238	0.0203569587
1188.1453417969	0.0211699717
1190.0741491699	0.0223498289
1192.0029565430	0.0233015530
1193.9317639160	0.0244608633
1195.8605712891	0.0253045764
1197.7893786621	0.0265504103
1199.7181860351	0.0279160254
1201.6469934082	0.0289389584
1203.5758007812	0.0301624462
1205.5046081543	0.0311900135
1207.4334155273	0.0322494246
1209.3622229004	0.0332897380
1211.2910302734	0.0343270898
1213.2198376465	0.0353735909
1215.1486450195	0.0362923518
1217.0774523926	0.0371143371
1219.0062597656	0.0376180038
1220.9350671387	0.0382149518
1222.8638745117	0.0388983488
1224.7926818848	0.0390068628
1226.7214892578	0.0392150283
1228.6502966308	0.0396094508
1230.5791040039	0.0396810733
1232.5079113769	0.0399678797
1234.4367187500	0.0398593061
1236.3655261230	0.0396418050
1238.2943334961	0.0396693796
1240.2231408691	0.0396819860
1242.1519482422	0.0397469550
1244.0807556152	0.0393429920
1246.0095629883	0.0392747968
1247.9383703613	0.0389573760
1249.8671777344	0.0383836105
1251.7959851074	0.0383760855
1253.7247924805	0.0379950963
1255.6535998535	0.0374711007
1257.5824072266	0.0369895548
1259.5112145996	0.0363822579
1261.4400219726	0.0358111784
1263.3688293457	0.0354305729
1265.2976367187	0.0348516107
1267.2264440918	0.0344691873
1269.1552514648	0.0341591612
1271.0840588379	0.0333370119
1273.0128662109	0.0329760648
1274.9416735840	0.0324962623
1276.8704809570	0.0318081379
1278.7992883301	0.0310886726
1280.7280957031	0.0305347107
1282.6569030762	0.0301791243
1284.5857104492	0.0293416120
1286.5145178223	0.0289331116
1288.4433251953	0.0285388865
1290.3721325683	0.0279998779
1292.3009399414	0.0277150422
1294.2297473144	0.0275316071
1296.1585546875	0.0273648854
1298.0873620605	0.0272515826
1300.0161694336	0.0274527632
1301.9449768066	0.0276623592
1303.8737841797	0.0279232562
1305.8025915527	0.0279094633
1307.7313989258	0.0284206793
1309.6602062988	0.0290794335
1311.5890136719	0.0291920733
1313.5178210449	0.0298142470
1315.4466284180	0.0306103472
1317.3754357910	0.0314002261
1319.3042431640	0.0321115926
1321.2330505371	0.0331902057
1323.1618579101	0.0341465697
1325.0906652832	0.0350451469
1327.0194726562	0.0361780375
1328.9482800293	0.0368055031
1330.8770874023	0.0379944369
1332.8058947754	0.0388406329
1334.7347021484	0.0392654948
1336.6635095215	0.0399862379
1338.5923168945	0.0400776193
1340.5211242676	0.0404829830
1342.4499316406	0.0416654646
1344.3787390137	0.0419609249
1346.3075463867	0.0417480506
1348.2363537597	0.0418885462
1350.1651611328	0.0414967574
1352.0939685058	0.0415776558
1354.0227758789	0.0412562080
1355.9515832519	0.0406357534
1357.8803906250	0.0405056030
1359.8091979980	0.0395845547
1361.7380053711	0.0384924486
1363.6668127441	0.0381488726
1365.5956201172	0.0392263308
1367.5244274902	0.0386673100
1369.4532348633	0.0381406024
1371.3820422363	0.0384133011
1373.3108496094	0.0367607623
1375.2396569824	0.0371112004
1377.1684643555	0.0376113504
1379.0972717285	0.0375999361
1381.0260791015	0.0377929918
1382.9548864746	0.0376095846
1384.8836938476	0.0376388691
1386.8125012207	0.0361962318
1388.7413085937	0.0369621702
1390.6701159668	0.0390847735
1392.5989233398	0.0383036211
1394.5277307129	0.0367763415
1396.4565380859	0.0379940644
1398.3853454590	0.0381171480
1400.3141528320	0.0379687324
1402.2429602051	0.0402229950
1404.1717675781	0.0384993367
1406.1005749512	0.0386388265
1408.0293823242	0.0395798162
1409.9581896972	0.0384989753
1411.8869970703	0.0391060635
1413.8158044433	0.0377432033
1415.7446118164	0.0383558124
1417.6734191894	0.0353525952
1419.6022265625	0.0324923545
1421.5310339355	0.0357583612
1423.4598413086	0.0345690474
1425.3886486816	0.0337520689
1427.3174560547	0.0338923484
1429.2462634277	0.0317831486
1431.1750708008	0.0308026765
1433.1038781738	0.0309573896
1435.0326855469	0.0285788402
1436.9614929199	0.0252143443
1438.8903002929	0.0273890309
1440.8191076660	0.0274825748
1442.7479150390	0.0262254588
1444.6767224121	0.0269417595
1446.6055297851	0.0250887275
1448.5343371582	0.0255946629
1450.4631445312	0.0261798669
1452.3919519043	0.0267660059
1454.3207592773	0.0276360381
1456.2495666504	0.0238789320
1458.1783740234	0.0253573693
1460.1071813965	0.0319573060
1462.0359887695	0.0334471166
1463.9647961426	0.0338267982
1465.8936035156	0.0354913697
1467.8224108886	0.0396870673
1469.7512182617	0.0424289703
1471.6800256347	0.0394239128
1473.6088330078	0.0417234227
1475.5376403808	0.0464359522
1477.4664477539	0.0494819805
1479.3952551269	0.0536454953
1481.3240625000	0.0549533516
1483.2528698730	0.0579606481
1485.1816772461	0.0597221851
1487.1104846191	0.0596788973
1489.0392919922	0.0599693358
1490.9680993652	0.0607737638
1492.8969067383	0.0682866424
1494.8257141113	0.0671166778
1496.7545214843	0.0625180751
1498.6833288574	0.0691570491
1500.6121362304	0.0708527118
1502.5409436035	0.0750600398
1504.4697509765	0.0717755109
1506.3985583496	0.0571773797
1508.3273657226	0.0669913143
1510.2561730957	0.0750379711
1512.1849804687	0.0733448416
1514.1137878418	0.0779077113
1516.0425952148	0.0721691549
1517.9714025879	0.0749939829
1519.9002099609	0.0721628591
1521.8290173340	0.0656620488
1523.7578247070	0.0763175935
1525.6866320801	0.0749939010
1527.6154394531	0.0752548277
1529.5442468261	0.0806073695
1531.4730541992	0.0783400983
1533.4018615722	0.0735557973
1535.3306689453	0.0769529939
1537.2594763183	0.0801759213
1539.1882836914	0.0622355305
1541.1170910644	0.0654519498
1543.0458984375	0.0745283365
1544.9747058105	0.0722041205
1546.9035131836	0.0818841010
1548.8323205566	0.0776641443
1550.7611279297	0.0797349066
1552.6899353027	0.0789957047
1554.6187426758	0.0739228055
1556.5475500488	0.0774720833
1558.4763574218	0.0598248281
1560.4051647949	0.0637706965
1562.3339721679	0.0822966173
1564.2627795410	0.0787452459
1566.1915869140	0.0806235000
1568.1203942871	0.0795743465
1570.0492016601	0.0729947314
1571.9780090332	0.0813866854
1573.9068164062	0.0814972669
1575.8356237793	0.0685136318
1577.7644311523	0.0753659308
1579.6932385254	0.0828317851
1581.6220458984	0.0800578147
1583.5508532715	0.0813193470
1585.4796606445	0.0802777335
1587.4084680175	0.0808879882
1589.3372753906	0.0801563784
1591.2660827636	0.0800533444
1593.1948901367	0.0802910179
1595.1236975097	0.0794405043
1597.0525048828	0.0803593025
1598.9813122558	0.0799470022
1600.9101196289	0.0802006572
1602.8389270019	0.0792746916
1604.7677343750	0.0801806748
1606.6965417480	0.0792497993
1608.6253491211	0.0792347193
1610.5541564941	0.0787598714
1612.4829638672	0.0793172345
1614.4117712402	0.0799703896
1616.3405786132	0.0683418587
1618.2693859863	0.0733898282
1620.1981933593	0.0819711387
1622.1270007324	0.0747597367
1624.0558081054	0.0754655451
1625.9846154785	0.0778820515
1627.9134228515	0.0778885633
1629.8422302246	0.0772596449
1631.7710375976	0.0812030062
1633.6998449707	0.0762066990
1635.6286523437	0.0661146268
1637.5574597168	0.0745352134
1639.4862670898	0.0796018988
1641.4150744629	0.0780967176
1643.3438818359	0.0795935392
1645.2726892090	0.0731730536
1647.2014965820	0.0671660528
1649.1303039550	0.0792707801
1651.0591113281	0.0747684985
1652.9879187011	0.0542292073
1654.9167260742	0.0689310730
1656.8455334472	0.0812670887
1658.7743408203	0.0781216770
1660.7031481933	0.0801109076
1662.6319555664	0.0745927170
1664.5607629394	0.0777069032
1666.4895703125	0.0816119835
1668.4183776855	0.0739683807
1670.3471850586	0.0727090016
1672.2759924316	0.0795335174
1674.2047998047	0.0748803690
1676.1336071777	0.0729049817
1678.0624145507	0.0807908326
1679.9912219238	0.0782819092
1681.9200292968	0.0778338313
1683.8488366699	0.0663253888
1685.7776440429	0.0662717670
1687.7064514160	0.0840396136
1689.6352587890	0.0752253383
1691.5640661621	0.0811952502
1693.4928735351	0.0814014822
1695.4216809082	0.0642910302
1697.3504882812	0.0756672472
1699.2792956543	0.0686012283
1701.2081030273	0.0638423711
1703.1369104004	0.0800503269
1705.0657177734	0.0748760104
1706.9945251464	0.0754857957
1708.9233325195	0.0800538659
1710.8521398925	0.0773949698
1712.7809472656	0.0785026997
1714.7097546386	0.0740260705
1716.6385620117	0.0680883527
1718.5673693847	0.0675258711
1720.4961767578	0.0768069997
1722.4249841308	0.0784820020
1724.3537915039	0.0742118582
1726.2825988769	0.0790903047
1728.2114062500	0.0741930231
1730.1402136230	0.0748401955
1732.0690209961	0.0725909919
1733.9978283691	0.0597054437
1735.9266357421	0.0704036206
1737.8554431152	0.0753149539
1739.7842504882	0.0692190230
1741.7130578613	0.0739550889
1743.6418652343	0.0749253929
1745.5706726074	0.0751180202
1747.4994799804	0.0755119175
1749.4282873535	0.0731493682
1751.3570947265	0.0708444118
1753.2859020996	0.0766343921
1755.2147094726	0.0792060569
1757.1435168457	0.0742251128
1759.0723242187	0.0793786868
1761.0011315918	0.0754029304
1762.9299389648	0.0740378574
1764.8587463379	0.0815330893
1766.7875537109	0.0751116425
1768.7163610839	0.0758941695
1770.6451684570	0.0754204988
1772.5739758300	0.0698262453
1774.5027832031	0.0757390857
1776.4315905761	0.0788690746
1778.3603979492	0.0777736604
1780.2892053222	0.0771995410
1782.2180126953	0.0778408796
1784.1468200683	0.0774284899
1786.0756274414	0.0764492899
1788.0044348144	0.0794078857
1789.9332421875	0.0775779784
1791.8620495605	0.0721308440
1793.7908569336	0.0746532455
1795.7196643066	0.0787228867
1797.6484716796	0.0776991248
1799.5772790527	0.0768413991
1801.5060864257	0.0759437084
1803.4348937988	0.0777160823
1805.3637011718	0.0789596513
1807.2925085449	0.0779389068
1809.2213159179	0.0783256590
1811.1501232910	0.0768709332
1813.0789306640	0.0785199106
1815.0077380371	0.0788089409
1816.9365454101	0.0778275952
1818.8653527832	0.0783479363
1820.7941601562	0.0781836808
1822.7229675293	0.0788694844
1824.6517749023	0.0753447860
1826.5805822753	0.0772339031
1828.5093896484	0.0770140290
1830.4381970214	0.0737771019
1832.3670043945	0.0783466548
1834.2958117675	0.0778496861
1836.2246191406	0.0779637396
1838.1534265136	0.0775041953
1840.0822338867	0.0777727813
1842.0110412597	0.0778124556
1843.9398486328	0.0713758245
1845.8686560058	0.0748493373
1847.7974633789	0.0778118521
1849.7262707519	0.0765835345
1851.6550781250	0.0780138224
1853.5838854980	0.0767524689
1855.5126928710	0.0774061531
1857.4415002441	0.0770871639
1859.3703076171	0.0766434744
1861.2991149902	0.0770344585
1863.2279223632	0.0763952434
1865.1567297363	0.0768439919
1867.0855371093	0.0749694109
1869.0143444824	0.0726533532
1870.9431518554	0.0747246146
1872.8719592285	0.0766648054
1874.8007666015	0.0756151453
1876.7295739746	0.0759714544
1878.6583813476	0.0756879076
1880.5871887207	0.0753414407
1882.5159960937	0.0758498758
1884.4448034667	0.0750139207
1886.3736108398	0.0755349994
1888.3024182128	0.0742243230
1890.2312255859	0.0734864026
1892.1600329589	0.0751417354
1894.0888403320	0.0741416663
1896.0176477050	0.0740949512
1897.9464550781	0.0746213943
1899.8752624511	0.0742053241
1901.8040698242	0.0743617266
1903.7328771972	0.0739246085
1905.6616845703	0.0740303099
1907.5904919433	0.0735736787
1909.5192993164	0.0732313693
1911.4481066894	0.0735503435
1913.3769140625	0.0736187249
1915.3057214355	0.0738842636
1917.2345288085	0.0714554712
1919.1633361816	0.0716246665
1921.0921435546	0.0734004155
1923.0209509277	0.0717923716
1924.9497583007	0.0729150772
1926.8785656738	0.0731545687
1928.8073730468	0.0726972818
1930.7361804199	0.0732878894
1932.6649877929	0.0723875761
1934.5937951660	0.0730332881
1936.5226025390	0.0726097897
1938.4514099121	0.0726781189
1940.3802172851	0.0724657327
1942.3090246582	0.0708205178
1944.2378320312	0.0718091354
1946.1666394042	0.0722560212
1948.0954467773	0.0722018182
1950.0242541503	0.0723735839
1951.9530615234	0.0721496195
1953.8818688964	0.0721782893
1955.8106762695	0.0719024092
1957.7394836425	0.0719211251
1959.6682910156	0.0718706995
1961.5970983886	0.0717343539
1963.5259057617	0.0718557313
1965.4547131347	0.0717278421
1967.3835205078	0.0710918978
1969.3123278808	0.0712794811
1971.2411352539	0.0716980249
1973.1699426269	0.0713887140
1975.0987499999	0.0713837743
1977.0275573730	0.0711400136
1978.9563647460	0.0712023899
1980.8851721191	0.0711703748
1982.8139794921	0.0707772598
1984.7427868652	0.0707687438
1986.6715942382	0.0704973638
1988.6004016113	0.0705200285
1990.5292089843	0.0700772107
1992.4580163574	0.0695334971
1994.3868237304	0.0702181980
1996.3156311035	0.0701986551
1998.2444384765	0.0697308928
2000.1732458496	0.0698664114
2002.1020532226	0.0695370585
2004.0308605956	0.0694695115
2005.9596679687	0.0695070624
2007.8884753417	0.0692224354
2009.8172827148	0.0691935942
2011.7460900878	0.0688727349
2013.6748974609	0.0687977746
2015.6037048339	0.0684590787
2017.5325122070	0.0679548681
2019.4613195800	0.0683357194
2021.3901269531	0.0682118312
2023.3189343261	0.0678583235
2025.2477416992	0.0679181069
2027.1765490722	0.0676277727
2029.1053564453	0.0673730299
2031.0341638183	0.0672953352
2032.9629711914	0.0671712160
2034.8917785644	0.0671555698
2036.8205859374	0.0669051856
2038.7493933105	0.0666718036
2040.6782006835	0.0665488839
2042.6070080566	0.0663403422
2044.5358154296	0.0663003176
2046.4646228027	0.0660121143
2048.3934301757	0.0658942312
2050.3222375488	0.0658781081
2052.2510449218	0.0657414794
2054.1798522949	0.0657189488
2056.1086596679	0.0654344186
2058.0374670410	0.0653086826
2059.9662744140	0.0651844665
2061.8950817871	0.0650696978
2063.8238891601	0.0648490041
2065.7526965331	0.0645421892
2067.6815039062	0.0646305904
2069.6103112792	0.0645811111
2071.5391186523	0.0643994957
2073.4679260253	0.0642561316
2075.3967333984	0.0642898828
2077.3255407714	0.0640701652
2079.2543481445	0.0636923611
2081.1831555175	0.0637346357
2083.1119628906	0.0636863485
2085.0407702636	0.0634692013
2086.9695776367	0.0633698404
2088.8983850097	0.0633486807
2090.8271923828	0.0630537421
2092.7559997558	0.0629368797
2094.6848071288	0.0628886968
2096.6136145019	0.0626521781
2098.5424218749	0.0625887662
2100.4712292480	0.0624959953
2102.4000366210	0.0624952465
2104.3288439941	0.0622437447
2106.2576513671	0.0620725378
2108.1864587402	0.0620257184
2110.1152661132	0.0619105697
2112.0440734863	0.0619527176
2113.9728808593	0.0616526268
2115.9016882324	0.0615613312
2117.8304956054	0.0615704358
2119.7593029785	0.0613899343
2121.6881103515	0.0613478646
2123.6169177245	0.0612253025
2125.5457250976	0.0610938743
2127.4745324706	0.0610928647
2129.4033398437	0.0609584190
2131.3321472167	0.0607638918
2133.2609545898	0.0608528033
2135.1897619628	0.0607011653
2137.1185693359	0.0605713166
2139.0473767089	0.0605417229
2140.9761840820	0.0603427440
2142.9049914550	0.0603684373
2144.8337988281	0.0603603870
2146.7626062011	0.0602637567
2148.6914135742	0.0600673519
2150.6202209472	0.0599948689
2152.5490283203	0.0599149093
2154.4778356933	0.0598252714
2156.4066430663	0.0598899573
2158.3354504394	0.0597188920
2160.2642578124	0.0596280620
2162.1930651855	0.0595986769
2164.1218725585	0.0595743135
2166.0506799316	0.0594533756
2167.9794873046	0.0592907146
2169.9082946777	0.0592975616
2171.8371020507	0.0592221543
2173.7659094238	0.0590092987
2175.6947167968	0.0588373095
2177.6235241699	0.0589787662
2179.5523315429	0.0589132309
2181.4811389160	0.0586613566
2183.4099462890	0.0586348251
2185.3387536620	0.0586701110
2187.2675610351	0.0585906766
2189.1963684081	0.0584285967
2191.1251757812	0.0583665781
2193.0539831542	0.0582906529
2194.9827905273	0.0583498403
2196.9115979003	0.0582529306
2198.8404052734	0.0580706000
2200.7692126464	0.0579850078
2202.6980200195	0.0578850247
2204.6268273925	0.0578446686
2206.5556347656	0.0577244535
2208.4844421386	0.0577526316
2210.4132495117	0.0575987659
2212.3420568847	0.0575495437
2214.2708642577	0.0575784929
2216.1996716308	0.0573758893
2218.1284790038	0.0573441610
2220.0572863769	0.0572393835
2221.9860937499	0.0571627468
2223.9149011230	0.0569462851
2225.8437084960	0.0568933636
2227.7725158691	0.0570180602
2229.7013232421	0.0568317696
2231.6301306152	0.0566835403
2233.5589379882	0.0567322373
2235.4877453613	0.0566379353
2237.4165527343	0.0563187748
2239.3453601074	0.0563746095
2241.2741674804	0.0562620983
2243.2029748534	0.0561249219
2245.1317822265	0.0561393499
2247.0605895995	0.0558897927
2248.9893969726	0.0558907539
2250.9182043456	0.0557628609
2252.8470117187	0.0556170940
2254.7758190917	0.0557016619
2256.7046264648	0.0557474643
2258.6334338378	0.0554053187
2260.5622412109	0.0553383976
2262.4910485839	0.0555149466
2264.4198559570	0.0552026406
2266.3486633300	0.0552638024
2268.2774707031	0.0550483279
2270.2062780761	0.0549256951
2272.1350854491	0.0550498515
2274.0638928222	0.0547512062
2275.9927001952	0.0547334254
2277.9215075683	0.0547144562
2279.8503149413	0.0547182038
2281.7791223144	0.0545366630
2283.7079296874	0.0544653758
2285.6367370605	0.0543979481
2287.5655444335	0.0542539097
2289.4943518066	0.0542472266
2291.4231591796	0.0539315790
2293.3519665527	0.0538680255
2295.2807739257	0.0536664799
2297.2095812988	0.0535639822
2299.1383886718	0.0534499846
2301.0671960449	0.0531231090
2302.9960034179	0.0529586002
2304.9248107909	0.0527340472
2306.8536181640	0.0526053309
2308.7824255370	0.0520608574
2310.7112329101	0.0518411621
2312.6400402831	0.0515345782
2314.5688476562	0.0509470180
2316.4976550292	0.0505809337
2318.4264624023	0.0498795435
2320.3552697753	0.0495185740
2322.2840771484	0.0488357171
2324.2128845214	0.0482067913
2326.1416918945	0.0479671285
2328.0704992675	0.0475821719
2329.9993066406	0.0471487567
2331.9281140136	0.0467004776
2333.8569213866	0.0467023104
2335.7857287597	0.0463559404
2337.7145361327	0.0462916233
2339.6433435058	0.0464038663
2341.5721508788	0.0464404151
2343.5009582519	0.0470562875
2345.4297656249	0.0476416051
2347.3585729980	0.0492299721
2349.2873803710	0.0501944572
2351.2161877441	0.0488758087
2353.1449951171	0.0470980331
2355.0738024902	0.0455911309
2357.0026098632	0.0445377976
2358.9314172363	0.0439295024
2360.8602246093	0.0435944572
2362.7890319823	0.0434507653
2364.7178393554	0.0435490832
2366.6466467284	0.0439742021
2368.5754541015	0.0446552709
2370.5042614745	0.0454846323
2372.4330688476	0.0463046096
2374.3618762206	0.0472523123
2376.2906835937	0.0483234599
2378.2194909667	0.0491685867
2380.1482983398	0.0496416427
2382.0771057128	0.0500499196
2384.0059130859	0.0503168628
2385.9347204589	0.0504540130
2387.8635278320	0.0505483411
2389.7923352050	0.0504924804
2391.7211425780	0.0504116304
2393.6499499511	0.0502732955
2395.5787573241	0.0502597392
2397.5075646972	0.0501708984
2399.4363720702	0.0500646234
2401.3651794433	0.0500402860
2403.2939868163	0.0499066412
2405.2227941894	0.0499905199
2407.1516015624	0.0499172509
2409.0804089355	0.0497387573
2411.0092163085	0.0497230031
2412.9380236816	0.0496242642
2414.8668310546	0.0494691059
2416.7956384277	0.0493206717
2418.7244458007	0.0493784025
2420.6532531738	0.0493239835
2422.5820605468	0.0491899848
2424.5108679198	0.0491970256
2426.4396752929	0.0490510315
2428.3684826659	0.0489755869
2430.2972900390	0.0489035174
2432.2260974120	0.0487343445
2434.1549047851	0.0487700775
2436.0837121581	0.0487311594
2438.0125195312	0.0485281572
2439.9413269042	0.0485238507
2441.8701342773	0.0485358834
2443.7989416503	0.0484267436
2445.7277490234	0.0483956188
2447.6565563964	0.0483704880
2449.5853637695	0.0483096018
2451.5141711425	0.0482090861
2453.4429785155	0.0480438173
2455.3717858886	0.0479464456
2457.3005932616	0.0479307882
2459.2294006347	0.0479094163
2461.1582080077	0.0479100570
2463.0870153808	0.0477636084
2465.0158227538	0.0475469232
2466.9446301269	0.0476799160
2468.8734374999	0.0476838574
2470.8022448730	0.0474514961
2472.7310522460	0.0474886671
2474.6598596191	0.0474438593
2476.5886669921	0.0473036617
2478.5174743652	0.0471716076
2480.4462817382	0.0471170507
2482.3750891112	0.0471929014
2484.3038964843	0.0470189266
2486.2327038573	0.0468775406
2488.1615112304	0.0468267947
2490.0903186034	0.0467652008
2492.0191259765	0.0467476398
2493.9479333495	0.0466561094
2495.8767407226	0.0465683341
2497.8055480956	0.0464406013
2499.7343554687	0.0463879183
2501.6631628417	0.0462941527
2503.5919702148	0.0463190228
2505.5207775878	0.0463151485
2507.4495849609	0.0460837409
2509.3783923339	0.0461625531
2511.3071997069	0.0461274311
2513.2360070800	0.0459984392
2515.1648144530	0.0458727553
2517.0936218261	0.0457650498
2519.0224291991	0.0458221212
2520.9512365722	0.0456348807
2522.8800439452	0.0456586853
2524.8088513183	0.0456015915
2526.7376586913	0.0454535447
2528.6664660644	0.0455673635
2530.5952734374	0.0454083309
2532.5240808105	0.0452477708
2534.4528881835	0.0453042313
2536.3816955566	0.0453572273
2538.3105029296	0.0451074019
2540.2393103027	0.0450287610
2542.1681176757	0.0451370776
2544.0969250487	0.0448923521
2546.0257324218	0.0448249355
2547.9545397948	0.0448585600
2549.8833471679	0.0448165461
2551.8121545409	0.0446919352
2553.7409619140	0.0446211062
2555.6697692870	0.0446586907
2557.5985766601	0.0444126390
2559.5273840331	0.0443204306
2561.4561914062	0.0443501957
2563.3849987792	0.0442488417
2565.3138061523	0.0441907346
2567.2426135253	0.0440751053
2569.1714208984	0.0441127494
2571.1002282714	0.0442068987
2573.0290356444	0.0440374427
2574.9578430175	0.0439092629
2576.8866503905	0.0438531190
2578.8154577636	0.0437386483
2580.7442651366	0.0437683910
2582.6730725097	0.0437414795
2584.6018798827	0.0436026379
2586.5306872558	0.0434733704
2588.4594946288	0.0434468389
2590.3883020019	0.0435058102
2592.3171093749	0.0433575511
2594.2459167480	0.0433078259
2596.1747241210	0.0433083810
2598.1035314941	0.0431665853
2600.0323388671	0.0431266800
2601.9611462401	0.0430199057
2603.8899536132	0.0429187268
2605.8187609862	0.0428665355
2607.7475683593	0.0428756550
2609.6763757323	0.0429125652
2611.6051831054	0.0426585600
2613.5339904784	0.0425542817
2615.4627978515	0.0426368341
2617.3916052245	0.0424971916
2619.3204125976	0.0424308479
2621.2492199706	0.0423565507
2623.1780273437	0.0423350111
2625.1068347167	0.0423455983
2627.0356420898	0.0421378613
2628.9644494628	0.0421289355
2630.8932568358	0.0421130732
2632.8220642089	0.0419960953
2634.7508715819	0.0419504270
2636.6796789550	0.0418194719
2638.6084863280	0.0417852774
2640.5372937011	0.0417299978
2642.4661010741	0.0416719466
2644.3949084472	0.0416398607
2646.3237158202	0.0415354297
2648.2525231933	0.0414950475
2650.1813305663	0.0414412282
2652.1101379394	0.0413680598
2654.0389453124	0.0413168892
2655.9677526855	0.0412527621
2657.8965600585	0.0411640815
2659.8253674315	0.0411464795
2661.7541748046	0.0411174446
2663.6829821776	0.0410431996
2665.6117895507	0.0409885645
2667.5405969237	0.0408464223
2669.4694042968	0.0408216789
2671.3982116698	0.0407487080
2673.3270190429	0.0405690223
2675.2558264159	0.0406086557
2677.1846337890	0.0405854844
2679.1134411620	0.0405250527
2681.0422485351	0.0405317545
2682.9710559081	0.0403671041
2684.8998632812	0.0402421653
2686.8286706542	0.0402535647
2688.7574780273	0.0401916951
2690.6862854003	0.0400972664
2692.6150927733	0.0401085019
2694.5439001464	0.0400590822
2696.4727075194	0.0399164408
2698.4015148925	0.0399209484
2700.3303222655	0.0397966579
2702.2591296386	0.0396468639
2704.1879370116	0.0396851152
2706.1167443847	0.0396040827
2708.0455517577	0.0396102928
2709.9743591308	0.0395642221
2711.9031665038	0.0394506305
2713.8319738769	0.0394035205
2715.7607812499	0.0392212123
2717.6895886230	0.0392064303
2719.6183959960	0.0391990207
2721.5472033690	0.0391106904
2723.4760107421	0.0391031727
2725.4048181151	0.0390749127
2727.3336254882	0.0390054099
2729.2624328612	0.0388476066
2731.1912402343	0.0387847982
2733.1200476073	0.0387782566
2735.0488549804	0.0386978686
2736.9776623534	0.0386165418
2738.9064697265	0.0385204479
2740.8352770995	0.0384388566
2742.7640844726	0.0384748727
2744.6928918456	0.0383856446
2746.6216992187	0.0382298827
2748.5505065917	0.0382302478
2750.4793139647	0.0380797163
2752.4081213378	0.0380673110
2754.3369287108	0.0381016657
2756.2657360839	0.0379983038
2758.1945434569	0.0379048213
2760.1233508300	0.0377774574
2762.0521582030	0.0378107801
2763.9809655761	0.0376326516
2765.9097729491	0.0376310274
2767.8385803222	0.0376577824
2769.7673876952	0.0373490341
2771.6961950683	0.0374225825
2773.6250024413	0.0373820923
2775.5538098144	0.0372812599
2777.4826171874	0.0372990295
2779.4114245604	0.0371691212
2781.3402319335	0.0370960832
2783.2690393065	0.0369875804
2785.1978466796	0.0369293317
2787.1266540526	0.0369164161
2789.0554614257	0.0368429646
2790.9842687987	0.0366976187
2792.9130761718	0.0367601886
2794.8418835448	0.0367230847
2796.7706909179	0.0364596844
2798.6994982909	0.0364786610
2800.6283056640	0.0364076085
2802.5571130370	0.0362981111
2804.4859204101	0.0362594724
2806.4147277831	0.0362079069
2808.3435351562	0.0361493714
2810.2723425292	0.0361506268
2812.2011499022	0.0361473449
2814.1299572753	0.0358004868
2816.0587646483	0.0358803570
2817.9875720214	0.0359881222
2819.9163793944	0.0356826410
2821.8451867675	0.0356885120
2823.7739941405	0.0355791152
2825.7028015136	0.0354293063
2827.6316088866	0.0353874266
2829.5604162597	0.0354160890
2831.4892236327	0.0353616551
2833.4180310058	0.0350970589
2835.3468383788	0.0351304337
2837.2756457519	0.0350311697
2839.2044531249	0.0349521600
2841.1332604979	0.0349233523
2843.0620678710	0.0345707387
2844.9908752440	0.0345007181
2846.9196826171	0.0343140028
2848.8484899901	0.0339885280
2850.7772973632	0.0340151712
2852.7061047362	0.0340367928
2854.6349121093	0.0339583606
2856.5637194823	0.0339001492
2858.4925268554	0.0339049958
2860.4213342284	0.0339227319
2862.3501416015	0.0338737220
2864.2789489745	0.0337173939
2866.2077563476	0.0337055996
2868.1365637206	0.0336789005
2870.0653710936	0.0335297324
2871.9941784667	0.0334772393
2873.9229858397	0.0333527140
2875.8517932128	0.0334604494
2877.7806005858	0.0333838724
2879.7094079589	0.0332140252
2881.6382153319	0.0333373584
2883.5670227050	0.0330843106
2885.4958300780	0.0330085084
2887.4246374511	0.0331085399
2889.3534448241	0.0331002139
2891.2822521972	0.0330183618
2893.2110595702	0.0327824280
2895.1398669433	0.0327648818
2897.0686743163	0.0326689966
2898.9974816893	0.0326156542
2900.9262890624	0.0324355289
2902.8550964354	0.0322692133
2904.7839038085	0.0323908366
2906.7127111815	0.0321728513
2908.6415185546	0.0320373140
2910.5703259276	0.0319308117
2912.4991333007	0.0316976719
2914.4279406737	0.0316535383
2916.3567480468	0.0315127894
2918.2855554198	0.0312834308
2920.2143627929	0.0312808938
2922.1431701659	0.0313540027
2924.0719775390	0.0312215276
2926.0007849120	0.0312787816
2927.9295922851	0.0312910154
2929.8583996581	0.0311320275
2931.7872070311	0.0311251469
2933.7160144042	0.0310871750
2935.6448217772	0.0311436690
2937.5736291503	0.0311614163
2939.5024365233	0.0311476719
2941.4312438964	0.0310888402
2943.3600512694	0.0310196616
2945.2888586425	0.0311466306
2947.2176660155	0.0310486294
2949.1464733886	0.0309468210
2951.0752807616	0.0309943054
2953.0040881347	0.0308810994
2954.9328955077	0.0307132732
2956.8617028808	0.0306142829
2958.7905102538	0.0305536538
2960.7193176268	0.0303608701
2962.6481249999	0.0303039402
2964.5769323729	0.0303759053
2966.5057397460	0.0302623063
2968.4345471190	0.0302544646
2970.3633544921	0.0302999765
2972.2921618651	0.0303026587
2974.2209692382	0.0303284694
2976.1497766112	0.0302957390
2978.0785839843	0.0302651785
2980.0073913573	0.0301891007
2981.9361987304	0.0302939191
2983.8650061034	0.0303645898
2985.7938134765	0.0301177241
2987.7226208495	0.0300338566
2989.6514282225	0.0301605053
2991.5802355956	0.0301997215
2993.5090429686	0.0300226547
2995.4378503417	0.0299623497
2997.3666577147	0.0299559906
2999.2954650878	0.0298282504
3001.2242724608	0.0298518892
3003.1530798339	0.0297706835
3005.0818872069	0.0297060497
3007.0106945800	0.0295956805
3008.9395019530	0.0294973832
3010.8683093261	0.0295908079
3012.7971166991	0.0293855965
3014.7259240722	0.0293205399
3016.6547314452	0.0293752868
3018.5835388182	0.0292361826
3020.5123461913	0.0292100720
3022.4411535643	0.0291605778
3024.3699609374	0.0291550532
3026.2987683104	0.0291209444
3028.2275756835	0.0290026441
3030.1563830565	0.0289244503
3032.0851904296	0.0288013332
3034.0139978026	0.0287578665
3035.9428051757	0.0286605135
3037.8716125487	0.0285776109
3039.8004199218	0.0286254771
3041.7292272948	0.0284588560
3043.6580346679	0.0284190942
3045.5868420409	0.0284860544
3047.5156494139	0.0283295959
3049.4444567870	0.0282476582
3051.3732641600	0.0281787813
3053.3020715331	0.0282004178
3055.2308789061	0.0281290431
3057.1596862792	0.0278662331
3059.0884936522	0.0278806798
3061.0173010253	0.0279962718
3062.9461083983	0.0278671905
3064.8749157714	0.0276903845
3066.8037231444	0.0277219936
3068.7325305175	0.0276491903
3070.6613378905	0.0276140459
3072.5901452636	0.0276268777
3074.5189526366	0.0274894238
3076.4477600097	0.0274395905
3078.3765673827	0.0273092166
3080.3053747557	0.0273345448
3082.2341821288	0.0272816867
3084.1629895018	0.0271785036
3086.0917968749	0.0272491053
3088.0206042479	0.0271062814
3089.9494116210	0.0270505920
3091.8782189940	0.0269827265
3093.8070263671	0.0270165410
3095.7358337401	0.0269696191
3097.6646411132	0.0267685764
3099.5934484862	0.0267865714
3101.5222558593	0.0266824588
3103.4510632323	0.0266923439
3105.3798706054	0.0266348869
3107.3086779784	0.0265413150
3109.2374853514	0.0265592523
3111.1662927245	0.0264251940
3113.0951000975	0.0263996646
3115.0239074706	0.0263588130
3116.9527148436	0.0262513608
3118.8815222167	0.0260503124
3120.8103295897	0.0259141885
3122.7391369628	0.0259693898
3124.6679443358	0.0260313861
3126.5967517089	0.0259819105
3128.5255590819	0.0258184746
3130.4543664550	0.0257807728
3132.3831738280	0.0256941319
3134.3119812011	0.0256202035
3136.2407885741	0.0255379751
3138.1695959471	0.0253644623
3140.0984033202	0.0253144391
3142.0272106932	0.0252681114
3143.9560180663	0.0252424814
3145.8848254393	0.0251320526
3147.8136328124	0.0250554271
3149.7424401854	0.0250632763
3151.6712475585	0.0249376446
3153.6000549315	0.0248638764
3155.5288623046	0.0247973464
3157.4576696776	0.0247113556
3159.3864770507	0.0247404613
3161.3152844237	0.0246937536
3163.2440917968	0.0245066732
3165.1728991698	0.0244296826
3167.1017065428	0.0244016871
3169.0305139159	0.0242853761
3170.9593212889	0.0242281556
3172.8881286620	0.0241711084
3174.8169360350	0.0240611210
3176.7457434081	0.0240537394
3178.6745507811	0.0240245238
3180.6033581542	0.0239632539
3182.5321655272	0.0239483584
3184.4609729003	0.0237639192
3186.3897802733	0.0236608610
3188.3185876464	0.0237150807
3190.2473950194	0.0236796178
3192.1762023925	0.0236087348
3194.1050097655	0.0235475153
3196.0338171386	0.0235275365
3197.9626245116	0.0233890433
3199.8914318846	0.0232331138
3201.8202392577	0.0232154131
3203.7490466307	0.0232689604
3205.6778540038	0.0231813844
3207.6066613768	0.0230451208
3209.5354687499	0.0231182240
3211.4642761229	0.0229753070
3213.3930834960	0.0228803549
3215.3218908690	0.0229023360
3217.2506982421	0.0227412768
3219.1795056151	0.0227954425
3221.1083129882	0.0228905510
3223.0371203612	0.0227780789
3224.9659277343	0.0226319823
3226.8947351073	0.0226985402
3228.8235424803	0.0226897299
3230.7523498534	0.0225337669
3232.6811572264	0.0225359015
3234.6099645995	0.0224897172
3236.5387719725	0.0224688947
3238.4675793456	0.0224463604
3240.3963867186	0.0223771371
3242.3251940917	0.0222942866
3244.2540014647	0.0222308561
3246.1828088378	0.0222999025
3248.1116162108	0.0222745165
3250.0404235839	0.0221538767
3251.9692309569	0.0221297070
3253.8980383300	0.0221102573
3255.8268457030	0.0219853166
3257.7556530760	0.0221115053
3259.6844604491	0.0221795589
3261.6132678221	0.0218971670
3263.5420751952	0.0219338983
3265.4708825682	0.0220850743
3267.3996899413	0.0219603293
3269.3284973143	0.0218045115
3271.2573046874	0.0218067132
3273.1861120604	0.0217727907
3275.1149194335	0.0217118412
3277.0437268065	0.0217698961
3278.9725341796	0.0216733497
3280.9013415526	0.0216597300
3282.8301489257	0.0216892585
3284.7589562987	0.0216337610
3286.6877636717	0.0217033029
3288.6165710448	0.0215777941
3290.5453784178	0.0214561224
3292.4741857909	0.0215301551
3294.4029931639	0.0215086881
3296.3318005370	0.0214598123
3298.2606079100	0.0213945825
3300.1894152831	0.0213815775
3302.1182226561	0.0213318989
3304.0470300292	0.0212211348
3305.9758374022	0.0213121511
3307.9046447753	0.0212190989
3309.8334521483	0.0211742930
3311.7622595214	0.0213502645
3313.6910668944	0.0212043710
3315.6198742675	0.0211577155
3317.5486816405	0.0211989060
3319.4774890135	0.0211520121
3321.4062963866	0.0210902207
3323.3351037596	0.0209054034
3325.2639111327	0.0209619291
3327.1927185057	0.0210024361
3329.1215258788	0.0208590962
3331.0503332518	0.0208797269
3332.9791406249	0.0208840147
3334.9079479979	0.0207740385
3336.8367553710	0.0208147578
3338.7655627440	0.0208368804
3340.6943701171	0.0206703190
3342.6231774901	0.0206196494
3344.5519848632	0.0205923952
3346.4807922362	0.0205197930
3348.4095996092	0.0205386020
3350.3384069823	0.0205204673
3352.2672143553	0.0205000117
3354.1960217284	0.0205642525
3356.1248291014	0.0204406716
3358.0536364745	0.0203186367
3359.9824438475	0.0203792416
3361.9112512206	0.0202043951
3363.8400585936	0.0201879218
3365.7688659667	0.0203174800
3367.6976733397	0.0202548560
3369.6264807128	0.0201709550
3371.5552880858	0.0200140662
3373.4840954589	0.0200294293
3375.4129028319	0.0199845433
3377.3417102049	0.0199080762
3379.2705175780	0.0199634656
3381.1993249510	0.0198443290
3383.1281323241	0.0198308583
3385.0569396971	0.0198170468
3386.9857470702	0.0197310261
3388.9145544432	0.0197562203
3390.8433618163	0.0196580328
3392.7721691893	0.0195787102
3394.7009765624	0.0196011569
3396.6297839354	0.0194428656
3398.5585913085	0.0194110163
3400.4873986815	0.0195425674
3402.4162060546	0.0194716677
3404.3450134276	0.0194011480
3406.2738208006	0.0193198510
3408.2026281737	0.0192382522
3410.1314355467	0.0192489084
3412.0602429198	0.0191948544
3413.9890502928	0.0191259272
3415.9178576659	0.0191946290
3417.8466650389	0.0191794150
3419.7754724120	0.0189874507
3421.7042797850	0.0190110654
3423.6330871581	0.0190725196
3425.5618945311	0.0190425441
3427.4907019042	0.0189834014
3429.4195092772	0.0189303216
3431.3483166503	0.0189023390
3433.2771240233	0.0188252162
3435.2059313963	0.0188474376
3437.1347387694	0.0187377147
3439.0635461424	0.0187035128
3440.9923535155	0.0187045150
3442.9211608885	0.0185803808
3444.8499682616	0.0185255911
3446.7787756346	0.0183882713
3448.7075830077	0.0184034444
3450.6363903807	0.0184607953
3452.5651977538	0.0185512118
3454.4940051268	0.0185191426
3456.4228124999	0.0184198432
3458.3516198729	0.0184792206
3460.2804272460	0.0183665510
3462.2092346190	0.0183644611
3464.1380419921	0.0182798989
3466.0668493651	0.0182461143
3467.9956567381	0.0183019079
3469.9244641112	0.0182090923
3471.8532714842	0.0182575956
3473.7820788573	0.0181649141
3475.7108862303	0.0181676000
3477.6396936034	0.0182015598
3479.5685009764	0.0180750340
3481.4973083495	0.0180427097
3483.4261157225	0.0180236064
3485.3549230956	0.0180127434
3487.2837304686	0.0179796405
3489.2125378417	0.0179954991
3491.1413452147	0.0180350095
3493.0701525878	0.0180177614
3494.9989599608	0.0179608706
3496.9277673338	0.0179316811
3498.8565747069	0.0179410093
3500.7853820799	0.0179463997
3502.7141894530	0.0177262351
3504.6429968260	0.0176497698
3506.5718041991	0.0179322325
3508.5006115721	0.0177347176
3510.4294189452	0.0176226031
3512.3582263182	0.0179056972
3514.2870336913	0.0179436319
3516.2158410643	0.0178083200
3518.1446484374	0.0176984593
3520.0734558104	0.0177955739
3522.0022631835	0.0177601278
3523.9310705565	0.0176254585
3525.8598779295	0.0175362714
3527.7886853026	0.0175768174
3529.7174926756	0.0176537912
3531.6463000487	0.0176021457
3533.5751074217	0.0177475326
3535.5039147948	0.0176460017
3537.4327221678	0.0175184198
3539.3615295409	0.0176401697
3541.2903369139	0.0176531859
3543.2191442870	0.0176239312
3545.1479516600	0.0172580965
3547.0767590331	0.0171761680
3549.0055664061	0.0176373683
3550.9343737792	0.0174980238
3552.8631811522	0.0173177421
3554.7919885252	0.0175786130
3556.7207958983	0.0175904892
3558.6496032713	0.0176166799
3560.5784106444	0.0173731185
3562.5072180174	0.0173284803
3564.4360253905	0.0173991621
3566.3648327635	0.0165120475
3568.2936401366	0.0164354816
3570.2224475096	0.0172665864
3572.1512548827	0.0174480900
3574.0800622557	0.0174261071
3576.0088696288	0.0173707157
3577.9376770018	0.0172355473
3579.8664843749	0.0173069052
3581.7952917479	0.0173038170
3583.7240991210	0.0174042545
3585.6529064940	0.0171111692
3587.5817138670	0.0159993805
3589.5105212401	0.0164247993
3591.4393286131	0.0174148604
3593.3681359862	0.0170071628
3595.2969433592	0.0168059785
3597.2257507323	0.0169730410
3599.1545581053	0.0170559622
3601.0833654784	0.0169958174
3603.0121728514	0.0171774998
3604.9409802245	0.0172959510
3606.8697875975	0.0168143250
3608.7985949706	0.0161684025
3610.7274023436	0.0163707286
3612.6562097167	0.0167113636
3614.5850170897	0.0164473131
3616.5138244627	0.0171389617
3618.4426318358	0.0161729455
3620.3714392088	0.0158142503
3622.3002465819	0.0171842668
3624.2290539549	0.0169055760
3626.1578613280	0.0173402391
3628.0866687010	0.0153354080
3630.0154760741	0.0145779140
3631.9442834471	0.0170637257
3633.8730908202	0.0167537462
3635.8018981932	0.0169436410
3637.7307055663	0.0171417966
3639.6595129393	0.0170414858
3641.5883203124	0.0170588046
3643.5171276854	0.0169244818
3645.4459350584	0.0170075037
3647.3747424315	0.0156665593
3649.3035498045	0.0148179047
3651.2323571776	0.0149657447
3653.1611645506	0.0169760995
3655.0899719237	0.0167398732
3657.0187792967	0.0155180488
3658.9475866698	0.0171069987
3660.8763940428	0.0167164616
3662.8052014159	0.0169906318
3664.7340087889	0.0168914944
3666.6628161620	0.0168219786
3668.5916235350	0.0163792334
3670.5204309081	0.0141263101
3672.4492382811	0.0162373651
3674.3780456541	0.0156050250
3676.3068530272	0.0137840901
3678.2356604002	0.0161597691
3680.1644677733	0.0165331438
3682.0932751463	0.0165003706
3684.0220825194	0.0166740566
3685.9508898924	0.0165685024
3687.8796972655	0.0152304871
3689.8085046385	0.0144269038
3691.7373120116	0.0158766694
3693.6661193846	0.0160392225
3695.5949267577	0.0164333973
3697.5237341307	0.0164103620
3699.4525415038	0.0161682200
3701.3813488768	0.0158773474
3703.3101562499	0.0155685581
3705.2389636229	0.0166127607
3707.1677709959	0.0159697197
3709.0965783690	0.0157467425
3711.0253857420	0.0149499644
3712.9541931151	0.0143830441
3714.8830004881	0.0160639137
3716.8118078612	0.0157367513
3718.7406152342	0.0158890076
3720.6694226073	0.0156740155
3722.5982299803	0.0153822144
3724.5270373534	0.0156100597
3726.4558447264	0.0148009378
3728.3846520995	0.0158664435
3730.3134594725	0.0155527666
3732.2422668456	0.0147023126
3734.1710742186	0.0144650415
3736.0998815916	0.0138213187
3738.0286889647	0.0144296447
3739.9574963377	0.0153642241
3741.8863037108	0.0157651510
3743.8151110838	0.0129675530
3745.7439184569	0.0126392804
3747.6727258299	0.0152091701
3749.6015332030	0.0135497469
3751.5303405760	0.0128128342
3753.4591479491	0.0141138714
3755.3879553221	0.0150297340
3757.3167626952	0.0153877530
3759.2455700682	0.0144228395
3761.1743774413	0.0149185434
3763.1031848143	0.0155129023
3765.0319921873	0.0146915419
3766.9607995604	0.0150105096
3768.8896069334	0.0148211299
3770.8184143065	0.0143787498
3772.7472216795	0.0152517939
3774.6760290526	0.0151406862
3776.6048364256	0.0151539184
3778.5336437987	0.0148930531
3780.4624511717	0.0145081831
3782.3912585448	0.0150771709
3784.3200659178	0.0147959990
3786.2488732909	0.0147428401
3788.1776806639	0.0148701435
3790.1064880370	0.0149915349
3792.0352954100	0.0149205588
3793.9641027830	0.0149381990
3795.8929101561	0.0142829120
3797.8217175291	0.0143013429
3799.7505249022	0.0147758787
3801.6793322752	0.0124022234
3803.6081396483	0.0140653234
3805.5369470213	0.0147277899
3807.4657543944	0.0127786268
3809.3945617674	0.0147539787
3811.3233691405	0.0142777953
3813.2521765135	0.0147432592
3815.1809838866	0.0136672296
3817.1097912596	0.0125341993
3819.0385986327	0.0147562344
3820.9674060057	0.0125319324
3822.8962133787	0.0130825695
3824.8250207518	0.0145875718
3826.7538281248	0.0136104915
3828.6826354979	0.0143065089
3830.6114428709	0.0138201052
3832.5402502440	0.0134833511
3834.4690576170	0.0137320710
3836.3978649901	0.0132253980
3838.3266723631	0.0122305946
3840.2554797362	0.0130777480
3842.1842871092	0.0137671195
3844.1130944823	0.0132546853
3846.0419018553	0.0140513312
3847.9707092284	0.0138688367
3849.8995166014	0.0139352456
3851.8283239745	0.0127066281
3853.7571313475	0.0102474112
3855.6859387205	0.0117636984
3857.6147460936	0.0139198136
3859.5435534666	0.0135126766
3861.4723608397	0.0134257376
3863.4011682127	0.0131880101
3865.3299755858	0.0125335613
3867.2587829588	0.0135343838
3869.1875903319	0.0125760511
3871.1163977049	0.0120548857
3873.0452050780	0.0135247698
3874.9740124510	0.0126583632
3876.9028198241	0.0134975314
3878.8316271971	0.0135484291
3880.7604345702	0.0121747572
3882.6892419432	0.0135525102
3884.6180493162	0.0126708522
3886.5468566893	0.0120063480
3888.4756640623	0.0136010889
3890.4044714354	0.0128595103
3892.3332788084	0.0122917388
3894.2620861815	0.0131428931
3896.1908935545	0.0133021073
3898.1197009276	0.0127879959
3900.0485083006	0.0122178253
3901.9773156737	0.0122607080
3903.9061230467	0.0120866112
3905.8349304198	0.0122897476
3907.7637377928	0.0131131168
3909.6925451659	0.0129331173
3911.6213525389	0.0128790308
3913.5501599119	0.0130478283
3915.4789672850	0.0127943885
3917.4077746580	0.0124996845
3919.3365820311	0.0124666411
3921.2653894041	0.0128298402
3923.1941967772	0.0127147790
3925.1230041502	0.0125747640
3927.0518115233	0.0126741799
3928.9806188963	0.0127777085
3930.9094262694	0.0125359334
3932.8382336424	0.0122189969
3934.7670410155	0.0126883052
3936.6958483885	0.0126880798
3938.6246557616	0.0125237256
3940.5534631346	0.0126092918
3942.4822705076	0.0123013509
3944.4110778807	0.0123506952
3946.3398852537	0.0123823863
3948.2686926268	0.0121889263
3950.1974999998	0.0123715065
3952.1263073729	0.0125018880
3954.0551147459	0.0123648643
3955.9839221190	0.0122899506
3957.9127294920	0.0122438483
3959.8415368651	0.0122470232
3961.7703442381	0.0121998675
3963.6991516112	0.0121609131
3965.6279589842	0.0121792238
3967.5567663573	0.0121293152
3969.4855737303	0.0121661164
3971.4143811034	0.0120792352
3973.3431884764	0.0120854378
3975.2719958494	0.0120699238
3977.2008032225	0.0120032374
3979.1296105955	0.0120711718
3981.0584179686	0.0119434986
3982.9872253416	0.0120256469
3984.9160327147	0.0120024746
3986.8448400877	0.0118783982
3988.7736474608	0.0119162928
3990.7024548338	0.0118193738
3992.6312622069	0.0118628237
3994.5600695799	0.0119173713
3996.4888769530	0.0118373744
3998.4176843260	0.0116698043
4000.3464916991	0.0116861369
4002.2752990721	0.0116691636
4004.2041064451	0.0116228405
4006.1329138182	0.0117425183
4008.0617211912	0.0115963574
4009.9905285643	0.0116252676
4011.9193359373	0.0116013754
4013.8481433104	0.0114933159
4015.7769506834	0.0115906708
4017.7057580565	0.0114562055
4019.6345654295	0.0113830417
4021.5633728026	0.0114058349
4023.4921801756	0.0114609059
4025.4209875487	0.0114340857
4027.3497949217	0.0113221761
4029.2786022948	0.0113372197
4031.2074096678	0.0113267992
4033.1362170408	0.0112694409
4035.0650244139	0.0111915749
4036.9938317869	0.0112314662
4038.9226391600	0.0112418439
4040.8514465330	0.0112191197
4042.7802539061	0.0111796474
4044.7090612791	0.0111145414
4046.6378686522	0.0111753903
4048.5666760252	0.0111239869
4050.4954833983	0.0111053418
4052.4242907713	0.0110787861
4054.3530981444	0.0110261403
4056.2819055174	0.0110106720
4058.2107128905	0.0109473858
4060.1395202635	0.0109964926
4062.0683276365	0.0109533630
4063.9971350096	0.0109629203
4065.9259423826	0.0109406486
4067.8547497557	0.0108229201
4069.7835571287	0.0108380374
4071.7123645018	0.0108036296
4073.6411718748	0.0108220428
4075.5699792479	0.0107477810
4077.4987866209	0.0106895734
4079.4275939940	0.0107394662
4081.3564013670	0.0106744692
4083.2852087401	0.0106761344
4085.2140161131	0.0106754843
4087.1428234862	0.0106404051
4089.0716308592	0.0106178820
4091.0004382323	0.0105825644
4092.9292456053	0.0105544962
4094.8580529783	0.0104922960
4096.7868603514	0.0104493340
4098.7156677244	0.0105488189
4100.6444750975	0.0105271619
4102.5732824705	0.0104148015
4104.5020898436	0.0104704630
4106.4308972166	0.0103507768
4108.3597045897	0.0103149116
4110.2885119627	0.0103031294
4112.2173193358	0.0102093406
4114.1461267088	0.0102712624
4116.0749340819	0.0101963552
4118.0037414549	0.0102364169
4119.9325488280	0.0102291405
4121.8613562010	0.0101194270
4123.7901635740	0.0100467047
4125.7189709471	0.0100812027
4127.6477783201	0.0102111585
4129.5765856932	0.0101460554
4131.5053930662	0.0101908483
4133.4342004393	0.0100016631
4135.3630078123	0.0099380314
4137.2918151854	0.0100500770
4139.2206225584	0.0099326624
4141.1494299315	0.0100246239
4143.0782373045	0.0098840659
4145.0070446776	0.0098267794
4146.9358520506	0.0098598376
4148.8646594237	0.0098044882
4150.7934667967	0.0098166494
4152.7222741697	0.0097516868
4154.6510815428	0.0098170713
4156.5798889158	0.0097205210
4158.5086962889	0.0097363926
4160.4375036619	0.0097461846
4162.3663110350	0.0096521210
4164.2951184080	0.0096342089
4166.2239257811	0.0095731448
4168.1527331541	0.0096305087
4170.0815405272	0.0095351264
4172.0103479002	0.0095573217
4173.9391552733	0.0095868669
4175.8679626463	0.0095294416
4177.7967700194	0.0094586425
4179.7255773924	0.0093717091
4181.6543847654	0.0094462130
4183.5831921385	0.0093361940
4185.5119995115	0.0093505085
4187.4408068846	0.0093699060
4189.3696142576	0.0093613360
4191.2984216307	0.0093420781
4193.2272290037	0.0092537105
4195.1560363768	0.0093631400
4197.0848437498	0.0092480751
4199.0136511229	0.0092296824
4200.9424584959	0.0092640352
4202.8712658690	0.0092060352
4204.8000732420	0.0092163440
4206.7288806151	0.0091394382
4208.6576879881	0.0091426391
4210.5864953611	0.0091213621
4212.5153027342	0.0091163320
4214.4441101072	0.0090743378
4216.3729174803	0.0090722814
4218.3017248533	0.0090700779
4220.2305322264	0.0090360064
4222.1593395994	0.0090891700
4224.0881469725	0.0089815333
4226.0169543455	0.0089300163
4227.9457617186	0.0089385044
4229.8745690916	0.0088777374
4231.8033764647	0.0088611208
4233.7321838377	0.0089043630
4235.6609912108	0.0088619683
4237.5897985838	0.0088412119
4239.5186059569	0.0089012571
4241.4474133299	0.0087991450
4243.3762207029	0.0087902695
4245.3050280760	0.0088084023
4247.2338354490	0.0087288693
4249.1626428221	0.0086485445
4251.0914501951	0.0086593488
4253.0202575682	0.0087354556
4254.9490649412	0.0086593190
4256.8778723143	0.0085991863
4258.8066796873	0.0086336713
4260.7354870604	0.0086062197
4262.6642944334	0.0085072666
4264.5931018065	0.0085906964
4266.5219091795	0.0085624335
4268.4507165526	0.0084749162
4270.3795239256	0.0084943511
4272.3083312986	0.0083890650
4274.2371386717	0.0084704738
4276.1659460447	0.0084254406
4278.0947534178	0.0084040053
4280.0235607908	0.0083960127
4281.9523681639	0.0083098402
4283.8811755369	0.0083747786
4285.8099829100	0.0082669444
4287.7387902830	0.0083544450
4289.6675976561	0.0082778195
4291.5964050291	0.0082109589
4293.5252124022	0.0082965940
4295.4540197752	0.0081213303
4297.3828271483	0.0081643369
4299.3116345213	0.0081473086
4301.2404418943	0.0081743812
4303.1692492674	0.0081730932
4305.0980566404	0.0080625955
4307.0268640135	0.0081509110
4308.9556713865	0.0081535736
4310.8844787596	0.0081011709
4312.8132861326	0.0080778720
4314.7420935057	0.0080418251
4316.6709008787	0.0079672197
4318.5997082518	0.0080049327
4320.5285156248	0.0079763774
4322.4573229979	0.0079786144
4324.3861303709	0.0079707615
4326.3149377440	0.0078492500
4328.2437451170	0.0079280995
4330.1725524900	0.0077960663
4332.1013598631	0.0078228647
4334.0301672361	0.0079271924
4335.9589746092	0.0077914298
4337.8877819822	0.0078068734
4339.8165893553	0.0077497098
4341.7453967283	0.0077265836
4343.6742041014	0.0076877945
4345.6030114744	0.0076462887
4347.5318188475	0.0076371599
4349.4606262205	0.0076332791
4351.3894335936	0.0076510315
4353.3182409666	0.0075978115
4355.2470483397	0.0075930585
4357.1758557127	0.0075844186
4359.1046630858	0.0077039413
4361.0334704588	0.0076641687
4362.9622778318	0.0075640073
4364.8910852049	0.0075922254
4366.8198925779	0.0075011896
4368.7486999510	0.0075121894
4370.6775073240	0.0074251252
4372.6063146971	0.0073924074
4374.5351220701	0.0074818386
4376.4639294432	0.0074345195
4378.3927368162	0.0074427184
4380.3215441893	0.0074742544
4382.2503515623	0.0074111591
4384.1791589354	0.0073217591
4386.1079663084	0.0073215351
4388.0367736815	0.0072915680
4389.9655810545	0.0072455341
4391.8943884275	0.0072298171
4393.8231958006	0.0072343787
4395.7520031736	0.0072059399
4397.6808105467	0.0072177481
4399.6096179197	0.0072963219
4401.5384252928	0.0071540754
4403.4672326658	0.0071858871
4405.3960400389	0.0072323950
4407.3248474119	0.0070827259
4409.2536547850	0.0072009163
4411.1824621580	0.0072037349
4413.1112695311	0.0071127452
4415.0400769041	0.0071293162
4416.9688842772	0.0070288023
4418.8976916502	0.0069743847
4420.8264990232	0.0070083672
4422.7553063963	0.0070106266
4424.6841137693	0.0070096161
4426.6129211424	0.0069884923
4428.5417285154	0.0069570225
4430.4705358885	0.0069651622
4432.3993432615	0.0068905866
4434.3281506346	0.0068671498
4436.2569580076	0.0069286674
4438.1857653807	0.0068228049
4440.1145727537	0.0067510139
4442.0433801268	0.0068264687
4443.9721874998	0.0068428228
4445.9009948729	0.0068317205
4447.8298022459	0.0068247141
4449.7586096189	0.0067520421
4451.6874169920	0.0067339875
4453.6162243650	0.0067470958
4455.5450317381	0.0067245485
4457.4738391111	0.0067273388
4459.4026464842	0.0066590309
4461.3314538572	0.0066301888
4463.2602612303	0.0066965371
4465.1890686033	0.0066996235
4467.1178759764	0.0066527128
4469.0466833494	0.0065847458
4470.9754907225	0.0065910975
4472.9042980955	0.0065960167
4474.8331054686	0.0065212725
4476.7619128416	0.0065764762
4478.6907202147	0.0066051185
4480.6195275877	0.0065181004
4482.5483349607	0.0065033985
4484.4771423338	0.0064461320
4486.4059497068	0.0063989884
4488.3347570799	0.0064055510
4490.2635644529	0.0063838125
4492.1923718260	0.0064350665
4494.1211791990	0.0064402241
4496.0499865721	0.0063702427
4497.9787939451	0.0063549643
4499.9076013182	0.0063413428
4501.8364086912	0.0063321488
4503.7652160643	0.0062985984
4505.6940234373	0.0062752524
4507.6228308104	0.0063167824
4509.5516381834	0.0062744664
4511.4804455564	0.0062422045
4513.4092529295	0.0062567890
4515.3380603025	0.0061867889
4517.2668676756	0.0061520026
4519.1956750486	0.0061473073
4521.1244824217	0.0061130105
4523.0532897947	0.0061259451
4524.9820971678	0.0061672921
4526.9109045408	0.0061031822
4528.8397119139	0.0060371347
4530.7685192869	0.0060146810
4532.6973266600	0.0059524071
4534.6261340330	0.0060493830
4536.5549414061	0.0060931137
4538.4837487791	0.0060201129
4540.4125561521	0.0060204063
4542.3413635252	0.0059861690
4544.2701708982	0.0059924303
4546.1989782713	0.0059385533
4548.1277856443	0.0059100422
4550.0565930174	0.0059501510
4551.9854003904	0.0058950353
4553.9142077635	0.0058920281
4555.8430151365	0.0059333974
4557.7718225096	0.0059330268
4559.7006298826	0.0058357213
4561.6294372557	0.0058329729
4563.5582446287	0.0058963364
4565.4870520018	0.0058205021
4567.4158593748	0.0058188951
4569.3446667478	0.0057407357
4571.2734741209	0.0056470670
4573.2022814939	0.0057477653
4575.1310888670	0.0056899590
4577.0598962400	0.0056745154
4578.9887036131	0.0058089253
4580.9175109861	0.0057336255
4582.8463183592	0.0056552398
4584.7751257322	0.0056409948
4586.7039331053	0.0056502642
4588.6327404783	0.0056849858
4590.5615478514	0.0056439792
4592.4903552244	0.0055962810
4594.4191625975	0.0055227336
4596.3479699705	0.0055562565
4598.2767773435	0.0055571906
4600.2055847166	0.0055382820
4602.1343920896	0.0055792984
4604.0631994627	0.0054673376
4605.9920068357	0.0055057001
4607.9208142088	0.0055191321
4609.8496215818	0.0054704854
4611.7784289549	0.0055318652
4613.7072363279	0.0054695318
4615.6360437010	0.0054061254
4617.5648510740	0.0053467238
4619.4936584471	0.0054017236
4621.4224658201	0.0054176883
4623.3512731932	0.0053589484
4625.2800805662	0.0053815856
4627.2088879393	0.0052447896
4629.1376953123	0.0053056926
4631.0665026853	0.0053719040
4632.9953100584	0.0052403752
4634.9241174314	0.0053723091
4636.8529248045	0.0053099766
4638.7817321775	0.0051514152
4640.7105395506	0.0052716485
4642.6393469236	0.0051963152
4644.5681542967	0.0051425649
4646.4969616697	0.0052209618
4648.4257690428	0.0051580304
4650.3545764158	0.0051196706
4652.2833837889	0.0051060282
4654.2121911619	0.0051266924
4656.1409985350	0.0051383954
4658.0698059080	0.0051311660
4659.9986132810	0.0051786816
4661.9274206541	0.0051291864
4663.8562280271	0.0050654290
4665.7850354002	0.0050782557
4667.7138427732	0.0050114323
4669.6426501463	0.0050051343
4671.5714575193	0.0050601130
4673.5002648924	0.0049758060
4675.4290722654	0.0050079995
4677.3578796385	0.0049722968
4679.2866870115	0.0049080006
4681.2154943846	0.0050026625
4683.1443017576	0.0049174652
4685.0731091307	0.0049754609
4687.0019165037	0.0050247801
4688.9307238767	0.0049303938
4690.8595312498	0.0049191564
4692.7883386228	0.0048935134
4694.7171459959	0.0049011894
4696.6459533689	0.0048552211
4698.5747607420	0.0049046539
4700.5035681150	0.0048508151
4702.4323754881	0.0048066936
4704.3611828611	0.0048616487
4706.2899902342	0.0048032082
4708.2187976072	0.0048884558
4710.1476049803	0.0048425719
4712.0764123533	0.0047648116
4714.0052197264	0.0046724319
4715.9340270994	0.0046550957
4717.8628344724	0.0047954954
4719.7916418455	0.0046660737
4721.7204492185	0.0046287449
4723.6492565916	0.0047082873
4725.5780639646	0.0047254786
4727.5068713377	0.0046707550
4729.4356787107	0.0046087839
4731.3644860838	0.0046416046
4733.2932934568	0.0046528718
4735.2221008299	0.0046380190
4737.1509082029	0.0045377295
4739.0797155760	0.0045393389
4741.0085229490	0.0045862035
4742.9373303221	0.0045664459
4744.8661376951	0.0045397757
4746.7949450682	0.0045682499
4748.7237524412	0.0045696460
4750.6525598142	0.0044952077
4752.5813671873	0.0045527574
4754.5101745603	0.0045118178
4756.4389819334	0.0044797910
4758.3677893064	0.0045018271
4760.2965966795	0.0045219138
4762.2254040525	0.0045122365
4764.1542114256	0.0044398140
4766.0830187986	0.0044997763
4768.0118261717	0.0044052405
4769.9406335447	0.0044259056
4771.8694409178	0.0044010445
4773.7982482908	0.0042843390
4775.7270556639	0.0044145179
4777.6558630369	0.0043142182
4779.5846704099	0.0043326318
4781.5134777830	0.0044084825
4783.4422851560	0.0042818263
4785.3710925291	0.0043519414
4787.2998999021	0.0043963473
4789.2287072752	0.0042399829
4791.1575146482	0.0042633591
4793.0863220213	0.0043161735
4795.0151293943	0.0041539604
4796.9439367674	0.0042600734
4798.8727441404	0.0043313857
4800.8015515135	0.0042555206
4802.7303588865	0.0042255782
4804.6591662596	0.0041376883
4806.5879736326	0.0041881725
4808.5167810056	0.0041340883
4810.4455883787	0.0041878717
4812.3743957517	0.0042563537
4814.3032031248	0.0041273567
4816.2320104978	0.0041171424
4818.1608178709	0.0040848237
4820.0896252439	0.0041019870
4822.0184326170	0.0040876335
4823.9472399900	0.0040948316
4825.8760473631	0.0041646929
4827.8048547361	0.0040608663
4829.7336621092	0.0040242719
4831.6624694822	0.0040844595
4833.5912768553	0.0040641297
4835.5200842283	0.0040063569
4837.4488916013	0.0040183961
4839.3776989744	0.0039666705
4841.3065063474	0.0039010805
4843.2353137205	0.0040256232
4845.1641210935	0.0040466422
4847.0929284666	0.0040109218
4849.0217358396	0.0039925622
4850.9505432127	0.0039124582
4852.8793505857	0.0039971396
4854.8081579588	0.0039272616
4856.7369653318	0.0038419450
4858.6657727049	0.0039241668
4860.5945800779	0.0038423771
4862.5233874510	0.0039097616
4864.4521948240	0.0039248508
4866.3810021971	0.0038478747
4868.3098095701	0.0038497450
4870.2386169431	0.0038120667
4872.1674243162	0.0038681403
4874.0962316892	0.0037906060
4876.0250390623	0.0038241036
4877.9538464353	0.0038302983
4879.8826538084	0.0037328345
4881.8114611814	0.0038130982
4883.7402685545	0.0037158674
4885.6690759275	0.0037011541
4887.5978833006	0.0037220884
4889.5266906736	0.0037216793
4891.4554980467	0.0037642086
4893.3843054197	0.0037016615
4895.3131127928	0.0037314007
4897.2419201658	0.0036244870
4899.1707275388	0.0035689762
4901.0995349119	0.0036951345
4903.0283422849	0.0037004654
4904.9571496580	0.0036676272
4906.8859570310	0.0036797621
4908.8147644041	0.0036655050
4910.7435717771	0.0036016258
4912.6723791502	0.0036329094
4914.6011865232	0.0036264500
4916.5299938963	0.0035801181
4918.4588012693	0.0035909000
4920.3876086424	0.0035721718
4922.3164160154	0.0035950174
4924.2452233885	0.0035612551
4926.1740307615	0.0035506869
4928.1028381345	0.0036123130
4930.0316455076	0.0035759183
4931.9604528806	0.0035571759
4933.8892602537	0.0035481718
4935.8180676267	0.0035162303
4937.7468749998	0.0034849008
4939.6756823728	0.0034944853
4941.6044897459	0.0035608788
4943.5332971189	0.0034557963
4945.4621044920	0.0034373337
4947.3909118650	0.0034942122
4949.3197192381	0.0033838982
4951.2485266111	0.0033974044
4953.1773339842	0.0033856230
4955.1061413572	0.0034150481
4957.0349487302	0.0034420309
4958.9637561033	0.0033564782
4960.8925634763	0.0034285740
4962.8213708494	0.0034058832
4964.7501782224	0.0033958694
4966.6789855955	0.0034488700
4968.6077929685	0.0033697621
4970.5366003416	0.0033350433
4972.4654077146	0.0033508227
4974.3942150877	0.0033056964
4976.3230224607	0.0033333595
4978.2518298338	0.0033878230
4980.1806372068	0.0032564751
4982.1094445799	0.0032858141
4984.0382519529	0.0033175382
4985.9670593259	0.0032663802
4987.8958666990	0.0033616738
4989.8246740720	0.0033205966
4991.7534814451	0.0032618707
4993.6822888181	0.0032448028
4995.6110961912	0.0032805069
4997.5399035642	0.0032138322
4999.4687109373	0.0031399210
5001.3975183103	0.0032396952
5003.3263256834	0.0032064850
5005.2551330564	0.0032105860
5007.1839404295	0.0031643449
5009.1127478025	0.0031384234
5011.0415551756	0.0031747208
5012.9703625486	0.0031252485
5014.8991699217	0.0031324239
5016.8279772947	0.0030648876
5018.7567846677	0.0031197765
5020.6855920408	0.0031391415
5022.6143994138	0.0030935053
5024.5432067869	0.0031966064
5026.4720141599	0.0031412165
5028.4008215330	0.0030654762
5030.3296289060	0.0030492407
5032.2584362791	0.0030295060
5034.1872436521	0.0030347435
5036.1160510252	0.0030176244
5038.0448583982	0.0030341577
5039.9736657713	0.0030056285
5041.9024731443	0.0029881934
5043.8312805174	0.0029906300
5045.7600878904	0.0029277166
5047.6888952634	0.0030008082
5049.6177026365	0.0030175708
5051.5465100095	0.0029278197
5053.4753173826	0.0029984433
5055.4041247556	0.0029903050
5057.3329321287	0.0029438837
5059.2617395017	0.0029129710
5061.1905468748	0.0028776620
5063.1193542478	0.0029248151
5065.0481616209	0.0029382347
5066.9769689939	0.0029465400
5068.9057763670	0.0029152634
5070.8345837400	0.0029563634
5072.7633911131	0.0029245729
5074.6921984861	0.0028487232
5076.6210058591	0.0029295622
5078.5498132322	0.0028306057
5080.4786206052	0.0028051434
5082.4074279783	0.0028492715
5084.3362353513	0.0028203167
5086.2650427244	0.0029195233
5088.1938500974	0.0028320956
5090.1226574705	0.0027871816
5092.0514648435	0.0028649510
5093.9802722166	0.0027987235
5095.9090795896	0.0028392859
5097.8378869627	0.0027777466
5099.7666943357	0.0027745955
5101.6955017088	0.0028887694
5103.6243090818	0.0027110945
5105.5531164548	0.0027197362
5107.4819238279	0.0027437299
5109.4107312009	0.0026896098
5111.3395385740	0.0027848647
5113.2683459470	0.0027039810
5115.1971533201	0.0026762146
5117.1259606931	0.0026391530
5119.0547680662	0.0026651039
5120.9835754392	0.0027624299
5122.9123828123	0.0027149483
5124.8411901853	0.0026601884
5126.7699975584	0.0026060690
5128.6988049314	0.0026495494
5130.6276123045	0.0026460155
5132.5564196775	0.0027063082
5134.4852270506	0.0026538433
5136.4140344236	0.0025625033
5138.3428417966	0.0026884871
5140.2716491697	0.0026147182
5142.2004565427	0.0025972906
5144.1292639158	0.0026002289
5146.0580712888	0.0026057097
5147.9868786619	0.0026016741
5149.9156860349	0.0025188215
5151.8444934080	0.0025690501
5153.7733007810	0.0025162299
5155.7021081541	0.0025355993
5157.6309155271	0.0025559971
5159.5597229002	0.0025473556
5161.4885302732	0.0025776851
5163.4173376463	0.0025733742
5165.3461450193	0.0025987411
5167.2749523923	0.0025216425
5169.2037597654	0.0024997448
5171.1325671384	0.0025099714
5173.0613745115	0.0025353236
5174.9901818845	0.0025049290
5176.9189892576	0.0024783171
5178.8477966306	0.0025211128
5180.7766040037	0.0024999077
5182.7054113767	0.0025219610
5184.6342187498	0.0024868795
5186.5630261228	0.0024548490
5188.4918334959	0.0023821318
5190.4206408689	0.0024213465
5192.3494482420	0.0024790375
5194.2782556150	0.0024138489
5196.2070629880	0.0024672667
5198.1358703611	0.0023956697
5200.0646777341	0.0023968951
5201.9934851072	0.0024304814
5203.9222924802	0.0023920578
5205.8510998533	0.0023328974
5207.7799072263	0.0023076343
5209.7087145994	0.0023839986
5211.6375219724	0.0022640110
5213.5663293455	0.0022958098
5215.4951367185	0.0023369165
5217.4239440916	0.0023233388
5219.3527514646	0.0023961747
5221.2815588377	0.0023180931
5223.2103662107	0.0023154356
5225.1391735837	0.0023122211
5227.0679809568	0.0023197127
5228.9967883298	0.0022823564
5230.9255957029	0.0022651847
5232.8544030759	0.0023181126
5234.7832104490	0.0023220947
5236.7120178220	0.0023475387
5238.6408251951	0.0022372876
5240.5696325681	0.0022632000
5242.4984399412	0.0023248475
5244.4272473142	0.0022358124
5246.3560546873	0.0022475510
5248.2848620603	0.0022737707
5250.2136694334	0.0022457158
5252.1424768064	0.0022153631
5254.0712841795	0.0022083828
5256.0000915525	0.0022038007
5257.9288989255	0.0022526905
5259.8577062986	0.0022523303
5261.7865136716	0.0022034580
5263.7153210447	0.0021164021
5265.6441284177	0.0021380980
5267.5729357908	0.0022421270
5269.5017431638	0.0021320805
5271.4305505369	0.0022234297
5273.3593579099	0.0022424101
5275.2881652830	0.0021388663
5277.2169726560	0.0022327637
5279.1457800291	0.0021724277
5281.0745874021	0.0021944263
5283.0033947752	0.0021360023
5284.9322021482	0.0021038542
5286.8610095212	0.0022256209
5288.7898168943	0.0021348246
5290.7186242673	0.0021373653
5292.6474316404	0.0021273536
5294.5762390134	0.0021171728
5296.5050463865	0.0021623962
5298.4338537595	0.0020900844
5300.3626611326	0.0020707562
5302.2914685056	0.0020715967
5304.2202758787	0.0021183849
5306.1490832517	0.0020854594
5308.0778906248	0.0020210650
5310.0066979978	0.0020753639
5311.9355053709	0.0020324569
5313.8643127439	0.0020209765
5315.7931201169	0.0020491723
5317.7219274900	0.0020217071
5319.6507348630	0.0020290450
5321.5795422361	0.0020396383
5323.5083496091	0.0020513767
5325.4371569822	0.0020020120
5327.3659643552	0.0019966271
5329.2947717283	0.0020366937
5331.2235791013	0.0019849455
5333.1523864744	0.0019541560
5335.0811938474	0.0019318011
5337.0100012205	0.0019413191
5338.9388085935	0.0019351888
5340.8676159666	0.0019417257
5342.7964233396	0.0019863860
5344.7252307126	0.0018892554
5346.6540380857	0.0019463007
5348.5828454587	0.0019960261
5350.5116528318	0.0018964717
5352.4404602048	0.0019444069
5354.3692675779	0.0018977990
5356.2980749509	0.0019193039
5358.2268823240	0.0019306643
5360.1556896970	0.0019036061
5362.0844970701	0.0020162486
5364.0133044431	0.0018930753
5365.9421118162	0.0018863510
5367.8709191892	0.0019121356
5369.7997265623	0.0018332793
5371.7285339353	0.0019033335
5373.6573413083	0.0018482629
5375.5861486814	0.0018315474
5377.5149560544	0.0018528588
5379.4437634275	0.0019146996
5381.3725708005	0.0019086604
5383.3013781736	0.0018604256
5385.2301855466	0.0019085966
5387.1589929197	0.0017741018
5389.0878002927	0.0018554559
5391.0166076658	0.0019579204
5392.9454150388	0.0018352080
5394.8742224119	0.0017875179
5396.8030297849	0.0018176904
5398.7318371580	0.0018428267
5400.6606445310	0.0017478294
5402.5894519041	0.0017901246
5404.5182592771	0.0017738394
5406.4470666501	0.0017679657
5408.3758740232	0.0018077581
5410.3046813962	0.0017210913
5412.2334887693	0.0017713038
5414.1622961423	0.0017033166
5416.0911035154	0.0016951340
5418.0199108884	0.0017400773
5419.9487182615	0.0017499136
5421.8775256345	0.0017751278
5423.8063330076	0.0017057019
5425.7351403806	0.0017810327
5427.6639477537	0.0017087818
5429.5927551267	0.0016098446
5431.5215624998	0.0017061536
5433.4503698728	0.0017301729
5435.3791772458	0.0016412222
5437.3079846189	0.0016615749
5439.2367919919	0.0017413644
5441.1655993650	0.0016749541
5443.0944067380	0.0017225652
5445.0232141111	0.0017127600
5446.9520214841	0.0016793739
5448.8808288572	0.0016402014
5450.8096362302	0.0015732259
5452.7384436033	0.0016848382
5454.6672509763	0.0016948192
5456.5960583494	0.0017051820
5458.5248657224	0.0016596823
5460.4536730955	0.0016007082
5462.3824804685	0.0016393773
5464.3112878415	0.0016752322
5466.2400952146	0.0016759434
5468.1689025876	0.0016099622
5470.0977099607	0.0016829360
5472.0265173337	0.0016332564
5473.9553247068	0.0015611562
5475.8841320798	0.0015821224
5477.8129394529	0.0015878869
5479.7417468259	0.0016369991
5481.6705541990	0.0016006648
5483.5993615720	0.0015904058
5485.5281689451	0.0015411520
5487.4569763181	0.0015721524
5489.3857836912	0.0016084998
5491.3145910642	0.0015987391
5493.2433984372	0.0015998897
5495.1722058103	0.0015090704
5497.1010131833	0.0015584584
5499.0298205564	0.0015525802
5500.9586279294	0.0015382128
5502.8874353025	0.0015617833
5504.8162426755	0.0015997462
5506.7450500486	0.0016338832
5508.6738574216	0.0015175968
5510.6026647947	0.0015487624
5512.5314721677	0.0015344948
5514.4602795408	0.0015256377
5516.3890869138	0.0015785331
5518.3178942869	0.0015108907
5520.2467016599	0.0015478809
5522.1755090330	0.0015656156
5524.1043164060	0.0015040482
5526.0331237790	0.0014485191
5527.9619311521	0.0014778364
5529.8907385251	0.0014874730
5531.8195458982	0.0014491759
5533.7483532712	0.0014909848
5535.6771606443	0.0014617676
5537.6059680173	0.0014784844
5539.5347753904	0.0014815822
5541.4635827634	0.0014303557
5543.3923901365	0.0015068403
5545.3211975095	0.0014794550
5547.2500048826	0.0014486734
5549.1788122556	0.0014702162
5551.1076196287	0.0014301984
5553.0364270017	0.0014710408
5554.9652343747	0.0014112205
5556.8940417478	0.0014038885
5558.8228491208	0.0014731300
5560.7516564939	0.0014610131
5562.6804638669	0.0015025935
5564.6092712400	0.0014124596
5566.5380786130	0.0014247793
5568.4668859861	0.0014723142
5570.3956933591	0.0013710358
5572.3245007322	0.0013693557
5574.2533081052	0.0013603347
5576.1821154783	0.0013639831
5578.1109228513	0.0013594083
5580.0397302244	0.0014104272
5581.9685375974	0.0013978393
5583.8973449704	0.0013206098
5585.8261523435	0.0013825346
5587.7549597165	0.0013138920
5589.6837670896	0.0012711077
5591.6125744626	0.0013608974
5593.5413818357	0.0013837218
5595.4701892087	0.0013664841
5597.3989965818	0.0013467947
5599.3278039548	0.0013037992
5601.2566113279	0.0013402039
5603.1854187009	0.0013998870
5605.1142260740	0.0013478213
5607.0430334470	0.0013582720
5608.9718408201	0.0013147645
5610.9006481931	0.0012869867
5612.8294555661	0.0013278647
5614.7582629392	0.0012984336
5616.6870703122	0.0013363392
5618.6158776853	0.0013486226
5620.5446850583	0.0012753275
5622.4734924314	0.0012616847
5624.4022998044	0.0013481241
5626.3311071775	0.0012662897
5628.2599145505	0.0011719527
5630.1887219236	0.0012140445
5632.1175292966	0.0012259152
5634.0463366697	0.0012840102
5635.9751440427	0.0012905793
5637.9039514158	0.0012890723
5639.8327587888	0.0012413629
5641.7615661619	0.0012570866
5643.6903735349	0.0012534242
5645.6191809079	0.0011792616
5647.5479882810	0.0012358888
5649.4767956540	0.0012043404
5651.4056030271	0.0012659737
5653.3344104001	0.0012638519
5655.2632177732	0.0012569585
5657.1920251462	0.0013136216
5659.1208325193	0.0012135161
5661.0496398923	0.0012414334
5662.9784472654	0.0012426323
5664.9072546384	0.0012584673
5666.8360620115	0.0012625202
5668.7648693845	0.0012472090
5670.6936767576	0.0012257362
5672.6224841306	0.0011638014
5674.5512915036	0.0011802264
5676.4800988767	0.0011869313
5678.4089062497	0.0012545548
5680.3377136228	0.0011597665
5682.2665209958	0.0011925269
5684.1953283689	0.0011803824
5686.1241357419	0.0010710480
5688.0529431150	0.0012487457
5689.9817504880	0.0011291874
5691.9105578611	0.0011458462
5693.8393652341	0.0012289578
5695.7681726072	0.0011290106
5697.6969799802	0.0011528380
5699.6257873533	0.0010840044
5701.5545947263	0.0011460532
5703.4834020993	0.0011362387
5705.4122094724	0.0011357325
5707.3410168454	0.0012172556
5709.2698242185	0.0011723097
5711.1986315915	0.0011536165
5713.1274389646	0.0010879592
5715.0562463376	0.0011464043
5716.9850537107	0.0011903080
5718.9138610837	0.0010663170
5720.8426684568	0.0010829158
5722.7714758298	0.0011632248
5724.7002832029	0.0010693721
5726.6290905759	0.0010133241
5728.5578979490	0.0010718948
5730.4867053220	0.0010854413
5732.4155126950	0.0011048550
5734.3443200681	0.0010909468
5736.2731274411	0.0010743889
5738.2019348142	0.0010548236
5740.1307421872	0.0010585412
5742.0595495603	0.0010748049
5743.9883569333	0.0010772657
5745.9171643064	0.0011234905
5747.8459716794	0.0010821731
5749.7747790525	0.0010576729
5751.7035864255	0.0010872788
5753.6323937986	0.0010953519
5755.5612011716	0.0010740675
5757.4900085447	0.0010665373
5759.4188159177	0.0010896605
5761.3476232907	0.0010230353
5763.2764306638	0.0009946874
5765.2052380368	0.0010343816
5767.1340454099	0.0010646218
5769.0628527829	0.0010770718
5770.9916601560	0.0010751453
5772.9204675290	0.0010042576
5774.8492749021	0.0009801405
5776.7780822751	0.0010938433
5778.7068896482	0.0010303091
5780.6356970212	0.0009747432
5782.5645043943	0.0010008874
5784.4933117673	0.0009530040
5786.4221191404	0.0009720345
5788.3509265134	0.0009635033
5790.2797338865	0.0010152126
5792.2085412595	0.0010248770
5794.1373486325	0.0009601193
5796.0661560056	0.0010146154
5797.9949633786	0.0009652143
5799.9237707517	0.0009705749
5801.8525781247	0.0010567886
5803.7813854978	0.0009556793
5805.7101928708	0.0009559076
5807.6390002439	0.0010349860
5809.5678076169	0.0009447571
5811.4966149900	0.0009135205
5813.4254223630	0.0010215600
5815.3542297361	0.0010172486
5817.2830371091	0.0009858997
5819.2118444822	0.0010377264
5821.1406518552	0.0009425340
5823.0694592282	0.0009287694
5824.9982666013	0.0009763575
5826.9270739743	0.0009052035
5828.8558813474	0.0009350972
5830.7846887204	0.0008896649
5832.7134960935	0.0009020647
5834.6423034665	0.0009686963
5836.5711108396	0.0009459553
5838.4999182126	0.0009617629
5840.4287255857	0.0009402198
5842.3575329587	0.0009688585
5844.2863403318	0.0008797996
5846.2151477048	0.0008659097
5848.1439550779	0.0009378010
5850.0727624509	0.0008775466
5852.0015698239	0.0009309906
5853.9303771970	0.0008659568
5855.8591845700	0.0008481828
5857.7879919431	0.0009164323
5859.7167993161	0.0009071951
5861.6456066892	0.0008940048
5863.5744140622	0.0008193027
5865.5032214353	0.0008812527
5867.4320288083	0.0008883920
5869.3608361814	0.0009122168
5871.2896435544	0.0009119165
5873.2184509275	0.0008174716
5875.1472583005	0.0008897748
5877.0760656736	0.0008324567
5879.0048730466	0.0008364637
5880.9336804196	0.0008547056
5882.8624877927	0.0008233027
5884.7912951657	0.0009154810
5886.7201025388	0.0008336614
5888.6489099118	0.0008469733
5890.5777172849	0.0008394780
5892.5065246579	0.0007466020
5894.4353320310	0.0008485052
5896.3641394040	0.0008762338
5898.2929467771	0.0008519016
5900.2217541501	0.0008321421
5902.1505615232	0.0008165833
5904.0793688962	0.0008103799
5906.0081762693	0.0008196933
5907.9369836423	0.0008185381
5909.8657910154	0.0007680340
5911.7945983884	0.0008435308
5913.7234057614	0.0008758524
5915.6522131345	0.0008392903
5917.5810205075	0.0008166152
5919.5098278806	0.0007954525
5921.4386352536	0.0008407186
5923.3674426267	0.0008208100
5925.2962499997	0.0008113415
5927.2250573728	0.0007942982
5929.1538647458	0.0007596842
5931.0826721189	0.0007730024
5933.0114794919	0.0007582013
5934.9402868650	0.0007643525
5936.8690942380	0.0007817725
5938.7979016111	0.0007881963
5940.7267089841	0.0007653605
5942.6555163571	0.0007913442
5944.5843237302	0.0007789555
5946.5131311032	0.0007464234
5948.4419384763	0.0008246292
5950.3707458493	0.0007955923
5952.2995532224	0.0008028530
5954.2283605954	0.0007887151
5956.1571679685	0.0006858986
5958.0859753415	0.0007847107
5960.0147827146	0.0007732473
5961.9435900876	0.0007290144
5963.8723974607	0.0008094928
5965.8012048337	0.0006677071
5967.7300122068	0.0006875665
5969.6588195798	0.0008125649
5971.5876269528	0.0007047317
5973.5164343259	0.0007440662
5975.4452416989	0.0007644545
5977.3740490720	0.0007412001
5979.3028564450	0.0007456469
5981.2316638181	0.0007316136
5983.1604711911	0.0007673850
5985.0892785642	0.0006677050
5987.0180859372	0.0007290473
5988.9468933103	0.0007619682
5990.8757006833	0.0007121194
5992.8045080564	0.0007457257
5994.7333154294	0.0006719595
5996.6621228025	0.0007487398
5998.5909301755	0.0006999590
6000.5197375485	0.0006941988
