399.2631262207	0.0016839027
401.1919335938	0.0021180082
403.1207409668	0.0022123030
405.0495483398	0.0025352798
406.9783557129	0.0022736911
408.9071630859	0.0023061738
410.8359704590	0.0027669249
412.7647778320	0.0024308455
414.6935852051	0.0027053941
416.6223925781	0.0028062719
418.5511999512	0.0026864843
420.4800073242	0.0030797310
422.4088146973	0.0029968265
424.3376220703	0.0026934282
426.2664294434	0.0028010255
428.1952368164	0.0029736431
430.1240441895	0.0029040831
432.0528515625	0.0028776135
433.9816589355	0.0028315403
435.9104663086	0.0028899126
437.8392736816	0.0025754250
439.7680810547	0.0022074287
441.6968884277	0.0022413288
443.6256958008	0.0026759161
445.5545031738	0.0031585512
447.4833105469	0.0023655077
449.4121179199	0.0023079175
451.3409252930	0.0025299171
453.2697326660	0.0021023615
455.1985400391	0.0026467619
457.1273474121	0.0022482595
459.0561547852	0.0017272917
460.9849621582	0.0017255666
462.9137695313	0.0013113248
464.8425769043	0.0015143466
466.7713842773	0.0014555326
468.7001916504	0.0013279041
470.6289990234	0.0015155044
472.5578063965	0.0011166794
474.4866137695	0.0008562317
476.4154211426	0.0008941710
478.3442285156	0.0006624816
480.2730358887	0.0008189002
482.2018432617	0.0008229399
484.1306506348	0.0003790603
486.0594580078	0.0004404787
487.9882653809	0.0006558851
489.9170727539	0.0007284057
491.8458801270	0.0003790039
493.7746875000	0.0004694040
495.7034948730	0.0005558093
497.6323022461	0.0001606235
499.5611096191	0.0005579728
501.4899169922	0.0002626452
503.4187243652	0.0001322781
505.3475317383	0.0006638964
507.2763391113	0.0004518908
509.2051464844	0.0005202479
511.1339538574	0.0008249689
513.0627612305	0.0006902398
514.9915686035	0.0005001036
516.9203759766	0.0004898814
518.8491833496	0.0001834048
520.7779907227	0.0002778217
522.7067980957	0.0005674295
524.6356054688	0.0005977838
526.5644128418	0.0006136707
528.4932202148	0.0003755845
530.4220275879	0.0003435529
532.3508349609	0.0000217429
534.2796423340	-0.0000763351
536.2084497070	0.0000923026
538.1372570801	0.0002270849
540.0660644531	0.0004286756
541.9948718262	0.0003580519
543.9236791992	0.0005342294
545.8524865723	0.0004482633
547.7812939453	0.0003643440
549.7101013184	0.0002628879
551.6389086914	0.0003481047
553.5677160645	0.0003244694
555.4965234375	0.0002047898
557.4253308105	0.0007474063
559.3541381836	0.0006667004
561.2829455566	0.0006133600
563.2117529297	0.0002558497
565.1405603027	0.0003919983
567.0693676758	0.0009077968
568.9981750488	0.0004053529
570.9269824219	0.0003985829
572.8557897949	0.0003306470
574.7845971680	0.0007438594
576.7134045410	0.0005053707
578.6422119141	0.0001538932
580.5710192871	0.0006863661
582.4998266602	0.0002803630
584.4286340332	0.0006746680
586.3574414063	0.0006706242
588.2862487793	0.0001790903
590.2150561523	0.0003283781
592.1438635254	0.0002186301
594.0726708984	0.0003377676
596.0014782715	0.0003200968
597.9302856445	0.0003215849
599.8590930176	0.0003010129
601.7879003906	0.0001190313
603.7167077637	0.0001468676
605.6455151367	0.0005985597
607.5743225098	0.0004056455
609.5031298828	0.0001091451
611.4319372559	0.0001103876
613.3607446289	0.0001655211
615.2895520020	0.0001873384
617.2183593750	-0.0000086836
619.1471667480	-0.0000385549
621.0759741211	0.0000615678
623.0047814941	0.0002467082
624.9335888672	-0.0004413535
626.8623962402	-0.0001333607
628.7912036133	0.0000806459
630.7200109863	0.0001970633
632.6488183594	0.0011058294
634.5776257324	0.0010848200
636.5064331055	0.0019369661
638.4352404785	0.0024004886
640.3640478516	0.0021599007
642.2928552246	0.0025631879
644.2216625977	0.0028700563
646.1504699707	0.0027710677
648.0792773438	0.0025911671
650.0080847168	0.0033087004
651.9368920898	0.0037883571
653.8656994629	0.0039501088
655.7945068359	0.0041401088
657.7233142090	0.0040065967
659.6521215820	0.0043122689
661.5809289551	0.0045851422
663.5097363281	0.0049077300
665.4385437012	0.0047831554
667.3673510742	0.0042419955
669.2961584473	0.0050064940
671.2249658203	0.0055105509
673.1537731934	0.0053335577
675.0825805664	0.0059269406
677.0113879395	0.0062470837
678.9401953125	0.0062951520
680.8690026855	0.0063066492
682.7978100586	0.0060461205
684.7266174316	0.0060679368
686.6554248047	0.0063334722
688.5842321777	0.0061459132
690.5130395508	0.0058314316
692.4418469238	0.0064873705
694.3706542969	0.0073092296
696.2994616699	0.0080653466
698.2282690430	0.0091799377
700.1570764160	0.0098766498
702.0858837891	0.0093465438
704.0146911621	0.0085919909
705.9434985352	0.0082014091
707.8723059082	0.0067020464
709.8011132813	0.0052949823
711.7299206543	0.0040273378
713.6587280273	0.0024073261
715.5875354004	0.0013696352
717.5163427734	0.0007250333
719.4451501465	0.0006820601
721.3739575195	0.0004388451
723.3027648926	0.0004083906
725.2315722656	0.0004229177
727.1603796387	0.0002212167
729.0891870117	0.0002428250
731.0179943848	0.0002126579
732.9468017578	0.0001575065
734.8756091309	-0.0001070519
736.8044165039	0.0001999523
738.7332238770	0.0001419983
740.6620312500	0.0000017249
742.5908386230	0.0002387100
744.5196459961	-0.0000889845
746.4484533691	0.0001982925
748.3772607422	0.0001550776
750.3060681152	-0.0000986525
752.2348754883	0.0003453406
754.1636828613	0.0003937367
756.0924902344	0.0003149365
758.0212976074	0.0003124189
759.9501049805	0.0003091692
761.8789123535	0.0001994278
763.8077197266	0.0002737849
765.7365270996	0.0003203969
767.6653344727	0.0003750084
769.5941418457	0.0005421079
771.5229492188	0.0003371085
773.4517565918	0.0003948500
775.3805639648	0.0002356263
777.3093713379	0.0002996211
779.2381787109	0.0005960001
781.1669860840	0.0005418587
783.0957934570	0.0003204273
785.0246008301	0.0002770936
786.9534082031	0.0004554070
788.8822155762	0.0003580795
790.8110229492	0.0005989338
792.7398303223	0.0005332583
794.6686376953	0.0004813192
796.5974450684	0.0008883885
798.5262524414	0.0010065411
800.4550598145	0.0010135174
802.3838671875	0.0013265618
804.3126745605	0.0013309605
806.2414819336	0.0004286374
808.1702893066	0.0004666582
810.0990966797	0.0006182173
812.0279040527	0.0004417208
813.9567114258	0.0004848198
815.8855187988	0.0001385300
817.8143261719	0.0004417083
819.7431335449	0.0004539069
821.6719409180	0.0003567787
823.6007482910	0.0006852061
825.5295556641	0.0008003234
827.4583630371	0.0008610470
829.3871704102	0.0010151989
831.3159777832	0.0013673350
833.2447851563	0.0015361748
835.1735925293	0.0019053007
837.1023999023	0.0021956749
839.0312072754	0.0020358691
840.9600146484	0.0018948528
842.8888220215	0.0019629023
844.8176293945	0.0015601264
846.7464367676	0.0012318441
848.6752441406	0.0015377942
850.6040515137	0.0012821469
852.5328588867	0.0011539899
854.4616662598	0.0011247314
856.3904736328	0.0008758198
858.3192810059	0.0005307571
860.2480883789	0.0004799007
862.1768957520	0.0008979271
864.1057031250	0.0004596473
866.0345104980	0.0000586921
867.9633178711	0.0003927128
869.8921252441	0.0006387024
871.8209326172	0.0003176577
873.7497399902	0.0003496472
875.6785473633	0.0005650666
877.6073547363	0.0004252073
879.5361621094	0.0002937856
881.4649694824	0.0001776126
883.3937768555	0.0005822528
885.3225842285	0.0001077903
887.2513916016	0.0002603572
889.1801989746	0.0008990982
891.1090063477	0.0002559345
893.0378137207	0.0003224189
894.9666210938	0.0002314144
896.8954284668	0.0002535993
898.8242358398	0.0005133679
900.7530432129	0.0005735958
902.6818505859	0.0005770009
904.6106579590	0.0001743654
906.5394653320	0.0005861107
908.4682727051	0.0005866932
910.3970800781	0.0005625911
912.3258874512	0.0008928612
914.2546948242	0.0008361700
916.1835021973	0.0010646943
918.1123095703	0.0011005222
920.0411169434	0.0014178967
921.9699243164	0.0014072153
923.8987316895	0.0013400522
925.8275390625	0.0018517745
927.7563464355	0.0019474281
929.6851538086	0.0019292033
931.6139611816	0.0021488667
933.5427685547	0.0024200836
935.4715759277	0.0025429360
937.4003833008	0.0029429025
939.3291906738	0.0028841700
941.2579980469	0.0026737843
943.1868054199	0.0033111363
945.1156127930	0.0031129704
947.0444201660	0.0025847470
948.9732275391	0.0028044030
950.9020349121	0.0029303506
952.8308422852	0.0029527405
954.7596496582	0.0030142050
956.6884570313	0.0030422404
958.6172644043	0.0027623000
960.5460717773	0.0027249220
962.4748791504	0.0030411165
964.4036865234	0.0029200562
966.3324938965	0.0031308129
968.2613012695	0.0033031979
970.1901086426	0.0032340698
972.1189160156	0.0034599290
974.0477233887	0.0036247862
975.9765307617	0.0041784197
977.9053381348	0.0043006074
979.8341455078	0.0045186384
981.7629528809	0.0052811708
983.6917602539	0.0055849813
985.6205676270	0.0064326162
987.5493750000	0.0073761321
989.4781823730	0.0079443576
991.4069897461	0.0087370425
993.3357971191	0.0097853327
995.2646044922	0.0107933125
997.1934118652	0.0115963696
999.1222192383	0.0124887675
1001.0510266113	0.0134848049
1002.9798339844	0.0144723486
1004.9086413574	0.0153667759
1006.8374487305	0.0165340491
1008.7662561035	0.0173752680
1010.6950634766	0.0183609240
1012.6238708496	0.0196550600
1014.5526782227	0.0204723477
1016.4814855957	0.0216053408
1018.4102929688	0.0224704258
1020.3391003418	0.0235365853
1022.2679077148	0.0247497894
1024.1967150879	0.0255266372
1026.1255224609	0.0263488069
1028.0543298340	0.0271580033
1029.9831372070	0.0282542892
1031.9119445801	0.0287552048
1033.8407519531	0.0292930976
1035.7695593262	0.0298639983
1037.6983666992	0.0300382599
1039.6271740723	0.0303007942
1041.5559814453	0.0301052276
1043.4847888184	0.0298305452
1045.4135961914	0.0294704884
1047.3424035645	0.0294085871
1049.2712109375	0.0287767071
1051.2000183105	0.0279405043
1053.1288256836	0.0278540738
1055.0576330566	0.0272763241
1056.9864404297	0.0266155787
1058.9152478027	0.0256946981
1060.8440551758	0.0250981674
1062.7728625488	0.0245292038
1064.7016699219	0.0234264582
1066.6304772949	0.0226701144
1068.5592846680	0.0217359196
1070.4880920410	0.0209327042
1072.4168994141	0.0199781619
1074.3457067871	0.0189740695
1076.2745141602	0.0179720167
1078.2033215332	0.0169088840
1080.1321289062	0.0162882842
1082.0609362793	0.0155391321
1083.9897436523	0.0150279365
1085.9185510254	0.0143412910
1087.8473583984	0.0134134702
1089.7761657715	0.0128269335
1091.7049731445	0.0123812342
1093.6337805176	0.0119299870
1095.5625878906	0.0113427667
1097.4913952637	0.0111179585
1099.4202026367	0.0107798409
1101.3490100098	0.0104375686
1103.2778173828	0.0103025772
1105.2066247559	0.0098984865
1107.1354321289	0.0097653866
1109.0642395019	0.0096475566
1110.9930468750	0.0095687695
1112.9218542480	0.0094555058
1114.8506616211	0.0091645531
1116.7794689941	0.0091748722
1118.7082763672	0.0091441125
1120.6370837402	0.0091803521
1122.5658911133	0.0093968119
1124.4946984863	0.0096334107
1126.4235058594	0.0096992571
1128.3523132324	0.0097743366
1130.2811206055	0.0101589374
1132.2099279785	0.0104535259
1134.1387353516	0.0107556097
1136.0675427246	0.0110793784
1137.9963500977	0.0116080754
1139.9251574707	0.0123183010
1141.8539648437	0.0132348128
1143.7827722168	0.0142758340
1145.7115795898	0.0150190480
1147.6403869629	0.0159065500
1149.5691943359	0.0166554432
1151.4980017090	0.0176117718
1153.4268090820	0.0184919611
1155.3556164551	0.0192018617
1157.2844238281	0.0202013738
1159.2132312012	0.0208175294
1161.1420385742	0.0217779055
1163.0708459473	0.0223847665
1164.9996533203	0.0230420679
1166.9284606934	0.0241215527
1168.8572680664	0.0249120183
1170.7860754394	0.0260796286
1172.7148828125	0.0268586054
1174.6436901855	0.0279666074
1176.5724975586	0.0289730877
1178.5013049316	0.0297624767
1180.4301123047	0.0311920885
1182.3589196777	0.0325445309
1184.2877270508	0.0340959206
1186.2165344238	0.0354199931
1188.1453417969	0.0369398892
1190.0741491699	0.0386559740
1192.0029565430	0.0404412337
1193.9317639160	0.0425417572
1195.8605712891	0.0445245430
1197.7893786621	0.0462138988
1199.7181860351	0.0482727140
1201.6469934082	0.0508307815
1203.5758007812	0.0523901582
1205.5046081543	0.0545257181
1207.4334155273	0.0565920100
1209.3622229004	0.0580793098
1211.2910302734	0.0602320507
1213.2198376465	0.0616899282
1215.1486450195	0.0633099303
1217.0774523926	0.0645732433
1219.0062597656	0.0657151937
1220.9350671387	0.0669020563
1222.8638745117	0.0675785094
1224.7926818848	0.0682160556
1226.7214892578	0.0684748217
1228.6502966308	0.0690516829
1230.5791040039	0.0691971928
1232.5079113769	0.0694975257
1234.4367187500	0.0695699900
1236.3655261230	0.0693936795
1238.2943334961	0.0695751160
1240.2231408691	0.0690768361
1242.1519482422	0.0689359754
1244.0807556152	0.0685781389
1246.0095629883	0.0682096258
1247.9383703613	0.0677658767
1249.8671777344	0.0673781857
1251.7959851074	0.0670127720
1253.7247924805	0.0660453588
1255.6535998535	0.0656199306
1257.5824072266	0.0645173267
1259.5112145996	0.0633878112
1261.4400219726	0.0625208914
1263.3688293457	0.0615887120
1265.2976367187	0.0609186105
1267.2264440918	0.0600051060
1269.1552514648	0.0592635646
1271.0840588379	0.0582733750
1273.0128662109	0.0575114861
1274.9416735840	0.0565247722
1276.8704809570	0.0553178117
1278.7992883301	0.0542764515
1280.7280957031	0.0531979427
1282.6569030762	0.0522927418
1284.5857104492	0.0513374954
1286.5145178223	0.0503415540
1288.4433251953	0.0492306277
1290.3721325683	0.0488653295
1292.3009399414	0.0483111665
1294.2297473144	0.0478832945
1296.1585546875	0.0477270596
1298.0873620605	0.0473750681
1300.0161694336	0.0476848930
1301.9449768066	0.0475681312
1303.8737841797	0.0481345318
1305.8025915527	0.0487030782
1307.7313989258	0.0491101369
1309.6602062988	0.0501694046
1311.5890136719	0.0507385619
1313.5178210449	0.0518459752
1315.4466284180	0.0532939434
1317.3754357910	0.0544479005
1319.3042431640	0.0557102636
1321.2330505371	0.0576800294
1323.1618579101	0.0593104511
1325.0906652832	0.0609758794
1327.0194726562	0.0628976598
1328.9482800293	0.0641967431
1330.8770874023	0.0660147816
1332.8058947754	0.0675581247
1334.7347021484	0.0690607131
1336.6635095215	0.0695222318
1338.5923168945	0.0691102892
1340.5211242676	0.0703183264
1342.4499316406	0.0722350627
1344.3787390137	0.0731095970
1346.3075463867	0.0730127469
1348.2363537597	0.0728751123
1350.1651611328	0.0722052380
1352.0939685058	0.0721048266
1354.0227758789	0.0715033859
1355.9515832519	0.0705721229
1357.8803906250	0.0704178661
1359.8091979980	0.0693050474
1361.7380053711	0.0670569763
1363.6668127441	0.0660490394
1365.5956201172	0.0683018118
1367.5244274902	0.0672106221
1369.4532348633	0.0662968382
1371.3820422363	0.0670934469
1373.3108496094	0.0639450401
1375.2396569824	0.0645347089
1377.1684643555	0.0658377558
1379.0972717285	0.0655323416
1381.0260791015	0.0655284077
1382.9548864746	0.0651750639
1384.8836938476	0.0653065443
1386.8125012207	0.0629958957
1388.7413085937	0.0642057061
1390.6701159668	0.0682362095
1392.5989233398	0.0666718930
1394.5277307129	0.0636157840
1396.4565380859	0.0662114620
1398.3853454590	0.0660837293
1400.3141528320	0.0657974482
1402.2429602051	0.0699561238
1404.1717675781	0.0667024404
1406.1005749512	0.0674382746
1408.0293823242	0.0693190396
1409.9581896972	0.0671321005
1411.8869970703	0.0681861490
1413.8158044433	0.0659367070
1415.7446118164	0.0668198094
1417.6734191894	0.0612596497
1419.6022265625	0.0562466197
1421.5310339355	0.0623867586
1423.4598413086	0.0605967082
1425.3886486816	0.0589052215
1427.3174560547	0.0591384247
1429.2462634277	0.0553187281
1431.1750708008	0.0533199534
1433.1038781738	0.0539458916
1435.0326855469	0.0496719778
1436.9614929199	0.0430681184
1438.8903002929	0.0475805104
1440.8191076660	0.0482954234
1442.7479150390	0.0450829193
1444.6767224121	0.0465664044
1446.6055297851	0.0437180735
1448.5343371582	0.0442211479
1450.4631445312	0.0453853346
1452.3919519043	0.0463778675
1454.3207592773	0.0480815172
1456.2495666504	0.0413324535
1458.1783740234	0.0435003974
1460.1071813965	0.0553898141
1462.0359887695	0.0582874939
1463.9647961426	0.0588019900
1465.8936035156	0.0614360273
1467.8224108886	0.0690099597
1469.7512182617	0.0738452300
1471.6800256347	0.0679678246
1473.6088330078	0.0718318969
1475.5376403808	0.0804990157
1477.4664477539	0.0862296820
1479.3952551269	0.0934505165
1481.3240625000	0.0954905301
1483.2528698730	0.1009851545
1485.1816772461	0.1041705385
1487.1104846191	0.1037629098
1489.0392919922	0.1041807234
1490.9680993652	0.1054961085
1492.8969067383	0.1190723777
1494.8257141113	0.1172239035
1496.7545214843	0.1082463861
1498.6833288574	0.1202895492
1500.6121362304	0.1239663810
1502.5409436035	0.1312582195
1504.4697509765	0.1251404583
1506.3985583496	0.0978817344
1508.3273657226	0.1157042980
1510.2561730957	0.1312573850
1512.1849804687	0.1279255748
1514.1137878418	0.1366200149
1516.0425952148	0.1260121763
1517.9714025879	0.1308366358
1519.9002099609	0.1260423213
1521.8290173340	0.1133654416
1523.7578247070	0.1332276762
1525.6866320801	0.1310215294
1527.6154394531	0.1310421526
1529.5442468261	0.1415808797
1531.4730541992	0.1373480409
1533.4018615722	0.1280772388
1535.3306689453	0.1344249994
1537.2594763183	0.1412284076
1539.1882836914	0.1077880114
1541.1170910644	0.1125961393
1543.0458984375	0.1299896836
1544.9747058105	0.1259772629
1546.9035131836	0.1437176019
1548.8323205566	0.1357802004
1550.7611279297	0.1398150623
1552.6899353027	0.1384912878
1554.6187426758	0.1285827756
1556.5475500488	0.1356149018
1558.4763574218	0.1024602801
1560.4051647949	0.1094738469
1562.3339721679	0.1448193043
1564.2627795410	0.1381239891
1566.1915869140	0.1412872672
1568.1203942871	0.1398087740
1570.0492016601	0.1272373497
1571.9780090332	0.1424703598
1573.9068164062	0.1432841122
1575.8356237793	0.1186350062
1577.7644311523	0.1311868280
1579.6932385254	0.1450524032
1581.6220458984	0.1395967901
1583.5508532715	0.1428899020
1585.4796606445	0.1406919956
1587.4084680175	0.1414813846
1589.3372753906	0.1406835616
1591.2660827636	0.1406155825
1593.1948901367	0.1410421431
1595.1236975097	0.1394379139
1597.0525048828	0.1410128176
1598.9813122558	0.1400419474
1600.9101196289	0.1407040954
1602.8389270019	0.1385685802
1604.7677343750	0.1404606551
1606.6965417480	0.1388811767
1608.6253491211	0.1386244893
1610.5541564941	0.1385149062
1612.4829638672	0.1389586329
1614.4117712402	0.1404811442
1616.3405786132	0.1191350073
1618.2693859863	0.1275796294
1620.1981933593	0.1441062093
1622.1270007324	0.1305865049
1624.0558081054	0.1317025721
1625.9846154785	0.1362169087
1627.9134228515	0.1362128854
1629.8422302246	0.1353824437
1631.7710375976	0.1425345540
1633.6998449707	0.1334855855
1635.6286523437	0.1144600883
1637.5574597168	0.1297572553
1639.4862670898	0.1396120191
1641.4150744629	0.1369191855
1643.3438818359	0.1397895217
1645.2726892090	0.1280832589
1647.2014965820	0.1164542660
1649.1303039550	0.1388272941
1651.0591113281	0.1310757697
1652.9879187011	0.0923371613
1654.9167260742	0.1192002818
1656.8455334472	0.1425773352
1658.7743408203	0.1370119303
1660.7031481933	0.1406241208
1662.6319555664	0.1299462914
1664.5607629394	0.1360577047
1666.4895703125	0.1434906870
1668.4183776855	0.1288493276
1670.3471850586	0.1264812648
1672.2759924316	0.1394312382
1674.2047998047	0.1303938329
1676.1336071777	0.1262617707
1678.0624145507	0.1415932775
1679.9912219238	0.1370261461
1681.9200292968	0.1362057030
1683.8488366699	0.1146429181
1685.7776440429	0.1139559150
1687.7064514160	0.1474813819
1689.6352587890	0.1307218075
1691.5640661621	0.1418520510
1693.4928735351	0.1431155950
1695.4216809082	0.1109386981
1697.3504882812	0.1318051666
1699.2792956543	0.1187179387
1701.2081030273	0.1098232791
1703.1369104004	0.1400071830
1705.0657177734	0.1304449588
1706.9945251464	0.1312883496
1708.9233325195	0.1400250047
1710.8521398925	0.1355439126
1712.7809472656	0.1374435723
1714.7097546386	0.1293105781
1716.6385620117	0.1180814803
1718.5673693847	0.1168939173
1720.4961767578	0.1341746598
1722.4249841308	0.1373203844
1724.3537915039	0.1295578927
1726.2825988769	0.1382231563
1728.2114062500	0.1292631626
1730.1402136230	0.1307535172
1732.0690209961	0.1266994774
1733.9978283691	0.1022805274
1735.9266357421	0.1220006943
1737.8554431152	0.1320320368
1739.7842504882	0.1203400344
1741.7130578613	0.1289923787
1743.6418652343	0.1307337582
1745.5706726074	0.1308246851
1747.4994799804	0.1320687532
1749.4282873535	0.1273743808
1751.3570947265	0.1228833199
1753.2859020996	0.1337957382
1755.2147094726	0.1383950710
1757.1435168457	0.1288584471
1759.0723242187	0.1389890909
1761.0011315918	0.1320433617
1762.9299389648	0.1288055778
1764.8587463379	0.1429160982
1766.7875537109	0.1311877668
1768.7163610839	0.1325088441
1770.6451684570	0.1315282732
1772.5739758300	0.1208916381
1774.5027832031	0.1320271790
1776.4315905761	0.1376755983
1778.3603979492	0.1359791458
1780.2892053222	0.1350023746
1782.2180126953	0.1358715892
1784.1468200683	0.1354867816
1786.0756274414	0.1334392279
1788.0044348144	0.1388018131
1789.9332421875	0.1357833445
1791.8620495605	0.1255222857
1793.7908569336	0.1297623962
1795.7196643066	0.1372133791
1797.6484716796	0.1356002390
1799.5772790527	0.1340262145
1801.5060864257	0.1324141920
1803.4348937988	0.1356536448
1805.3637011718	0.1378514320
1807.2925085449	0.1363632679
1809.2213159179	0.1367377639
1811.1501232910	0.1338126957
1813.0789306640	0.1371032894
1815.0077380371	0.1374935508
1816.9365454101	0.1363824606
1818.8653527832	0.1371570528
1820.7941601562	0.1365183890
1822.7229675293	0.1382249147
1824.6517749023	0.1309683025
1826.5805822753	0.1348100603
1828.5093896484	0.1346843541
1830.4381970214	0.1282096207
1832.3670043945	0.1371292323
1834.2958117675	0.1360783279
1836.2246191406	0.1361157149
1838.1534265136	0.1354427189
1840.0822338867	0.1361880451
1842.0110412597	0.1361777186
1843.9398486328	0.1238544881
1845.8686560058	0.1303764284
1847.7974633789	0.1357250065
1849.7262707519	0.1335136890
1851.6550781250	0.1365436912
1853.5838854980	0.1342229545
1855.5126928710	0.1351830363
1857.4415002441	0.1344234198
1859.3703076171	0.1337281168
1861.2991149902	0.1345062554
1863.2279223632	0.1332684755
1865.1567297363	0.1341872662
1867.0855371093	0.1308107078
1869.0143444824	0.1262934804
1870.9431518554	0.1301869750
1872.8719592285	0.1339802444
1874.8007666015	0.1319876015
1876.7295739746	0.1327276081
1878.6583813476	0.1321405172
1880.5871887207	0.1316145062
1882.5159960937	0.1324492395
1884.4448034667	0.1307041049
1886.3736108398	0.1319580823
1888.3024182128	0.1294227839
1890.2312255859	0.1278691590
1892.1600329589	0.1312204897
1894.0888403320	0.1295854747
1896.0176477050	0.1292112768
1897.9464550781	0.1302250326
1899.8752624511	0.1298289597
1901.8040698242	0.1299376190
1903.7328771972	0.1292001903
1905.6616845703	0.1295951158
1907.5904919433	0.1284303367
1909.5192993164	0.1277146935
1911.4481066894	0.1283563226
1913.3769140625	0.1283512861
1915.3057214355	0.1291921884
1917.2345288085	0.1246747077
1919.1633361816	0.1246812791
1921.0921435546	0.1283984482
1923.0209509277	0.1251690537
1924.9497583007	0.1271458864
1926.8785656738	0.1279370785
1928.8073730468	0.1267336160
1930.7361804199	0.1280232221
1932.6649877929	0.1264521480
1934.5937951660	0.1274891496
1936.5226025390	0.1267695874
1938.4514099121	0.1267959028
1940.3802172851	0.1267478764
1942.3090246582	0.1237371713
1944.2378320312	0.1253882647
1946.1666394042	0.1263434887
1948.0954467773	0.1260559857
1950.0242541503	0.1263050139
1951.9530615234	0.1260496676
1953.8818688964	0.1260582209
1955.8106762695	0.1254930645
1957.7394836425	0.1257025898
1959.6682910156	0.1256580651
1961.5970983886	0.1253835410
1963.5259057617	0.1256245375
1965.4547131347	0.1249770224
1967.3835205078	0.1238593385
1969.3123278808	0.1247308850
1971.2411352539	0.1253027767
1973.1699426269	0.1245213300
1975.0987499999	0.1246101260
1977.0275573730	0.1244227439
1978.9563647460	0.1245268434
1980.8851721191	0.1240356490
1982.8139794921	0.1237838641
1984.7427868652	0.1238964796
1986.6715942382	0.1229712293
1988.6004016113	0.1232873872
1990.5292089843	0.1223199666
1992.4580163574	0.1212080717
1994.3868237304	0.1225849912
1996.3156311035	0.1226238757
1998.2444384765	0.1218987256
2000.1732458496	0.1220043972
2002.1020532226	0.1216274500
2004.0308605956	0.1214104295
2005.9596679687	0.1212101430
2007.8884753417	0.1207707077
2009.8172827148	0.1205896512
2011.7460900878	0.1202141643
2013.6748974609	0.1202513352
2015.6037048339	0.1196188852
2017.5325122070	0.1187097430
2019.4613195800	0.1190442145
2021.3901269531	0.1189588308
2023.3189343261	0.1187313944
2025.2477416992	0.1184448749
2027.1765490722	0.1179439351
2029.1053564453	0.1179403961
2031.0341638183	0.1176455468
2032.9629711914	0.1174037829
2034.8917785644	0.1172144264
2036.8205859374	0.1167180240
2038.7493933105	0.1166560650
2040.6782006835	0.1163165271
2042.6070080566	0.1158198714
2044.5358154296	0.1158396825
2046.4646228027	0.1155221611
2048.3934301757	0.1153130531
2050.3222375488	0.1151160896
2052.2510449218	0.1148088053
2054.1798522949	0.1146110520
2056.1086596679	0.1142128259
2058.0374670410	0.1140177697
2059.9662744140	0.1137738824
2061.8950817871	0.1136510521
2063.8238891601	0.1132046729
2065.7526965331	0.1128326058
2067.6815039062	0.1128871515
2069.6103112792	0.1125322580
2071.5391186523	0.1123942956
2073.4679260253	0.1121532023
2075.3967333984	0.1119285226
2077.3255407714	0.1116887555
2079.2543481445	0.1113767698
2081.1831555175	0.1112923920
2083.1119628906	0.1110167503
2085.0407702636	0.1108722538
2086.9695776367	0.1106704473
2088.8983850097	0.1104201972
2090.8271923828	0.1100788563
2092.7559997558	0.1099783033
2094.6848071288	0.1099330485
2096.6136145019	0.1095654517
2098.5424218749	0.1093556434
2100.4712292480	0.1090440750
2102.4000366210	0.1088615283
2104.3288439941	0.1087115631
2106.2576513671	0.1085600555
2108.1864587402	0.1082690060
2110.1152661132	0.1080703735
2112.0440734863	0.1080541164
2113.9728808593	0.1077552140
2115.9016882324	0.1076170802
2117.8304956054	0.1072844118
2119.7593029785	0.1071839780
2121.6881103515	0.1071339250
2123.6169177245	0.1067458838
2125.5457250976	0.1066780761
2127.4745324706	0.1065938771
2129.4033398437	0.1064476222
2131.3321472167	0.1063384265
2133.2609545898	0.1061018705
2135.1897619628	0.1057759449
2137.1185693359	0.1058289930
2139.0473767089	0.1056225449
2140.9761840820	0.1053296775
2142.9049914550	0.1053944081
2144.8337988281	0.1050572842
2146.7626062011	0.1049552336
2148.6914135742	0.1048536897
2150.6202209472	0.1046296209
2152.5490283203	0.1045253426
2154.4778356933	0.1043844894
2156.4066430663	0.1042780727
2158.3354504394	0.1040393412
2160.2642578124	0.1038967073
2162.1930651855	0.1037681252
2164.1218725585	0.1036908776
2166.0506799316	0.1034903303
2167.9794873046	0.1033856571
2169.9082946777	0.1033349112
2171.8371020507	0.1031601578
2173.7659094238	0.1030391306
2175.6947167968	0.1028272808
2177.6235241699	0.1027583033
2179.5523315429	0.1025697142
2181.4811389160	0.1025054902
2183.4099462890	0.1023264527
2185.3387536620	0.1020937711
2187.2675610351	0.1019823104
2189.1963684081	0.1017328799
2191.1251757812	0.1017420590
2193.0539831542	0.1015355885
2194.9827905273	0.1014350653
2196.9115979003	0.1012506336
2198.8404052734	0.1011981368
2200.7692126464	0.1012361795
2202.6980200195	0.1008193344
2204.6268273925	0.1007457674
2206.5556347656	0.1005447358
2208.4844421386	0.1004426405
2210.4132495117	0.1003561094
2212.3420568847	0.1002799943
2214.2708642577	0.1001629680
2216.1996716308	0.0997774750
2218.1284790038	0.0997734815
2220.0572863769	0.0995997414
2221.9860937499	0.0995856375
2223.9149011230	0.0994032919
2225.8437084960	0.0990885422
2227.7725158691	0.0990364179
2229.7013232421	0.0988507420
2231.6301306152	0.0987133086
2233.5589379882	0.0984093398
2235.4877453613	0.0983845890
2237.4165527343	0.0981406793
2239.3453601074	0.0978750139
2241.2741674804	0.0979624093
2243.2029748534	0.0976968706
2245.1317822265	0.0975296944
2247.0605895995	0.0974719822
2248.9893969726	0.0973006487
2250.9182043456	0.0970583260
2252.8470117187	0.0968899429
2254.7758190917	0.0966628790
2256.7046264648	0.0965084136
2258.6334338378	0.0964276567
2260.5622412109	0.0962979048
2262.4910485839	0.0961383730
2264.4198559570	0.0958100259
2266.3486633300	0.0957637429
2268.2774707031	0.0956864581
2270.2062780761	0.0955829173
2272.1350854491	0.0954673439
2274.0638928222	0.0953099579
2275.9927001952	0.0951050818
2277.9215075683	0.0949408710
2279.8503149413	0.0951563641
2281.7791223144	0.0949071050
2283.7079296874	0.0947495699
2285.6367370605	0.0945348293
2287.5655444335	0.0942075029
2289.4943518066	0.0941657126
2291.4231591796	0.0937857479
2293.3519665527	0.0936318785
2295.2807739257	0.0932124779
2297.2095812988	0.0929175541
2299.1383886718	0.0926883519
2301.0671960449	0.0921209902
2302.9960034179	0.0918032080
2304.9248107909	0.0912383795
2306.8536181640	0.0907899737
2308.7824255370	0.0901532769
2310.7112329101	0.0893191248
2312.6400402831	0.0883441344
2314.5688476562	0.0874102861
2316.4976550292	0.0866704285
2318.4264624023	0.0852705911
2320.3552697753	0.0842089206
2322.2840771484	0.0831985921
2324.2128845214	0.0819855779
2326.1416918945	0.0811541155
2328.0704992675	0.0801274031
2329.9993066406	0.0792576820
2331.9281140136	0.0786529407
2333.8569213866	0.0783079937
2335.7857287597	0.0780470669
2337.7145361327	0.0778513104
2339.6433435058	0.0777741298
2341.5721508788	0.0781083405
2343.5009582519	0.0791811645
2345.4297656249	0.0805096775
2347.3585729980	0.0839393362
2349.2873803710	0.0864797235
2351.2161877441	0.0833325237
2353.1449951171	0.0792691559
2355.0738024902	0.0765862167
2357.0026098632	0.0740249977
2358.9314172363	0.0728048086
2360.8602246093	0.0719757080
2362.7890319823	0.0716276616
2364.7178393554	0.0721404776
2366.6466467284	0.0731368065
2368.5754541015	0.0745772868
2370.5042614745	0.0762705356
2372.4330688476	0.0783117488
2374.3618762206	0.0803356618
2376.2906835937	0.0825363398
2378.2194909667	0.0842881277
2380.1482983398	0.0855548531
2382.0771057128	0.0866018459
2384.0059130859	0.0870529413
2385.9347204589	0.0874721482
2387.8635278320	0.0875330418
2389.7923352050	0.0874680951
2391.7211425780	0.0873722658
2393.6499499511	0.0871538371
2395.5787573241	0.0870518386
2397.5075646972	0.0867383629
2399.4363720702	0.0865976587
2401.3651794433	0.0865591019
2403.2939868163	0.0864467472
2405.2227941894	0.0863305479
2407.1516015624	0.0862904340
2409.0804089355	0.0862060189
2411.0092163085	0.0860913396
2412.9380236816	0.0860078707
2414.8668310546	0.0857717693
2416.7956384277	0.0856516510
2418.7244458007	0.0854619145
2420.6532531738	0.0854576677
2422.5820605468	0.0853921920
2424.5108679198	0.0850715637
2426.4396752929	0.0849355906
2428.3684826659	0.0847453102
2430.2972900390	0.0847008675
2432.2260974120	0.0845409706
2434.1549047851	0.0843866318
2436.0837121581	0.0843533128
2438.0125195312	0.0841875896
2439.9413269042	0.0840973035
2441.8701342773	0.0839123875
2443.7989416503	0.0837831795
2445.7277490234	0.0837153494
2447.6565563964	0.0835747719
2449.5853637695	0.0834505260
2451.5141711425	0.0833482668
2453.4429785155	0.0831623152
2455.3717858886	0.0830047727
2457.3005932616	0.0828544945
2459.2294006347	0.0827774107
2461.1582080077	0.0828455612
2463.0870153808	0.0826517791
2465.0158227538	0.0824774578
2466.9446301269	0.0822576433
2468.8734374999	0.0821914226
2470.8022448730	0.0821914077
2472.7310522460	0.0818825215
2474.6598596191	0.0818852335
2476.5886669921	0.0817630887
2478.5174743652	0.0815864354
2480.4462817382	0.0815806538
2482.3750891112	0.0813942701
2484.3038964843	0.0811652169
2486.2327038573	0.0810368210
2488.1615112304	0.0810209066
2490.0903186034	0.0809488446
2492.0191259765	0.0808723122
2493.9479333495	0.0806498975
2495.8767407226	0.0804841071
2497.8055480956	0.0803221464
2499.7343554687	0.0802832097
2501.6631628417	0.0803008378
2503.5919702148	0.0799684972
2505.5207775878	0.0799854845
2507.4495849609	0.0799395889
2509.3783923339	0.0796971917
2511.3071997069	0.0796636492
2513.2360070800	0.0795717016
2515.1648144530	0.0793658197
2517.0936218261	0.0792362913
2519.0224291991	0.0791921616
2520.9512365722	0.0789447874
2522.8800439452	0.0789586827
2524.8088513183	0.0788556337
2526.7376586913	0.0787670612
2528.6664660644	0.0787108988
2530.5952734374	0.0783275962
2532.5240808105	0.0784884393
2534.4528881835	0.0783331543
2536.3816955566	0.0780305415
2538.3105029296	0.0780499354
2540.2393103027	0.0778767616
2542.1681176757	0.0778241158
2544.0969250487	0.0776425377
2546.0257324218	0.0775449574
2547.9545397948	0.0774453506
2549.8833471679	0.0773241445
2551.8121545409	0.0772534758
2553.7409619140	0.0770365521
2555.6697692870	0.0769650191
2557.5985766601	0.0768846199
2559.5273840331	0.0767571181
2561.4561914062	0.0765660554
2563.3849987792	0.0764996484
2565.3138061523	0.0764547586
2567.2426135253	0.0763110071
2569.1714208984	0.0763260871
2571.1002282714	0.0761017203
2573.0290356444	0.0759814307
2574.9578430175	0.0760050118
2576.8866503905	0.0757657737
2578.8154577636	0.0756709427
2580.7442651366	0.0755258054
2582.6730725097	0.0753938258
2584.6018798827	0.0753559470
2586.5306872558	0.0751799643
2588.4594946288	0.0750807077
2590.3883020019	0.0749085397
2592.3171093749	0.0748185664
2594.2459167480	0.0747429729
2596.1747241210	0.0746297985
2598.1035314941	0.0745189637
2600.0323388671	0.0742972493
2601.9611462401	0.0743366107
2603.8899536132	0.0741043389
2605.8187609862	0.0739600211
2607.7475683593	0.0740170926
2609.6763757323	0.0737357140
2611.6051831054	0.0736777037
2613.5339904784	0.0735297874
2615.4627978515	0.0735240653
2617.3916052245	0.0734326541
2619.3204125976	0.0731482059
2621.2492199706	0.0731604621
2623.1780273437	0.0729858279
2625.1068347167	0.0729319602
2627.0356420898	0.0728020221
2628.9644494628	0.0726781413
2630.8932568358	0.0725926459
2632.8220642089	0.0723817647
2634.7508715819	0.0723936483
2636.6796789550	0.0721898973
2638.6084863280	0.0720788836
2640.5372937011	0.0720229149
2642.4661010741	0.0718770474
2644.3949084472	0.0718196705
2646.3237158202	0.0716427416
2648.2525231933	0.0715065375
2650.1813305663	0.0713885725
2652.1101379394	0.0713355020
2654.0389453124	0.0712014735
2655.9677526855	0.0710643977
2657.8965600585	0.0709546953
2659.8253674315	0.0708186030
2661.7541748046	0.0708358735
2663.6829821776	0.0706883371
2665.6117895507	0.0706222504
2667.5405969237	0.0705584139
2669.4694042968	0.0702654123
2671.3982116698	0.0701708794
2673.3270190429	0.0701135620
2675.2558264159	0.0699930340
2677.1846337890	0.0698082447
2679.1134411620	0.0696908236
2681.0422485351	0.0697634742
2682.9710559081	0.0695879832
2684.8998632812	0.0693462044
2686.8286706542	0.0692980066
2688.7574780273	0.0692750812
2690.6862854003	0.0691940188
2692.6150927733	0.0690074563
2694.5439001464	0.0688822716
2696.4727075194	0.0688194782
2698.4015148925	0.0687379241
2700.3303222655	0.0685162842
2702.2591296386	0.0684486926
2704.1879370116	0.0685349703
2706.1167443847	0.0682198927
2708.0455517577	0.0680654272
2709.9743591308	0.0680991784
2711.9031665038	0.0678868592
2713.8319738769	0.0678305328
2715.7607812499	0.0677957833
2717.6895886230	0.0675767660
2719.6183959960	0.0675279424
2721.5472033690	0.0673864335
2723.4760107421	0.0671000183
2725.4048181151	0.0671133995
2727.3336254882	0.0669663325
2729.2624328612	0.0669299439
2731.1912402343	0.0668681636
2733.1200476073	0.0666024685
2735.0488549804	0.0667117313
2736.9776623534	0.0664919168
2738.9064697265	0.0663436875
2740.8352770995	0.0662821755
2742.7640844726	0.0660477355
2744.6928918456	0.0660059303
2746.6216992187	0.0658611655
2748.5505065917	0.0658100024
2750.4793139647	0.0656019226
2752.4081213378	0.0655721724
2754.3369287108	0.0655094385
2756.2657360839	0.0652539954
2758.1945434569	0.0652084053
2760.1233508300	0.0650647208
2762.0521582030	0.0651021004
2763.9809655761	0.0648399442
2765.9097729491	0.0646269321
2767.8385803222	0.0646421835
2769.7673876952	0.0644811094
2771.6961950683	0.0644112155
2773.6250024413	0.0642487705
2775.5538098144	0.0642048568
2777.4826171874	0.0639976561
2779.4114245604	0.0638463795
2781.3402319335	0.0637879074
2783.2690393065	0.0636035502
2785.1978466796	0.0635460764
2787.1266540526	0.0633933991
2789.0554614257	0.0632699579
2790.9842687987	0.0630612224
2792.9130761718	0.0630384162
2794.8418835448	0.0629882365
2796.7706909179	0.0627575740
2798.6994982909	0.0626983643
2800.6283056640	0.0625272393
2802.5571130370	0.0624519810
2804.4859204101	0.0623513609
2806.4147277831	0.0621795766
2808.3435351562	0.0621045567
2810.2723425292	0.0620490834
2812.2011499022	0.0618105978
2814.1299572753	0.0615901500
2816.0587646483	0.0616168305
2817.9875720214	0.0614571422
2819.9163793944	0.0613749996
2821.8451867675	0.0612447336
2823.7739941405	0.0610110536
2825.7028015136	0.0609661639
2827.6316088866	0.0608369373
2829.5604162597	0.0606574938
2831.4892236327	0.0604902431
2833.4180310058	0.0604248792
2835.3468383788	0.0602741651
2837.2756457519	0.0600057244
2839.2044531249	0.0598497465
2841.1332604979	0.0596984029
2843.0620678710	0.0595275462
2844.9908752440	0.0592727661
2846.9196826171	0.0588827133
2848.8484899901	0.0585769974
2850.7772973632	0.0584053919
2852.7061047362	0.0583358556
2854.6349121093	0.0583197139
2856.5637194823	0.0581014305
2858.4925268554	0.0580215380
2860.4213342284	0.0580092035
2862.3501416015	0.0578961074
2864.2789489745	0.0579117686
2866.2077563476	0.0576707125
2868.1365637206	0.0575598255
2870.0653710936	0.0576318279
2871.9941784667	0.0574083365
2873.9229858397	0.0572601557
2875.8517932128	0.0572119057
2877.7806005858	0.0570649877
2879.7094079589	0.0570126921
2881.6382153319	0.0570081659
2883.5670227050	0.0569424145
2885.4958300780	0.0568519868
2887.4246374511	0.0566333085
2889.3534448241	0.0565804988
2891.2822521972	0.0564892516
2893.2110595702	0.0562385917
2895.1398669433	0.0560846701
2897.0686743163	0.0558983013
2898.9974816893	0.0558481738
2900.9262890624	0.0557157993
2902.8550964354	0.0555688217
2904.7839038085	0.0554044656
2906.7127111815	0.0552026555
2908.6415185546	0.0550091490
2910.5703259276	0.0547394827
2912.4991333007	0.0545580871
2914.4279406737	0.0541121885
2916.3567480468	0.0539648235
2918.2855554198	0.0538982376
2920.2143627929	0.0536368787
2922.1431701659	0.0536151715
2924.0719775390	0.0534780696
2926.0007849120	0.0534985103
2927.9295922851	0.0533886030
2929.8583996581	0.0532307401
2931.7872070311	0.0531628653
2933.7160144042	0.0531862378
2935.6448217772	0.0533093214
2937.5736291503	0.0531791337
2939.5024365233	0.0532605797
2941.4312438964	0.0531957261
2943.3600512694	0.0530670211
2945.2888586425	0.0530323163
2947.2176660155	0.0529494584
2949.1464733886	0.0529138558
2951.0752807616	0.0527563393
2953.0040881347	0.0527304895
2954.9328955077	0.0525432192
2956.8617028808	0.0523008555
2958.7905102538	0.0521384738
2960.7193176268	0.0520479642
2962.6481249999	0.0519054234
2964.5769323729	0.0518009849
2966.5057397460	0.0518833883
2968.4345471190	0.0516247377
2970.3633544921	0.0516805425
2972.2921618651	0.0517926514
2974.2209692382	0.0517206751
2976.1497766112	0.0518478379
2978.0785839843	0.0517584905
2980.0073913573	0.0517522097
2981.9361987304	0.0518146157
2983.8650061034	0.0517249852
2985.7938134765	0.0515092574
2987.7226208495	0.0515539423
2989.6514282225	0.0516441800
2991.5802355956	0.0514355898
2993.5090429686	0.0513883196
2995.4378503417	0.0513558835
2997.3666577147	0.0512226410
2999.2954650878	0.0511030182
3001.2242724608	0.0510094650
3003.1530798339	0.0508669540
3005.0818872069	0.0508643687
3007.0106945800	0.0507876053
3008.9395019530	0.0505995378
3010.8683093261	0.0505269915
3012.7971166991	0.0502946451
3014.7259240722	0.0502565801
3016.6547314452	0.0501509309
3018.5835388182	0.0500046834
3020.5123461913	0.0499780998
3022.4411535643	0.0498788357
3024.3699609374	0.0498464666
3026.2987683104	0.0496752486
3028.2275756835	0.0496011861
3030.1563830565	0.0493335389
3032.0851904296	0.0490722209
3034.0139978026	0.0491507202
3035.9428051757	0.0491647199
3037.8716125487	0.0490348861
3039.8004199218	0.0488641635
3041.7292272948	0.0488152355
3043.6580346679	0.0485959575
3045.5868420409	0.0485520512
3047.5156494139	0.0484858230
3049.4444567870	0.0482844114
3051.3732641600	0.0482400209
3053.3020715331	0.0480943881
3055.2308789061	0.0480986983
3057.1596862792	0.0478574596
3059.0884936522	0.0478152484
3061.0173010253	0.0479204282
3062.9461083983	0.0476050600
3064.8749157714	0.0474960208
3066.8037231444	0.0473921411
3068.7325305175	0.0472913682
3070.6613378905	0.0472247303
3072.5901452636	0.0471995771
3074.5189526366	0.0471574217
3076.4477600097	0.0469713584
3078.3765673827	0.0468742140
3080.3053747557	0.0467232764
3082.2341821288	0.0466285199
3084.1629895018	0.0465298183
3086.0917968749	0.0464776605
3088.0206042479	0.0464183614
3089.9494116210	0.0462354794
3091.8782189940	0.0462356247
3093.8070263671	0.0461103730
3095.7358337401	0.0458906591
3097.6646411132	0.0458129793
3099.5934484862	0.0456732064
3101.5222558593	0.0456281230
3103.4510632323	0.0455914810
3105.3798706054	0.0454342961
3107.3086779784	0.0453285426
3109.2374853514	0.0451374501
3111.1662927245	0.0450868085
3113.0951000975	0.0451113209
3115.0239074706	0.0448514968
3116.9527148436	0.0446203575
3118.8815222167	0.0445912033
3120.8103295897	0.0445716977
3122.7391369628	0.0443724170
3124.6679443358	0.0443207771
3126.5967517089	0.0442096218
3128.5255590819	0.0439543650
3130.4543664550	0.0439666398
3132.3831738280	0.0438235179
3134.3119812011	0.0437401086
3136.2407885741	0.0436767712
3138.1695959471	0.0435001664
3140.0984033202	0.0434396639
3142.0272106932	0.0432277024
3143.9560180663	0.0431192219
3145.8848254393	0.0430463105
3147.8136328124	0.0429183394
3149.7424401854	0.0428042337
3151.6712475585	0.0426130928
3153.6000549315	0.0425431766
3155.5288623046	0.0425137728
3157.4576696776	0.0423359908
3159.3864770507	0.0421745479
3161.3152844237	0.0421459526
3163.2440917968	0.0420021899
3165.1728991698	0.0418520421
3167.1017065428	0.0417713150
3169.0305139159	0.0417082831
3170.9593212889	0.0415729582
3172.8881286620	0.0413259938
3174.8169360350	0.0412607864
3176.7457434081	0.0411219485
3178.6745507811	0.0410242900
3180.6033581542	0.0410084724
3182.5321655272	0.0408317596
3184.4609729003	0.0407848656
3186.3897802733	0.0407060497
3188.3185876464	0.0405684039
3190.2473950194	0.0403959788
3192.1762023925	0.0402733311
3194.1050097655	0.0402834043
3196.0338171386	0.0400650725
3197.9626245116	0.0399470143
3199.8914318846	0.0399714746
3201.8202392577	0.0397977568
3203.7490466307	0.0396731645
3205.6778540038	0.0395573899
3207.6066613768	0.0394516289
3209.5354687499	0.0394110754
3211.4642761229	0.0393464528
3213.3930834960	0.0392483808
3215.3218908690	0.0390925556
3217.2506982421	0.0390543416
3219.1795056151	0.0389894806
3221.1083129882	0.0389233604
3223.0371203612	0.0389098972
3224.9659277343	0.0388305485
3226.8947351073	0.0387661755
3228.8235424803	0.0385832526
3230.7523498534	0.0385246724
3232.6811572264	0.0384347737
3234.6099645995	0.0383442603
3236.5387719725	0.0383689702
3238.4675793456	0.0381516963
3240.3963867186	0.0381916426
3242.3251940917	0.0382025093
3244.2540014647	0.0379809812
3246.1828088378	0.0379883498
3248.1116162108	0.0380273536
3250.0404235839	0.0380269364
3251.9692309569	0.0379361920
3253.8980383300	0.0377564356
3255.8268457030	0.0376177356
3257.7556530760	0.0376261696
3259.6844604491	0.0375905856
3261.6132678221	0.0375185981
3263.5420751952	0.0374873765
3265.4708825682	0.0374181345
3267.3996899413	0.0374086536
3269.3284973143	0.0373180173
3271.2573046874	0.0372101180
3273.1861120604	0.0370713845
3275.1149194335	0.0370596051
3277.0437268065	0.0370473787
3278.9725341796	0.0369385332
3280.9013415526	0.0370099097
3282.8301489257	0.0368323773
3284.7589562987	0.0367755108
3286.6877636717	0.0367955640
3288.6165710448	0.0366020948
3290.5453784178	0.0366191119
3292.4741857909	0.0364277661
3294.4029931639	0.0363190398
3296.3318005370	0.0364772752
3298.2606079100	0.0363219008
3300.1894152831	0.0362602845
3302.1182226561	0.0363404378
3304.0470300292	0.0361472517
3305.9758374022	0.0360668600
3307.9046447753	0.0360452905
3309.8334521483	0.0359179080
3311.7622595214	0.0359355062
3313.6910668944	0.0358717293
3315.6198742675	0.0358259715
3317.5486816405	0.0358439460
3319.4774890135	0.0356916189
3321.4062963866	0.0356260054
3323.3351037596	0.0356639251
3325.2639111327	0.0354939103
3327.1927185057	0.0353878811
3329.1215258788	0.0354444832
3331.0503332518	0.0353290774
3332.9791406249	0.0352540128
3334.9079479979	0.0351921581
3336.8367553710	0.0351268575
3338.7655627440	0.0350921527
3340.6943701171	0.0349731296
3342.6231774901	0.0349895023
3344.5519848632	0.0349700525
3346.4807922362	0.0348257050
3348.4095996092	0.0347601324
3350.3384069823	0.0347342044
3352.2672143553	0.0346452817
3354.1960217284	0.0346168764
3356.1248291014	0.0345146656
3358.0536364745	0.0343835130
3359.9824438475	0.0344063044
3361.9112512206	0.0342917889
3363.8400585936	0.0341991782
3365.7688659667	0.0340854079
3367.6976733397	0.0339708291
3369.6264807128	0.0338861905
3371.5552880858	0.0338167958
3373.4840954589	0.0339169353
3375.4129028319	0.0337921605
3377.3417102049	0.0336722434
3379.2705175780	0.0336630270
3381.1993249510	0.0335836187
3383.1281323241	0.0334636904
3385.0569396971	0.0334229469
3386.9857470702	0.0334586464
3388.9145544432	0.0333218314
3390.8433618163	0.0331505090
3392.7721691893	0.0329841822
3394.7009765624	0.0330228284
3396.6297839354	0.0329415612
3398.5585913085	0.0328344330
3400.4873986815	0.0328723043
3402.4162060546	0.0326661915
3404.3450134276	0.0326467007
3406.2738208006	0.0326624885
3408.2026281737	0.0326626189
3410.1314355467	0.0325578190
3412.0602429198	0.0324376747
3413.9890502928	0.0324259475
3415.9178576659	0.0323144980
3417.8466650389	0.0322415382
3419.7754724120	0.0319653228
3421.7042797850	0.0320072621
3423.6330871581	0.0321299061
3425.5618945311	0.0320278853
3427.4907019042	0.0319026262
3429.4195092772	0.0317693092
3431.3483166503	0.0318188891
3433.2771240233	0.0316759795
3435.2059313963	0.0316354409
3437.1347387694	0.0315049291
3439.0635461424	0.0314571001
3440.9923535155	0.0313393995
3442.9211608885	0.0311310887
3444.8499682616	0.0313374028
3446.7787756346	0.0309859812
3448.7075830077	0.0309918579
3450.6363903807	0.0312589779
3452.5651977538	0.0310806017
3454.4940051268	0.0310837999
3456.4228124999	0.0309405252
3458.3516198729	0.0309337676
3460.2804272460	0.0309084803
3462.2092346190	0.0307768639
3464.1380419921	0.0307405666
3466.0668493651	0.0306925178
3467.9956567381	0.0306670573
3469.9244641112	0.0307062082
3471.8532714842	0.0307080094
3473.7820788573	0.0305282176
3475.7108862303	0.0304667782
3477.6396936034	0.0304544661
3479.5685009764	0.0303767622
3481.4973083495	0.0301894769
3483.4261157225	0.0302438363
3485.3549230956	0.0303765554
3487.2837304686	0.0302559119
3489.2125378417	0.0301951412
3491.1413452147	0.0302228965
3493.0701525878	0.0303759836
3494.9989599608	0.0301153604
3496.9277673338	0.0299571324
3498.8565747069	0.0301646739
3500.7853820799	0.0300841890
3502.7141894530	0.0297057033
3504.6429968260	0.0296459161
3506.5718041991	0.0301546641
3508.5006115721	0.0298229102
3510.4294189452	0.0296001770
3512.3582263182	0.0298845414
3514.2870336913	0.0298215747
3516.2158410643	0.0299956743
3518.1446484374	0.0298548304
3520.0734558104	0.0297999606
3522.0022631835	0.0296095852
3523.9310705565	0.0292488597
3525.8598779295	0.0294186175
3527.7886853026	0.0293386206
3529.7174926756	0.0293011516
3531.6463000487	0.0295787416
3533.5751074217	0.0297141727
3535.5039147948	0.0294804536
3537.4327221678	0.0292826928
3539.3615295409	0.0295544155
3541.2903369139	0.0296725035
3543.2191442870	0.0294211097
3545.1479516600	0.0289148428
3547.0767590331	0.0285544321
3549.0055664061	0.0292091034
3550.9343737792	0.0293519720
3552.8631811522	0.0288078506
3554.7919885252	0.0293075778
3556.7207958983	0.0294180252
3558.6496032713	0.0291571431
3560.5784106444	0.0290275849
3562.5072180174	0.0290676057
3564.4360253905	0.0290771965
3566.3648327635	0.0275198631
3568.2936401366	0.0271324404
3570.2224475096	0.0286888145
3572.1512548827	0.0292211398
3574.0800622557	0.0289922729
3576.0088696288	0.0289729573
3577.9376770018	0.0289330836
3579.8664843749	0.0289540626
3581.7952917479	0.0288949590
3583.7240991210	0.0289117657
3585.6529064940	0.0283998735
3587.5817138670	0.0265904702
3589.5105212401	0.0272075478
3591.4393286131	0.0290500931
3593.3681359862	0.0283955932
3595.2969433592	0.0280125644
3597.2257507323	0.0283857323
3599.1545581053	0.0284653846
3601.0833654784	0.0282783061
3603.0121728514	0.0284247398
3604.9409802245	0.0287558362
3606.8697875975	0.0280704349
3608.7985949706	0.0267508607
3610.7274023436	0.0272103287
3612.6562097167	0.0277407952
3614.5850170897	0.0270399973
3616.5138244627	0.0285145305
3618.4426318358	0.0268648304
3620.3714392088	0.0261773579
3622.3002465819	0.0286554787
3624.2290539549	0.0279837027
3626.1578613280	0.0290022288
3628.0866687010	0.0254576840
3630.0154760741	0.0238273405
3631.9442834471	0.0284021161
3633.8730908202	0.0276753530
3635.8018981932	0.0280759297
3637.7307055663	0.0285214745
3639.6595129393	0.0282293148
3641.5883203124	0.0283732638
3643.5171276854	0.0279931948
3645.4459350584	0.0283594131
3647.3747424315	0.0259100962
3649.3035498045	0.0241768807
3651.2323571776	0.0245594159
3653.1611645506	0.0280009881
3655.0899719237	0.0276414864
3657.0187792967	0.0254376382
3658.9475866698	0.0283692218
3660.8763940428	0.0277034864
3662.8052014159	0.0281041674
3664.7340087889	0.0279725157
3666.6628161620	0.0277034231
3668.5916235350	0.0271894466
3670.5204309081	0.0231349040
3672.4492382811	0.0268087797
3674.3780456541	0.0257855877
3676.3068530272	0.0223889090
3678.2356604002	0.0267067067
3680.1644677733	0.0271472279
3682.0932751463	0.0272154957
3684.0220825194	0.0277687833
3685.9508898924	0.0274254866
3687.8796972655	0.0250482168
3689.8085046385	0.0234775804
3691.7373120116	0.0262206141
3693.6661193846	0.0266313218
3695.5949267577	0.0271544680
3697.5237341307	0.0270406213
3699.4525415038	0.0267487429
3701.3813488768	0.0263239816
3703.3101562499	0.0255166255
3705.2389636229	0.0275089461
3707.1677709959	0.0263723340
3709.0965783690	0.0258666314
3711.0253857420	0.0246446822
3712.9541931151	0.0234911088
3714.8830004881	0.0265701525
3716.8118078612	0.0261219647
3718.7406152342	0.0262949374
3720.6694226073	0.0257703867
3722.5982299803	0.0251455307
3724.5270373534	0.0258486941
3726.4558447264	0.0243777521
3728.3846520995	0.0260312557
3730.3134594725	0.0255411193
3732.2422668456	0.0239599589
3734.1710742186	0.0234625097
3736.0998815916	0.0225403793
3738.0286889647	0.0236618873
3739.9574963377	0.0251362976
3741.8863037108	0.0261274986
3743.8151110838	0.0211452954
3745.7439184569	0.0203007367
3747.6727258299	0.0250930972
3749.6015332030	0.0220957026
3751.5303405760	0.0207458623
3753.4591479491	0.0231456235
3755.3879553221	0.0245505422
3757.3167626952	0.0252074003
3759.2455700682	0.0237603001
3761.1743774413	0.0245463140
3763.1031848143	0.0255686846
3765.0319921873	0.0242333896
3766.9607995604	0.0245604925
3768.8896069334	0.0242963508
3770.8184143065	0.0235120002
3772.7472216795	0.0249687731
3774.6760290526	0.0249993000
3776.6048364256	0.0248727426
3778.5336437987	0.0243097022
3780.4624511717	0.0236106031
3782.3912585448	0.0247754641
3784.3200659178	0.0243601538
3786.2488732909	0.0242536105
3788.1776806639	0.0246376209
3790.1064880370	0.0244381931
3792.0352954100	0.0243051723
3793.9641027830	0.0246678218
3795.8929101561	0.0234780274
3797.8217175291	0.0233234782
3799.7505249022	0.0240653567
3801.6793322752	0.0199960135
3803.6081396483	0.0227711685
3805.5369470213	0.0242155232
3807.4657543944	0.0207701325
3809.3945617674	0.0240676627
3811.3233691405	0.0236684084
3813.2521765135	0.0242970437
3815.1809838866	0.0222026072
3817.1097912596	0.0202356167
3819.0385986327	0.0242186561
3820.9674060057	0.0205017738
3822.8962133787	0.0214485377
3824.8250207518	0.0240097120
3826.7538281248	0.0221655648
3828.6826354979	0.0235503763
3830.6114428709	0.0227483436
3832.5402502440	0.0220889486
3834.4690576170	0.0225380491
3836.3978649901	0.0215487536
3838.3266723631	0.0198050216
3840.2554797362	0.0212867260
3842.1842871092	0.0225480385
3844.1130944823	0.0216946751
3846.0419018553	0.0230571497
3847.9707092284	0.0226112846
3849.8995166014	0.0227587037
3851.8283239745	0.0208260175
3853.7571313475	0.0165450890
3855.6859387205	0.0190860070
3857.6147460936	0.0227919128
3859.5435534666	0.0222217478
3861.4723608397	0.0219987482
3863.4011682127	0.0214840230
3865.3299755858	0.0204263777
3867.2587829588	0.0222416893
3869.1875903319	0.0205950662
3871.1163977049	0.0194541737
3873.0452050780	0.0221601799
3874.9740124510	0.0207712390
3876.9028198241	0.0220942125
3878.8316271971	0.0223382339
3880.7604345702	0.0197751541
3882.6892419432	0.0220667105
3884.6180493162	0.0208551884
3886.5468566893	0.0196004789
3888.4756640623	0.0221042186
3890.4044714354	0.0210347772
3892.3332788084	0.0201384090
3894.2620861815	0.0214821696
3896.1908935545	0.0217569508
3898.1197009276	0.0209559705
3900.0485083006	0.0200524479
3901.9773156737	0.0199499801
3903.9061230467	0.0196825322
3905.8349304198	0.0200286098
3907.7637377928	0.0213793553
3909.6925451659	0.0212746672
3911.6213525389	0.0212036762
3913.5501599119	0.0214605145
3915.4789672850	0.0208568983
3917.4077746580	0.0203747228
3919.3365820311	0.0203648917
3921.2653894041	0.0208436437
3923.1941967772	0.0207326114
3925.1230041502	0.0204795003
3927.0518115233	0.0206968673
3928.9806188963	0.0208768956
3930.9094262694	0.0204994697
3932.8382336424	0.0199222043
3934.7670410155	0.0204819664
3936.6958483885	0.0205695666
3938.6246557616	0.0204494242
3940.5534631346	0.0206531081
3942.4822705076	0.0199337807
3944.4110778807	0.0201254487
3946.3398852537	0.0204851497
3948.2686926268	0.0198761560
3950.1974999998	0.0199783538
3952.1263073729	0.0201875120
3954.0551147459	0.0200524777
3955.9839221190	0.0200609788
3957.9127294920	0.0200157650
3959.8415368651	0.0200401321
3961.7703442381	0.0198678635
3963.6991516112	0.0197952203
3965.6279589842	0.0199290030
3967.5567663573	0.0198746808
3969.4855737303	0.0198548250
3971.4143811034	0.0196745265
3973.3431884764	0.0196173768
3975.2719958494	0.0195465814
3977.2008032225	0.0194364153
3979.1296105955	0.0195689965
3981.0584179686	0.0194723196
3982.9872253416	0.0194755364
3984.9160327147	0.0194703024
3986.8448400877	0.0193937551
3988.7736474608	0.0193310231
3990.7024548338	0.0192400645
3992.6312622069	0.0192856342
3994.5600695799	0.0191851947
3996.4888769530	0.0192083027
3998.4176843260	0.0191462524
4000.3464916991	0.0190404058
4002.2752990721	0.0191331562
4004.2041064451	0.0190689377
4006.1329138182	0.0189774483
4008.0617211912	0.0188903660
4009.9905285643	0.0189260393
4011.9193359373	0.0188426338
4013.8481433104	0.0187573396
4015.7769506834	0.0188283995
4017.7057580565	0.0186496265
4019.6345654295	0.0186063386
4021.5633728026	0.0185963959
4023.4921801756	0.0185226724
4025.4209875487	0.0185249262
4027.3497949217	0.0184493139
4029.2786022948	0.0184353590
4031.2074096678	0.0183769930
4033.1362170408	0.0183466151
4035.0650244139	0.0182944089
4036.9938317869	0.0182936899
4038.9226391600	0.0182861239
4040.8514465330	0.0180997998
4042.7802539061	0.0181590989
4044.7090612791	0.0180720966
4046.6378686522	0.0179419536
4048.5666760252	0.0180319697
4050.4954833983	0.0179563146
4052.4242907713	0.0179829672
4054.3530981444	0.0179935917
4056.2819055174	0.0178617854
4058.2107128905	0.0177388750
4060.1395202635	0.0177042335
4062.0683276365	0.0176987424
4063.9971350096	0.0177023448
4065.9259423826	0.0176741816
4067.8547497557	0.0175822470
4069.7835571287	0.0176254213
4071.7123645018	0.0174644329
4073.6411718748	0.0174212083
4075.5699792479	0.0174502935
4077.4987866209	0.0172855407
4079.4275939940	0.0173484646
4081.3564013670	0.0173216444
4083.2852087401	0.0172897149
4085.2140161131	0.0172338299
4087.1428234862	0.0171653517
4089.0716308592	0.0171082970
4091.0004382323	0.0170272626
4092.9292456053	0.0170592777
4094.8580529783	0.0169877559
4096.7868603514	0.0170616321
4098.7156677244	0.0170018822
4100.6444750975	0.0168786291
4102.5732824705	0.0168457702
4104.5020898436	0.0167122558
4106.4308972166	0.0166749470
4108.3597045897	0.0166495647
4110.2885119627	0.0166776665
4112.2173193358	0.0166221000
4114.1461267088	0.0166170336
4116.0749340819	0.0165581983
4118.0037414549	0.0164809451
4119.9325488280	0.0164930783
4121.8613562010	0.0164526626
4123.7901635740	0.0164343603
4125.7189709471	0.0162922014
4127.6477783201	0.0163748823
4129.5765856932	0.0163066611
4131.5053930662	0.0162292309
4133.4342004393	0.0162712187
4135.3630078123	0.0161533467
4137.2918151854	0.0161723346
4139.2206225584	0.0159991011
4141.1494299315	0.0161011927
4143.0782373045	0.0160598904
4145.0070446776	0.0158570409
4146.9358520506	0.0159029271
4148.8646594237	0.0157825593
4150.7934667967	0.0158012845
4152.7222741697	0.0157391801
4154.6510815428	0.0158125274
4156.5798889158	0.0157275982
4158.5086962889	0.0156010324
4160.4375036619	0.0156805795
4162.3663110350	0.0155656999
4164.2951184080	0.0156059200
4166.2239257811	0.0155089162
4168.1527331541	0.0155194886
4170.0815405272	0.0154878302
4172.0103479002	0.0153715061
4173.9391552733	0.0154041052
4175.8679626463	0.0152924508
4177.7967700194	0.0152852777
4179.7255773924	0.0152119529
4181.6543847654	0.0152226463
4183.5831921385	0.0152060036
4185.5119995115	0.0150942337
4187.4408068846	0.0150915664
4189.3696142576	0.0151141053
4191.2984216307	0.0150974784
4193.2272290037	0.0149934608
4195.1560363768	0.0150091955
4197.0848437498	0.0149156153
4199.0136511229	0.0148604251
4200.9424584959	0.0148662385
4202.8712658690	0.0148226134
4204.8000732420	0.0147919096
4206.7288806151	0.0147443963
4208.6576879881	0.0147359874
4210.5864953611	0.0146061927
4212.5153027342	0.0146014597
4214.4441101072	0.0145470528
4216.3729174803	0.0145264324
4218.3017248533	0.0145811224
4220.2305322264	0.0144508276
4222.1593395994	0.0143996058
4224.0881469725	0.0143340444
4226.0169543455	0.0142926313
4227.9457617186	0.0143004861
4229.8745690916	0.0143489726
4231.8033764647	0.0143001396
4233.7321838377	0.0142214317
4235.6609912108	0.0141948014
4237.5897985838	0.0141936140
4239.5186059569	0.0142063433
4241.4474133299	0.0140554458
4243.3762207029	0.0140728047
4245.3050280760	0.0140339267
4247.2338354490	0.0140344519
4249.1626428221	0.0140024303
4251.0914501951	0.0138855111
4253.0202575682	0.0139639471
4254.9490649412	0.0137768295
4256.8778723143	0.0137818661
4258.8066796873	0.0137748010
4260.7354870604	0.0136821987
4262.6642944334	0.0137173161
4264.5931018065	0.0136203766
4266.5219091795	0.0136162657
4268.4507165526	0.0135389054
4270.3795239256	0.0135962144
4272.3083312986	0.0135283247
4274.2371386717	0.0134822242
4276.1659460447	0.0135921482
4278.0947534178	0.0134609314
4280.0235607908	0.0134670399
4281.9523681639	0.0134048751
4283.8811755369	0.0133296046
4285.8099829100	0.0133383665
4287.7387902830	0.0132719502
4289.6675976561	0.0132034440
4291.5964050291	0.0131662218
4293.5252124022	0.0131776975
4295.4540197752	0.0131359929
4297.3828271483	0.0130832754
4299.3116345213	0.0130950436
4301.2404418943	0.0131470431
4303.1692492674	0.0130018704
4305.0980566404	0.0129641201
4307.0268640135	0.0130387675
4308.9556713865	0.0129372813
4310.8844787596	0.0128724435
4312.8132861326	0.0127774384
4314.7420935057	0.0127682630
4316.6709008787	0.0128154773
4318.5997082518	0.0127736805
4320.5285156248	0.0127471499
4322.4573229979	0.0127439648
4324.3861303709	0.0126370918
4326.3149377440	0.0126578677
4328.2437451170	0.0126298741
4330.1725524900	0.0124272425
4332.1013598631	0.0125608668
4334.0301672361	0.0124779074
4335.9589746092	0.0123946778
4337.8877819822	0.0124648008
4339.8165893553	0.0123523977
4341.7453967283	0.0124208797
4343.6742041014	0.0123357633
4345.6030114744	0.0122945495
4347.5318188475	0.0123108635
4349.4606262205	0.0122260079
4351.3894335936	0.0121730566
4353.3182409666	0.0121426964
4355.2470483397	0.0121317003
4357.1758557127	0.0120388437
4359.1046630858	0.0120810317
4361.0334704588	0.0121058729
4362.9622778318	0.0120902658
4364.8910852049	0.0119326655
4366.8198925779	0.0119635332
4368.7486999510	0.0121068414
4370.6775073240	0.0118274987
4372.6063146971	0.0117863510
4374.5351220701	0.0117805535
4376.4639294432	0.0117140245
4378.3927368162	0.0117519563
4380.3215441893	0.0117540183
4382.2503515623	0.0117280576
4384.1791589354	0.0116313631
4386.1079663084	0.0116670365
4388.0367736815	0.0115968548
4389.9655810545	0.0116129229
4391.8943884275	0.0116181886
4393.8231958006	0.0114857126
4395.7520031736	0.0114719020
4397.6808105467	0.0114868619
4399.6096179197	0.0114985481
4401.5384252928	0.0113902260
4403.4672326658	0.0113757364
4405.3960400389	0.0113157555
4407.3248474119	0.0112975892
4409.2536547850	0.0113032125
4411.1824621580	0.0112398509
4413.1112695311	0.0113600427
4415.0400769041	0.0112727545
4416.9688842772	0.0112112621
4418.8976916502	0.0111935567
4420.8264990232	0.0110812578
4422.7553063963	0.0110893566
4424.6841137693	0.0111245736
4426.6129211424	0.0110782217
4428.5417285154	0.0109785255
4430.4705358885	0.0110194134
4432.3993432615	0.0109332036
4434.3281506346	0.0108842580
4436.2569580076	0.0109333685
4438.1857653807	0.0109207965
4440.1145727537	0.0109004453
4442.0433801268	0.0107765272
4443.9721874998	0.0108373202
4445.9009948729	0.0108160321
4447.8298022459	0.0107072545
4449.7586096189	0.0107105393
4451.6874169920	0.0106617976
4453.6162243650	0.0106307492
4455.5450317381	0.0105804931
4457.4738391111	0.0105538424
4459.4026464842	0.0104794176
4461.3314538572	0.0105424318
4463.2602612303	0.0105848201
4465.1890686033	0.0104167080
4467.1178759764	0.0104128756
4469.0466833494	0.0104132751
4470.9754907225	0.0103868833
4472.9042980955	0.0103939548
4474.8331054686	0.0103889555
4476.7619128416	0.0103689693
4478.6907202147	0.0102826953
4480.6195275877	0.0102793742
4482.5483349607	0.0102466922
4484.4771423338	0.0101653058
4486.4059497068	0.0101489583
4488.3347570799	0.0101119680
4490.2635644529	0.0100847976
4492.1923718260	0.0099941408
4494.1211791990	0.0099471919
4496.0499865721	0.0100592831
4497.9787939451	0.0099789826
4499.9076013182	0.0098973084
4501.8364086912	0.0099687707
4503.7652160643	0.0099103488
4505.6940234373	0.0099265706
4507.6228308104	0.0098881628
4509.5516381834	0.0097833555
4511.4804455564	0.0097887851
4513.4092529295	0.0097320061
4515.3380603025	0.0098239239
4517.2668676756	0.0098009910
4519.1956750486	0.0096274298
4521.1244824217	0.0096587567
4523.0532897947	0.0096210884
4524.9820971678	0.0096354028
4526.9109045408	0.0096343942
4528.8397119139	0.0095740724
4530.7685192869	0.0095932093
4532.6973266600	0.0094729792
4534.6261340330	0.0094632525
4536.5549414061	0.0094678178
4538.4837487791	0.0094277356
4540.4125561521	0.0094584469
4542.3413635252	0.0093690809
4544.2701708982	0.0093764160
4546.1989782713	0.0093870061
4548.1277856443	0.0093066730
4550.0565930174	0.0092848195
4551.9854003904	0.0092944084
4553.9142077635	0.0093013942
4555.8430151365	0.0091936570
4557.7718225096	0.0091327988
4559.7006298826	0.0091735804
4561.6294372557	0.0090806745
4563.5582446287	0.0090314373
4565.4870520018	0.0090956409
4567.4158593748	0.0090086758
4569.3446667478	0.0089663547
4571.2734741209	0.0090422388
4573.2022814939	0.0090529248
4575.1310888670	0.0089556798
4577.0598962400	0.0088804904
4578.9887036131	0.0089330319
4580.9175109861	0.0088646635
4582.8463183592	0.0088606952
4584.7751257322	0.0088500958
4586.7039331053	0.0087710125
4588.6327404783	0.0088597517
4590.5615478514	0.0087833200
4592.4903552244	0.0086738169
4594.4191625975	0.0086946031
4596.3479699705	0.0087378146
4598.2767773435	0.0086741084
4600.2055847166	0.0086277332
4602.1343920896	0.0086512361
4604.0631994627	0.0085378587
4605.9920068357	0.0085496595
4607.9208142088	0.0085439831
4609.8496215818	0.0085034557
4611.7784289549	0.0084491111
4613.7072363279	0.0084397048
4615.6360437010	0.0085340329
4617.5648510740	0.0084410924
4619.4936584471	0.0084278435
4621.4224658201	0.0084055588
4623.3512731932	0.0083944984
4625.2800805662	0.0083462801
4627.2088879393	0.0082253730
4629.1376953123	0.0083068386
4631.0665026853	0.0082670245
4632.9953100584	0.0082283579
4634.9241174314	0.0082501508
4636.8529248045	0.0082129594
4638.7817321775	0.0082068518
4640.7105395506	0.0081697945
4642.6393469236	0.0081045665
4644.5681542967	0.0081270561
4646.4969616697	0.0081086010
4648.4257690428	0.0080505926
4650.3545764158	0.0081178239
4652.2833837889	0.0079792570
4654.2121911619	0.0079524759
4656.1409985350	0.0080157463
4658.0698059080	0.0079223905
4659.9986132810	0.0079358630
4661.9274206541	0.0079407040
4663.8562280271	0.0079485364
4665.7850354002	0.0078434516
4667.7138427732	0.0078731952
4669.6426501463	0.0078946725
4671.5714575193	0.0078330245
4673.5002648924	0.0078289835
4675.4290722654	0.0077271839
4677.3578796385	0.0077932170
4679.2866870115	0.0076934798
4681.2154943846	0.0076972297
4683.1443017576	0.0077260286
4685.0731091307	0.0076038903
4687.0019165037	0.0077118650
4688.9307238767	0.0076596444
4690.8595312498	0.0076181255
4692.7883386228	0.0075595407
4694.7171459959	0.0075027253
4696.6459533689	0.0075002266
4698.5747607420	0.0074788043
4700.5035681150	0.0075090453
4702.4323754881	0.0075024483
4704.3611828611	0.0075221276
4706.2899902342	0.0073779412
4708.2187976072	0.0073839435
4710.1476049803	0.0073902309
4712.0764123533	0.0073208208
4714.0052197264	0.0074050650
4715.9340270994	0.0073325085
4717.8628344724	0.0073150364
4719.7916418455	0.0073162941
4721.7204492185	0.0072884951
4723.6492565916	0.0072739441
4725.5780639646	0.0072591528
4727.5068713377	0.0072320648
4729.4356787107	0.0071975063
4731.3644860838	0.0072333459
4733.2932934568	0.0072050886
4735.2221008299	0.0071273749
4737.1509082029	0.0070974776
4739.0797155760	0.0071580741
4741.0085229490	0.0070792995
4742.9373303221	0.0070902947
4744.8661376951	0.0070709167
4746.7949450682	0.0069827372
4748.7237524412	0.0071088658
4750.6525598142	0.0069679189
4752.5813671873	0.0068993592
4754.5101745603	0.0068915323
4756.4389819334	0.0068894560
4758.3677893064	0.0069240844
4760.2965966795	0.0068290383
4762.2254040525	0.0068930192
4764.1542114256	0.0068333652
4766.0830187986	0.0068547796
4768.0118261717	0.0067933630
4769.9406335447	0.0067151212
4771.8694409178	0.0068072136
4773.7982482908	0.0067097628
4775.7270556639	0.0066956719
4777.6558630369	0.0066840602
4779.5846704099	0.0067199767
4781.5134777830	0.0067061968
4783.4422851560	0.0066657206
4785.3710925291	0.0066335564
4787.2998999021	0.0066254241
4789.2287072752	0.0066848062
4791.1575146482	0.0065290234
4793.0863220213	0.0065935636
4795.0151293943	0.0065671951
4796.9439367674	0.0064547840
4798.8727441404	0.0064846328
4800.8015515135	0.0063859536
4802.7303588865	0.0064775292
4804.6591662596	0.0064970674
4806.5879736326	0.0064636152
4808.5167810056	0.0064504324
4810.4455883787	0.0063861078
4812.3743957517	0.0064011575
4814.3032031248	0.0064080264
4816.2320104978	0.0063461708
4818.1608178709	0.0062147584
4820.0896252439	0.0062845415
4822.0184326170	0.0063331081
4823.9472399900	0.0062642624
4825.8760473631	0.0062956717
4827.8048547361	0.0062501431
4829.7336621092	0.0061721504
4831.6624694822	0.0062032007
4833.5912768553	0.0062107970
4835.5200842283	0.0061228951
4837.4488916013	0.0061200196
4839.3776989744	0.0061317924
4841.3065063474	0.0060613509
4843.2353137205	0.0060437396
4845.1641210935	0.0060621528
4847.0929284666	0.0060414840
4849.0217358396	0.0060894629
4850.9505432127	0.0060727075
4852.8793505857	0.0059870398
4854.8081579588	0.0060413112
4856.7369653318	0.0059555462
4858.6657727049	0.0059166225
4860.5945800779	0.0060175299
4862.5233874510	0.0059794262
4864.4521948240	0.0058829803
4866.3810021971	0.0058828965
4868.3098095701	0.0059906533
4870.2386169431	0.0058924961
4872.1674243162	0.0058315629
4874.0962316892	0.0058738338
4876.0250390623	0.0058562756
4877.9538464353	0.0058569084
4879.8826538084	0.0057430970
4881.8114611814	0.0057438146
4883.7402685545	0.0057612108
4885.6690759275	0.0056899320
4887.5978833006	0.0057013771
4889.5266906736	0.0057711797
4891.4554980467	0.0057400204
4893.3843054197	0.0056582959
4895.3131127928	0.0057049417
4897.2419201658	0.0056396835
4899.1707275388	0.0056311721
4901.0995349119	0.0056241183
4903.0283422849	0.0055410573
4904.9571496580	0.0056214239
4906.8859570310	0.0055725751
4908.8147644041	0.0055172425
4910.7435717771	0.0055268710
4912.6723791502	0.0054767583
4914.6011865232	0.0054797819
4916.5299938963	0.0054628039
4918.4588012693	0.0054558553
4920.3876086424	0.0054542040
4922.3164160154	0.0054316395
4924.2452233885	0.0054474398
4926.1740307615	0.0054245889
4928.1028381345	0.0053693624
4930.0316455076	0.0053649871
4931.9604528806	0.0054288292
4933.8892602537	0.0054362435
4935.8180676267	0.0053229202
4937.7468749998	0.0053131194
4939.6756823728	0.0052870978
4941.6044897459	0.0052483175
4943.5332971189	0.0053169439
4945.4621044920	0.0052556582
4947.3909118650	0.0052427445
4949.3197192381	0.0052741910
4951.2485266111	0.0051995837
4953.1773339842	0.0051535275
4955.1061413572	0.0051840674
4957.0349487302	0.0051809885
4958.9637561033	0.0051404834
4960.8925634763	0.0051307632
4962.8213708494	0.0050654262
4964.7501782224	0.0051492099
4966.6789855955	0.0051324740
4968.6077929685	0.0050325235
4970.5366003416	0.0050935498
4972.4654077146	0.0049671740
4974.3942150877	0.0049583511
4976.3230224607	0.0050108079
4978.2518298338	0.0049726912
4980.1806372068	0.0049433904
4982.1094445799	0.0048521571
4984.0382519529	0.0049325582
4985.9670593259	0.0049846703
4987.8958666990	0.0049299509
4989.8246740720	0.0048928079
4991.7534814451	0.0049026473
4993.6822888181	0.0049318830
4995.6110961912	0.0048802351
4997.5399035642	0.0048622605
4999.4687109373	0.0048304703
5001.3975183103	0.0047710566
5003.3263256834	0.0047625569
5005.2551330564	0.0047605336
5007.1839404295	0.0047277883
5009.1127478025	0.0047216294
5011.0415551756	0.0047288742
5012.9703625486	0.0046955403
5014.8991699217	0.0046771895
5016.8279772947	0.0046871714
5018.7567846677	0.0046647750
5020.6855920408	0.0046212990
5022.6143994138	0.0046415809
5024.5432067869	0.0046580769
5026.4720141599	0.0046717059
5028.4008215330	0.0046413196
5030.3296289060	0.0046074651
5032.2584362791	0.0046113869
5034.1872436521	0.0045399424
5036.1160510252	0.0045145564
5038.0448583982	0.0045117624
5039.9736657713	0.0045584990
5041.9024731443	0.0045419410
5043.8312805174	0.0044633839
5045.7600878904	0.0044785002
5047.6888952634	0.0044896374
5049.6177026365	0.0045126802
5051.5465100095	0.0044007869
5053.4753173826	0.0044106357
5055.4041247556	0.0044406415
5057.3329321287	0.0043602614
5059.2617395017	0.0044371272
5061.1905468748	0.0043746596
5063.1193542478	0.0043675234
5065.0481616209	0.0043400358
5066.9769689939	0.0043109506
5068.9057763670	0.0044100499
5070.8345837400	0.0042928383
5072.7633911131	0.0043061846
5074.6921984861	0.0043211472
5076.6210058591	0.0042464091
5078.5498132322	0.0043300046
5080.4786206052	0.0042784847
5082.4074279783	0.0041905586
5084.3362353513	0.0042487513
5086.2650427244	0.0042464957
5088.1938500974	0.0041781105
5090.1226574705	0.0041685551
5092.0514648435	0.0041391407
5093.9802722166	0.0041559450
5095.9090795896	0.0041833436
5097.8378869627	0.0041466327
5099.7666943357	0.0041547157
5101.6955017088	0.0041090609
5103.6243090818	0.0040483121
5105.5531164548	0.0040496928
5107.4819238279	0.0040426110
5109.4107312009	0.0040532383
5111.3395385740	0.0041016405
5113.2683459470	0.0040700790
5115.1971533201	0.0039768205
5117.1259606931	0.0039333981
5119.0547680662	0.0039312714
5120.9835754392	0.0040301606
5122.9123828123	0.0040341737
5124.8411901853	0.0039400049
5126.7699975584	0.0039182864
5128.6988049314	0.0038770449
5130.6276123045	0.0039324160
5132.5564196775	0.0039170752
5134.4852270506	0.0038811676
5136.4140344236	0.0039614150
5138.3428417966	0.0038733594
5140.2716491697	0.0038295030
5142.2004565427	0.0038552023
5144.1292639158	0.0038985112
5146.0580712888	0.0039080163
5147.9868786619	0.0037827576
5149.9156860349	0.0038167760
5151.8444934080	0.0038238249
5153.7733007810	0.0037575082
5155.7021081541	0.0037153848
5157.6309155271	0.0037368978
5159.5597229002	0.0038227125
5161.4885302732	0.0037579641
5163.4173376463	0.0037804870
5165.3461450193	0.0037389637
5167.2749523923	0.0036909895
5169.2037597654	0.0037378599
5171.1325671384	0.0036488180
5173.0613745115	0.0036843908
5174.9901818845	0.0036742482
5176.9189892576	0.0036876588
5178.8477966306	0.0037602135
5180.7766040037	0.0036880439
5182.7054113767	0.0036095425
5184.6342187498	0.0035418237
5186.5630261228	0.0036056889
5188.4918334959	0.0036282556
5190.4206408689	0.0036255056
5192.3494482420	0.0036535072
5194.2782556150	0.0036118906
5196.2070629880	0.0036186953
5198.1358703611	0.0035526834
5200.0646777341	0.0035098486
5201.9934851072	0.0035243169
5203.9222924802	0.0035147096
5205.8510998533	0.0035048816
5207.7799072263	0.0034341458
5209.7087145994	0.0034064427
5211.6375219724	0.0034222468
5213.5663293455	0.0034058415
5215.4951367185	0.0034442004
5217.4239440916	0.0034857071
5219.3527514646	0.0033765878
5221.2815588377	0.0033333162
5223.2103662107	0.0034314427
5225.1391735837	0.0033621108
5227.0679809568	0.0033136015
5228.9967883298	0.0034062671
5230.9255957029	0.0033810609
5232.8544030759	0.0034067433
5234.7832104490	0.0033544137
5236.7120178220	0.0032512469
5238.6408251951	0.0033794960
5240.5696325681	0.0033734692
5242.4984399412	0.0032828872
5244.4272473142	0.0032071094
5246.3560546873	0.0032562853
5248.2848620603	0.0032554539
5250.2136694334	0.0031176759
5252.1424768064	0.0033104005
5254.0712841795	0.0032536648
5256.0000915525	0.0031766500
5257.9288989255	0.0032596746
5259.8577062986	0.0031785257
5261.7865136716	0.0032377578
5263.7153210447	0.0031577561
5265.6441284177	0.0032135816
5267.5729357908	0.0031928224
5269.5017431638	0.0030630836
5271.4305505369	0.0031832170
5273.3593579099	0.0032090978
5275.2881652830	0.0032180243
5277.2169726560	0.0031300569
5279.1457800291	0.0031077475
5281.0745874021	0.0030753405
5283.0033947752	0.0030920710
5284.9322021482	0.0031898618
5286.8610095212	0.0030696285
5288.7898168943	0.0030279811
5290.7186242673	0.0030067158
5292.6474316404	0.0030554482
5294.5762390134	0.0030908920
5296.5050463865	0.0030729468
5298.4338537595	0.0030597895
5300.3626611326	0.0030340515
5302.2914685056	0.0030238866
5304.2202758787	0.0029620891
5306.1490832517	0.0030238098
5308.0778906248	0.0029046377
5310.0066979978	0.0029284516
5311.9355053709	0.0030297581
5313.8643127439	0.0029276705
5315.7931201169	0.0029692838
5317.7219274900	0.0028832143
5319.6507348630	0.0029637301
5321.5795422361	0.0029804620
5323.5083496091	0.0028956968
5325.4371569822	0.0029701008
5327.3659643552	0.0028471746
5329.2947717283	0.0028365487
5331.2235791013	0.0028895824
5333.1523864744	0.0028542499
5335.0811938474	0.0028493656
5337.0100012205	0.0028557479
5338.9388085935	0.0027382090
5340.8676159666	0.0027773953
5342.7964233396	0.0029113633
5344.7252307126	0.0027279551
5346.6540380857	0.0027194070
5348.5828454587	0.0028292511
5350.5116528318	0.0028763167
5352.4404602048	0.0027767979
5354.3692675779	0.0026563159
5356.2980749509	0.0027775110
5358.2268823240	0.0027322983
5360.1556896970	0.0027476368
5362.0844970701	0.0027514852
5364.0133044431	0.0026378373
5365.9421118162	0.0027130251
5367.8709191892	0.0027270243
5369.7997265623	0.0026858740
5371.7285339353	0.0026963998
5373.6573413083	0.0026664101
5375.5861486814	0.0026112502
5377.5149560544	0.0026276733
5379.4437634275	0.0025817184
5381.3725708005	0.0025418650
5383.3013781736	0.0026599111
5385.2301855466	0.0026469319
5387.1589929197	0.0025544630
5389.0878002927	0.0026204907
5391.0166076658	0.0026820935
5392.9454150388	0.0025829086
5394.8742224119	0.0025126738
5396.8030297849	0.0025274963
5398.7318371580	0.0025480725
5400.6606445310	0.0026113982
5402.5894519041	0.0025646635
5404.5182592771	0.0024503893
5406.4470666501	0.0025101216
5408.3758740232	0.0025643287
5410.3046813962	0.0025029411
5412.2334887693	0.0025021189
5414.1622961423	0.0024904222
5416.0911035154	0.0024597074
5418.0199108884	0.0024372884
5419.9487182615	0.0024467118
5421.8775256345	0.0024820478
5423.8063330076	0.0024521213
5425.7351403806	0.0024998307
5427.6639477537	0.0024776096
5429.5927551267	0.0024050386
5431.5215624998	0.0024767444
5433.4503698728	0.0024763960
5435.3791772458	0.0023895609
5437.3079846189	0.0023575521
5439.2367919919	0.0023936918
5441.1655993650	0.0024122063
5443.0944067380	0.0024295724
5445.0232141111	0.0024055629
5446.9520214841	0.0023367659
5448.8808288572	0.0023269774
5450.8096362302	0.0023480011
5452.7384436033	0.0024106251
5454.6672509763	0.0023674790
5456.5960583494	0.0023241786
5458.5248657224	0.0023662574
5460.4536730955	0.0022888975
5462.3824804685	0.0022770045
5464.3112878415	0.0023120502
5466.2400952146	0.0023065447
5468.1689025876	0.0023181629
5470.0977099607	0.0022271993
5472.0265173337	0.0022491915
5473.9553247068	0.0023076348
5475.8841320798	0.0022138322
5477.8129394529	0.0022078534
5479.7417468259	0.0022098981
5481.6705541990	0.0022549285
5483.5993615720	0.0022786234
5485.5281689451	0.0022344121
5487.4569763181	0.0022243126
5489.3857836912	0.0021444489
5491.3145910642	0.0021887347
5493.2433984372	0.0021590097
5495.1722058103	0.0021690740
5497.1010131833	0.0022367383
5499.0298205564	0.0021272593
5500.9586279294	0.0022236253
5502.8874353025	0.0022052140
5504.8162426755	0.0021642777
5506.7450500486	0.0022287599
5508.6738574216	0.0021260418
5510.6026647947	0.0021080999
5512.5314721677	0.0021630162
5514.4602795408	0.0021812646
5516.3890869138	0.0020959361
5518.3178942869	0.0021174410
5520.2467016599	0.0020978455
5522.1755090330	0.0020439695
5524.1043164060	0.0020938739
5526.0331237790	0.0020458079
5527.9619311521	0.0021309366
5529.8907385251	0.0020749941
5531.8195458982	0.0020336900
5533.7483532712	0.0021145563
5535.6771606443	0.0020789611
5537.6059680173	0.0020908243
5539.5347753904	0.0019729133
5541.4635827634	0.0019755447
5543.3923901365	0.0020059547
5545.3211975095	0.0019876468
5547.2500048826	0.0020244322
5549.1788122556	0.0019892922
5551.1076196287	0.0020650222
5553.0364270017	0.0020265337
5554.9652343747	0.0019650511
5556.8940417478	0.0019851825
5558.8228491208	0.0020132568
5560.7516564939	0.0020397680
5562.6804638669	0.0019533560
5564.6092712400	0.0019622478
5566.5380786130	0.0019779713
5568.4668859861	0.0019788772
5570.3956933591	0.0019830749
5572.3245007322	0.0019333262
5574.2533081052	0.0019144600
5576.1821154783	0.0018842749
5578.1109228513	0.0019319155
5580.0397302244	0.0019253481
5581.9685375974	0.0018650996
5583.8973449704	0.0019107910
5585.8261523435	0.0019249927
5587.7549597165	0.0019251941
5589.6837670896	0.0019253126
5591.6125744626	0.0019064662
5593.5413818357	0.0018626512
5595.4701892087	0.0018263268
5597.3989965818	0.0018820281
5599.3278039548	0.0018697395
5601.2566113279	0.0018033588
5603.1854187009	0.0017805590
5605.1142260740	0.0018028296
5607.0430334470	0.0018748844
5608.9718408201	0.0018485622
5610.9006481931	0.0018039427
5612.8294555661	0.0017867782
5614.7582629392	0.0018235050
5616.6870703122	0.0018481966
5618.6158776853	0.0017327134
5620.5446850583	0.0017660565
5622.4734924314	0.0018079320
5624.4022998044	0.0017897559
5626.3311071775	0.0017976952
5628.2599145505	0.0017526639
5630.1887219236	0.0017980363
5632.1175292966	0.0017259805
5634.0463366697	0.0016877230
5635.9751440427	0.0017670311
5637.9039514158	0.0017684089
5639.8327587888	0.0017899431
5641.7615661619	0.0017483018
5643.6903735349	0.0017365689
5645.6191809079	0.0017032964
5647.5479882810	0.0017027184
5649.4767956540	0.0016991838
5651.4056030271	0.0016186761
5653.3344104001	0.0016964214
5655.2632177732	0.0016574919
5657.1920251462	0.0016423329
5659.1208325193	0.0017278745
5661.0496398923	0.0017359939
5662.9784472654	0.0017261781
5664.9072546384	0.0016486584
5666.8360620115	0.0016770081
5668.7648693845	0.0016217895
5670.6936767576	0.0016103629
5672.6224841306	0.0016698018
5674.5512915036	0.0016326858
5676.4800988767	0.0016567106
5678.4089062497	0.0015431654
5680.3377136228	0.0015961535
5682.2665209958	0.0016291064
5684.1953283689	0.0015567796
5686.1241357419	0.0016475373
5688.0529431150	0.0015824471
5689.9817504880	0.0015969042
5691.9105578611	0.0015603680
5693.8393652341	0.0015335790
5695.7681726072	0.0015940184
5697.6969799802	0.0015258045
5699.6257873533	0.0015613942
5701.5545947263	0.0015411724
5703.4834020993	0.0015656875
5705.4122094724	0.0015371963
5707.3410168454	0.0014737182
5709.2698242185	0.0015715775
5711.1986315915	0.0015243025
5713.1274389646	0.0015024806
5715.0562463376	0.0015784638
5716.9850537107	0.0015778838
5718.9138610837	0.0014887701
5720.8426684568	0.0014528406
5722.7714758298	0.0014853640
5724.7002832029	0.0015174676
5726.6290905759	0.0015202225
5728.5578979490	0.0014665900
5730.4867053220	0.0015031940
5732.4155126950	0.0014743914
5734.3443200681	0.0014703204
5736.2731274411	0.0015231172
5738.2019348142	0.0014999721
5740.1307421872	0.0015396008
5742.0595495603	0.0014760669
5743.9883569333	0.0014264656
5745.9171643064	0.0014887714
5747.8459716794	0.0014197966
5749.7747790525	0.0013462182
5751.7035864255	0.0014370540
5753.6323937986	0.0014484696
5755.5612011716	0.0013911773
5757.4900085447	0.0014017593
5759.4188159177	0.0013928801
5761.3476232907	0.0014262588
5763.2764306638	0.0014118198
5765.2052380368	0.0014268614
5767.1340454099	0.0014199355
5769.0628527829	0.0013719341
5770.9916601560	0.0013972989
5772.9204675290	0.0013390466
5774.8492749021	0.0013609717
5776.7780822751	0.0013588385
5778.7068896482	0.0013467246
5780.6356970212	0.0014316649
5782.5645043943	0.0013909766
5784.4933117673	0.0013130731
5786.4221191404	0.0013426611
5788.3509265134	0.0013936427
5790.2797338865	0.0013370930
5792.2085412595	0.0013062651
5794.1373486325	0.0012906089
5796.0661560056	0.0013209349
5797.9949633786	0.0013155597
5799.9237707517	0.0012707269
5801.8525781247	0.0013622252
5803.7813854978	0.0013423918
5805.7101928708	0.0013184611
5807.6390002439	0.0012951740
5809.5678076169	0.0012950827
5811.4966149900	0.0013026678
5813.4254223630	0.0012367106
5815.3542297361	0.0013356751
5817.2830371091	0.0013200459
5819.2118444822	0.0012142420
5821.1406518552	0.0012312648
5823.0694592282	0.0013035319
5824.9982666013	0.0012632428
5826.9270739743	0.0012056851
5828.8558813474	0.0012671670
5830.7846887204	0.0012370215
5832.7134960935	0.0012564786
5834.6423034665	0.0012249777
5836.5711108396	0.0011909368
5838.4999182126	0.0012134751
5840.4287255857	0.0011989209
5842.3575329587	0.0012204766
5844.2863403318	0.0011293207
5846.2151477048	0.0011178595
5848.1439550779	0.0011748471
5850.0727624509	0.0012074920
5852.0015698239	0.0011898745
5853.9303771970	0.0011561215
5855.8591845700	0.0012001316
5857.7879919431	0.0011699386
5859.7167993161	0.0011172022
5861.6456066892	0.0011221601
5863.5744140622	0.0012254447
5865.5032214353	0.0011872926
5867.4320288083	0.0011308186
5869.3608361814	0.0012094816
5871.2896435544	0.0012130685
5873.2184509275	0.0011907504
5875.1472583005	0.0010904419
5877.0760656736	0.0011000659
5879.0048730466	0.0011027013
5880.9336804196	0.0010473451
5882.8624877927	0.0010690603
5884.7912951657	0.0010588052
5886.7201025388	0.0010931704
5888.6489099118	0.0010928079
5890.5777172849	0.0011124798
5892.5065246579	0.0010568274
5894.4353320310	0.0010558900
5896.3641394040	0.0011318449
5898.2929467771	0.0010718871
5900.2217541501	0.0011219967
5902.1505615232	0.0011092949
5904.0793688962	0.0010740929
5906.0081762693	0.0010945579
5907.9369836423	0.0010340631
5909.8657910154	0.0010687553
5911.7945983884	0.0010733489
5913.7234057614	0.0010037868
5915.6522131345	0.0010461011
5917.5810205075	0.0010479393
5919.5098278806	0.0010058634
5921.4386352536	0.0010817918
5923.3674426267	0.0010474575
5925.2962499997	0.0010269253
5927.2250573728	0.0010792256
5929.1538647458	0.0010020047
5931.0826721189	0.0010096021
5933.0114794919	0.0010689106
5934.9402868650	0.0010403863
5936.8690942380	0.0009757621
5938.7979016111	0.0009388286
5940.7267089841	0.0009571634
5942.6555163571	0.0010417518
5944.5843237302	0.0010334500
5946.5131311032	0.0009740775
5948.4419384763	0.0010289353
5950.3707458493	0.0009624404
5952.2995532224	0.0009436440
5954.2283605954	0.0010224353
5956.1571679685	0.0010183260
5958.0859753415	0.0009680300
5960.0147827146	0.0008828433
5961.9435900876	0.0009564045
5963.8723974607	0.0010067327
5965.8012048337	0.0009603733
5967.7300122068	0.0009924672
5969.6588195798	0.0009312535
5971.5876269528	0.0008973064
5973.5164343259	0.0009886676
5975.4452416989	0.0009173158
5977.3740490720	0.0009125728
5979.3028564450	0.0010158416
5981.2316638181	0.0009356766
5983.1604711911	0.0009720341
5985.0892785642	0.0009915817
5987.0180859372	0.0009319806
5988.9468933103	0.0009213653
5990.8757006833	0.0008964698
5992.8045080564	0.0009766563
5994.7333154294	0.0009103465
5996.6621228025	0.0008948386
5998.5909301755	0.0009686224
6000.5197375485	0.0008792367
