399.2631262207	0.0015857760
401.1919335938	0.0020683766
403.1207409668	0.0019641626
405.0495483398	0.0024376833
406.9783557129	0.0029006114
408.9071630859	0.0025464618
410.8359704590	0.0025893163
412.7647778320	0.0027035328
414.6935852051	0.0024594821
416.6223925781	0.0029901229
418.5511999512	0.0029509156
420.4800073242	0.0026356811
422.4088146973	0.0033652633
424.3376220703	0.0032536220
426.2664294434	0.0033622384
428.1952368164	0.0031563449
430.1240441895	0.0026954068
432.0528515625	0.0034843031
433.9816589355	0.0030997423
435.9104663086	0.0026899958
437.8392736816	0.0032233885
439.7680810547	0.0032476988
441.6968884277	0.0028823800
443.6256958008	0.0024289959
445.5545031738	0.0023283642
447.4833105469	0.0027131282
449.4121179199	0.0025242278
451.3409252930	0.0020486296
453.2697326660	0.0025425144
455.1985400391	0.0023547625
457.1273474121	0.0018427256
459.0561547852	0.0018112258
460.9849621582	0.0014087544
462.9137695313	0.0014553650
464.8425769043	0.0017531525
466.7713842773	0.0016690358
468.7001916504	0.0013335894
470.6289990234	0.0013408154
472.5578063965	0.0012880571
474.4866137695	0.0011277741
476.4154211426	0.0009760547
478.3442285156	0.0008458019
480.2730358887	0.0008895036
482.2018432617	0.0003765674
484.1306506348	0.0004330307
486.0594580078	0.0006518076
487.9882653809	0.0007101130
489.9170727539	0.0008954992
491.8458801270	0.0004126729
493.7746875000	0.0003145691
495.7034948730	0.0009139650
497.6323022461	0.0009323850
499.5611096191	0.0002372912
501.4899169922	0.0005789741
503.4187243652	0.0003989418
505.3475317383	0.0000362437
507.2763391113	0.0004798492
509.2051464844	0.0000466458
511.1339538574	0.0003624558
513.0627612305	0.0003086025
514.9915686035	0.0002750886
516.9203759766	0.0001730413
518.8491833496	0.0001172406
520.7779907227	0.0003235117
522.7067980957	0.0002917586
524.6356054688	0.0003430722
526.5644128418	-0.0000928528
528.4932202148	0.0006607310
530.4220275879	0.0008222405
532.3508349609	-0.0000361501
534.2796423340	0.0001702432
536.2084497070	0.0004096825
538.1372570801	0.0003265293
540.0660644531	0.0001541652
541.9948718262	0.0001282804
543.9236791992	0.0004257604
545.8524865723	0.0006489175
547.7812939453	0.0002536898
549.7101013184	0.0002935124
551.6389086914	0.0006180553
553.5677160645	0.0001733153
555.4965234375	0.0003167864
557.4253308105	0.0001889072
559.3541381836	-0.0000357832
561.2829455566	0.0001070113
563.2117529297	0.0001034593
565.1405603027	0.0000760319
567.0693676758	0.0000663581
568.9981750488	0.0005576038
570.9269824219	0.0000920169
572.8557897949	0.0001145251
574.7845971680	0.0004619088
576.7134045410	0.0000467923
578.6422119141	0.0004614303
580.5710192871	0.0003870642
582.4998266602	0.0000646504
584.4286340332	0.0002483936
586.3574414063	0.0004812632
588.2862487793	0.0003062710
590.2150561523	0.0003344971
592.1438635254	0.0004796704
594.0726708984	0.0001684375
596.0014782715	0.0004565599
597.9302856445	0.0001027370
599.8590930176	-0.0003419337
601.7879003906	0.0000880804
603.7167077637	-0.0000166941
605.6455151367	-0.0001082638
607.5743225098	0.0002139934
609.5031298828	0.0001815341
611.4319372559	-0.0001442335
613.3607446289	-0.0000877508
615.2895520020	0.0001570101
617.2183593750	0.0002126125
619.1471667480	-0.0000676356
621.0759741211	0.0000071976
623.0047814941	0.0001632678
624.9335888672	0.0000231909
626.8623962402	-0.0001175951
628.7912036133	0.0000413460
630.7200109863	0.0006331724
632.6488183594	0.0012243225
634.5776257324	0.0017579026
636.5064331055	0.0020528496
638.4352404785	0.0021078992
640.3640478516	0.0019712711
642.2928552246	0.0022826421
644.2216625977	0.0029369947
646.1504699707	0.0030993801
648.0792773438	0.0033934878
650.0080847168	0.0031518093
651.9368920898	0.0034613907
653.8656994629	0.0039656102
655.7945068359	0.0036429767
657.7233142090	0.0044216732
659.6521215820	0.0045768595
661.5809289551	0.0044046436
663.5097363281	0.0049617304
665.4385437012	0.0048767244
667.3673510742	0.0045886119
669.2961584473	0.0048753312
671.2249658203	0.0057335487
673.1537731934	0.0058634738
675.0825805664	0.0057278429
677.0113879395	0.0058051795
678.9401953125	0.0058005382
680.8690026855	0.0060367463
682.7978100586	0.0060541728
684.7266174316	0.0060390364
686.6554248047	0.0061349389
688.5842321777	0.0061418349
690.5130395508	0.0061457055
692.4418469238	0.0064042546
694.3706542969	0.0067750635
696.2994616699	0.0077282083
698.2282690430	0.0090632662
700.1570764160	0.0096176341
702.0858837891	0.0092306016
704.0146911621	0.0084812269
705.9434985352	0.0082092304
707.8723059082	0.0069391774
709.8011132813	0.0052867895
711.7299206543	0.0041600671
713.6587280273	0.0021990505
715.5875354004	0.0011208251
717.5163427734	0.0008906473
719.4451501465	0.0004994750
721.3739575195	0.0003709379
723.3027648926	0.0004448822
725.2315722656	0.0002570597
727.1603796387	-0.0001479525
729.0891870117	0.0003183282
731.0179943848	0.0003619322
732.9468017578	-0.0000200679
734.8756091309	0.0001963269
736.8044165039	0.0000280630
738.7332238770	0.0000178299
740.6620312500	0.0001099461
742.5908386230	0.0000457613
744.5196459961	0.0001519566
746.4484533691	0.0003845077
748.3772607422	0.0004966918
750.3060681152	0.0003760048
752.2348754883	0.0005310959
754.1636828613	0.0003765895
756.0924902344	0.0002341457
758.0212976074	0.0003672434
759.9501049805	0.0003968199
761.8789123535	0.0003844613
763.8077197266	0.0003526561
765.7365270996	0.0005248241
767.6653344727	0.0004706443
769.5941418457	0.0002487329
771.5229492188	0.0003059567
773.4517565918	0.0006975662
775.3805639648	0.0006955484
777.3093713379	0.0003653223
779.2381787109	0.0005565340
781.1669860840	0.0004938251
783.0957934570	0.0004190316
785.0246008301	0.0008274015
786.9534082031	0.0008282459
788.8822155762	0.0004674114
790.8110229492	0.0003088693
792.7398303223	0.0006201943
794.6686376953	0.0005902196
796.5974450684	0.0006988363
798.5262524414	0.0014023611
800.4550598145	0.0012531998
802.3838671875	0.0010984972
804.3126745605	0.0010475672
806.2414819336	0.0009429930
808.1702893066	0.0008186190
810.0990966797	0.0004665597
812.0279040527	0.0007773830
813.9567114258	0.0005032758
815.8855187988	0.0005426364
817.8143261719	0.0006884559
819.7431335449	0.0001724220
821.6719409180	0.0004949163
823.6007482910	0.0006268993
825.5295556641	0.0010127956
827.4583630371	0.0013409921
829.3871704102	0.0012490914
831.3159777832	0.0015848442
833.2447851563	0.0017860858
835.1735925293	0.0017525316
837.1023999023	0.0018006586
839.0312072754	0.0021774573
840.9600146484	0.0020916373
842.8888220215	0.0018510125
844.8176293945	0.0017949501
846.7464367676	0.0017500576
848.6752441406	0.0015828573
850.6040515137	0.0013681268
852.5328588867	0.0013562876
854.4616662598	0.0009644956
856.3904736328	0.0008825327
858.3192810059	0.0008134263
860.2480883789	0.0008854209
862.1768957520	0.0009936539
864.1057031250	0.0005999004
866.0345104980	0.0006196774
867.9633178711	0.0006946848
869.8921252441	0.0010370868
871.8209326172	0.0008558552
873.7497399902	0.0002458913
875.6785473633	0.0003021777
877.6073547363	0.0002820654
879.5361621094	0.0004735448
881.4649694824	0.0005963488
883.3937768555	0.0004518692
885.3225842285	0.0005535714
887.2513916016	0.0005205220
889.1801989746	0.0006001586
891.1090063477	0.0007830624
893.0378137207	0.0003993787
894.9666210938	0.0003232435
896.8954284668	0.0008045299
898.8242358398	0.0006575995
900.7530432129	0.0005727616
902.6818505859	0.0005826725
904.6106579590	0.0004987188
906.5394653320	0.0006079268
908.4682727051	0.0006887306
910.3970800781	0.0010031740
912.3258874512	0.0010569016
914.2546948242	0.0011062440
916.1835021973	0.0011645089
918.1123095703	0.0013927406
920.0411169434	0.0014588443
921.9699243164	0.0013326926
923.8987316895	0.0017351154
925.8275390625	0.0016443096
927.7563464355	0.0019245080
929.6851538086	0.0023740865
931.6139611816	0.0023942839
933.5427685547	0.0025478420
935.4715759277	0.0023538973
937.4003833008	0.0025019250
939.3291906738	0.0029939278
941.2579980469	0.0031231041
943.1868054199	0.0029554865
945.1156127930	0.0029814891
947.0444201660	0.0029447321
948.9732275391	0.0029724478
950.9020349121	0.0031818831
952.8308422852	0.0031011184
954.7596496582	0.0028804312
956.6884570313	0.0026211950
958.6172644043	0.0029043946
960.5460717773	0.0029778951
962.4748791504	0.0028368537
964.4036865234	0.0028041885
966.3324938965	0.0028899198
968.2613012695	0.0035065217
970.1901086426	0.0033863517
972.1189160156	0.0035570827
974.0477233887	0.0039360831
975.9765307617	0.0038662120
977.9053381348	0.0045295525
979.8341455078	0.0048717968
981.7629528809	0.0050745471
983.6917602539	0.0058541810
985.6205676270	0.0065507437
987.5493750000	0.0070255874
989.4781823730	0.0078225592
991.4069897461	0.0087149851
993.3357971191	0.0094587887
995.2646044922	0.0105302660
997.1934118652	0.0113611473
999.1222192383	0.0121738594
1001.0510266113	0.0131591707
1002.9798339844	0.0139926858
1004.9086413574	0.0150793176
1006.8374487305	0.0159531794
1008.7662561035	0.0167724118
1010.6950634766	0.0177716836
1012.6238708496	0.0184801035
1014.5526782227	0.0196184069
1016.4814855957	0.0207942165
1018.4102929688	0.0216202922
1020.3391003418	0.0227484517
1022.2679077148	0.0237029046
1024.1967150879	0.0246419758
1026.1255224609	0.0254900940
1028.0543298340	0.0263337661
1029.9831372070	0.0273816120
1031.9119445801	0.0279723220
1033.8407519531	0.0284103639
1035.7695593262	0.0288513266
1037.6983666992	0.0292497985
1039.6271740723	0.0293555539
1041.5559814453	0.0291918647
1043.4847888184	0.0289534908
1045.4135961914	0.0286165699
1047.3424035645	0.0283868313
1049.2712109375	0.0280128866
1051.2000183105	0.0274316296
1053.1288256836	0.0267277975
1055.0576330566	0.0262955800
1056.9864404297	0.0257708579
1058.9152478027	0.0251416229
1060.8440551758	0.0246133059
1062.7728625488	0.0237888955
1064.7016699219	0.0228989460
1066.6304772949	0.0218032822
1068.5592846680	0.0211905874
1070.4880920410	0.0203792788
1072.4168994141	0.0192349683
1074.3457067871	0.0186326876
1076.2745141602	0.0175580140
1078.2033215332	0.0166045167
1080.1321289062	0.0159042850
1082.0609362793	0.0152149871
1083.9897436523	0.0146606257
1085.9185510254	0.0138808917
1087.8473583984	0.0130768586
1089.7761657715	0.0124079362
1091.7049731445	0.0119350534
1093.6337805176	0.0114434808
1095.5625878906	0.0111499606
1097.4913952637	0.0107390918
1099.4202026367	0.0104643656
1101.3490100098	0.0105236694
1103.2778173828	0.0101481248
1105.2066247559	0.0098638944
1107.1354321289	0.0098149534
1109.0642395019	0.0096170269
1110.9930468750	0.0093533136
1112.9218542480	0.0092733130
1114.8506616211	0.0092209382
1116.7794689941	0.0090215020
1118.7082763672	0.0090557411
1120.6370837402	0.0093221106
1122.5658911133	0.0093802027
1124.4946984863	0.0094354628
1126.4235058594	0.0095305983
1128.3523132324	0.0095267557
1130.2811206055	0.0099483645
1132.2099279785	0.0103293974
1134.1387353516	0.0107234959
1136.0675427246	0.0110797528
1137.9963500977	0.0114117404
1139.9251574707	0.0121628372
1141.8539648437	0.0128985159
1143.7827722168	0.0138847139
1145.7115795898	0.0146693783
1147.6403869629	0.0156130455
1149.5691943359	0.0165179763
1151.4980017090	0.0172596052
1153.4268090820	0.0182274915
1155.3556164551	0.0187684931
1157.2844238281	0.0197128206
1159.2132312012	0.0203855671
1161.1420385742	0.0211773328
1163.0708459473	0.0219473429
1164.9996533203	0.0224985108
1166.9284606934	0.0237843581
1168.8572680664	0.0244975053
1170.7860754394	0.0255592801
1172.7148828125	0.0263912324
1174.6436901855	0.0272009522
1176.5724975586	0.0287293307
1178.5013049316	0.0293527357
1180.4301123047	0.0303072091
1182.3589196777	0.0318696238
1184.2877270508	0.0332393497
1186.2165344238	0.0345336199
1188.1453417969	0.0360941663
1190.0741491699	0.0378910080
1192.0029565430	0.0397405177
1193.9317639160	0.0414632075
1195.8605712891	0.0434239879
1197.7893786621	0.0457131416
1199.7181860351	0.0475128703
1201.6469934082	0.0495805815
1203.5758007812	0.0515940487
1205.5046081543	0.0534364618
1207.4334155273	0.0552810133
1209.3622229004	0.0571801402
1211.2910302734	0.0591181442
1213.2198376465	0.0604988933
1215.1486450195	0.0621847063
1217.0774523926	0.0634010732
1219.0062597656	0.0644416362
1220.9350671387	0.0656417981
1222.8638745117	0.0663203448
1224.7926818848	0.0667281523
1226.7214892578	0.0672352761
1228.6502966308	0.0679796487
1230.5791040039	0.0678860396
1232.5079113769	0.0680456758
1234.4367187500	0.0682202578
1236.3655261230	0.0681386590
1238.2943334961	0.0680603534
1240.2231408691	0.0676873177
1242.1519482422	0.0677348077
1244.0807556152	0.0672113970
1246.0095629883	0.0671162382
1247.9383703613	0.0667700768
1249.8671777344	0.0659864545
1251.7959851074	0.0656505078
1253.7247924805	0.0647822022
1255.6535998535	0.0641246587
1257.5824072266	0.0631509870
1259.5112145996	0.0621139705
1261.4400219726	0.0611146204
1263.3688293457	0.0604216307
1265.2976367187	0.0597285479
1267.2264440918	0.0587380454
1269.1552514648	0.0583267957
1271.0840588379	0.0572221503
1273.0128662109	0.0562809706
1274.9416735840	0.0554383993
1276.8704809570	0.0542545468
1278.7992883301	0.0531985760
1280.7280957031	0.0520520806
1282.6569030762	0.0510690883
1284.5857104492	0.0500120372
1286.5145178223	0.0493286550
1288.4433251953	0.0484912321
1290.3721325683	0.0477636755
1292.3009399414	0.0472506061
1294.2297473144	0.0468608066
1296.1585546875	0.0466904491
1298.0873620605	0.0463787578
1300.0161694336	0.0466626585
1301.9449768066	0.0467594340
1303.8737841797	0.0469959453
1305.8025915527	0.0476179942
1307.7313989258	0.0480686575
1309.6602062988	0.0490886122
1311.5890136719	0.0501124561
1313.5178210449	0.0507321060
1315.4466284180	0.0520329177
1317.3754357910	0.0532743931
1319.3042431640	0.0543044247
1321.2330505371	0.0564115383
1323.1618579101	0.0579907857
1325.0906652832	0.0596040189
1327.0194726562	0.0613339990
1328.9482800293	0.0627521127
1330.8770874023	0.0646660328
1332.8058947754	0.0659112185
1334.7347021484	0.0674431622
1336.6635095215	0.0681436881
1338.5923168945	0.0679051131
1340.5211242676	0.0689914227
1342.4499316406	0.0708717555
1344.3787390137	0.0715835690
1346.3075463867	0.0713635683
1348.2363537597	0.0714337379
1350.1651611328	0.0709306300
1352.0939685058	0.0708033293
1354.0227758789	0.0699969828
1355.9515832519	0.0693220794
1357.8803906250	0.0692633092
1359.8091979980	0.0679937750
1361.7380053711	0.0657598749
1363.6668127441	0.0647148415
1365.5956201172	0.0669664443
1367.5244274902	0.0658514127
1369.4532348633	0.0651049912
1371.3820422363	0.0660414025
1373.3108496094	0.0631148070
1375.2396569824	0.0635083467
1377.1684643555	0.0644889921
1379.0972717285	0.0644447654
1381.0260791015	0.0644541979
1382.9548864746	0.0641657263
1384.8836938476	0.0641986728
1386.8125012207	0.0617836490
1388.7413085937	0.0628218204
1390.6701159668	0.0666625500
1392.5989233398	0.0657503754
1394.5277307129	0.0625286773
1396.4565380859	0.0648343116
1398.3853454590	0.0651415512
1400.3141528320	0.0644966960
1402.2429602051	0.0687253103
1404.1717675781	0.0657684803
1406.1005749512	0.0661503077
1408.0293823242	0.0682819262
1409.9581896972	0.0661084652
1411.8869970703	0.0669585690
1413.8158044433	0.0648820326
1415.7446118164	0.0657989904
1417.6734191894	0.0605544001
1419.6022265625	0.0552850217
1421.5310339355	0.0613368377
1423.4598413086	0.0597883835
1425.3886486816	0.0577077419
1427.3174560547	0.0580654703
1429.2462634277	0.0543767512
1431.1750708008	0.0524814986
1433.1038781738	0.0530869961
1435.0326855469	0.0490220711
1436.9614929199	0.0427577496
1438.8903002929	0.0465723760
1440.8191076660	0.0473413765
1442.7479150390	0.0444835201
1444.6767224121	0.0459529236
1446.6055297851	0.0431256443
1448.5343371582	0.0435040072
1450.4631445312	0.0447783321
1452.3919519043	0.0453340895
1454.3207592773	0.0473070815
1456.2495666504	0.0412421599
1458.1783740234	0.0428345501
1460.1071813965	0.0543524176
1462.0359887695	0.0573702529
1463.9647961426	0.0579104945
1465.8936035156	0.0604535006
1467.8224108886	0.0676859990
1469.7512182617	0.0726907030
1471.6800256347	0.0671119690
1473.6088330078	0.0705745444
1475.5376403808	0.0791967735
1477.4664477539	0.0849073976
1479.3952551269	0.0920408219
1481.3240625000	0.0942007974
1483.2528698730	0.0993999094
1485.1816772461	0.1028784364
1487.1104846191	0.1025577784
1489.0392919922	0.1028576195
1490.9680993652	0.1043175384
1492.8969067383	0.1175017655
1494.8257141113	0.1162215024
1496.7545214843	0.1076476574
1498.6833288574	0.1190782934
1500.6121362304	0.1223659068
1502.5409436035	0.1296790391
1504.4697509765	0.1247409061
1506.3985583496	0.0976050347
1508.3273657226	0.1144445017
1510.2561730957	0.1302606016
1512.1849804687	0.1266577244
1514.1137878418	0.1353297383
1516.0425952148	0.1249861866
1517.9714025879	0.1295914650
1519.9002099609	0.1257153749
1521.8290173340	0.1126246750
1523.7578247070	0.1318661422
1525.6866320801	0.1303030849
1527.6154394531	0.1300441921
1529.5442468261	0.1403538734
1531.4730541992	0.1363318264
1533.4018615722	0.1274071634
1535.3306689453	0.1331356168
1537.2594763183	0.1403650641
1539.1882836914	0.1078405827
1541.1170910644	0.1115684956
1543.0458984375	0.1294186413
1544.9747058105	0.1251566410
1546.9035131836	0.1424592584
1548.8323205566	0.1351107359
1550.7611279297	0.1384380758
1552.6899353027	0.1377246082
1554.6187426758	0.1275582761
1556.5475500488	0.1350275874
1558.4763574218	0.1031249017
1560.4051647949	0.1083049029
1562.3339721679	0.1433924884
1564.2627795410	0.1373807639
1566.1915869140	0.1401022077
1568.1203942871	0.1392658651
1570.0492016601	0.1266022772
1571.9780090332	0.1411610246
1573.9068164062	0.1428263634
1575.8356237793	0.1184163839
1577.7644311523	0.1303777695
1579.6932385254	0.1444940567
1581.6220458984	0.1387163252
1583.5508532715	0.1418446153
1585.4796606445	0.1400220394
1587.4084680175	0.1408687532
1589.3372753906	0.1400493681
1591.2660827636	0.1396496594
1593.1948901367	0.1400543451
1595.1236975097	0.1387320459
1597.0525048828	0.1403613985
1598.9813122558	0.1391573697
1600.9101196289	0.1399883628
1602.8389270019	0.1380370408
1604.7677343750	0.1398151815
1606.6965417480	0.1382604390
1608.6253491211	0.1379013360
1610.5541564941	0.1379919350
1612.4829638672	0.1383123398
1614.4117712402	0.1402922273
1616.3405786132	0.1191774458
1618.2693859863	0.1268451810
1620.1981933593	0.1438851058
1622.1270007324	0.1304260492
1624.0558081054	0.1312179565
1625.9846154785	0.1359122694
1627.9134228515	0.1358554661
1629.8422302246	0.1349923462
1631.7710375976	0.1421107650
1633.6998449707	0.1335743517
1635.6286523437	0.1145228893
1637.5574597168	0.1294861585
1639.4862670898	0.1394530535
1641.4150744629	0.1367730200
1643.3438818359	0.1397465765
1645.2726892090	0.1284396201
1647.2014965820	0.1163309589
1649.1303039550	0.1381311715
1651.0591113281	0.1321107298
1652.9879187011	0.0932345390
1654.9167260742	0.1185967028
1656.8455334472	0.1425249577
1658.7743408203	0.1368986964
1660.7031481933	0.1407198012
1662.6319555664	0.1300428212
1664.5607629394	0.1357065737
1666.4895703125	0.1436665952
1668.4183776855	0.1292048395
1670.3471850586	0.1262709945
1672.2759924316	0.1391329169
1674.2047998047	0.1310201883
1676.1336071777	0.1263571680
1678.0624145507	0.1412270665
1679.9912219238	0.1370119750
1681.9200292968	0.1364959627
1683.8488366699	0.1157298312
1685.7776440429	0.1136896461
1687.7064514160	0.1474213004
1689.6352587890	0.1314718127
1691.5640661621	0.1413380653
1693.4928735351	0.1438840032
1695.4216809082	0.1113615930
1697.3504882812	0.1314905435
1699.2792956543	0.1197982728
1701.2081030273	0.1097817123
1703.1369104004	0.1400114000
1705.0657177734	0.1312058866
1706.9945251464	0.1313554049
1708.9233325195	0.1403750777
1710.8521398925	0.1357737184
1712.7809472656	0.1376094520
1714.7097546386	0.1298849583
1716.6385620117	0.1187082827
1718.5673693847	0.1169934049
1720.4961767578	0.1339940876
1722.4249841308	0.1378304213
1724.3537915039	0.1298165619
1726.2825988769	0.1386175454
1728.2114062500	0.1299213171
1730.1402136230	0.1309484392
1732.0690209961	0.1277786791
1733.9978283691	0.1031197757
1735.9266357421	0.1220377684
1737.8554431152	0.1326268911
1739.7842504882	0.1208261102
1741.7130578613	0.1294188499
1743.6418652343	0.1313750595
1745.5706726074	0.1313333660
1747.4994799804	0.1326192915
1749.4282873535	0.1281658709
1751.3570947265	0.1236052290
1753.2859020996	0.1341151297
1755.2147094726	0.1391249001
1757.1435168457	0.1296023726
1759.0723242187	0.1394654363
1761.0011315918	0.1328878403
1762.9299389648	0.1290623695
1764.8587463379	0.1435198337
1766.7875537109	0.1322494447
1768.7163610839	0.1330119967
1770.6451684570	0.1327489465
1772.5739758300	0.1218721867
1774.5027832031	0.1324817836
1776.4315905761	0.1384603679
1778.3603979492	0.1367139518
1780.2892053222	0.1357977986
1782.2180126953	0.1363932192
1784.1468200683	0.1363353133
1786.0756274414	0.1342273802
1788.0044348144	0.1392725706
1789.9332421875	0.1369254440
1791.8620495605	0.1264827847
1793.7908569336	0.1304884255
1795.7196643066	0.1381011754
1797.6484716796	0.1365662664
1799.5772790527	0.1350268424
1801.5060864257	0.1331804693
1803.4348937988	0.1366050839
1805.3637011718	0.1389948726
1807.2925085449	0.1372660100
1809.2213159179	0.1376099288
1811.1501232910	0.1346857995
1813.0789306640	0.1379409730
1815.0077380371	0.1385115683
1816.9365454101	0.1371858418
1818.8653527832	0.1381178200
1820.7941601562	0.1376498938
1822.7229675293	0.1392319947
1824.6517749023	0.1321079731
1826.5805822753	0.1356101036
1828.5093896484	0.1358900517
1830.4381970214	0.1293839365
1832.3670043945	0.1378891170
1834.2958117675	0.1371218264
1836.2246191406	0.1370358318
1838.1534265136	0.1366510689
1840.0822338867	0.1371748745
1842.0110412597	0.1374078095
1843.9398486328	0.1252729595
1845.8686560058	0.1312389672
1847.7974633789	0.1371496618
1849.7262707519	0.1347586215
1851.6550781250	0.1376278102
1853.5838854980	0.1355926841
1855.5126928710	0.1363827288
1857.4415002441	0.1355549395
1859.3703076171	0.1349534392
1861.2991149902	0.1358435750
1863.2279223632	0.1344190091
1865.1567297363	0.1355617046
1867.0855371093	0.1321379542
1869.0143444824	0.1276048720
1870.9431518554	0.1314887702
1872.8719592285	0.1352100521
1874.8007666015	0.1335390806
1876.7295739746	0.1340450048
1878.6583813476	0.1337146014
1880.5871887207	0.1331900209
1882.5159960937	0.1337991953
1884.4448034667	0.1321493238
1886.3736108398	0.1334642470
1888.3024182128	0.1312694401
1890.2312255859	0.1292598844
1892.1600329589	0.1326647401
1894.0888403320	0.1312856078
1896.0176477050	0.1307567656
1897.9464550781	0.1319555938
1899.8752624511	0.1313491762
1901.8040698242	0.1314676851
1903.7328771972	0.1307640970
1905.6616845703	0.1312897801
1907.5904919433	0.1304452866
1909.5192993164	0.1296198666
1911.4481066894	0.1300537437
1913.3769140625	0.1299989969
1915.3057214355	0.1310329735
1917.2345288085	0.1265825629
1919.1633361816	0.1265105456
1921.0921435546	0.1303091049
1923.0209509277	0.1270423830
1924.9497583007	0.1287862211
1926.8785656738	0.1297693253
1928.8073730468	0.1286329776
1930.7361804199	0.1297420859
1932.6649877929	0.1283310056
1934.5937951660	0.1293038428
1936.5226025390	0.1286000609
1938.4514099121	0.1287077814
1940.3802172851	0.1287118793
1942.3090246582	0.1257128716
1944.2378320312	0.1271398365
1946.1666394042	0.1280799061
1948.0954467773	0.1279017031
1950.0242541503	0.1282482445
1951.9530615234	0.1279412508
1953.8818688964	0.1281288266
1955.8106762695	0.1277449131
1957.7394836425	0.1277688742
1959.6682910156	0.1276452839
1961.5970983886	0.1274009049
1963.5259057617	0.1276271194
1965.4547131347	0.1269468069
1967.3835205078	0.1260967106
1969.3123278808	0.1268572211
1971.2411352539	0.1272042394
1973.1699426269	0.1267047971
1975.0987499999	0.1269931197
1977.0275573730	0.1267515123
1978.9563647460	0.1266441643
1980.8851721191	0.1264308691
1982.8139794921	0.1261486560
1984.7427868652	0.1261154413
1986.6715942382	0.1254429519
1988.6004016113	0.1255211234
1990.5292089843	0.1246525794
1992.4580163574	0.1236133873
1994.3868237304	0.1247796044
1996.3156311035	0.1249091476
1998.2444384765	0.1243093759
2000.1732458496	0.1244401783
2002.1020532226	0.1240971386
2004.0308605956	0.1239418313
2005.9596679687	0.1235621199
2007.8884753417	0.1232778952
2009.8172827148	0.1231861562
2011.7460900878	0.1226764321
2013.6748974609	0.1226784438
2015.6037048339	0.1219767705
2017.5325122070	0.1213662922
2019.4613195800	0.1217485145
2021.3901269531	0.1215651929
2023.3189343261	0.1212398112
2025.2477416992	0.1211046278
2027.1765490722	0.1208268553
2029.1053564453	0.1205043942
2031.0341638183	0.1203699410
2032.9629711914	0.1200196892
2034.8917785644	0.1197170317
2036.8205859374	0.1196139976
2038.7493933105	0.1192905605
2040.6782006835	0.1188431308
2042.6070080566	0.1185026467
2044.5358154296	0.1186199263
2046.4646228027	0.1183517128
2048.3934301757	0.1180581003
2050.3222375488	0.1178368926
2052.2510449218	0.1174946651
2054.1798522949	0.1174694300
2056.1086596679	0.1171004772
2058.0374670410	0.1169086993
2059.9662744140	0.1167209297
2061.8950817871	0.1165394485
2063.8238891601	0.1161675751
2065.7526965331	0.1156021208
2067.6815039062	0.1157467663
2069.6103112792	0.1155588925
2071.5391186523	0.1153049693
2073.4679260253	0.1152391955
2075.3967333984	0.1148973852
2077.3255407714	0.1147519052
2079.2543481445	0.1145291924
2081.1831555175	0.1141903251
2083.1119628906	0.1141266376
2085.0407702636	0.1138911545
2086.9695776367	0.1135214046
2088.8983850097	0.1133607626
2090.8271923828	0.1130530536
2092.7559997558	0.1130198836
2094.6848071288	0.1129224598
2096.6136145019	0.1125363708
2098.5424218749	0.1123860180
2100.4712292480	0.1122597456
2102.4000366210	0.1119334996
2104.3288439941	0.1117325425
2106.2576513671	0.1117726713
2108.1864587402	0.1113535464
2110.1152661132	0.1112727448
2112.0440734863	0.1112277210
2113.9728808593	0.1108167022
2115.9016882324	0.1106451303
2117.8304956054	0.1104438603
2119.7593029785	0.1104709059
2121.6881103515	0.1101135164
2123.6169177245	0.1100258976
2125.5457250976	0.1099596992
2127.4745324706	0.1096015424
2129.4033398437	0.1095957756
2131.3321472167	0.1092840433
2133.2609545898	0.1092754900
2135.1897619628	0.1091416627
2137.1185693359	0.1090118065
2139.0473767089	0.1089052185
2140.9761840820	0.1087021828
2142.9049914550	0.1086524501
2144.8337988281	0.1083099544
2146.7626062011	0.1082623675
2148.6914135742	0.1080415845
2150.6202209472	0.1080592722
2152.5490283203	0.1079470366
2154.4778356933	0.1075896919
2156.4066430663	0.1076643318
2158.3354504394	0.1074757576
2160.2642578124	0.1073934883
2162.1930651855	0.1070901230
2164.1218725585	0.1068694592
2166.0506799316	0.1068663895
2167.9794873046	0.1067997739
2169.9082946777	0.1066751480
2171.8371020507	0.1064908579
2173.7659094238	0.1064166948
2175.6947167968	0.1060912311
2177.6235241699	0.1060306281
2179.5523315429	0.1059066653
2181.4811389160	0.1058306396
2183.4099462890	0.1056724340
2185.3387536620	0.1054331362
2187.2675610351	0.1055420935
2189.1963684081	0.1052474827
2191.1251757812	0.1051465124
2193.0539831542	0.1050529778
2194.9827905273	0.1048846096
2196.9115979003	0.1047708616
2198.8404052734	0.1046396941
2200.7692126464	0.1045785174
2202.6980200195	0.1043052673
2204.6268273925	0.1042308509
2206.5556347656	0.1040642560
2208.4844421386	0.1039400548
2210.4132495117	0.1037885547
2212.3420568847	0.1036940217
2214.2708642577	0.1036456153
2216.1996716308	0.1033623442
2218.1284790038	0.1032917798
2220.0572863769	0.1031628549
2221.9860937499	0.1029912904
2223.9149011230	0.1028198749
2225.8437084960	0.1028133631
2227.7725158691	0.1026519090
2229.7013232421	0.1024722606
2231.6301306152	0.1023016497
2233.5589379882	0.1019853055
2235.4877453613	0.1019866019
2237.4165527343	0.1017103270
2239.3453601074	0.1016569585
2241.2741674804	0.1014783233
2243.2029748534	0.1012827232
2245.1317822265	0.1012059152
2247.0605895995	0.1007810608
2248.9893969726	0.1008260548
2250.9182043456	0.1005954966
2252.8470117187	0.1004907340
2254.7758190917	0.1003302038
2256.7046264648	0.1000251397
2258.6334338378	0.1000760794
2260.5622412109	0.0998997465
2262.4910485839	0.0999019593
2264.4198559570	0.0996183977
2266.3486633300	0.0994073004
2268.2774707031	0.0993201658
2270.2062780761	0.0991328359
2272.1350854491	0.0990605056
2274.0638928222	0.0989230648
2275.9927001952	0.0989393294
2277.9215075683	0.0988211185
2279.8503149413	0.0986928195
2281.7791223144	0.0985636413
2283.7079296874	0.0985497832
2285.6367370605	0.0982314944
2287.5655444335	0.0980196446
2289.4943518066	0.0980187058
2291.4231591796	0.0974451080
2293.3519665527	0.0972933099
2295.2807739257	0.0970673487
2297.2095812988	0.0967357904
2299.1383886718	0.0963636562
2301.0671960449	0.0958057940
2302.9960034179	0.0956860185
2304.9248107909	0.0952723473
2306.8536181640	0.0946149155
2308.7824255370	0.0939405784
2310.7112329101	0.0932750255
2312.6400402831	0.0922593623
2314.5688476562	0.0912090838
2316.4976550292	0.0904153883
2318.4264624023	0.0893753320
2320.3552697753	0.0883051232
2322.2840771484	0.0868943557
2324.2128845214	0.0858941972
2326.1416918945	0.0851722434
2328.0704992675	0.0840767473
2329.9993066406	0.0831214041
2331.9281140136	0.0823910087
2333.8569213866	0.0821279883
2335.7857287597	0.0817516744
2337.7145361327	0.0815717429
2339.6433435058	0.0816107020
2341.5721508788	0.0818054304
2343.5009582519	0.0829704255
2345.4297656249	0.0844538808
2347.3585729980	0.0876225159
2349.2873803710	0.0901472420
2351.2161877441	0.0873785615
2353.1449951171	0.0832406580
2355.0738024902	0.0803546757
2357.0026098632	0.0778859258
2358.9314172363	0.0765791684
2360.8602246093	0.0755918473
2362.7890319823	0.0754650682
2364.7178393554	0.0760540888
2366.6466467284	0.0768881291
2368.5754541015	0.0783842355
2370.5042614745	0.0800857171
2372.4330688476	0.0822493732
2374.3618762206	0.0843612105
2376.2906835937	0.0865201354
2378.2194909667	0.0883512571
2380.1482983398	0.0895896852
2382.0771057128	0.0906263813
2384.0059130859	0.0910814703
2385.9347204589	0.0915068015
2387.8635278320	0.0915963799
2389.7923352050	0.0915026963
2391.7211425780	0.0913296640
2393.6499499511	0.0911823213
2395.5787573241	0.0912303478
2397.5075646972	0.0909844488
2399.4363720702	0.0909523666
2401.3651794433	0.0908260047
2403.2939868163	0.0907758176
2405.2227941894	0.0905340761
2407.1516015624	0.0902368352
2409.0804089355	0.0902930498
2411.0092163085	0.0899673775
2412.9380236816	0.0899470747
2414.8668310546	0.0899409354
2416.7956384277	0.0897976160
2418.7244458007	0.0896843076
2420.6532531738	0.0895242989
2422.5820605468	0.0893835351
2424.5108679198	0.0890099704
2426.4396752929	0.0891169533
2428.3684826659	0.0891796350
2430.2972900390	0.0889025331
2432.2260974120	0.0887890533
2434.1549047851	0.0886290967
2436.0837121581	0.0885452032
2438.0125195312	0.0885505974
2439.9413269042	0.0883851424
2441.8701342773	0.0881824642
2443.7989416503	0.0880661160
2445.7277490234	0.0878615379
2447.6565563964	0.0878068432
2449.5853637695	0.0876644999
2451.5141711425	0.0875307247
2453.4429785155	0.0875051245
2455.3717858886	0.0873624831
2457.3005932616	0.0872950852
2459.2294006347	0.0870943815
2461.1582080077	0.0870302320
2463.0870153808	0.0869011432
2465.0158227538	0.0867102146
2466.9446301269	0.0865782201
2468.8734374999	0.0864101499
2470.8022448730	0.0864348710
2472.7310522460	0.0862170607
2474.6598596191	0.0860811323
2476.5886669921	0.0860422403
2478.5174743652	0.0859729722
2480.4462817382	0.0858484507
2482.3750891112	0.0856356770
2484.3038964843	0.0856698677
2486.2327038573	0.0854894370
2488.1615112304	0.0853606015
2490.0903186034	0.0853046626
2492.0191259765	0.0851094723
2493.9479333495	0.0850244090
2495.8767407226	0.0848375112
2497.8055480956	0.0847668350
2499.7343554687	0.0848260969
2501.6631628417	0.0846356228
2503.5919702148	0.0843843222
2505.5207775878	0.0843504965
2507.4495849609	0.0842699558
2509.3783923339	0.0840903521
2511.3071997069	0.0839617699
2513.2360070800	0.0839322060
2515.1648144530	0.0837999955
2517.0936218261	0.0836243927
2519.0224291991	0.0835771635
2520.9512365722	0.0833770409
2522.8800439452	0.0833060741
2524.8088513183	0.0831961259
2526.7376586913	0.0831049904
2528.6664660644	0.0831784755
2530.5952734374	0.0829662010
2532.5240808105	0.0827965885
2534.4528881835	0.0826956481
2536.3816955566	0.0825723186
2538.3105029296	0.0824170411
2540.2393103027	0.0822789222
2542.1681176757	0.0821808279
2544.0969250487	0.0820834190
2546.0257324218	0.0820219293
2547.9545397948	0.0818751156
2549.8833471679	0.0818523169
2551.8121545409	0.0817576647
2553.7409619140	0.0815910399
2555.6697692870	0.0814018399
2557.5985766601	0.0812575221
2559.5273840331	0.0812907517
2561.4561914062	0.0811814219
2563.3849987792	0.0810372308
2565.3138061523	0.0808231086
2567.2426135253	0.0807173699
2569.1714208984	0.0806873739
2571.1002282714	0.0805373788
2573.0290356444	0.0804922357
2574.9578430175	0.0804006904
2576.8866503905	0.0802285522
2578.8154577636	0.0800936818
2580.7442651366	0.0799485743
2582.6730725097	0.0797597617
2584.6018798827	0.0797579885
2586.5306872558	0.0797584802
2588.4594946288	0.0796769708
2590.3883020019	0.0795301497
2592.3171093749	0.0792117417
2594.2459167480	0.0790970773
2596.1747241210	0.0791039690
2598.1035314941	0.0790766478
2600.0323388671	0.0788919777
2601.9611462401	0.0787290111
2603.8899536132	0.0786425173
2605.8187609862	0.0785547420
2607.7475683593	0.0785212144
2609.6763757323	0.0782627165
2611.6051831054	0.0781862885
2613.5339904784	0.0781039596
2615.4627978515	0.0779992044
2617.3916052245	0.0779727399
2619.3204125976	0.0777187720
2621.2492199706	0.0776593089
2623.1780273437	0.0775582343
2625.1068347167	0.0774669796
2627.0356420898	0.0774159878
2628.9644494628	0.0772118643
2630.8932568358	0.0770770907
2632.8220642089	0.0769595057
2634.7508715819	0.0768441930
2636.6796789550	0.0766588151
2638.6084863280	0.0766033083
2640.5372937011	0.0766700059
2642.4661010741	0.0765017569
2644.3949084472	0.0762126148
2646.3237158202	0.0761555135
2648.2525231933	0.0761081576
2650.1813305663	0.0760268345
2652.1101379394	0.0759628564
2654.0389453124	0.0757210702
2655.9677526855	0.0756987333
2657.8965600585	0.0756343529
2659.8253674315	0.0754574835
2661.7541748046	0.0753950030
2663.6829821776	0.0752007067
2665.6117895507	0.0750762075
2667.5405969237	0.0750278533
2669.4694042968	0.0749023408
2671.3982116698	0.0748017654
2673.3270190429	0.0747582838
2675.2558264159	0.0745843872
2677.1846337890	0.0745379552
2679.1134411620	0.0743622035
2681.0422485351	0.0741327703
2682.9710559081	0.0742985159
2684.8998632812	0.0741117969
2686.8286706542	0.0739548057
2688.7574780273	0.0738571808
2690.6862854003	0.0735877454
2692.6150927733	0.0736157000
2694.5439001464	0.0735248625
2696.4727075194	0.0733775645
2698.4015148925	0.0733226687
2700.3303222655	0.0732018501
2702.2591296386	0.0729825795
2704.1879370116	0.0729750618
2706.1167443847	0.0729738623
2708.0455517577	0.0727347061
2709.9743591308	0.0726125687
2711.9031665038	0.0724465325
2713.8319738769	0.0724334866
2715.7607812499	0.0723760575
2717.6895886230	0.0721801668
2719.6183959960	0.0720527470
2721.5472033690	0.0719113350
2723.4760107421	0.0719497353
2725.4048181151	0.0718251467
2727.3336254882	0.0716721714
2729.2624328612	0.0715923235
2731.1912402343	0.0714365989
2733.1200476073	0.0714359581
2735.0488549804	0.0712855905
2736.9776623534	0.0710315704
2738.9064697265	0.0709691197
2740.8352770995	0.0708802938
2742.7640844726	0.0707530305
2744.6928918456	0.0707159042
2746.6216992187	0.0705433041
2748.5505065917	0.0703000277
2750.4793139647	0.0702816695
2752.4081213378	0.0702321231
2754.3369287108	0.0700460970
2756.2657360839	0.0700234324
2758.1945434569	0.0698858052
2760.1233508300	0.0696772486
2762.0521582030	0.0696137697
2763.9809655761	0.0694868341
2765.9097729491	0.0695124567
2767.8385803222	0.0693123043
2769.7673876952	0.0690439492
2771.6961950683	0.0690089762
2773.6250024413	0.0688307136
2775.5538098144	0.0687866658
2777.4826171874	0.0686583817
2779.4114245604	0.0685417876
2781.3402319335	0.0684009492
2783.2690393065	0.0682057440
2785.1978466796	0.0682657883
2787.1266540526	0.0680483878
2789.0554614257	0.0678476021
2790.9842687987	0.0677988157
2792.9130761718	0.0676463246
2794.8418835448	0.0674990267
2796.7706909179	0.0673568323
2798.6994982909	0.0673539042
2800.6283056640	0.0672719106
2802.5571130370	0.0670812353
2804.4859204101	0.0669713467
2806.4147277831	0.0668650270
2808.3435351562	0.0667485446
2810.2723425292	0.0665644333
2812.2011499022	0.0663314164
2814.1299572753	0.0662642866
2816.0587646483	0.0661812201
2817.9875720214	0.0660558790
2819.9163793944	0.0659491718
2821.8451867675	0.0657981932
2823.7739941405	0.0657327324
2825.7028015136	0.0655673295
2827.6316088866	0.0654045641
2829.5604162597	0.0652520433
2831.4892236327	0.0651896298
2833.4180310058	0.0650401562
2835.3468383788	0.0647880360
2837.2756457519	0.0648323745
2839.2044531249	0.0646293610
2841.1332604979	0.0644448474
2843.0620678710	0.0641985685
2844.9908752440	0.0638511628
2846.9196826171	0.0635370612
2848.8484899901	0.0630217046
2850.7772973632	0.0629976764
2852.7061047362	0.0629045069
2854.6349121093	0.0627916455
2856.5637194823	0.0627781153
2858.4925268554	0.0626354814
2860.4213342284	0.0626570582
2862.3501416015	0.0624455810
2864.2789489745	0.0624458864
2866.2077563476	0.0624011755
2868.1365637206	0.0622305498
2870.0653710936	0.0621893667
2871.9941784667	0.0619680658
2873.9229858397	0.0618744902
2875.8517932128	0.0618949234
2877.7806005858	0.0617762282
2879.7094079589	0.0615756735
2881.6382153319	0.0616059229
2883.5670227050	0.0615040883
2885.4958300780	0.0613197535
2887.4246374511	0.0612241849
2889.3534448241	0.0611284375
2891.2822521972	0.0610418767
2893.2110595702	0.0607562885
2895.1398669433	0.0607216768
2897.0686743163	0.0606041551
2898.9974816893	0.0604544804
2900.9262890624	0.0602868348
2902.8550964354	0.0599952601
2904.7839038085	0.0599812716
2906.7127111815	0.0596867129
2908.6415185546	0.0594933853
2910.5703259276	0.0593671910
2912.4991333007	0.0589724779
2914.4279406737	0.0586268529
2916.3567480468	0.0584395304
2918.2855554198	0.0583969355
2920.2143627929	0.0582947321
2922.1431701659	0.0581860766
2924.0719775390	0.0580057427
2926.0007849120	0.0580127314
2927.9295922851	0.0579217263
2929.8583996581	0.0578280091
2931.7872070311	0.0578915179
2933.7160144042	0.0578075424
2935.6448217772	0.0579041727
2937.5736291503	0.0577615611
2939.5024365233	0.0576654859
2941.4312438964	0.0577277690
2943.3600512694	0.0577077456
2945.2888586425	0.0576304719
2947.2176660155	0.0574402660
2949.1464733886	0.0574847758
2951.0752807616	0.0573286563
2953.0040881347	0.0571803972
2954.9328955077	0.0570367947
2956.8617028808	0.0567854382
2958.7905102538	0.0567048416
2960.7193176268	0.0565692447
2962.6481249999	0.0565509610
2964.5769323729	0.0563818067
2966.5057397460	0.0562064499
2968.4345471190	0.0562761053
2970.3633544921	0.0563502572
2972.2921618651	0.0563576482
2974.2209692382	0.0563387796
2976.1497766112	0.0563997328
2978.0785839843	0.0564079434
2980.0073913573	0.0563545525
2981.9361987304	0.0562793240
2983.8650061034	0.0562747866
2985.7938134765	0.0561716780
2987.7226208495	0.0560795665
2989.6514282225	0.0561083704
2991.5802355956	0.0560231060
2993.5090429686	0.0559253693
2995.4378503417	0.0557580180
2997.3666577147	0.0556721762
2999.2954650878	0.0555819795
3001.2242724608	0.0554331206
3003.1530798339	0.0553395972
3005.0818872069	0.0552404001
3007.0106945800	0.0552541167
3008.9395019530	0.0551585108
3010.8683093261	0.0549608171
3012.7971166991	0.0548432767
3014.7259240722	0.0547446236
3016.6547314452	0.0546528585
3018.5835388182	0.0546194091
3020.5123461913	0.0544958264
3022.4411535643	0.0543519743
3024.3699609374	0.0542903021
3026.2987683104	0.0541001037
3028.2275756835	0.0539523512
3030.1563830565	0.0537806377
3032.0851904296	0.0536143817
3034.0139978026	0.0536194593
3035.9428051757	0.0536153503
3037.8716125487	0.0534914955
3039.8004199218	0.0533032119
3041.7292272948	0.0532052591
3043.6580346679	0.0531256720
3045.5868420409	0.0530085117
3047.5156494139	0.0528192036
3049.4444567870	0.0527115911
3051.3732641600	0.0526278242
3053.3020715331	0.0525757596
3055.2308789061	0.0525913164
3057.1596862792	0.0524086244
3059.0884936522	0.0523013696
3061.0173010253	0.0521920472
3062.9461083983	0.0520364866
3064.8749157714	0.0518246889
3066.8037231444	0.0516709015
3068.7325305175	0.0517843589
3070.6613378905	0.0517791435
3072.5901452636	0.0517180003
3074.5189526366	0.0515225455
3076.4477600097	0.0513482690
3078.3765673827	0.0513019040
3080.3053747557	0.0512014441
3082.2341821288	0.0510729663
3084.1629895018	0.0508717224
3086.0917968749	0.0508600399
3088.0206042479	0.0508348048
3089.9494116210	0.0508058816
3091.8782189940	0.0507366583
3093.8070263671	0.0504325926
3095.7358337401	0.0502544865
3097.6646411132	0.0502437353
3099.5934484862	0.0501852073
3101.5222558593	0.0500096567
3103.4510632323	0.0499717854
3105.3798706054	0.0498355180
3107.3086779784	0.0496022552
3109.2374853514	0.0495727733
3111.1662927245	0.0494229943
3113.0951000975	0.0492992625
3115.0239074706	0.0491809510
3116.9527148436	0.0489035435
3118.8815222167	0.0488881394
3120.8103295897	0.0488701239
3122.7391369628	0.0486287214
3124.6679443358	0.0486119278
3126.5967517089	0.0484739169
3128.5255590819	0.0482886322
3130.4543664550	0.0483712591
3132.3831738280	0.0482799150
3134.3119812011	0.0480119623
3136.2407885741	0.0478659682
3138.1695959471	0.0479158312
3140.0984033202	0.0476955324
3142.0272106932	0.0474623144
3143.9560180663	0.0474363640
3145.8848254393	0.0472809374
3147.8136328124	0.0471506007
3149.7424401854	0.0469944626
3151.6712475585	0.0469678529
3153.6000549315	0.0468512103
3155.5288623046	0.0466435850
3157.4576696776	0.0465138555
3159.3864770507	0.0464775562
3161.3152844237	0.0464197472
3163.2440917968	0.0461238734
3165.1728991698	0.0461103842
3167.1017065428	0.0459824950
3169.0305139159	0.0458572209
3170.9593212889	0.0458102375
3172.8881286620	0.0455649979
3174.8169360350	0.0454562306
3176.7457434081	0.0452512950
3178.6745507811	0.0451931581
3180.6033581542	0.0450166762
3182.5321655272	0.0449270904
3184.4609729003	0.0448728986
3186.3897802733	0.0446793064
3188.3185876464	0.0447281152
3190.2473950194	0.0444691665
3192.1762023925	0.0444416478
3194.1050097655	0.0444470420
3196.0338171386	0.0441819727
3197.9626245116	0.0440863632
3199.8914318846	0.0440464504
3201.8202392577	0.0439413264
3203.7490466307	0.0437237695
3205.6778540038	0.0437315553
3207.6066613768	0.0435589254
3209.5354687499	0.0434819609
3211.4642761229	0.0434825048
3213.3930834960	0.0432317071
3215.3218908690	0.0432064757
3217.2506982421	0.0431414321
3219.1795056151	0.0431107879
3221.1083129882	0.0430466980
3223.0371203612	0.0429833382
3224.9659277343	0.0429401211
3226.8947351073	0.0428079143
3228.8235424803	0.0427045673
3230.7523498534	0.0425988585
3232.6811572264	0.0425157174
3234.6099645995	0.0423873812
3236.5387719725	0.0423873700
3238.4675793456	0.0422263145
3240.3963867186	0.0422050357
3242.3251940917	0.0422481112
3244.2540014647	0.0420145504
3246.1828088378	0.0419843197
3248.1116162108	0.0419023111
3250.0404235839	0.0419917069
3251.9692309569	0.0419737622
3253.8980383300	0.0417268202
3255.8268457030	0.0416955575
3257.7556530760	0.0416565947
3259.6844604491	0.0416489318
3261.6132678221	0.0415332764
3263.5420751952	0.0414204076
3265.4708825682	0.0413985178
3267.3996899413	0.0414177552
3269.3284973143	0.0413650349
3271.2573046874	0.0412037671
3273.1861120604	0.0410737433
3275.1149194335	0.0410047397
3277.0437268065	0.0411060080
3278.9725341796	0.0411139950
3280.9013415526	0.0410745256
3282.8301489257	0.0410137400
3284.7589562987	0.0409296304
3286.6877636717	0.0408400446
3288.6165710448	0.0407146364
3290.5453784178	0.0407452211
3292.4741857909	0.0406503528
3294.4029931639	0.0405740961
3296.3318005370	0.0405455679
3298.2606079100	0.0403706282
3300.1894152831	0.0403359979
3302.1182226561	0.0403392762
3304.0470300292	0.0402337089
3305.9758374022	0.0401679277
3307.9046447753	0.0401442759
3309.8334521483	0.0400857069
3311.7622595214	0.0400219634
3313.6910668944	0.0399917252
3315.6198742675	0.0399585739
3317.5486816405	0.0397788249
3319.4774890135	0.0397346281
3321.4062963866	0.0398099869
3323.3351037596	0.0396653563
3325.2639111327	0.0395843349
3327.1927185057	0.0396338180
3329.1215258788	0.0395454913
3331.0503332518	0.0393727943
3332.9791406249	0.0394599959
3334.9079479979	0.0393885598
3336.8367553710	0.0391691104
3338.7655627440	0.0392305702
3340.6943701171	0.0390962958
3342.6231774901	0.0390084870
3344.5519848632	0.0391075350
3346.4807922362	0.0390176512
3348.4095996092	0.0388342366
3350.3384069823	0.0388726965
3352.2672143553	0.0388650596
3354.1960217284	0.0386179015
3356.1248291014	0.0385734960
3358.0536364745	0.0384682864
3359.9824438475	0.0383886509
3361.9112512206	0.0384133756
3363.8400585936	0.0383290872
3365.7688659667	0.0382140130
3367.6976733397	0.0380793065
3369.6264807128	0.0381367691
3371.5552880858	0.0380832851
3373.4840954589	0.0379309803
3375.4129028319	0.0379355401
3377.3417102049	0.0378740430
3379.2705175780	0.0377378464
3381.1993249510	0.0376699492
3383.1281323241	0.0375752263
3385.0569396971	0.0374440849
3386.9857470702	0.0374420211
3388.9145544432	0.0374617875
3390.8433618163	0.0372965783
3392.7721691893	0.0369724929
3394.7009765624	0.0369370282
3396.6297839354	0.0369253159
3398.5585913085	0.0368411168
3400.4873986815	0.0368794575
3402.4162060546	0.0366977453
3404.3450134276	0.0366079658
3406.2738208006	0.0366399065
3408.2026281737	0.0366194025
3410.1314355467	0.0365133360
3412.0602429198	0.0365450308
3413.9890502928	0.0364592783
3415.9178576659	0.0363251194
3417.8466650389	0.0364311449
3419.7754724120	0.0360210016
3421.7042797850	0.0359476432
3423.6330871581	0.0360446423
3425.5618945311	0.0358917303
3427.4907019042	0.0359475762
3429.4195092772	0.0357667580
3431.3483166503	0.0357677415
3433.2771240233	0.0356623530
3435.2059313963	0.0354999602
3437.1347387694	0.0354939401
3439.0635461424	0.0355147496
3440.9923535155	0.0353937037
3442.9211608885	0.0352067500
3444.8499682616	0.0353250615
3446.7787756346	0.0349815562
3448.7075830077	0.0349441431
3450.6363903807	0.0352052376
3452.5651977538	0.0350930691
3454.4940051268	0.0350682512
3456.4228124999	0.0349353254
3458.3516198729	0.0349022560
3460.2804272460	0.0348320603
3462.2092346190	0.0347288698
3464.1380419921	0.0347424448
3466.0668493651	0.0347072706
3467.9956567381	0.0346269794
3469.9244641112	0.0346602052
3471.8532714842	0.0346158333
3473.7820788573	0.0345215723
3475.7108862303	0.0345212631
3477.6396936034	0.0343496054
3479.5685009764	0.0343513116
3481.4973083495	0.0341471806
3483.4261157225	0.0342130587
3485.3549230956	0.0343816504
3487.2837304686	0.0341666192
3489.2125378417	0.0342589244
3491.1413452147	0.0341367833
3493.0701525878	0.0342506319
3494.9989599608	0.0341746211
3496.9277673338	0.0339945480
3498.8565747069	0.0341549031
3500.7853820799	0.0339091867
3502.7141894530	0.0336443782
3504.6429968260	0.0336739793
3506.5718041991	0.0341012031
3508.5006115721	0.0338416994
3510.4294189452	0.0335845277
3512.3582263182	0.0338586755
3514.2870336913	0.0338975526
3516.2158410643	0.0339547545
3518.1446484374	0.0336984470
3520.0734558104	0.0338652506
3522.0022631835	0.0337255038
3523.9310705565	0.0333185717
3525.8598779295	0.0334608331
3527.7886853026	0.0333385207
3529.7174926756	0.0333865359
3531.6463000487	0.0336911269
3533.5751074217	0.0338787884
3535.5039147948	0.0335447639
3537.4327221678	0.0334230289
3539.3615295409	0.0337215737
3541.2903369139	0.0336328894
3543.2191442870	0.0334751010
3545.1479516600	0.0329168364
3547.0767590331	0.0325460956
3549.0055664061	0.0333044566
3550.9343737792	0.0334527418
3552.8631811522	0.0329186693
3554.7919885252	0.0333751068
3556.7207958983	0.0334488153
3558.6496032713	0.0332725681
3560.5784106444	0.0331521779
3562.5072180174	0.0329769701
3564.4360253905	0.0331807435
3566.3648327635	0.0315516554
3568.2936401366	0.0308822151
3570.2224475096	0.0327323377
3572.1512548827	0.0333159417
3574.0800622557	0.0330759510
3576.0088696288	0.0331074744
3577.9376770018	0.0330523215
3579.8664843749	0.0330722220
3581.7952917479	0.0330042765
3583.7240991210	0.0330959260
3585.6529064940	0.0324555300
3587.5817138670	0.0305288397
3589.5105212401	0.0311644897
3591.4393286131	0.0330692530
3593.3681359862	0.0324250720
3595.2969433592	0.0320109800
3597.2257507323	0.0324131064
3599.1545581053	0.0325894579
3601.0833654784	0.0324816741
3603.0121728514	0.0325944498
3604.9409802245	0.0330520868
3606.8697875975	0.0322824158
3608.7985949706	0.0307223722
3610.7274023436	0.0312483460
3612.6562097167	0.0317556933
3614.5850170897	0.0311136357
3616.5138244627	0.0327524841
3618.4426318358	0.0307826791
3620.3714392088	0.0300217196
3622.3002465819	0.0327216014
3624.2290539549	0.0320190415
3626.1578613280	0.0333680175
3628.0866687010	0.0293444768
3630.0154760741	0.0272375047
3631.9442834471	0.0325471982
3633.8730908202	0.0318453424
3635.8018981932	0.0322382785
3637.7307055663	0.0327399299
3639.6595129393	0.0323046744
3641.5883203124	0.0327088758
3643.5171276854	0.0321602859
3645.4459350584	0.0323945023
3647.3747424315	0.0299579091
3649.3035498045	0.0280379057
3651.2323571776	0.0283993427
3653.1611645506	0.0322733074
3655.0899719237	0.0318577029
3657.0187792967	0.0292830747
3658.9475866698	0.0326613784
3660.8763940428	0.0320252478
3662.8052014159	0.0323082581
3664.7340087889	0.0322050899
3666.6628161620	0.0319299921
3668.5916235350	0.0313265510
3670.5204309081	0.0267129671
3672.4492382811	0.0308478884
3674.3780456541	0.0298366714
3676.3068530272	0.0258249566
3678.2356604002	0.0307591800
3680.1644677733	0.0313164890
3682.0932751463	0.0311757177
3684.0220825194	0.0318901539
3685.9508898924	0.0315639377
3687.8796972655	0.0289981365
3689.8085046385	0.0271613244
3691.7373120116	0.0302022882
3693.6661193846	0.0307803601
3695.5949267577	0.0312822685
3697.5237341307	0.0313017890
3699.4525415038	0.0309943892
3701.3813488768	0.0304289795
3703.3101562499	0.0294273645
3705.2389636229	0.0316772349
3707.1677709959	0.0305704344
3709.0965783690	0.0298921019
3711.0253857420	0.0285533704
3712.9541931151	0.0271974225
3714.8830004881	0.0307238139
3716.8118078612	0.0303278454
3718.7406152342	0.0303979740
3720.6694226073	0.0299786627
3722.5982299803	0.0291876886
3724.5270373534	0.0299325138
3726.4558447264	0.0282677747
3728.3846520995	0.0301608890
3730.3134594725	0.0297875684
3732.2422668456	0.0278472491
3734.1710742186	0.0274201706
3736.0998815916	0.0263209660
3738.0286889647	0.0273862444
3739.9574963377	0.0291967411
3741.8863037108	0.0303838290
3743.8151110838	0.0247932561
3745.7439184569	0.0236804150
3747.6727258299	0.0291010030
3749.6015332030	0.0257781688
3751.5303405760	0.0241500437
3753.4591479491	0.0268792696
3755.3879553221	0.0285418425
3757.3167626952	0.0293638334
3759.2455700682	0.0275939349
3761.1743774413	0.0284428261
3763.1031848143	0.0297250282
3765.0319921873	0.0282178335
3766.9607995604	0.0285948180
3768.8896069334	0.0282927901
3770.8184143065	0.0273547247
3772.7472216795	0.0289741568
3774.6760290526	0.0290775672
3776.6048364256	0.0289720856
3778.5336437987	0.0283714980
3780.4624511717	0.0276509020
3782.3912585448	0.0288823918
3784.3200659178	0.0283781588
3786.2488732909	0.0282396022
3788.1776806639	0.0286191516
3790.1064880370	0.0285610221
3792.0352954100	0.0283245668
3793.9641027830	0.0286134519
3795.8929101561	0.0274211336
3797.8217175291	0.0271968879
3799.7505249022	0.0282205120
3801.6793322752	0.0235766787
3803.6081396483	0.0264873598
3805.5369470213	0.0283217579
3807.4657543944	0.0243163798
3809.3945617674	0.0279827658
3811.3233691405	0.0274930969
3813.2521765135	0.0282679684
3815.1809838866	0.0261187740
3817.1097912596	0.0236810334
3819.0385986327	0.0283198468
3820.9674060057	0.0241344608
3822.8962133787	0.0249761343
3824.8250207518	0.0280416086
3826.7538281248	0.0259542931
3828.6826354979	0.0274805371
3830.6114428709	0.0266338959
3832.5402502440	0.0258665327
3834.4690576170	0.0263778009
3836.3978649901	0.0253623463
3838.3266723631	0.0232874416
3840.2554797362	0.0248222239
3842.1842871092	0.0264045782
3844.1130944823	0.0254138093
3846.0419018553	0.0269705951
3847.9707092284	0.0265427642
3849.8995166014	0.0266338065
3851.8283239745	0.0245185103
3853.7571313475	0.0195418112
3855.6859387205	0.0222366974
3857.6147460936	0.0266416594
3859.5435534666	0.0261156112
3861.4723608397	0.0258416981
3863.4011682127	0.0253805481
3865.3299755858	0.0240957066
3867.2587829588	0.0260740221
3869.1875903319	0.0243329201
3871.1163977049	0.0229317285
3873.0452050780	0.0259449892
3874.9740124510	0.0244080387
3876.9028198241	0.0258632582
3878.8316271971	0.0262395069
3880.7604345702	0.0233748406
3882.6892419432	0.0259832852
3884.6180493162	0.0245981086
3886.5468566893	0.0230956338
3888.4756640623	0.0260532312
3890.4044714354	0.0247672088
3892.3332788084	0.0236346275
3894.2620861815	0.0253624935
3896.1908935545	0.0256860182
3898.1197009276	0.0247699805
3900.0485083006	0.0237020776
3901.9773156737	0.0234501250
3903.9061230467	0.0232218206
3905.8349304198	0.0235888772
3907.7637377928	0.0251520053
3909.6925451659	0.0251467023
3911.6213525389	0.0250218324
3913.5501599119	0.0252705105
3915.4789672850	0.0246532820
3917.4077746580	0.0240792856
3919.3365820311	0.0239585042
3921.2653894041	0.0246198103
3923.1941967772	0.0244573765
3925.1230041502	0.0241555367
3927.0518115233	0.0244700201
3928.9806188963	0.0245335922
3930.9094262694	0.0241928995
3932.8382336424	0.0236151498
3934.7670410155	0.0242977217
3936.6958483885	0.0244366471
3938.6246557616	0.0241955984
3940.5534631346	0.0245172791
3942.4822705076	0.0237734355
3944.4110778807	0.0237234328
3946.3398852537	0.0240284652
3948.2686926268	0.0236404389
3950.1974999998	0.0236524679
3952.1263073729	0.0238576680
3954.0551147459	0.0239575617
3955.9839221190	0.0238003656
3957.9127294920	0.0236930214
3959.8415368651	0.0237331800
3961.7703442381	0.0235849060
3963.6991516112	0.0235685967
3965.6279589842	0.0236403327
3967.5567663573	0.0235148370
3969.4855737303	0.0234621875
3971.4143811034	0.0234743096
3973.3431884764	0.0234379843
3975.2719958494	0.0233462695
3977.2008032225	0.0232755207
3979.1296105955	0.0232910924
3981.0584179686	0.0231897384
3982.9872253416	0.0231420770
3984.9160327147	0.0230756365
3986.8448400877	0.0229954496
3988.7736474608	0.0229859203
3990.7024548338	0.0229196735
3992.6312622069	0.0229644515
3994.5600695799	0.0228671283
3996.4888769530	0.0227745753
3998.4176843260	0.0228086319
4000.3464916991	0.0227748491
4002.2752990721	0.0227245763
4004.2041064451	0.0226014443
4006.1329138182	0.0226391554
4008.0617211912	0.0225311369
4009.9905285643	0.0224102773
4011.9193359373	0.0225108005
4013.8481433104	0.0224020220
4015.7769506834	0.0224135052
4017.7057580565	0.0222659204
4019.6345654295	0.0221301317
4021.5633728026	0.0223151799
4023.4921801756	0.0221568942
4025.4209875487	0.0221045893
4027.3497949217	0.0221623778
4029.2786022948	0.0219882019
4031.2074096678	0.0219024736
4033.1362170408	0.0219147392
4035.0650244139	0.0219222065
4036.9938317869	0.0218793415
4038.9226391600	0.0217840895
4040.8514465330	0.0216254871
4042.7802539061	0.0216223896
4044.7090612791	0.0216028802
4046.6378686522	0.0215632692
4048.5666760252	0.0215875525
4050.4954833983	0.0214736275
4052.4242907713	0.0214970820
4054.3530981444	0.0214820206
4056.2819055174	0.0214250647
4058.2107128905	0.0214000680
4060.1395202635	0.0213406682
4062.0683276365	0.0212774612
4063.9971350096	0.0211646035
4065.9259423826	0.0211819094
4067.8547497557	0.0211442001
4069.7835571287	0.0210954249
4071.7123645018	0.0209820122
4073.6411718748	0.0209318101
4075.5699792479	0.0209789537
4077.4987866209	0.0208471529
4079.4275939940	0.0208072849
4081.3564013670	0.0207473002
4083.2852087401	0.0207480676
4085.2140161131	0.0207201093
4087.1428234862	0.0206330754
4089.0716308592	0.0206203405
4091.0004382323	0.0205846801
4092.9292456053	0.0206016209
4094.8580529783	0.0204363950
4096.7868603514	0.0203278027
4098.7156677244	0.0203554742
4100.6444750975	0.0203878470
4102.5732824705	0.0203390792
4104.5020898436	0.0202481784
4106.4308972166	0.0202108957
4108.3597045897	0.0200665779
4110.2885119627	0.0201276634
4112.2173193358	0.0202213414
4114.1461267088	0.0200850684
4116.0749340819	0.0198901743
4118.0037414549	0.0199905112
4119.9325488280	0.0200558975
4121.8613562010	0.0198841654
4123.7901635740	0.0199439153
4125.7189709471	0.0197822433
4127.6477783201	0.0196545999
4129.5765856932	0.0196743198
4131.5053930662	0.0196209699
4133.4342004393	0.0195919294
4135.3630078123	0.0195095669
4137.2918151854	0.0195174553
4139.2206225584	0.0194306895
4141.1494299315	0.0194215886
4143.0782373045	0.0193417836
4145.0070446776	0.0193224810
4146.9358520506	0.0193151385
4148.8646594237	0.0192009583
4150.7934667967	0.0192983598
4152.7222741697	0.0190977529
4154.6510815428	0.0190265868
4156.5798889158	0.0190540440
4158.5086962889	0.0189957656
4160.4375036619	0.0189907346
4162.3663110350	0.0188305266
4164.2951184080	0.0188810602
4166.2239257811	0.0188667215
4168.1527331541	0.0188073590
4170.0815405272	0.0187144745
4172.0103479002	0.0186432302
4173.9391552733	0.0187665783
4175.8679626463	0.0186710767
4177.7967700194	0.0185117386
4179.7255773924	0.0184850208
4181.6543847654	0.0184894726
4183.5831921385	0.0184526853
4185.5119995115	0.0183742009
4187.4408068846	0.0182981230
4189.3696142576	0.0183450617
4191.2984216307	0.0183258206
4193.2272290037	0.0182800516
4195.1560363768	0.0182312466
4197.0848437498	0.0181252137
4199.0136511229	0.0181584992
4200.9424584959	0.0180285759
4202.8712658690	0.0180676468
4204.8000732420	0.0180613063
4206.7288806151	0.0178948361
4208.6576879881	0.0179427266
4210.5864953611	0.0179238413
4212.5153027342	0.0179372951
4214.4441101072	0.0177591871
4216.3729174803	0.0177043267
4218.3017248533	0.0176887624
4220.2305322264	0.0176009461
4222.1593395994	0.0176542960
4224.0881469725	0.0175279155
4226.0169543455	0.0175462347
4227.9457617186	0.0175030716
4229.8745690916	0.0174918398
4231.8033764647	0.0174582638
4233.7321838377	0.0173448846
4235.6609912108	0.0174426138
4237.5897985838	0.0173289105
4239.5186059569	0.0172620006
4241.4474133299	0.0173368491
4243.3762207029	0.0172401462
4245.3050280760	0.0171255264
4247.2338354490	0.0171716399
4249.1626428221	0.0170801319
4251.0914501951	0.0170370638
4253.0202575682	0.0170396976
4254.9490649412	0.0169238187
4256.8778723143	0.0169840697
4258.8066796873	0.0168834291
4260.7354870604	0.0168742482
4262.6642944334	0.0168041773
4264.5931018065	0.0167626776
4266.5219091795	0.0168066025
4268.4507165526	0.0166757442
4270.3795239256	0.0167620759
4272.3083312986	0.0165962093
4274.2371386717	0.0166321285
4276.1659460447	0.0166331343
4278.0947534178	0.0164593458
4280.0235607908	0.0165571682
4281.9523681639	0.0164589733
4283.8811755369	0.0164857935
4285.8099829100	0.0164084397
4287.7387902830	0.0163796246
4289.6675976561	0.0163052510
4291.5964050291	0.0162043571
4293.5252124022	0.0163073242
4295.4540197752	0.0161943696
4297.3828271483	0.0161149818
4299.3116345213	0.0160183478
4301.2404418943	0.0161135904
4303.1692492674	0.0160608664
4305.0980566404	0.0160211492
4307.0268640135	0.0160756558
4308.9556713865	0.0158654563
4310.8844787596	0.0159719158
4312.8132861326	0.0159145556
4314.7420935057	0.0158336516
4316.6709008787	0.0158067979
4318.5997082518	0.0157334246
4320.5285156248	0.0157888588
4322.4573229979	0.0156643968
4324.3861303709	0.0156086776
4326.3149377440	0.0155779859
4328.2437451170	0.0155479349
4330.1725524900	0.0155166630
4332.1013598631	0.0155733321
4334.0301672361	0.0154911056
4335.9589746092	0.0153838061
4337.8877819822	0.0154047627
4339.8165893553	0.0152787343
4341.7453967283	0.0153934788
4343.6742041014	0.0153436568
4345.6030114744	0.0152559225
4347.5318188475	0.0152237304
4349.4606262205	0.0151228178
4351.3894335936	0.0151684694
4353.3182409666	0.0150685478
4355.2470483397	0.0150952991
4357.1758557127	0.0149542354
4359.1046630858	0.0149143366
4361.0334704588	0.0150874741
4362.9622778318	0.0149546023
4364.8910852049	0.0149132647
4366.8198925779	0.0148949828
4368.7486999510	0.0148351258
4370.6775073240	0.0148076816
4372.6063146971	0.0148047060
4374.5351220701	0.0147558823
4376.4639294432	0.0147122927
4378.3927368162	0.0146642514
4380.3215441893	0.0146261342
4382.2503515623	0.0146545852
4384.1791589354	0.0144670159
4386.1079663084	0.0144569576
4388.0367736815	0.0145181986
4389.9655810545	0.0144669833
4391.8943884275	0.0144750308
4393.8231958006	0.0143723432
4395.7520031736	0.0143647809
4397.6808105467	0.0143609531
4399.6096179197	0.0143638197
4401.5384252928	0.0143422671
4403.4672326658	0.0141721945
4405.3960400389	0.0141116977
4407.3248474119	0.0141768288
4409.2536547850	0.0141721386
4411.1824621580	0.0140643539
4413.1112695311	0.0140404943
4415.0400769041	0.0140716378
4416.9688842772	0.0139971934
4418.8976916502	0.0138826985
4420.8264990232	0.0139172394
4422.7553063963	0.0138975708
4424.6841137693	0.0138614820
4426.6129211424	0.0138699729
4428.5417285154	0.0137185026
4430.4705358885	0.0137641076
4432.3993432615	0.0137314824
4434.3281506346	0.0136383716
4436.2569580076	0.0136893615
4438.1857653807	0.0135636050
4440.1145727537	0.0135822138
4442.0433801268	0.0135679254
4443.9721874998	0.0135350674
4445.9009948729	0.0135481525
4447.8298022459	0.0134315323
4449.7586096189	0.0134378169
4451.6874169920	0.0133735640
4453.6162243650	0.0133845219
4455.5450317381	0.0133545902
4457.4738391111	0.0132381851
4459.4026464842	0.0133374231
4461.3314538572	0.0132143972
4463.2602612303	0.0131624080
4465.1890686033	0.0132852532
4467.1178759764	0.0131698921
4469.0466833494	0.0130915008
4470.9754907225	0.0130981980
4472.9042980955	0.0131332679
4474.8331054686	0.0131312069
4476.7619128416	0.0130510256
4478.6907202147	0.0129647143
4480.6195275877	0.0129180290
4482.5483349607	0.0129800094
4484.4771423338	0.0129282847
4486.4059497068	0.0128344474
4488.3347570799	0.0128347110
4490.2635644529	0.0127767157
4492.1923718260	0.0127345072
4494.1211791990	0.0126909558
4496.0499865721	0.0126828579
4497.9787939451	0.0127313519
4499.9076013182	0.0126330107
4501.8364086912	0.0125514455
4503.7652160643	0.0125345420
4505.6940234373	0.0124738785
4507.6228308104	0.0125432163
4509.5516381834	0.0124965254
4511.4804455564	0.0123880543
4513.4092529295	0.0124720819
4515.3380603025	0.0123920077
4517.2668676756	0.0122665167
4519.1956750486	0.0122537464
4521.1244824217	0.0122412546
4523.0532897947	0.0122574437
4524.9820971678	0.0122335032
4526.9109045408	0.0122404732
4528.8397119139	0.0122209899
4530.7685192869	0.0120945908
4532.6973266600	0.0120611861
4534.6261340330	0.0120793544
4536.5549414061	0.0119834989
4538.4837487791	0.0119964872
4540.4125561521	0.0120496592
4542.3413635252	0.0119603034
4544.2701708982	0.0119590061
4546.1989782713	0.0119478889
4548.1277856443	0.0118424520
4550.0565930174	0.0118433926
4551.9854003904	0.0118958978
4553.9142077635	0.0117763653
4555.8430151365	0.0116879549
4557.7718225096	0.0117306514
4559.7006298826	0.0116980448
4561.6294372557	0.0116702085
4563.5582446287	0.0115970522
4565.4870520018	0.0115768984
4567.4158593748	0.0115485843
4569.3446667478	0.0115062846
4571.2734741209	0.0115568554
4573.2022814939	0.0115114488
4575.1310888670	0.0114747407
4577.0598962400	0.0113320239
4578.9887036131	0.0113298530
4580.9175109861	0.0114020295
4582.8463183592	0.0113297189
4584.7751257322	0.0113961818
4586.7039331053	0.0112609342
4588.6327404783	0.0112256855
4590.5615478514	0.0113226492
4592.4903552244	0.0112628452
4594.4191625975	0.0112300143
4596.3479699705	0.0110856276
4598.2767773435	0.0110934693
4600.2055847166	0.0111306775
4602.1343920896	0.0110987220
4604.0631994627	0.0111000706
4605.9920068357	0.0109497914
4607.9208142088	0.0109064933
4609.8496215818	0.0109272171
4611.7784289549	0.0109525286
4613.7072363279	0.0109708421
4615.6360437010	0.0108852498
4617.5648510740	0.0108375903
4619.4936584471	0.0107300840
4621.4224658201	0.0107485168
4623.3512731932	0.0108071910
4625.2800805662	0.0107361898
4627.2088879393	0.0107848449
4629.1376953123	0.0106673483
4631.0665026853	0.0106342603
4632.9953100584	0.0107433498
4634.9241174314	0.0106268935
4636.8529248045	0.0106054712
4638.7817321775	0.0105844280
4640.7105395506	0.0105652539
4642.6393469236	0.0105894096
4644.5681542967	0.0105364621
4646.4969616697	0.0104473019
4648.4257690428	0.0104333833
4650.3545764158	0.0104684830
4652.2833837889	0.0103382887
4654.2121911619	0.0103910845
4656.1409985350	0.0104183918
4658.0698059080	0.0103362724
4659.9986132810	0.0103405006
4661.9274206541	0.0102379266
4663.8562280271	0.0102374023
4665.7850354002	0.0102145867
4667.7138427732	0.0102174804
4669.6426501463	0.0101960953
4671.5714575193	0.0101522589
4673.5002648924	0.0101718931
4675.4290722654	0.0101176500
4677.3578796385	0.0101251658
4679.2866870115	0.0100197233
4681.2154943846	0.0099797091
4683.1443017576	0.0099851694
4685.0731091307	0.0099703614
4687.0019165037	0.0099533265
4688.9307238767	0.0098630218
4690.8595312498	0.0098570390
4692.7883386228	0.0097830202
4694.7171459959	0.0098811826
4696.6459533689	0.0099367937
4698.5747607420	0.0098294755
4700.5035681150	0.0097925868
4702.4323754881	0.0097448211
4704.3611828611	0.0097060706
4706.2899902342	0.0096440874
4708.2187976072	0.0096956166
4710.1476049803	0.0095916884
4712.0764123533	0.0095906295
4714.0052197264	0.0096689630
4715.9340270994	0.0095158089
4717.8628344724	0.0095278816
4719.7916418455	0.0094875880
4721.7204492185	0.0094737587
4723.6492565916	0.0095312744
4725.5780639646	0.0095038265
4727.5068713377	0.0094337203
4729.4356787107	0.0094050113
4731.3644860838	0.0093981586
4733.2932934568	0.0093443068
4735.2221008299	0.0094058756
4737.1509082029	0.0093219485
4739.0797155760	0.0092209708
4741.0085229490	0.0091815144
4742.9373303221	0.0092336275
4744.8661376951	0.0093342559
4746.7949450682	0.0092338175
4748.7237524412	0.0092017073
4750.6525598142	0.0091674589
4752.5813671873	0.0091599599
4754.5101745603	0.0090852343
4756.4389819334	0.0090602394
4758.3677893064	0.0091278069
4760.2965966795	0.0090401936
4762.2254040525	0.0090107881
4764.1542114256	0.0089691617
4766.0830187986	0.0089935772
4768.0118261717	0.0089272074
4769.9406335447	0.0088665634
4771.8694409178	0.0089173587
4773.7982482908	0.0088801449
4775.7270556639	0.0088724140
4777.6558630369	0.0088333413
4779.5846704099	0.0088553876
4781.5134777830	0.0088155475
4783.4422851560	0.0088224513
4785.3710925291	0.0087650232
4787.2998999021	0.0086810114
4789.2287072752	0.0087296907
4791.1575146482	0.0086179357
4793.0863220213	0.0087009557
4795.0151293943	0.0087171849
4796.9439367674	0.0086409766
4798.8727441404	0.0086328685
4800.8015515135	0.0085822940
4802.7303588865	0.0085877934
4804.6591662596	0.0084778108
4806.5879736326	0.0085399281
4808.5167810056	0.0085403081
4810.4455883787	0.0084595848
4812.3743957517	0.0084688105
4814.3032031248	0.0083971694
4816.2320104978	0.0084213801
4818.1608178709	0.0084554739
4820.0896252439	0.0084283035
4822.0184326170	0.0083096642
4823.9472399900	0.0083393939
4825.8760473631	0.0083010299
4827.8048547361	0.0081493165
4829.7336621092	0.0082415584
4831.6624694822	0.0082093030
4833.5912768553	0.0082412111
4835.5200842283	0.0082951197
4837.4488916013	0.0081450846
4839.3776989744	0.0081949327
4841.3065063474	0.0082186796
4843.2353137205	0.0080808885
4845.1641210935	0.0081235012
4847.0929284666	0.0081259757
4849.0217358396	0.0080544706
4850.9505432127	0.0080480985
4852.8793505857	0.0079884250
4854.8081579588	0.0080474652
4856.7369653318	0.0080296537
4858.6657727049	0.0079348832
4860.5945800779	0.0079102162
4862.5233874510	0.0079419054
4864.4521948240	0.0079740845
4866.3810021971	0.0078451019
4868.3098095701	0.0079250811
4870.2386169431	0.0079089394
4872.1674243162	0.0078036594
4874.0962316892	0.0078316191
4876.0250390623	0.0077739004
4877.9538464353	0.0078942822
4879.8826538084	0.0077952570
4881.8114611814	0.0077065090
4883.7402685545	0.0077649551
4885.6690759275	0.0076489891
4887.5978833006	0.0076991371
4889.5266906736	0.0076399129
4891.4554980467	0.0075752055
4893.3843054197	0.0076329769
4895.3131127928	0.0075952425
4897.2419201658	0.0075755566
4899.1707275388	0.0075393734
4901.0995349119	0.0075263260
4903.0283422849	0.0075358413
4904.9571496580	0.0075051375
4906.8859570310	0.0074581974
4908.8147644041	0.0074493885
4910.7435717771	0.0074201273
4912.6723791502	0.0073775165
4914.6011865232	0.0074226409
4916.5299938963	0.0074549187
4918.4588012693	0.0073739961
4920.3876086424	0.0073273340
4922.3164160154	0.0073138126
4924.2452233885	0.0072183311
4926.1740307615	0.0072976584
4928.1028381345	0.0073097171
4930.0316455076	0.0071721468
4931.9604528806	0.0072235754
4933.8892602537	0.0072123907
4935.8180676267	0.0071583888
4937.7468749998	0.0071120951
4939.6756823728	0.0071312049
4941.6044897459	0.0071961666
4943.5332971189	0.0070970650
4945.4621044920	0.0070543191
4947.3909118650	0.0070587797
4949.3197192381	0.0070591704
4951.2485266111	0.0070493007
4953.1773339842	0.0070352834
4955.1061413572	0.0070098876
4957.0349487302	0.0069809533
4958.9637561033	0.0070257401
4960.8925634763	0.0069416119
4962.8213708494	0.0069283247
4964.7501782224	0.0069404477
4966.6789855955	0.0068730069
4968.6077929685	0.0068668770
4970.5366003416	0.0067909667
4972.4654077146	0.0068339515
4974.3942150877	0.0068400428
4976.3230224607	0.0068334192
4978.2518298338	0.0069015929
4980.1806372068	0.0068207248
4982.1094445799	0.0067394832
4984.0382519529	0.0066858656
4985.9670593259	0.0067324182
4987.8958666990	0.0067033861
4989.8246740720	0.0066248430
4991.7534814451	0.0066682203
4993.6822888181	0.0066857068
4995.6110961912	0.0066314247
4997.5399035642	0.0065466650
4999.4687109373	0.0066181258
5001.3975183103	0.0065406896
5003.3263256834	0.0065340512
5005.2551330564	0.0066213701
5007.1839404295	0.0064129336
5009.1127478025	0.0064975955
5011.0415551756	0.0065584034
5012.9703625486	0.0064106951
5014.8991699217	0.0064422144
5016.8279772947	0.0064424239
5018.7567846677	0.0064306390
5020.6855920408	0.0064488724
5022.6143994138	0.0064186053
5024.5432067869	0.0063560652
5026.4720141599	0.0064162789
5028.4008215330	0.0063873287
5030.3296289060	0.0063042864
5032.2584362791	0.0063187918
5034.1872436521	0.0062611839
5036.1160510252	0.0062712966
5038.0448583982	0.0062176078
5039.9736657713	0.0062328950
5041.9024731443	0.0063237427
5043.8312805174	0.0062155277
5045.7600878904	0.0061598332
5047.6888952634	0.0061655245
5049.6177026365	0.0061125387
5051.5465100095	0.0061295219
5053.4753173826	0.0061703878
5055.4041247556	0.0060375812
5057.3329321287	0.0059964857
5059.2617395017	0.0060503483
5061.1905468748	0.0060446081
5063.1193542478	0.0060546398
5065.0481616209	0.0059499899
5066.9769689939	0.0059723253
5068.9057763670	0.0060274852
5070.8345837400	0.0059931236
5072.7633911131	0.0059797862
5074.6921984861	0.0058863573
5076.6210058591	0.0058665448
5078.5498132322	0.0058732005
5080.4786206052	0.0058665778
5082.4074279783	0.0058534206
5084.3362353513	0.0058543868
5086.2650427244	0.0058878120
5088.1938500974	0.0058602341
5090.1226574705	0.0058203819
5092.0514648435	0.0057793153
5093.9802722166	0.0057708281
5095.9090795896	0.0057586068
5097.8378869627	0.0057664029
5099.7666943357	0.0057801269
5101.6955017088	0.0057755704
5103.6243090818	0.0057712286
5105.5531164548	0.0057575470
5107.4819238279	0.0057671382
5109.4107312009	0.0056443838
5111.3395385740	0.0055897981
5113.2683459470	0.0056203697
5115.1971533201	0.0055681290
5117.1259606931	0.0056222649
5119.0547680662	0.0056255292
5120.9835754392	0.0055616545
5122.9123828123	0.0055450699
5124.8411901853	0.0055309446
5126.7699975584	0.0055180863
5128.6988049314	0.0055144178
5130.6276123045	0.0055110408
5132.5564196775	0.0055008540
5134.4852270506	0.0055747759
5136.4140344236	0.0055115754
5138.3428417966	0.0053926101
5140.2716491697	0.0054280870
5142.2004565427	0.0053891074
5144.1292639158	0.0053988071
5146.0580712888	0.0054029902
5147.9868786619	0.0053903628
5149.9156860349	0.0054391474
5151.8444934080	0.0053451266
5153.7733007810	0.0053423624
5155.7021081541	0.0053752721
5157.6309155271	0.0052981023
5159.5597229002	0.0052488046
5161.4885302732	0.0052462947
5163.4173376463	0.0052702208
5165.3461450193	0.0052188933
5167.2749523923	0.0052468828
5169.2037597654	0.0052520800
5171.1325671384	0.0052000429
5173.0613745115	0.0052379272
5174.9901818845	0.0051978016
5176.9189892576	0.0051436266
5178.8477966306	0.0051153367
5180.7766040037	0.0051526814
5182.7054113767	0.0051384037
5184.6342187498	0.0050693778
5186.5630261228	0.0051125102
5188.4918334959	0.0051069465
5190.4206408689	0.0050786436
5192.3494482420	0.0050736563
5194.2782556150	0.0050610518
5196.2070629880	0.0050096917
5198.1358703611	0.0050491970
5200.0646777341	0.0050591761
5201.9934851072	0.0049764030
5203.9222924802	0.0050296341
5205.8510998533	0.0049424339
5207.7799072263	0.0048853252
5209.7087145994	0.0049468949
5211.6375219724	0.0049975291
5213.5663293455	0.0050423788
5215.4951367185	0.0049817520
5217.4239440916	0.0049806787
5219.3527514646	0.0048234267
5221.2815588377	0.0048231333
5223.2103662107	0.0049727568
5225.1391735837	0.0048103230
5227.0679809568	0.0047741104
5228.9967883298	0.0047801165
5230.9255957029	0.0047662389
5232.8544030759	0.0048136846
5234.7832104490	0.0048123361
5236.7120178220	0.0048197568
5238.6408251951	0.0047009774
5240.5696325681	0.0047089113
5242.4984399412	0.0047647688
5244.4272473142	0.0046558166
5246.3560546873	0.0046720542
5248.2848620603	0.0046532229
5250.2136694334	0.0046507102
5252.1424768064	0.0047255917
5254.0712841795	0.0046205427
5256.0000915525	0.0045672487
5257.9288989255	0.0046318639
5259.8577062986	0.0046554497
5261.7865136716	0.0045368564
5263.7153210447	0.0044863997
5265.6441284177	0.0045966208
5267.5729357908	0.0045632836
5269.5017431638	0.0045593334
5271.4305505369	0.0045969835
5273.3593579099	0.0045862459
5275.2881652830	0.0045259153
5277.2169726560	0.0044872323
5279.1457800291	0.0045016073
5281.0745874021	0.0044532903
5283.0033947752	0.0044784872
5284.9322021482	0.0044074641
5286.8610095212	0.0044731051
5288.7898168943	0.0044976687
5290.7186242673	0.0043042330
5292.6474316404	0.0044165403
5294.5762390134	0.0044821687
5296.5050463865	0.0044519380
5298.4338537595	0.0044016419
5300.3626611326	0.0043737288
5302.2914685056	0.0043698051
5304.2202758787	0.0042915437
5306.1490832517	0.0042822976
5308.0778906248	0.0042488892
5310.0066979978	0.0043755812
5311.9355053709	0.0043650335
5313.8643127439	0.0043035783
5315.7931201169	0.0043334803
5317.7219274900	0.0042590224
5319.6507348630	0.0043179919
5321.5795422361	0.0042715161
5323.5083496091	0.0042522829
5325.4371569822	0.0042546485
5327.3659643552	0.0041760309
5329.2947717283	0.0041319276
5331.2235791013	0.0041767703
5333.1523864744	0.0042158375
5335.0811938474	0.0041287122
5337.0100012205	0.0041252989
5338.9388085935	0.0039884550
5340.8676159666	0.0041265851
5342.7964233396	0.0042204582
5344.7252307126	0.0039806301
5346.6540380857	0.0040167207
5348.5828454587	0.0040035048
5350.5116528318	0.0041111633
5352.4404602048	0.0040483922
5354.3692675779	0.0039596390
5356.2980749509	0.0041241171
5358.2268823240	0.0040362407
5360.1556896970	0.0040743393
5362.0844970701	0.0040526539
5364.0133044431	0.0039754692
5365.9421118162	0.0039529121
5367.8709191892	0.0039235600
5369.7997265623	0.0040533962
5371.7285339353	0.0040147160
5373.6573413083	0.0039605242
5375.5861486814	0.0039510718
5377.5149560544	0.0038402276
5379.4437634275	0.0038630683
5381.3725708005	0.0039300551
5383.3013781736	0.0038878652
5385.2301855466	0.0038763066
5387.1589929197	0.0037857681
5389.0878002927	0.0037952287
5391.0166076658	0.0039169998
5392.9454150388	0.0037880894
5394.8742224119	0.0037743538
5396.8030297849	0.0038189678
5398.7318371580	0.0037449293
5400.6606445310	0.0037277061
5402.5894519041	0.0037516735
5404.5182592771	0.0037845653
5406.4470666501	0.0037656194
5408.3758740232	0.0037513454
5410.3046813962	0.0036987481
5412.2334887693	0.0036953262
5414.1622961423	0.0036681271
5416.0911035154	0.0036869640
5418.0199108884	0.0037579872
5419.9487182615	0.0036994617
5421.8775256345	0.0037026405
5423.8063330076	0.0036596260
5425.7351403806	0.0036951348
5427.6639477537	0.0037056727
5429.5927551267	0.0036018214
5431.5215624998	0.0036432650
5433.4503698728	0.0036731977
5435.3791772458	0.0036143928
5437.3079846189	0.0035678691
5439.2367919919	0.0036293482
5441.1655993650	0.0035216152
5443.0944067380	0.0034977749
5445.0232141111	0.0036123772
5446.9520214841	0.0035161655
5448.8808288572	0.0034796759
5450.8096362302	0.0034739156
5452.7384436033	0.0035625314
5454.6672509763	0.0035415301
5456.5960583494	0.0035086228
5458.5248657224	0.0035850187
5460.4536730955	0.0034440677
5462.3824804685	0.0034677978
5464.3112878415	0.0035096081
5466.2400952146	0.0034732288
5468.1689025876	0.0034891698
5470.0977099607	0.0034398567
5472.0265173337	0.0034196994
5473.9553247068	0.0033728797
5475.8841320798	0.0033434178
5477.8129394529	0.0033453698
5479.7417468259	0.0034041163
5481.6705541990	0.0033972869
5483.5993615720	0.0033402313
5485.5281689451	0.0034084381
5487.4569763181	0.0033891778
5489.3857836912	0.0032942682
5491.3145910642	0.0032907289
5493.2433984372	0.0032417472
5495.1722058103	0.0031879377
5497.1010131833	0.0033410848
5499.0298205564	0.0033518064
5500.9586279294	0.0032454517
5502.8874353025	0.0033161002
5504.8162426755	0.0032952696
5506.7450500486	0.0032775169
5508.6738574216	0.0032948884
5510.6026647947	0.0032321722
5512.5314721677	0.0032563419
5514.4602795408	0.0032965704
5516.3890869138	0.0032186061
5518.3178942869	0.0032260534
5520.2467016599	0.0032698729
5522.1755090330	0.0031623850
5524.1043164060	0.0031950644
5526.0331237790	0.0032329408
5527.9619311521	0.0031516408
5529.8907385251	0.0031816175
5531.8195458982	0.0031457164
5533.7483532712	0.0030977088
5535.6771606443	0.0032272839
5537.6059680173	0.0032456932
5539.5347753904	0.0030962529
5541.4635827634	0.0031248846
5543.3923901365	0.0031581873
5545.3211975095	0.0030701312
5547.2500048826	0.0030351016
5549.1788122556	0.0030805129
5551.1076196287	0.0031356285
5553.0364270017	0.0030485382
5554.9652343747	0.0030909809
5556.8940417478	0.0031227209
5558.8228491208	0.0030250740
5560.7516564939	0.0030495119
5562.6804638669	0.0029513401
5564.6092712400	0.0029047769
5566.5380786130	0.0029507990
5568.4668859861	0.0029854234
5570.3956933591	0.0030424914
5572.3245007322	0.0030053828
5574.2533081052	0.0030155468
5576.1821154783	0.0030016992
5578.1109228513	0.0029884842
5580.0397302244	0.0029681399
5581.9685375974	0.0029351469
5583.8973449704	0.0029751337
5585.8261523435	0.0029678473
5587.7549597165	0.0029618945
5589.6837670896	0.0029370137
5591.6125744626	0.0029491461
5593.5413818357	0.0029197452
5595.4701892087	0.0028949652
5597.3989965818	0.0029234025
5599.3278039548	0.0028346234
5601.2566113279	0.0028822757
5603.1854187009	0.0028926856
5605.1142260740	0.0028286646
5607.0430334470	0.0028682239
5608.9718408201	0.0028524806
5610.9006481931	0.0028673129
5612.8294555661	0.0028040078
5614.7582629392	0.0027692835
5616.6870703122	0.0028405995
5618.6158776853	0.0027982364
5620.5446850583	0.0028093476
5622.4734924314	0.0028500592
5624.4022998044	0.0027948343
5626.3311071775	0.0027841665
5628.2599145505	0.0027323952
5630.1887219236	0.0027005756
5632.1175292966	0.0027976357
5634.0463366697	0.0027757064
5635.9751440427	0.0027431897
5637.9039514158	0.0027189218
5639.8327587888	0.0026953695
5641.7615661619	0.0027617104
5643.6903735349	0.0026982017
5645.6191809079	0.0026593492
5647.5479882810	0.0026733722
5649.4767956540	0.0026899176
5651.4056030271	0.0027201078
5653.3344104001	0.0026897124
5655.2632177732	0.0026683386
5657.1920251462	0.0026415579
5659.1208325193	0.0026807487
5661.0496398923	0.0026889916
5662.9784472654	0.0026424946
5664.9072546384	0.0025889168
5666.8360620115	0.0026301164
5668.7648693845	0.0026946778
5670.6936767576	0.0026145382
5672.6224841306	0.0025972379
5674.5512915036	0.0025446112
5676.4800988767	0.0025485470
5678.4089062497	0.0025270167
5680.3377136228	0.0025610756
5682.2665209958	0.0026692885
5684.1953283689	0.0024939077
5686.1241357419	0.0025571529
5688.0529431150	0.0025907550
5689.9817504880	0.0025284535
5691.9105578611	0.0025782362
5693.8393652341	0.0024376214
5695.7681726072	0.0024953648
5697.6969799802	0.0025219151
5699.6257873533	0.0024835947
5701.5545947263	0.0025105188
5703.4834020993	0.0024784841
5705.4122094724	0.0025133407
5707.3410168454	0.0024825828
5709.2698242185	0.0024542045
5711.1986315915	0.0024615414
5713.1274389646	0.0024953391
5715.0562463376	0.0024464368
5716.9850537107	0.0023948767
5718.9138610837	0.0024612613
5720.8426684568	0.0024597128
5722.7714758298	0.0024356258
5724.7002832029	0.0024131110
5726.6290905759	0.0024116663
5728.5578979490	0.0024039568
5730.4867053220	0.0024118654
5732.4155126950	0.0023927349
5734.3443200681	0.0023415703
5736.2731274411	0.0023484204
5738.2019348142	0.0023682404
5740.1307421872	0.0023703324
5742.0595495603	0.0022713847
5743.9883569333	0.0023015372
5745.9171643064	0.0023604422
5747.8459716794	0.0023011807
5749.7747790525	0.0022727333
5751.7035864255	0.0022444469
5753.6323937986	0.0023099987
5755.5612011716	0.0022710990
5757.4900085447	0.0022277315
5759.4188159177	0.0022571716
5761.3476232907	0.0022103409
5763.2764306638	0.0022295457
5765.2052380368	0.0021861168
5767.1340454099	0.0021925068
5769.0628527829	0.0022607574
5770.9916601560	0.0022377565
5772.9204675290	0.0022192807
5774.8492749021	0.0021682472
5776.7780822751	0.0021419816
5778.7068896482	0.0021760268
5780.6356970212	0.0021882430
5782.5645043943	0.0021819610
5784.4933117673	0.0021682829
5786.4221191404	0.0021074628
5788.3509265134	0.0021184210
5790.2797338865	0.0021926542
5792.2085412595	0.0021347378
5794.1373486325	0.0021101483
5796.0661560056	0.0021639341
5797.9949633786	0.0021490739
5799.9237707517	0.0021408580
5801.8525781247	0.0021524960
5803.7813854978	0.0021373816
5805.7101928708	0.0020870978
5807.6390002439	0.0021038228
5809.5678076169	0.0021323140
5811.4966149900	0.0020788554
5813.4254223630	0.0021081674
5815.3542297361	0.0020590746
5817.2830371091	0.0020446349
5819.2118444822	0.0021687765
5821.1406518552	0.0020822352
5823.0694592282	0.0020667496
5824.9982666013	0.0021030321
5826.9270739743	0.0020244019
5828.8558813474	0.0020878895
5830.7846887204	0.0020786766
5832.7134960935	0.0019625777
5834.6423034665	0.0019922797
5836.5711108396	0.0020159360
5838.4999182126	0.0019267959
5840.4287255857	0.0019497146
5842.3575329587	0.0019771068
5844.2863403318	0.0019801836
5846.2151477048	0.0020193774
5848.1439550779	0.0019304076
5850.0727624509	0.0019422711
5852.0015698239	0.0019519196
5853.9303771970	0.0018904326
5855.8591845700	0.0019457227
5857.7879919431	0.0019280969
5859.7167993161	0.0019288138
5861.6456066892	0.0019764183
5863.5744140622	0.0019336258
5865.5032214353	0.0019096764
5867.4320288083	0.0018818333
5869.3608361814	0.0018724828
5871.2896435544	0.0019304340
5873.2184509275	0.0018288889
5875.1472583005	0.0017848113
5877.0760656736	0.0019047677
5879.0048730466	0.0019185765
5880.9336804196	0.0019211217
5882.8624877927	0.0018603094
5884.7912951657	0.0018899546
5886.7201025388	0.0019375847
5888.6489099118	0.0018580491
5890.5777172849	0.0018894994
5892.5065246579	0.0018396662
5894.4353320310	0.0017890891
5896.3641394040	0.0018012288
5898.2929467771	0.0017989851
5900.2217541501	0.0018336393
5902.1505615232	0.0018247294
5904.0793688962	0.0017744477
5906.0081762693	0.0017047997
5907.9369836423	0.0017283538
5909.8657910154	0.0017901185
5911.7945983884	0.0018136023
5913.7234057614	0.0017722422
5915.6522131345	0.0017219723
5917.5810205075	0.0017341203
5919.5098278806	0.0017404284
5921.4386352536	0.0017351450
5923.3674426267	0.0017189686
5925.2962499997	0.0017450545
5927.2250573728	0.0017589047
5929.1538647458	0.0017880921
5931.0826721189	0.0017726754
5933.0114794919	0.0017443481
5934.9402868650	0.0017047239
5936.8690942380	0.0016311472
5938.7979016111	0.0017187395
5940.7267089841	0.0016837105
5942.6555163571	0.0016703750
5944.5843237302	0.0016725120
5946.5131311032	0.0016303472
5948.4419384763	0.0017060149
5950.3707458493	0.0016003060
5952.2995532224	0.0016340560
5954.2283605954	0.0016763328
5956.1571679685	0.0016222266
5958.0859753415	0.0016751690
5960.0147827146	0.0016358071
5961.9435900876	0.0016337270
5963.8723974607	0.0016611889
5965.8012048337	0.0016590811
5967.7300122068	0.0016165650
5969.6588195798	0.0016618171
5971.5876269528	0.0016300136
5973.5164343259	0.0015546737
5975.4452416989	0.0016591924
5977.3740490720	0.0016608126
5979.3028564450	0.0016238107
5981.2316638181	0.0016010348
5983.1604711911	0.0016495399
5985.0892785642	0.0016237714
5987.0180859372	0.0015716315
5988.9468933103	0.0016379248
5990.8757006833	0.0015934454
5992.8045080564	0.0015672601
5994.7333154294	0.0015208516
5996.6621228025	0.0015331691
5998.5909301755	0.0015161382
6000.5197375485	0.0014910450
