399.26312622,0.00082942
401.19193359,0.00074006
403.12074097,0.00055859
405.04954834,0.00054232
406.97835571,0.00088608
408.90716309,0.00053910
410.83597046,0.00086378
412.76477783,0.00117920
414.69358521,0.00075641
416.62239258,0.00073385
418.55119995,0.00068837
420.48000732,0.00091794
422.40881470,0.00116961
424.33762207,0.00094037
426.26642944,0.00071157
428.19523682,0.00126448
430.12404419,0.00143781
432.05285156,0.00071088
433.98165894,0.00083408
435.91046631,0.00081263
437.83927368,0.00080123
439.76808105,0.00122914
441.69688843,0.00079212
443.62569580,0.00065514
445.55450317,0.00104401
447.48331055,0.00088660
449.41211792,0.00066460
451.34092529,0.00072671
453.26973267,0.00086427
455.19854004,0.00062777
457.12734741,0.00026612
459.05615479,0.00069461
460.98496216,0.00064083
462.91376953,0.00048401
464.84257690,0.00089805
466.77138428,0.00053463
468.70019165,0.00033471
470.62899902,0.00028755
472.55780640,0.00054653
474.48661377,0.00059085
476.41542114,0.00021404
478.34422852,0.00043585
480.27303589,-0.00002416
482.20184326,0.00017239
484.13065063,0.00027647
486.05945801,0.00011756
487.98826538,0.00043734
489.91707275,-0.00002781
491.84588013,0.00044954
493.77468750,0.00052986
495.70349487,0.00040279
497.63230225,0.00031123
499.56110962,-0.00014255
501.48991699,0.00039776
503.41872437,0.00048500
505.34753174,0.00030937
507.27633911,0.00009838
509.20514648,0.00011644
511.13395386,0.00014796
513.06276123,0.00024361
514.99156860,0.00052573
516.92037598,-0.00010161
518.84918335,0.00002872
520.77799072,0.00014517
522.70679810,-0.00006798
524.63560547,0.00030071
526.56441284,0.00014742
528.49322021,0.00041310
530.42202759,0.00036460
532.35083496,0.00032865
534.27964233,0.00030981
536.20844971,0.00003438
538.13725708,0.00028193
540.06606445,-0.00018678
541.99487183,0.00019311
543.92367920,0.00023761
545.85248657,-0.00018990
547.78129395,0.00031065
549.71010132,0.00043340
551.63890869,0.00009163
553.56771606,0.00000059
555.49652344,0.00015062
557.42533081,0.00005302
559.35413818,0.00007100
561.28294556,0.00015168
563.21175293,0.00018154
565.14056030,0.00036607
567.06936768,0.00006135
568.99817505,-0.00012830
570.92698242,0.00025461
572.85578979,0.00018575
574.78459717,0.00008310
576.71340454,0.00029404
578.64221191,-0.00007855
580.57101929,-0.00009457
582.49982666,0.00013152
584.42863403,-0.00016519
586.35744141,0.00033673
588.28624878,0.00035736
590.21505615,-0.00027915
592.14386353,0.00021156
594.07267090,0.00038093
596.00147827,0.00000361
597.93028564,0.00003869
599.85909302,0.00008287
601.78790039,0.00005323
603.71670776,0.00031440
605.64551514,0.00041930
607.57432251,0.00016205
609.50312988,0.00042705
611.43193726,0.00049712
613.36074463,0.00005870
615.28955200,0.00001779
617.21835938,0.00003708
619.14716675,-0.00014139
621.07597412,-0.00001101
623.00478149,-0.00000896
624.93358887,0.00001999
626.86239624,0.00022126
628.79120361,0.00023894
630.72001099,0.00026781
632.64881836,0.00069465
634.57762573,0.00098922
636.50643311,0.00087287
638.43524048,0.00093584
640.36404785,0.00076638
642.29285522,0.00096446
644.22166260,0.00129342
646.15046997,0.00109875
648.07927734,0.00126681
650.00808472,0.00131389
651.93689209,0.00121245
653.86569946,0.00101156
655.79450684,0.00109958
657.72331421,0.00138891
659.65212158,0.00120916
661.58092896,0.00156402
663.50973633,0.00181220
665.43854370,0.00177607
667.36735107,0.00196474
669.29615845,0.00182485
671.22496582,0.00185832
673.15377319,0.00203368
675.08258057,0.00207462
677.01138794,0.00226693
678.94019531,0.00227879
680.86900269,0.00208688
682.79781006,0.00222684
684.72661743,0.00229980
686.65542480,0.00207649
688.58423218,0.00209098
690.51303955,0.00235616
692.44184692,0.00249152
694.37065430,0.00263644
696.29946167,0.00300539
698.22826904,0.00320620
700.15707642,0.00333993
702.08588379,0.00333786
704.01469116,0.00322366
705.94349854,0.00285119
707.87230591,0.00231570
709.80111328,0.00194880
711.72992065,0.00131025
713.65872803,0.00114162
715.58753540,0.00052331
717.51634277,0.00004488
719.44515015,0.00059074
721.37395752,0.00017976
723.30276489,0.00020688
725.23157227,0.00038612
727.16037964,0.00008615
729.08918701,0.00010286
731.01799438,0.00011140
732.94680176,0.00040356
734.87560913,0.00001645
736.80441650,0.00010340
738.73322388,0.00033655
740.66203125,0.00007203
742.59083862,0.00023032
744.51964600,-0.00007992
746.44845337,-0.00012488
748.37726074,0.00004420
750.30606812,0.00016288
752.23487549,0.00032397
754.16368286,0.00039623
756.09249023,0.00046783
758.02129761,0.00029275
759.95010498,0.00020223
761.87891235,0.00035029
763.80771973,0.00036808
765.73652710,0.00021945
767.66533447,0.00037908
769.59414185,0.00025766
771.52294922,0.00036473
773.45175659,0.00051100
775.38056396,0.00005073
777.30937134,0.00045779
779.23817871,0.00066001
781.16698608,0.00023690
783.09579346,0.00008673
785.02460083,0.00015711
786.95340820,0.00028192
788.88221558,0.00016837
790.81102295,0.00032063
792.73983032,0.00036229
794.66863770,0.00041522
796.59744507,0.00045572
798.52625244,0.00056512
800.45505981,0.00078437
802.38386719,0.00062390
804.31267456,0.00053812
806.24148193,0.00011671
808.17028931,0.00023428
810.09909668,0.00045391
812.02790405,0.00018135
813.95671143,0.00041556
815.88551880,0.00035242
817.81432617,0.00044510
819.74313354,0.00038909
821.67194092,0.00004460
823.60074829,0.00022355
825.52955566,0.00021045
827.45836304,0.00043011
829.38717041,0.00078199
831.31597778,0.00064600
833.24478516,0.00069913
835.17359253,0.00076076
837.10239990,0.00079609
839.03120728,0.00100235
840.96001465,0.00053558
842.88882202,0.00048778
844.81762939,0.00075646
846.74643677,0.00030746
848.67524414,0.00053858
850.60405151,0.00068572
852.53285889,0.00038013
854.46166626,0.00055554
856.39047363,0.00069128
858.31928101,0.00047137
860.24808838,0.00013765
862.17689575,0.00011506
864.10570313,0.00029811
866.03451050,0.00035812
867.96331787,0.00024996
869.89212524,0.00030591
871.82093262,0.00035089
873.74973999,0.00033259
875.67854736,0.00022670
877.60735474,0.00018644
879.53616211,0.00047436
881.46496948,0.00041001
883.39377686,0.00017818
885.32258423,0.00028461
887.25139160,0.00053287
889.18019897,0.00019824
891.10900635,0.00010020
893.03781372,0.00046263
894.96662109,0.00019503
896.89542847,0.00038163
898.82423584,0.00019493
900.75304321,0.00003385
902.68185059,0.00066694
904.61065796,0.00045187
906.53946533,0.00045591
908.46827271,0.00042095
910.39708008,0.00029097
912.32588745,0.00063125
914.25469482,0.00043656
916.18350220,0.00039338
918.11230957,0.00051096
920.04111694,0.00062907
921.96992432,0.00075451
923.89873169,0.00073338
925.82753906,0.00090989
927.75634644,0.00106782
929.68515381,0.00109525
931.61396118,0.00114741
933.54276855,0.00128914
935.47157593,0.00119042
937.40038330,0.00114554
939.32919067,0.00133760
941.25799805,0.00150684
943.18680542,0.00157456
945.11561279,0.00127848
947.04442017,0.00118994
948.97322754,0.00131601
950.90203491,0.00125497
952.83084229,0.00129480
954.75964966,0.00129670
956.68845703,0.00103129
958.61726440,0.00096683
960.54607178,0.00130267
962.47487915,0.00145775
964.40368652,0.00144781
966.33249390,0.00140709
968.26130127,0.00127680
970.19010864,0.00133467
972.11891602,0.00159676
974.04772339,0.00159840
975.97653076,0.00144161
977.90533813,0.00165257
979.83414551,0.00193414
981.76295288,0.00209345
983.69176025,0.00217362
985.62056763,0.00246513
987.54937500,0.00289929
989.47818237,0.00301285
991.40698975,0.00330719
993.33579712,0.00377149
995.26460449,0.00412822
997.19341187,0.00446421
999.12221924,0.00470105
1001.05102661,0.00504249
1002.97983398,0.00544680
1004.90864136,0.00572731
1006.83744873,0.00609752
1008.76625610,0.00643441
1010.69506348,0.00665501
1012.62387085,0.00719646
1014.55267822,0.00769728
1016.48148560,0.00794934
1018.41029297,0.00838619
1020.33910034,0.00882240
1022.26790771,0.00895346
1024.19671509,0.00917074
1026.12552246,0.00961928
1028.05432983,0.00994878
1029.98313721,0.01047412
1031.91194458,0.01078243
1033.84075195,0.01082285
1035.76955933,0.01103764
1037.69836670,0.01118733
1039.62717407,0.01138837
1041.55598145,0.01115669
1043.48478882,0.01101771
1045.41359619,0.01097374
1047.34240356,0.01071173
1049.27121094,0.01092414
1051.20001831,0.01067612
1053.12882568,0.01020996
1055.05763306,0.01000364
1056.98644043,0.00976936
1058.91524780,0.00962893
1060.84405518,0.00946338
1062.77286255,0.00931624
1064.70166992,0.00893880
1066.63047729,0.00859175
1068.55928467,0.00807936
1070.48809204,0.00770437
1072.41689941,0.00760495
1074.34570679,0.00708761
1076.27451416,0.00678284
1078.20332153,0.00638006
1080.13212891,0.00607659
1082.06093628,0.00603403
1083.98974365,0.00562616
1085.91855103,0.00539767
1087.84735840,0.00502940
1089.77616577,0.00480515
1091.70497314,0.00479467
1093.63378052,0.00456095
1095.56258789,0.00456010
1097.49139526,0.00419246
1099.42020264,0.00394009
1101.34901001,0.00411375
1103.27781738,0.00404550
1105.20662476,0.00415586
1107.13543213,0.00399274
1109.06423950,0.00379107
1110.99304687,0.00397314
1112.92185425,0.00386990
1114.85066162,0.00373630
1116.77946899,0.00367042
1118.70827637,0.00363768
1120.63708374,0.00368361
1122.56589111,0.00360246
1124.49469849,0.00370945
1126.42350586,0.00393602
1128.35231323,0.00387820
1130.28112061,0.00398146
1132.20992798,0.00415904
1134.13873535,0.00423367
1136.06754272,0.00445079
1137.99635010,0.00451398
1139.92515747,0.00488188
1141.85396484,0.00511382
1143.78277222,0.00521856
1145.71157959,0.00579928
1147.64038696,0.00592839
1149.56919434,0.00637531
1151.49800171,0.00694098
1153.42680908,0.00705856
1155.35561646,0.00747160
1157.28442383,0.00773853
1159.21323120,0.00810774
1161.14203857,0.00832253
1163.07084595,0.00847826
1164.99965332,0.00904328
1166.92846069,0.00935095
1168.85726807,0.00957333
1170.78607544,0.01005573
1172.71488281,0.01058076
1174.64369019,0.01079477
1176.57249756,0.01110059
1178.50130493,0.01150260
1180.43011230,0.01189646
1182.35891968,0.01257561
1184.28772705,0.01306277
1186.21653442,0.01358890
1188.14534180,0.01427335
1190.07414917,0.01483753
1192.00295654,0.01545359
1193.93176392,0.01631038
1195.86057129,0.01704622
1197.78937866,0.01766243
1199.71818604,0.01868905
1201.64699341,0.01940044
1203.57580078,0.02009669
1205.50460815,0.02110039
1207.43341553,0.02167137
1209.36222290,0.02233362
1211.29103027,0.02305413
1213.21983765,0.02366708
1215.14864502,0.02433688
1217.07745239,0.02476488
1219.00625977,0.02517634
1220.93506714,0.02544352
1222.86387451,0.02564345
1224.79268188,0.02602424
1226.72148926,0.02613346
1228.65029663,0.02646128
1230.57910400,0.02676412
1232.50791138,0.02658476
1234.43671875,0.02661545
1236.36552612,0.02664965
1238.29433350,0.02672901
1240.22314087,0.02660361
1242.15194824,0.02646238
1244.08075562,0.02650728
1246.00956299,0.02615708
1247.93837036,0.02615619
1249.86717773,0.02623372
1251.79598511,0.02606212
1253.72479248,0.02566935
1255.65359985,0.02524942
1257.58240723,0.02503054
1259.51121460,0.02442468
1261.44002197,0.02415221
1263.36882935,0.02395158
1265.29763672,0.02365690
1267.22644409,0.02350052
1269.15525146,0.02311547
1271.08405884,0.02278661
1273.01286621,0.02229986
1274.94167358,0.02204555
1276.87048096,0.02173246
1278.79928833,0.02126884
1280.72809570,0.02092567
1282.65690308,0.02036176
1284.58571045,0.02000988
1286.51451782,0.01957783
1288.44332520,0.01937318
1290.37213257,0.01943144
1292.30093994,0.01897013
1294.22974731,0.01857037
1296.15855469,0.01862038
1298.08736206,0.01874816
1300.01616943,0.01885639
1301.94497681,0.01890598
1303.87378418,0.01887662
1305.80259155,0.01913723
1307.73139893,0.01955023
1309.66020630,0.01989611
1311.58901367,0.02014435
1313.51782104,0.02053634
1315.44662842,0.02108436
1317.37543579,0.02126717
1319.30424316,0.02181301
1321.23305054,0.02270377
1323.16185791,0.02331118
1325.09066528,0.02404977
1327.01947266,0.02479507
1328.94828003,0.02535761
1330.87708740,0.02604669
1332.80589478,0.02669289
1334.73470215,0.02715623
1336.66350952,0.02730060
1338.59231689,0.02666418
1340.52112427,0.02706051
1342.44993164,0.02839413
1344.37873901,0.02853019
1346.30754639,0.02870284
1348.23635376,0.02858027
1350.16516113,0.02821295
1352.09396851,0.02844157
1354.02277588,0.02809041
1355.95158325,0.02783973
1357.88039062,0.02780537
1359.80919800,0.02735693
1361.73800537,0.02567933
1363.66681274,0.02524310
1365.59562012,0.02710264
1367.52442749,0.02631786
1369.45323486,0.02595323
1371.38204224,0.02670652
1373.31084961,0.02504671
1375.23965698,0.02508197
1377.16846436,0.02577129
1379.09727173,0.02568590
1381.02607910,0.02590084
1382.95488647,0.02591785
1384.88369385,0.02581791
1386.81250122,0.02429183
1388.74130859,0.02459050
1390.67011597,0.02717624
1392.59892334,0.02628666
1394.52773071,0.02421472
1396.45653809,0.02582249
1398.38534546,0.02565517
1400.31415283,0.02547591
1402.24296021,0.02795802
1404.17176758,0.02582684
1406.10057495,0.02604540
1408.02938232,0.02770387
1409.95818970,0.02640337
1411.88699707,0.02696005
1413.81580444,0.02600359
1415.74461182,0.02656221
1417.67341919,0.02358357
1419.60222656,0.02055901
1421.53103394,0.02452790
1423.45984131,0.02377756
1425.38864868,0.02307473
1427.31745605,0.02358532
1429.24626343,0.02145281
1431.17507080,0.02106679
1433.10387817,0.02157290
1435.03268555,0.01940877
1436.96149292,0.01608224
1438.89030029,0.01882300
1440.81910767,0.01957741
1442.74791504,0.01793758
1444.67672241,0.01911354
1446.60552979,0.01725657
1448.53433716,0.01730499
1450.46314453,0.01816831
1452.39195190,0.01853283
1454.32075928,0.01922239
1456.24956665,0.01528248
1458.17837402,0.01567895
1460.10718140,0.02199487
1462.03598877,0.02358402
1463.96479614,0.02300528
1465.89360352,0.02407235
1467.82241089,0.02781175
1469.75121826,0.02990643
1471.68002563,0.02574420
1473.60883301,0.02704380
1475.53764038,0.03110849
1477.46644775,0.03362033
1479.39525513,0.03771517
1481.32406250,0.03798573
1483.25286987,0.04078267
1485.18167725,0.04197355
1487.11048462,0.04052135
1489.03929199,0.04003716
1490.96809937,0.03981639
1492.89690674,0.04791081
1494.82571411,0.04656577
1496.75452148,0.04058154
1498.68332886,0.04688134
1500.61213623,0.04841004
1502.54094360,0.05241323
1504.46975098,0.04900164
1506.39855835,0.03308185
1508.32736572,0.04150545
1510.25617310,0.05064259
1512.18498047,0.04920986
1514.11378784,0.05375178
1516.04259521,0.04729207
1517.97140259,0.04953931
1519.90020996,0.04813939
1521.82901733,0.04018279
1523.75782471,0.05093714
1525.68663208,0.04998272
1527.61543945,0.04939675
1529.54424683,0.05608813
1531.47305420,0.05341377
1533.40186157,0.04789605
1535.33066895,0.05124187
1537.25947632,0.05597039
1539.18828369,0.03763194
1541.11709106,0.03894917
1543.04589844,0.04888655
1544.97470581,0.04643339
1546.90351318,0.05712976
1548.83232056,0.05282018
1550.76112793,0.05432610
1552.68993530,0.05440428
1554.61874268,0.04817601
1556.54755005,0.05260159
1558.47635742,0.03437526
1560.40516479,0.03732114
1562.33397217,0.05783006
1564.26277954,0.05393157
1566.19158691,0.05573712
1568.12039429,0.05492721
1570.04920166,0.04720138
1571.97800903,0.05640365
1573.90681641,0.05728590
1575.83562378,0.04341412
1577.76443115,0.04995558
1579.69323853,0.05776155
1581.62204590,0.05532859
1583.55085327,0.05688004
1585.47966064,0.05589269
1587.40846802,0.05652095
1589.33727539,0.05591512
1591.26608276,0.05591268
1593.19489014,0.05601954
1595.12369751,0.05511305
1597.05250488,0.05601525
1598.98131226,0.05555552
1600.91011963,0.05580689
1602.83892700,0.05473207
1604.76773437,0.05598985
1606.69654175,0.05495284
1608.62534912,0.05455792
1610.55415649,0.05464297
1612.48296387,0.05517833
1614.41177124,0.05602958
1616.34057861,0.04398869
1618.26938599,0.04833274
1620.19819336,0.05812081
1622.12700073,0.05026815
1624.05580811,0.05044341
1625.98461548,0.05365253
1627.91342285,0.05316606
1629.84223022,0.05320318
1631.77103760,0.05762690
1633.69984497,0.05226748
1635.62865234,0.04132350
1637.55745972,0.04959512
1639.48626709,0.05603624
1641.41507446,0.05449898
1643.34388184,0.05647843
1645.27268921,0.05015174
1647.20149658,0.04232811
1649.13030396,0.05518840
1651.05911133,0.05286178
1652.98791870,0.03085310
1654.91672607,0.04426534
1656.84553345,0.05873886
1658.77434082,0.05620979
1660.70314819,0.05791245
1662.63195557,0.05189478
1664.56076294,0.05501445
1666.48957031,0.06043011
1668.41837769,0.05132491
1670.34718506,0.04927658
1672.27599243,0.05799845
1674.20479980,0.05264210
1676.13360718,0.05000050
1678.06241455,0.05953426
1679.99122192,0.05701982
1681.92002930,0.05625268
1683.84883667,0.04413171
1685.77764404,0.04336195
1687.70645142,0.06320684
1689.63525879,0.05369161
1691.56406616,0.05997340
1693.49287354,0.06194089
1695.42168091,0.04234913
1697.35048828,0.05445345
1699.27929565,0.04685299
1701.20810303,0.04065936
1703.13691040,0.05969713
1705.06571777,0.05397493
1706.99452515,0.05439919
1708.92333252,0.06042384
1710.85213989,0.05764708
1712.78094727,0.05889106
1714.70975464,0.05385645
1716.63856201,0.04736043
1718.56736938,0.04614232
1720.49617676,0.05686489
1722.42498413,0.06009072
1724.35379150,0.05473814
1726.28259888,0.06071575
1728.21140625,0.05535486
1730.14021362,0.05546804
1732.06902100,0.05431613
1733.99782837,0.03892596
1735.92663574,0.05063513
1737.85544312,0.05731245
1739.78425049,0.04980741
1741.71305786,0.05493920
1743.64186523,0.05566734
1745.57067261,0.05585680
1747.49947998,0.05613677
1749.42828735,0.05318689
1751.35709473,0.05059988
1753.28590210,0.05725435
1755.21470947,0.06058379
1757.14351685,0.05381759
1759.07232422,0.06036972
1761.00113159,0.05623936
1762.92993896,0.05347297
1764.85874634,0.06320515
1766.78755371,0.05578121
1768.71636108,0.05622220
1770.64516846,0.05589995
1772.57397583,0.04908763
1774.50278320,0.05603857
1776.43159058,0.05974776
1778.36039795,0.05895167
1780.28920532,0.05800717
1782.21801270,0.05862574
1784.14682007,0.05861759
1786.07562744,0.05703294
1788.00443481,0.06084108
1789.93324219,0.05888145
1791.86204956,0.05186498
1793.79085693,0.05465985
1795.71966431,0.05949652
1797.64847168,0.05872981
1799.57727905,0.05777864
1801.50608643,0.05637578
1803.43489380,0.05855028
1805.36370117,0.06035493
1807.29250854,0.05944914
1809.22131592,0.05953933
1811.15012329,0.05754991
1813.07893066,0.05973278
1815.00773804,0.06007192
1816.93654541,0.05934937
1818.86535278,0.05995810
1820.79416016,0.05939832
1822.72296753,0.06054270
1824.65177490,0.05574978
1826.58058228,0.05810861
1828.50938965,0.05841731
1830.43819702,0.05373042
1832.36700439,0.05982827
1834.29581177,0.05961460
1836.22461914,0.05914711
1838.15342651,0.05913248
1840.08223389,0.05963699
1842.01104126,0.05972802
1843.93984863,0.05164868
1845.86865601,0.05557174
1847.79746338,0.05947714
1849.72627075,0.05797981
1851.65507812,0.06004692
1853.58388550,0.05877021
1855.51269287,0.05947473
1857.44150024,0.05892757
1859.37030762,0.05851199
1861.29911499,0.05910911
1863.22792236,0.05822461
1865.15672974,0.05899332
1867.08553711,0.05657490
1869.01434448,0.05366042
1870.94315186,0.05645575
1872.87195923,0.05913397
1874.80076660,0.05795797
1876.72957397,0.05843532
1878.65838135,0.05816386
1880.58718872,0.05765266
1882.51599609,0.05834398
1884.44480347,0.05723194
1886.37361084,0.05832469
1888.30241821,0.05669896
1890.23122559,0.05527559
1892.16003296,0.05795880
1894.08884033,0.05687232
1896.01764771,0.05658474
1897.94645508,0.05755166
1899.87526245,0.05730485
1901.80406982,0.05737538
1903.73287720,0.05679494
1905.66168457,0.05721935
1907.59049194,0.05652237
1909.51929932,0.05608816
1911.44810669,0.05659280
1913.37691406,0.05665136
1915.30572144,0.05730084
1917.23452881,0.05425286
1919.16333618,0.05424061
1921.09214355,0.05678404
1923.02095093,0.05450383
1924.94975830,0.05582264
1926.87856567,0.05679464
1928.80737305,0.05589651
1930.73618042,0.05666180
1932.66498779,0.05582615
1934.59379517,0.05641098
1936.52260254,0.05596226
1938.45140991,0.05625026
1940.38021729,0.05623997
1942.30902466,0.05390825
1944.23783203,0.05518664
1946.16663940,0.05596384
1948.09544678,0.05575125
1950.02425415,0.05609493
1951.95306152,0.05582906
1953.88186890,0.05580467
1955.81067627,0.05548954
1957.73948364,0.05584144
1959.66829102,0.05581703
1961.59709839,0.05560074
1963.52590576,0.05587792
1965.45471313,0.05542333
1967.38352051,0.05459061
1969.31232788,0.05516566
1971.24113525,0.05577394
1973.16994263,0.05513468
1975.09875000,0.05540523
1977.02755737,0.05542666
1978.95636475,0.05532227
1980.88517212,0.05517684
1982.81397949,0.05488109
1984.74278687,0.05515756
1986.67159424,0.05469675
1988.60040161,0.05484840
1990.52920898,0.05432497
1992.45801636,0.05348622
1994.38682373,0.05448221
1996.31563110,0.05474580
1998.24443848,0.05437957
2000.17324585,0.05425876
2002.10205322,0.05412628
2004.03086060,0.05427951
2005.95966797,0.05399690
2007.88847534,0.05381231
2009.81728271,0.05397055
2011.74609009,0.05354090
2013.67489746,0.05356022
2015.60370483,0.05334889
2017.53251221,0.05268077
2019.46131958,0.05316778
2021.39012695,0.05321345
2023.31893433,0.05295438
2025.24774170,0.05298380
2027.17654907,0.05286412
2029.10535645,0.05297035
2031.03416382,0.05276268
2032.96297119,0.05266052
2034.89177856,0.05262771
2036.82058594,0.05256209
2038.74939331,0.05237609
2040.67820068,0.05189331
2042.60700806,0.05176201
2044.53581543,0.05190528
2046.46462280,0.05193227
2048.39343018,0.05174343
2050.32223755,0.05172906
2052.25104492,0.05159783
2054.17985229,0.05139887
2056.10865967,0.05146092
2058.03746704,0.05127940
2059.96627441,0.05109932
2061.89508179,0.05116013
2063.82388916,0.05097177
2065.75269653,0.05071882
2067.68150391,0.05088079
2069.61031128,0.05079916
2071.53911865,0.05062195
2073.46792603,0.05054957
2075.39673340,0.05043631
2077.32554077,0.05049203
2079.25434814,0.05032734
2081.18315552,0.05031061
2083.11196289,0.05018779
2085.04077026,0.05002024
2086.96957764,0.05002677
2088.89838501,0.04977801
2090.82719238,0.04976844
2092.75599976,0.04974680
2094.68480713,0.04963508
2096.61361450,0.04961401
2098.54242187,0.04943591
2100.47122925,0.04923689
2102.40003662,0.04931988
2104.32884399,0.04926039
2106.25765137,0.04905034
2108.18645874,0.04914472
2110.11526611,0.04895940
2112.04407349,0.04890234
2113.97288086,0.04890837
2115.90168823,0.04873716
2117.83049561,0.04879811
2119.75930298,0.04868717
2121.68811035,0.04862227
2123.61691772,0.04856015
2125.54572510,0.04840636
2127.47453247,0.04840810
2129.40333984,0.04837052
2131.33214722,0.04816687
2133.26095459,0.04825177
2135.18976196,0.04825789
2137.11856934,0.04800726
2139.04737671,0.04810714
2140.97618408,0.04793897
2142.90499146,0.04793903
2144.83379883,0.04800690
2146.76260620,0.04789457
2148.69141357,0.04792795
2150.62022095,0.04769205
2152.54902832,0.04768428
2154.47783569,0.04757212
2156.40664307,0.04762550
2158.33545044,0.04757784
2160.26425781,0.04731614
2162.19306519,0.04754012
2164.12187256,0.04741029
2166.05067993,0.04731368
2167.97948730,0.04725343
2169.90829468,0.04728497
2171.83710205,0.04721804
2173.76590942,0.04700800
2175.69471680,0.04719742
2177.62352417,0.04698144
2179.55233154,0.04691403
2181.48113892,0.04687004
2183.40994629,0.04682877
2185.33875366,0.04692149
2187.26756104,0.04674160
2189.19636841,0.04679039
2191.12517578,0.04663020
2193.05398315,0.04663530
2194.98279053,0.04668785
2196.91159790,0.04659659
2198.84040527,0.04648137
2200.76921265,0.04622209
2202.69802002,0.04651219
2204.62682739,0.04642678
2206.55563477,0.04615902
2208.48444214,0.04635826
2210.41324951,0.04630297
2212.34205688,0.04621018
2214.27086426,0.04618699
2216.19967163,0.04620350
2218.12847900,0.04610265
2220.05728638,0.04595417
2221.98609375,0.04587345
2223.91490112,0.04578694
2225.84370850,0.04586536
2227.77251587,0.04574427
2229.70132324,0.04565835
2231.63013062,0.04568537
2233.55893799,0.04546502
2235.48774536,0.04536208
2237.41655273,0.04531849
2239.34536011,0.04538164
2241.27416748,0.04539520
2243.20297485,0.04521163
2245.13178223,0.04521744
2247.06058960,0.04513986
2248.98939697,0.04506672
2250.91820435,0.04503977
2252.84701172,0.04488701
2254.77581909,0.04477890
2256.70462646,0.04475087
2258.63343384,0.04473328
2260.56224121,0.04458683
2262.49104858,0.04457242
2264.41985596,0.04456709
2266.34866333,0.04449731
2268.27747070,0.04445305
2270.20627808,0.04443444
2272.13508545,0.04446713
2274.06389282,0.04431041
2275.99270020,0.04427966
2277.92150757,0.04426309
2279.85031494,0.04429683
2281.77912231,0.04422723
2283.70792969,0.04398631
2285.63673706,0.04405847
2287.56554443,0.04391187
2289.49435181,0.04387234
2291.42315918,0.04382785
2293.35196655,0.04362615
2295.28077393,0.04366132
2297.20958130,0.04343481
2299.13838867,0.04324136
2301.06719604,0.04311069
2302.99600342,0.04297355
2304.92481079,0.04287000
2306.85361816,0.04256819
2308.78242554,0.04224290
2310.71123291,0.04195318
2312.64004028,0.04153765
2314.56884766,0.04117830
2316.49765503,0.04082781
2318.42646240,0.04021367
2320.35526978,0.03986883
2322.28407715,0.03933883
2324.21288452,0.03878842
2326.14169189,0.03857671
2328.07049927,0.03809736
2329.99930664,0.03774920
2331.92811401,0.03739323
2333.85692139,0.03724507
2335.78572876,0.03710857
2337.71453613,0.03704276
2339.64334351,0.03713067
2341.57215088,0.03709682
2343.50095825,0.03772828
2345.42976562,0.03839663
2347.35857300,0.03978927
2349.28738037,0.04085311
2351.21618774,0.03962203
2353.14499512,0.03799295
2355.07380249,0.03661345
2357.00260986,0.03552413
2358.93141724,0.03493037
2360.86022461,0.03459287
2362.78903198,0.03443616
2364.71783936,0.03462396
2366.64664673,0.03511049
2368.57545410,0.03568702
2370.50426147,0.03660656
2372.43306885,0.03746839
2374.36187622,0.03842659
2376.29068359,0.03918640
2378.21949097,0.03993388
2380.14829834,0.04066496
2382.07710571,0.04093532
2384.00591309,0.04130077
2385.93472046,0.04115063
2387.86352783,0.04125565
2389.79233521,0.04139691
2391.72114258,0.04123361
2393.64994995,0.04141054
2395.57875732,0.04112272
2397.50756470,0.04116459
2399.43637207,0.04115482
2401.36517944,0.04093940
2403.29398682,0.04101500
2405.22279419,0.04091550
2407.15160156,0.04092808
2409.08040894,0.04074813
2411.00921631,0.04064581
2412.93802368,0.04070538
2414.86683105,0.04081656
2416.79563843,0.04075138
2418.72444580,0.04049049
2420.65325317,0.04056706
2422.58206055,0.04046279
2424.51086792,0.04034945
2426.43967529,0.04030403
2428.36848267,0.04022026
2430.29729004,0.04024248
2432.22609741,0.04019673
2434.15490479,0.04021631
2436.08371216,0.04010791
2438.01251953,0.03999997
2439.94132690,0.04000521
2441.87013428,0.03993836
2443.79894165,0.03987669
2445.72774902,0.03981514
2447.65655640,0.03978059
2449.58536377,0.03972009
2451.51417114,0.03962857
2453.44297852,0.03962757
2455.37178589,0.03957164
2457.30059326,0.03957973
2459.22940063,0.03961378
2461.15820801,0.03944826
2463.08701538,0.03949715
2465.01582275,0.03942721
2466.94463013,0.03929819
2468.87343750,0.03936695
2470.80224487,0.03916489
2472.73105225,0.03914676
2474.65985962,0.03920085
2476.58866699,0.03910857
2478.51747437,0.03900072
2480.44628174,0.03889237
2482.37508911,0.03888231
2484.30389648,0.03885737
2486.23270386,0.03891174
2488.16151123,0.03876568
2490.09031860,0.03861966
2492.01912598,0.03865824
2493.94793335,0.03868613
2495.87674072,0.03856522
2497.80554810,0.03839754
2499.73435547,0.03851736
2501.66316284,0.03845771
2503.59197021,0.03836501
2505.52077759,0.03824050
2507.44958496,0.03821700
2509.37839233,0.03834546
2511.30719971,0.03812596
2513.23600708,0.03818053
2515.16481445,0.03810922
2517.09362183,0.03795478
2519.02242920,0.03803002
2520.95123657,0.03789768
2522.88004395,0.03793140
2524.80885132,0.03790413
2526.73765869,0.03781029
2528.66646606,0.03773069
2530.59527344,0.03767114
2532.52408081,0.03765525
2534.45288818,0.03750830
2536.38169556,0.03748947
2538.31050293,0.03746492
2540.23931030,0.03748035
2542.16811768,0.03746125
2544.09692505,0.03733484
2546.02573242,0.03730730
2547.95453979,0.03714364
2549.88334717,0.03709171
2551.81215454,0.03722880
2553.74096191,0.03718311
2555.66976929,0.03711192
2557.59857666,0.03705603
2559.52738403,0.03694145
2561.45619141,0.03692669
2563.38499878,0.03693739
2565.31380615,0.03685201
2567.24261353,0.03671495
2569.17142090,0.03670518
2571.10022827,0.03670410
2573.02903564,0.03665506
2574.95784302,0.03665242
2576.88665039,0.03652579
2578.81545776,0.03652869
2580.74426514,0.03645575
2582.67307251,0.03632218
2584.60187988,0.03638964
2586.53068726,0.03631635
2588.45949463,0.03630047
2590.38830200,0.03616856
2592.31710937,0.03610388
2594.24591675,0.03619393
2596.17472412,0.03600050
2598.10353149,0.03596364
2600.03233887,0.03597413
2601.96114624,0.03583437
2603.88995361,0.03579260
2605.81876099,0.03580364
2607.74756836,0.03564614
2609.67637573,0.03553180
2611.60518311,0.03556178
2613.53399048,0.03551266
2615.46279785,0.03561274
2617.39160522,0.03546227
2619.32041260,0.03528274
2621.24921997,0.03548242
2623.17802734,0.03542703
2625.10683472,0.03529721
2627.03564209,0.03531034
2628.96444946,0.03526683
2630.89325684,0.03513821
2632.82206421,0.03507362
2634.75087158,0.03509340
2636.67967895,0.03505611
2638.60848633,0.03500304
2640.53729370,0.03493055
2642.46610107,0.03490912
2644.39490845,0.03483263
2646.32371582,0.03479584
2648.25252319,0.03475299
2650.18133057,0.03453148
2652.11013794,0.03450015
2654.03894531,0.03450559
2655.96775269,0.03442566
2657.89656006,0.03439759
2659.82536743,0.03435193
2661.75417480,0.03438564
2663.68298218,0.03433362
2665.61178955,0.03415666
2667.54059692,0.03411052
2669.46940430,0.03417144
2671.39821167,0.03411834
2673.32701904,0.03404404
2675.25582642,0.03412413
2677.18463379,0.03402780
2679.11344116,0.03387091
2681.04224854,0.03386921
2682.97105591,0.03373362
2684.89986328,0.03365329
2686.82867065,0.03365218
2688.75747803,0.03360752
2690.68628540,0.03356811
2692.61509277,0.03350755
2694.54390015,0.03342840
2696.47270752,0.03331552
2698.40151489,0.03338812
2700.33032227,0.03332347
2702.25912964,0.03317319
2704.18793701,0.03316065
2706.11674438,0.03304577
2708.04555176,0.03314289
2709.97435913,0.03302918
2711.90316650,0.03295636
2713.83197388,0.03312527
2715.76078125,0.03283686
2717.68958862,0.03272485
2719.61839600,0.03276498
2721.54720337,0.03276441
2723.47601074,0.03279972
2725.40481812,0.03264357
2727.33362549,0.03258416
2729.26243286,0.03251716
2731.19124023,0.03251413
2733.12004761,0.03250004
2735.04885498,0.03231500
2736.97766235,0.03228167
2738.90646973,0.03226994
2740.83527710,0.03220854
2742.76408447,0.03227228
2744.69289185,0.03217393
2746.62169922,0.03196773
2748.55050659,0.03203184
2750.47931396,0.03190837
2752.40812134,0.03178304
2754.33692871,0.03193756
2756.26573608,0.03183147
2758.19454346,0.03168009
2760.12335083,0.03163111
2762.05215820,0.03163008
2763.98096558,0.03159715
2765.90977295,0.03147716
2767.83858032,0.03143571
2769.76738770,0.03132765
2771.69619507,0.03128336
2773.62500244,0.03128024
2775.55380981,0.03116595
2777.48261719,0.03108492
2779.41142456,0.03102626
2781.34023193,0.03100980
2783.26903931,0.03105368
2785.19784668,0.03096279
2787.12665405,0.03078868
2789.05546143,0.03079179
2790.98426880,0.03074271
2792.91307617,0.03062459
2794.84188354,0.03054825
2796.77069092,0.03039386
2798.69949829,0.03035385
2800.62830566,0.03041761
2802.55711304,0.03037257
2804.48592041,0.03013025
2806.41472778,0.03006633
2808.34353516,0.03019521
2810.27234253,0.03004441
2812.20114990,0.02990360
2814.12995728,0.02985888
2816.05876465,0.02982487
2817.98757202,0.02982227
2819.91637939,0.02975174
2821.84518677,0.02970100
2823.77399414,0.02958660
2825.70280151,0.02957195
2827.63160889,0.02951495
2829.56041626,0.02928884
2831.48922363,0.02918087
2833.41803101,0.02906393
2835.34683838,0.02906775
2837.27564575,0.02899212
2839.20445312,0.02881285
2841.13326050,0.02877010
2843.06206787,0.02851214
2844.99087524,0.02836725
2846.91968262,0.02812530
2848.84848999,0.02776593
2850.77729736,0.02797398
2852.70610474,0.02812684
2854.63491211,0.02810285
2856.56371948,0.02815113
2858.49252686,0.02818410
2860.42133423,0.02826805
2862.35014160,0.02817378
2864.27894897,0.02803527
2866.20775635,0.02792256
2868.13656372,0.02792514
2870.06537109,0.02793232
2871.99417847,0.02776891
2873.92298584,0.02775970
2875.85179321,0.02762792
2877.78060059,0.02755541
2879.70940796,0.02770346
2881.63821533,0.02755798
2883.56702270,0.02741224
2885.49583008,0.02731586
2887.42463745,0.02715658
2889.35344482,0.02711302
2891.28225220,0.02712264
2893.21105957,0.02716640
2895.13986694,0.02698720
2897.06867432,0.02675531
2898.99748169,0.02672173
2900.92628906,0.02668189
2902.85509644,0.02672154
2904.78390381,0.02663115
2906.71271118,0.02644231
2908.64151855,0.02632511
2910.57032593,0.02613170
2912.49913330,0.02603255
2914.42794067,0.02588878
2916.35674805,0.02578223
2918.28555542,0.02575859
2920.21436279,0.02570646
2922.14317017,0.02582766
2924.07197754,0.02586373
2926.00078491,0.02589463
2927.92959229,0.02598934
2929.85839966,0.02603489
2931.78720703,0.02606523
2933.71601440,0.02595792
2935.64482178,0.02601682
2937.57362915,0.02610994
2939.50243652,0.02600919
2941.43124390,0.02600727
2943.36005127,0.02600750
2945.28885864,0.02593787
2947.21766602,0.02591474
2949.14647339,0.02580809
2951.07528076,0.02573355
2953.00408813,0.02570222
2954.93289551,0.02551118
2956.86170288,0.02550727
2958.79051025,0.02548376
2960.71931763,0.02535299
2962.64812500,0.02538264
2964.57693237,0.02528115
2966.50573975,0.02527439
2968.43454712,0.02531254
2970.36335449,0.02532686
2972.29216187,0.02526470
2974.22096924,0.02514426
2976.14977661,0.02531690
2978.07858398,0.02524685
2980.00739136,0.02516086
2981.93619873,0.02522759
2983.86500610,0.02510011
2985.79381348,0.02505122
2987.72262085,0.02500232
2989.65142822,0.02502144
2991.58023560,0.02499223
2993.50904297,0.02486021
2995.43785034,0.02481241
2997.36665771,0.02476093
2999.29546509,0.02467620
3001.22427246,0.02456385
3003.15307983,0.02444037
3005.08188721,0.02433950
3007.01069458,0.02450487
3008.93950195,0.02448979
3010.86830933,0.02418876
3012.79711670,0.02419123
3014.72592407,0.02412889
3016.65473145,0.02398320
3018.58353882,0.02400725
3020.51234619,0.02392624
3022.44115356,0.02379648
3024.36996094,0.02376460
3026.29876831,0.02367248
3028.22757568,0.02358383
3030.15638306,0.02353565
3032.08519043,0.02344246
3034.01399780,0.02339403
3035.94280518,0.02326057
3037.87161255,0.02318759
3039.80041992,0.02313907
3041.72922729,0.02304834
3043.65803467,0.02303679
3045.58684204,0.02292241
3047.51564941,0.02288948
3049.44445679,0.02284540
3051.37326416,0.02276530
3053.30207153,0.02265566
3055.23087891,0.02250897
3057.15968628,0.02251197
3059.08849365,0.02240320
3061.01730103,0.02240568
3062.94610840,0.02236541
3064.87491577,0.02214541
3066.80372314,0.02216011
3068.73253052,0.02214542
3070.66133789,0.02198289
3072.59014526,0.02186287
3074.51895264,0.02189451
3076.44776001,0.02186669
3078.37656738,0.02176005
3080.30537476,0.02172677
3082.23418213,0.02157809
3084.16298950,0.02151685
3086.09179687,0.02153910
3088.02060425,0.02138872
3089.94941162,0.02131675
3091.87821899,0.02131268
3093.80702637,0.02119399
3095.73583374,0.02115049
3097.66464111,0.02108118
3099.59344849,0.02097810
3101.52225586,0.02093558
3103.45106323,0.02081772
3105.37987061,0.02072717
3107.30867798,0.02061827
3109.23748535,0.02054531
3111.16629272,0.02049915
3113.09510010,0.02040999
3115.02390747,0.02030732
3116.95271484,0.02016809
3118.88152222,0.02017739
3120.81032959,0.02015718
3122.73913696,0.02008165
3124.66794434,0.01996341
3126.59675171,0.01977279
3128.52555908,0.01975430
3130.45436645,0.01976366
3132.38317383,0.01965443
3134.31198120,0.01949737
3136.24078857,0.01940757
3138.16959595,0.01931246
3140.09840332,0.01929694
3142.02721069,0.01925920
3143.95601807,0.01910883
3145.88482544,0.01911272
3147.81363281,0.01900800
3149.74244019,0.01892435
3151.67124756,0.01890681
3153.60005493,0.01877766
3155.52886230,0.01867192
3157.45766968,0.01855033
3159.38647705,0.01849780
3161.31528442,0.01845440
3163.24409180,0.01845698
3165.17289917,0.01837230
3167.10170654,0.01820192
3169.03051392,0.01813281
3170.95932129,0.01803294
3172.88812866,0.01796630
3174.81693604,0.01791476
3176.74574341,0.01787080
3178.67455078,0.01773444
3180.60335815,0.01766454
3182.53216553,0.01768193
3184.46097290,0.01755488
3186.38978027,0.01757835
3188.31858765,0.01750622
3190.24739502,0.01732835
3192.17620239,0.01736867
3194.10500977,0.01725831
3196.03381714,0.01714012
3197.96262451,0.01712652
3199.89143188,0.01693488
3201.82023926,0.01698207
3203.74904663,0.01701828
3205.67785400,0.01686905
3207.60666138,0.01692189
3209.53546875,0.01672566
3211.46427612,0.01674694
3213.39308350,0.01686576
3215.32189087,0.01663323
3217.25069824,0.01670814
3219.17950562,0.01669054
3221.10831299,0.01654395
3223.03712036,0.01654791
3224.96592773,0.01660726
3226.89473511,0.01649970
3228.82354248,0.01633481
3230.75234985,0.01643954
3232.68115723,0.01633009
3234.60996460,0.01632941
3236.53877197,0.01639871
3238.46757935,0.01630368
3240.39638672,0.01635015
3242.32519409,0.01627583
3244.25400146,0.01618590
3246.18280884,0.01610794
3248.11161621,0.01615950
3250.04042358,0.01618524
3251.96923096,0.01610624
3253.89803833,0.01622383
3255.82684570,0.01620112
3257.75565308,0.01613989
3259.68446045,0.01615768
3261.61326782,0.01615449
3263.54207520,0.01616756
3265.47088257,0.01614208
3267.39968994,0.01613747
3269.32849731,0.01607406
3271.25730469,0.01605551
3273.18611206,0.01606832
3275.11491943,0.01594429
3277.04372681,0.01599713
3278.97253418,0.01607211
3280.90134155,0.01597746
3282.83014893,0.01599936
3284.75895630,0.01593489
3286.68776367,0.01591989
3288.61657104,0.01602502
3290.54537842,0.01600095
3292.47418579,0.01591083
3294.40299316,0.01587041
3296.33180054,0.01593428
3298.26060791,0.01583760
3300.18941528,0.01587201
3302.11822266,0.01590265
3304.04703003,0.01578502
3305.97583740,0.01581350
3307.90464478,0.01573132
3309.83345215,0.01577064
3311.76225952,0.01574502
3313.69106689,0.01577782
3315.61987427,0.01577756
3317.54868164,0.01560058
3319.47748901,0.01582261
3321.40629639,0.01581288
3323.33510376,0.01567180
3325.26391113,0.01576972
3327.19271851,0.01583636
3329.12152588,0.01570326
3331.05033325,0.01561071
3332.97914062,0.01573835
3334.90794800,0.01557372
3336.83675537,0.01553509
3338.76556274,0.01566236
3340.69437012,0.01569075
3342.62317749,0.01564354
3344.55198486,0.01563678
3346.48079224,0.01572554
3348.40959961,0.01557965
3350.33840698,0.01560298
3352.26721436,0.01562184
3354.19602173,0.01557386
3356.12482910,0.01551354
3358.05363647,0.01535897
3359.98244385,0.01539718
3361.91125122,0.01542733
3363.84005859,0.01549061
3365.76886597,0.01546722
3367.69767334,0.01545079
3369.62648071,0.01540205
3371.55528809,0.01539478
3373.48409546,0.01553057
3375.41290283,0.01549735
3377.34171020,0.01550194
3379.27051758,0.01549234
3381.19932495,0.01552756
3383.12813232,0.01543152
3385.05693970,0.01540717
3386.98574707,0.01546349
3388.91455444,0.01538829
3390.84336182,0.01549433
3392.77216919,0.01537250
3394.70097656,0.01538047
3396.62978394,0.01542508
3398.55859131,0.01534765
3400.48739868,0.01543193
3402.41620605,0.01544846
3404.34501343,0.01548233
3406.27382080,0.01540106
3408.20262817,0.01543368
3410.13143555,0.01539845
3412.06024292,0.01535104
3413.98905029,0.01546500
3415.91785767,0.01551153
3417.84666504,0.01551684
3419.77547241,0.01537953
3421.70427979,0.01542493
3423.63308716,0.01546349
3425.56189453,0.01548290
3427.49070190,0.01548213
3429.41950928,0.01545773
3431.34831665,0.01549247
3433.27712402,0.01541791
3435.20593140,0.01551457
3437.13473877,0.01551097
3439.06354614,0.01552713
3440.99235352,0.01539912
3442.92116089,0.01539009
3444.84996826,0.01559342
3446.77877563,0.01526928
3448.70758301,0.01538893
3450.63639038,0.01566868
3452.56519775,0.01555097
3454.49400513,0.01566692
3456.42281250,0.01568274
3458.35161987,0.01556333
3460.28042725,0.01557359
3462.20923462,0.01548220
3464.13804199,0.01556040
3466.06684937,0.01569191
3467.99565674,0.01554365
3469.92446411,0.01572770
3471.85327148,0.01568281
3473.78207886,0.01557289
3475.71088623,0.01574746
3477.63969360,0.01568071
3479.56850098,0.01566843
3481.49730835,0.01546267
3483.42611572,0.01559149
3485.35492310,0.01572970
3487.28373047,0.01557558
3489.21253784,0.01567613
3491.14134521,0.01571518
3493.07015259,0.01585976
3494.99895996,0.01581783
3496.92776733,0.01576065
3498.85657471,0.01579950
3500.78538208,0.01579884
3502.71418945,0.01557301
3504.64299683,0.01556464
3506.57180420,0.01596570
3508.50061157,0.01565929
3510.42941895,0.01563128
3512.35822632,0.01583453
3514.28703369,0.01593105
3516.21584106,0.01608655
3518.14464844,0.01584674
3520.07345581,0.01593978
3522.00226318,0.01581968
3523.93107056,0.01563541
3525.85987793,0.01572454
3527.78868530,0.01570567
3529.71749268,0.01577689
3531.64630005,0.01595651
3533.57510742,0.01615740
3535.50391479,0.01598568
3537.43272217,0.01594628
3539.36152954,0.01614118
3541.29033691,0.01616402
3543.21914429,0.01607914
3545.14795166,0.01567647
3547.07675903,0.01538765
3549.00556641,0.01595590
3550.93437378,0.01614506
3552.86318115,0.01573376
3554.79198853,0.01606410
3556.72079590,0.01621442
3558.64960327,0.01624163
3560.57841064,0.01602441
3562.50721802,0.01596676
3564.43602539,0.01619633
3566.36483276,0.01473657
3568.29364014,0.01438462
3570.22244751,0.01593858
3572.15125488,0.01637022
3574.08006226,0.01621161
3576.00886963,0.01630075
3577.93767700,0.01622438
3579.86648437,0.01621088
3581.79529175,0.01616648
3583.72409912,0.01626254
3585.65290649,0.01598595
3587.58171387,0.01431709
3589.51052124,0.01477347
3591.43932861,0.01649584
3593.36813599,0.01587803
3595.29694336,0.01547452
3597.22575073,0.01595210
3599.15455811,0.01622996
3601.08336548,0.01591840
3603.01217285,0.01612346
3604.94098022,0.01668362
3606.86978760,0.01578407
3608.79859497,0.01466687
3610.72740234,0.01530677
3612.65620972,0.01555668
3614.58501709,0.01494006
3616.51382446,0.01630978
3618.44263184,0.01478577
3620.37143921,0.01424176
3622.30024658,0.01657945
3624.22905395,0.01600720
3626.15786133,0.01691274
3628.08666870,0.01389839
3630.01547607,0.01236725
3631.94428345,0.01636631
3633.87309082,0.01583905
3635.80189819,0.01615556
3637.73070557,0.01654232
3639.65951294,0.01631376
3641.58832031,0.01648181
3643.51712769,0.01627529
3645.44593506,0.01658157
3647.37474243,0.01440943
3649.30354980,0.01305896
3651.23235718,0.01326679
3653.16116455,0.01628890
3655.08997192,0.01624181
3657.01877930,0.01410704
3658.94758667,0.01675481
3660.87639404,0.01634558
3662.80520142,0.01654690
3664.73400879,0.01660008
3666.66281616,0.01632211
3668.59162354,0.01577796
3670.52043091,0.01239267
3672.44923828,0.01558470
3674.37804565,0.01468075
3676.30685303,0.01178328
3678.23566040,0.01555123
3680.16446777,0.01589571
3682.09327515,0.01607097
3684.02208252,0.01654454
3685.95088989,0.01622717
3687.87969727,0.01440111
3689.80850464,0.01280629
3691.73731201,0.01503644
3693.66611938,0.01566980
3695.59492676,0.01609165
3697.52373413,0.01611759
3699.45254150,0.01597694
3701.38134888,0.01541482
3703.31015625,0.01474842
3705.23896362,0.01659091
3707.16777100,0.01559791
3709.09657837,0.01513158
3711.02538574,0.01407184
3712.95419312,0.01297153
3714.88300049,0.01578453
3716.81180786,0.01558163
3718.74061523,0.01559901
3720.66942261,0.01522775
3722.59822998,0.01464830
3724.52703735,0.01520859
3726.45584473,0.01390667
3728.38465210,0.01530621
3730.31345947,0.01516620
3732.24226685,0.01371925
3734.17107422,0.01324928
3736.09988159,0.01246136
3738.02868896,0.01333856
3739.95749634,0.01467163
3741.88630371,0.01560431
3743.81511108,0.01158280
3745.74391846,0.01061402
3747.67272583,0.01458672
3749.60153320,0.01229129
3751.53034058,0.01103439
3753.45914795,0.01303041
3755.38795532,0.01429528
3757.31676270,0.01492331
3759.24557007,0.01357651
3761.17437744,0.01425582
3763.10318481,0.01529648
3765.03199219,0.01407318
3766.96079956,0.01440108
3768.88960693,0.01418004
3770.81841431,0.01341367
3772.74722168,0.01475992
3774.67602905,0.01495197
3776.60483643,0.01490369
3778.53364380,0.01426295
3780.46245117,0.01360252
3782.39125854,0.01472533
3784.32006592,0.01439222
3786.24887329,0.01432752
3788.17768066,0.01467105
3790.10648804,0.01451567
3792.03529541,0.01442586
3793.96410278,0.01472629
3795.89291016,0.01371159
3797.82171753,0.01342086
3799.75052490,0.01430357
3801.67933228,0.01094153
3803.60813965,0.01300054
3805.53694702,0.01435939
3807.46575439,0.01133873
3809.39456177,0.01418072
3811.32336914,0.01391047
3813.25217651,0.01451882
3815.18098389,0.01299156
3817.10979126,0.01102678
3819.03859863,0.01442868
3820.96740601,0.01123151
3822.89621338,0.01194442
3824.82502075,0.01440567
3826.75382812,0.01284529
3828.68263550,0.01398387
3830.61144287,0.01335420
3832.54025024,0.01284432
3834.46905762,0.01300831
3836.39786499,0.01237453
3838.32667236,0.01105469
3840.25547974,0.01196558
3842.18428711,0.01322058
3844.11309448,0.01250161
3846.04190186,0.01363908
3847.97070923,0.01343526
3849.89951660,0.01346735
3851.82832397,0.01194897
3853.75713135,0.00841691
3855.68593872,0.01034415
3857.61474609,0.01340608
3859.54355347,0.01300159
3861.47236084,0.01284676
3863.40116821,0.01256573
3865.32997559,0.01156116
3867.25878296,0.01310813
3869.18759033,0.01179161
3871.11639770,0.01071993
3873.04520508,0.01320760
3874.97401245,0.01194315
3876.90281982,0.01310650
3878.83162720,0.01340239
3880.76043457,0.01097632
3882.68924194,0.01307522
3884.61804932,0.01212220
3886.54685669,0.01091366
3888.47566406,0.01321673
3890.40447144,0.01236080
3892.33327881,0.01148044
3894.26208618,0.01279592
3896.19089355,0.01305996
3898.11970093,0.01235907
3900.04850830,0.01152521
3901.97731567,0.01129657
3903.90612305,0.01111478
3905.83493042,0.01128377
3907.76373779,0.01268065
3909.69254517,0.01279619
3911.62135254,0.01255505
3913.55015991,0.01284304
3915.47896728,0.01238371
3917.40777466,0.01186566
3919.33658203,0.01176356
3921.26538940,0.01235921
3923.19419678,0.01233457
3925.12300415,0.01202760
3927.05181152,0.01216749
3928.98061890,0.01236508
3930.90942627,0.01213218
3932.83823364,0.01158758
3934.76704102,0.01217702
3936.69584839,0.01227677
3938.62465576,0.01225322
3940.55346313,0.01246309
3942.48227051,0.01173228
3944.41107788,0.01187436
3946.33988525,0.01223722
3948.26869263,0.01182030
3950.19750000,0.01174335
3952.12630737,0.01212746
3954.05511475,0.01214720
3955.98392212,0.01198696
3957.91272949,0.01199995
3959.84153687,0.01197426
3961.77034424,0.01187712
3963.69915161,0.01186150
3965.62795898,0.01207413
3967.55676636,0.01184732
3969.48557373,0.01181887
3971.41438110,0.01193243
3973.34318848,0.01173273
3975.27199585,0.01176816
3977.20080322,0.01175548
3979.12961060,0.01186781
3981.05841797,0.01175389
3982.98722534,0.01169514
3984.91603271,0.01174905
3986.84484009,0.01164010
3988.77364746,0.01165996
3990.70245483,0.01153717
3992.63126221,0.01159574
3994.56006958,0.01153603
3996.48887695,0.01147707
3998.41768433,0.01156177
4000.34649170,0.01148647
4002.27529907,0.01141928
4004.20410645,0.01145057
4006.13291382,0.01146915
4008.06172119,0.01125741
4009.99052856,0.01134950
4011.91933594,0.01133641
4013.84814331,0.01121891
4015.77695068,0.01134414
4017.70575806,0.01123598
4019.63456543,0.01110916
4021.56337280,0.01116264
4023.49218018,0.01128213
4025.42098755,0.01112370
4027.34979492,0.01113860
4029.27860229,0.01116382
4031.20740967,0.01103530
4033.13621704,0.01112891
4035.06502441,0.01106122
4036.99383179,0.01104723
4038.92263916,0.01099631
4040.85144653,0.01100419
4042.78025391,0.01097625
4044.70906128,0.01088023
4046.63786865,0.01089899
4048.56667603,0.01077411
4050.49548340,0.01082426
4052.42429077,0.01083802
4054.35309814,0.01082322
4056.28190552,0.01080043
4058.21071289,0.01073990
4060.13952026,0.01073699
4062.06832764,0.01068889
4063.99713501,0.01068354
4065.92594238,0.01065307
4067.85474976,0.01074463
4069.78355713,0.01069219
4071.71236450,0.01064350
4073.64117187,0.01065030
4075.56997925,0.01058441
4077.49878662,0.01056645
4079.42759399,0.01044625
4081.35640137,0.01052386
4083.28520874,0.01053093
4085.21401611,0.01042659
4087.14282349,0.01035759
4089.07163086,0.01032232
4091.00043823,0.01032058
4092.92924561,0.01031725
4094.85805298,0.01039350
4096.78686035,0.01030354
4098.71566772,0.01029971
4100.64447510,0.01022461
4102.57328247,0.01022070
4104.50208984,0.01022499
4106.43089722,0.01011730
4108.35970459,0.01024671
4110.28851196,0.01006806
4112.21731934,0.01003845
4114.14612671,0.01014558
4116.07493408,0.01010370
4118.00374145,0.01008882
4119.93254883,0.01003437
4121.86135620,0.01011557
4123.79016357,0.00998744
4125.71897095,0.00991565
4127.64777832,0.00993309
4129.57658569,0.00994022
4131.50539307,0.00998611
4133.43420044,0.00994266
4135.36300781,0.00986310
4137.29181519,0.00968800
4139.22062256,0.00974429
4141.14942993,0.00974936
4143.07823730,0.00972020
4145.00704468,0.00978164
4146.93585205,0.00968479
4148.86465942,0.00967770
4150.79346680,0.00972215
4152.72227417,0.00966501
4154.65108154,0.00957477
4156.57988892,0.00962367
4158.50869629,0.00956457
4160.43750366,0.00951610
4162.36631103,0.00951988
4164.29511841,0.00950076
4166.22392578,0.00959619
4168.15273315,0.00947524
4170.08154053,0.00947277
4172.01034790,0.00949371
4173.93915527,0.00941110
4175.86796265,0.00945102
4177.79677002,0.00939341
4179.72557739,0.00932663
4181.65438477,0.00927793
4183.58319214,0.00927979
4185.51199951,0.00926062
4187.44080688,0.00925988
4189.36961426,0.00923604
4191.29842163,0.00917904
4193.22722900,0.00920605
4195.15603638,0.00918219
4197.08484375,0.00915326
4199.01365112,0.00911236
4200.94245850,0.00909607
4202.87126587,0.00908564
4204.80007324,0.00906101
4206.72888062,0.00895992
4208.65768799,0.00896414
4210.58649536,0.00900824
4212.51530273,0.00891048
4214.44411011,0.00898886
4216.37291748,0.00897663
4218.30172485,0.00895542
4220.23053223,0.00886949
4222.15933960,0.00880482
4224.08814697,0.00896323
4226.01695435,0.00884955
4227.94576172,0.00882867
4229.87456909,0.00886691
4231.80337646,0.00880097
4233.73218384,0.00879211
4235.66099121,0.00872163
4237.58979858,0.00863050
4239.51860596,0.00865403
4241.44741333,0.00874578
4243.37622070,0.00866138
4245.30502808,0.00868422
4247.23383545,0.00865121
4249.16264282,0.00857037
4251.09145020,0.00862191
4253.02025757,0.00854531
4254.94906494,0.00851759
4256.87787231,0.00853219
4258.80667969,0.00851157
4260.73548706,0.00842955
4262.66429443,0.00845434
4264.59310181,0.00842563
4266.52190918,0.00836622
4268.45071655,0.00844237
4270.37952393,0.00840841
4272.30833130,0.00841106
4274.23713867,0.00835355
4276.16594604,0.00835935
4278.09475342,0.00828580
4280.02356079,0.00826722
4281.95236816,0.00836076
4283.88117554,0.00817484
4285.80998291,0.00822824
4287.73879028,0.00825197
4289.66759766,0.00821063
4291.59640503,0.00820315
4293.52521240,0.00811512
4295.45401978,0.00816882
4297.38282715,0.00811768
4299.31163452,0.00809102
4301.24044189,0.00809053
4303.16924927,0.00812609
4305.09805664,0.00811214
4307.02686401,0.00804344
4308.95567139,0.00799138
4310.88447876,0.00799042
4312.81328613,0.00812431
4314.74209351,0.00806917
4316.67090088,0.00803793
4318.59970825,0.00790498
4320.52851562,0.00786191
4322.45732300,0.00799275
4324.38613037,0.00787663
4326.31493774,0.00788738
4328.24374512,0.00786552
4330.17255249,0.00780722
4332.10135986,0.00778606
4334.03016724,0.00777245
4335.95897461,0.00779106
4337.88778198,0.00768391
4339.81658936,0.00769315
4341.74539673,0.00778256
4343.67420410,0.00776073
4345.60301147,0.00768402
4347.53181885,0.00768367
4349.46062622,0.00764351
4351.38943359,0.00765380
4353.31824097,0.00759749
4355.24704834,0.00752507
4357.17585571,0.00764047
4359.10466309,0.00749329
4361.03347046,0.00746668
4362.96227783,0.00752722
4364.89108520,0.00747393
4366.81989258,0.00750893
4368.74869995,0.00748327
4370.67750732,0.00746428
4372.60631470,0.00734343
4374.53512207,0.00740098
4376.46392944,0.00740580
4378.39273682,0.00729356
4380.32154419,0.00740424
4382.25035156,0.00739485
4384.17915894,0.00734590
4386.10796631,0.00731681
4388.03677368,0.00728416
4389.96558105,0.00722315
4391.89438843,0.00723688
4393.82319580,0.00725409
4395.75200317,0.00715177
4397.68081055,0.00716859
4399.60961792,0.00720193
4401.53842529,0.00720685
4403.46723267,0.00713336
4405.39604004,0.00713209
4407.32484741,0.00715019
4409.25365478,0.00704585
4411.18246216,0.00708087
4413.11126953,0.00710759
4415.04007690,0.00704860
4416.96888428,0.00707985
4418.89769165,0.00705919
4420.82649902,0.00692191
4422.75530640,0.00699161
4424.68411377,0.00696690
4426.61292114,0.00690984
4428.54172852,0.00700272
4430.47053589,0.00689902
4432.39934326,0.00697577
4434.32815063,0.00691202
4436.25695801,0.00677774
4438.18576538,0.00684790
4440.11457275,0.00678587
4442.04338013,0.00682459
4443.97218750,0.00673867
4445.90099487,0.00672945
4447.82980225,0.00679253
4449.75860962,0.00669563
4451.68741699,0.00675197
4453.61622437,0.00672407
4455.54503174,0.00666585
4457.47383911,0.00671389
4459.40264648,0.00667282
4461.33145386,0.00658708
4463.26026123,0.00660055
4465.18906860,0.00657647
4467.11787598,0.00656107
4469.04668335,0.00669659
4470.97549072,0.00668503
4472.90429810,0.00653217
4474.83310547,0.00649833
4476.76191284,0.00651672
4478.69072021,0.00646505
4480.61952759,0.00646884
4482.54833496,0.00648219
4484.47714233,0.00651306
4486.40594971,0.00649199
4488.33475708,0.00636365
4490.26356445,0.00641769
4492.19237183,0.00641179
4494.12117920,0.00634106
4496.04998657,0.00634789
4497.97879395,0.00633870
4499.90760132,0.00629729
4501.83640869,0.00622778
4503.76521606,0.00632062
4505.69402344,0.00631118
4507.62283081,0.00622009
4509.55163818,0.00625254
4511.48044556,0.00625781
4513.40925293,0.00623401
4515.33806030,0.00618093
4517.26686768,0.00612311
4519.19567505,0.00612165
4521.12448242,0.00614619
4523.05328979,0.00610376
4524.98209717,0.00617666
4526.91090454,0.00611227
4528.83971191,0.00599242
4530.76851929,0.00610966
4532.69732666,0.00600968
4534.62613403,0.00606301
4536.55494141,0.00614084
4538.48374878,0.00594182
4540.41255615,0.00600352
4542.34136353,0.00605705
4544.27017090,0.00591749
4546.19897827,0.00591144
4548.12778564,0.00594262
4550.05659302,0.00587277
4551.98540039,0.00594409
4553.91420776,0.00593434
4555.84301514,0.00582621
4557.77182251,0.00587961
4559.70062988,0.00590017
4561.62943726,0.00589959
4563.55824463,0.00586934
4565.48705200,0.00587233
4567.41585937,0.00579544
4569.34466675,0.00580195
4571.27347412,0.00587415
4573.20228149,0.00573627
4575.13108887,0.00576291
4577.05989624,0.00573488
4578.98870361,0.00574855
4580.91751099,0.00573480
4582.84631836,0.00560431
4584.77512573,0.00573787
4586.70393311,0.00566655
4588.63274048,0.00561095
4590.56154785,0.00564180
4592.49035522,0.00561491
4594.41916260,0.00565786
4596.34796997,0.00558221
4598.27677734,0.00558792
4600.20558472,0.00553216
4602.13439209,0.00552204
4604.06319946,0.00560836
4605.99200684,0.00558016
4607.92081421,0.00554527
4609.84962158,0.00548354
4611.77842895,0.00549715
4613.70723633,0.00543990
4615.63604370,0.00545395
4617.56485107,0.00548514
4619.49365845,0.00537604
4621.42246582,0.00548571
4623.35127319,0.00547090
4625.28008057,0.00538287
4627.20888794,0.00540218
4629.13769531,0.00534438
4631.06650269,0.00536477
4632.99531006,0.00530618
4634.92411743,0.00528592
4636.85292480,0.00532794
4638.78173218,0.00530155
4640.71053955,0.00533831
4642.63934692,0.00529485
4644.56815430,0.00523021
4646.49696167,0.00522541
4648.42576904,0.00523306
4650.35457642,0.00522061
4652.28338379,0.00521064
4654.21219116,0.00518388
4656.14099853,0.00514747
4658.06980591,0.00520062
4659.99861328,0.00515827
4661.92742065,0.00521492
4663.85622803,0.00526176
4665.78503540,0.00505486
4667.71384277,0.00502230
4669.64265015,0.00511222
4671.57145752,0.00517143
4673.50026489,0.00513536
4675.42907227,0.00502277
4677.35787964,0.00499200
4679.28668701,0.00502150
4681.21549438,0.00505539
4683.14430176,0.00501676
4685.07310913,0.00501026
4687.00191650,0.00496179
4688.93072388,0.00493796
4690.85953125,0.00495798
4692.78833862,0.00487810
4694.71714600,0.00489544
4696.64595337,0.00493059
4698.57476074,0.00493435
4700.50356812,0.00492665
4702.43237549,0.00485233
4704.36118286,0.00478461
4706.28999023,0.00482765
4708.21879761,0.00489884
4710.14760498,0.00485284
4712.07641235,0.00484008
4714.00521973,0.00478295
4715.93402710,0.00478891
4717.86283447,0.00488610
4719.79164185,0.00479080
4721.72044922,0.00475135
4723.64925659,0.00477127
4725.57806396,0.00472183
4727.50687134,0.00474830
4729.43567871,0.00473629
4731.36448608,0.00468515
4733.29329346,0.00469476
4735.22210083,0.00467485
4737.15090820,0.00469996
4739.07971558,0.00470909
4741.00852295,0.00463516
4742.93733032,0.00460929
4744.86613770,0.00458510
4746.79494507,0.00462194
4748.72375244,0.00461967
4750.65255981,0.00457344
4752.58136719,0.00457504
4754.51017456,0.00458956
4756.43898193,0.00465013
4758.36778931,0.00458353
4760.29659668,0.00451577
4762.22540405,0.00449279
4764.15421143,0.00453570
4766.08301880,0.00455822
4768.01182617,0.00442728
4769.94063354,0.00448685
4771.86944092,0.00450940
4773.79824829,0.00449340
4775.72705566,0.00451151
4777.65586304,0.00442674
4779.58467041,0.00445230
4781.51347778,0.00444410
4783.44228516,0.00438206
4785.37109253,0.00429277
4787.29989990,0.00437051
4789.22870728,0.00450274
4791.15751465,0.00434790
4793.08632202,0.00429817
4795.01512939,0.00434083
4796.94393677,0.00434087
4798.87274414,0.00433796
4800.80155151,0.00431327
4802.73035889,0.00437724
4804.65916626,0.00433267
4806.58797363,0.00424317
4808.51678101,0.00425783
4810.44558838,0.00424557
4812.37439575,0.00424793
4814.30320312,0.00419186
4816.23201050,0.00419792
4818.16081787,0.00430808
4820.08962524,0.00417730
4822.01843262,0.00410749
4823.94723999,0.00419636
4825.87604736,0.00414279
4827.80485474,0.00416951
4829.73366211,0.00422944
4831.66246948,0.00411582
4833.59127686,0.00404884
4835.52008423,0.00410736
4837.44889160,0.00406821
4839.37769897,0.00407161
4841.30650635,0.00408617
4843.23531372,0.00401509
4845.16412109,0.00414096
4847.09292847,0.00416439
4849.02173584,0.00403834
4850.95054321,0.00404133
4852.87935059,0.00401500
4854.80815796,0.00399050
4856.73696533,0.00404163
4858.66577270,0.00399705
4860.59458008,0.00396197
4862.52338745,0.00403166
4864.45219482,0.00395572
4866.38100220,0.00396899
4868.30980957,0.00398168
4870.23861694,0.00389482
4872.16742432,0.00397485
4874.09623169,0.00395985
4876.02503906,0.00392869
4877.95384644,0.00386485
4879.88265381,0.00385000
4881.81146118,0.00388393
4883.74026855,0.00384422
4885.66907593,0.00391506
4887.59788330,0.00382135
4889.52669067,0.00383243
4891.45549805,0.00388338
4893.38430542,0.00373621
4895.31311279,0.00371597
4897.24192017,0.00378900
4899.17072754,0.00386938
4901.09953491,0.00377569
4903.02834228,0.00377781
4904.95714966,0.00382857
4906.88595703,0.00371618
4908.81476440,0.00371042
4910.74357178,0.00373201
4912.67237915,0.00377285
4914.60118652,0.00373128
4916.52999390,0.00364440
4918.45880127,0.00371464
4920.38760864,0.00376892
4922.31641602,0.00363361
4924.24522339,0.00357715
4926.17403076,0.00361928
4928.10283813,0.00357866
4930.03164551,0.00367311
4931.96045288,0.00363009
4933.88926025,0.00355381
4935.81806763,0.00360025
4937.74687500,0.00352498
4939.67568237,0.00356126
4941.60448975,0.00357617
4943.53329712,0.00355344
4945.46210449,0.00354746
4947.39091187,0.00351295
4949.31971924,0.00352991
4951.24852661,0.00349410
4953.17733398,0.00348376
4955.10614136,0.00351396
4957.03494873,0.00352108
4958.96375610,0.00346140
4960.89256348,0.00344656
4962.82137085,0.00351304
4964.75017822,0.00345024
4966.67898560,0.00335355
4968.60779297,0.00339241
4970.53660034,0.00343733
4972.46540771,0.00342545
4974.39421509,0.00345974
4976.32302246,0.00342622
4978.25182983,0.00339042
4980.18063721,0.00340453
4982.10944458,0.00333708
4984.03825195,0.00329952
4985.96705933,0.00333774
4987.89586670,0.00338171
4989.82467407,0.00333496
4991.75348145,0.00330861
4993.68228882,0.00330767
4995.61109619,0.00325080
4997.53990356,0.00323158
4999.46871094,0.00324192
5001.39751831,0.00329141
5003.32632568,0.00325134
5005.25513306,0.00319733
5007.18394043,0.00319430
5009.11274780,0.00321118
5011.04155518,0.00328631
5012.97036255,0.00324411
5014.89916992,0.00325340
5016.82797729,0.00325394
5018.75678467,0.00313788
5020.68559204,0.00315129
5022.61439941,0.00317007
5024.54320679,0.00316827
5026.47201416,0.00316827
5028.40082153,0.00311899
5030.32962891,0.00310106
5032.25843628,0.00310965
5034.18724365,0.00312062
5036.11605103,0.00311302
5038.04485840,0.00313595
5039.97366577,0.00314555
5041.90247314,0.00309995
5043.83128052,0.00312686
5045.76008789,0.00310954
5047.68889526,0.00306497
5049.61770264,0.00309660
5051.54651001,0.00306967
5053.47531738,0.00311128
5055.40412476,0.00315229
5057.33293213,0.00306459
5059.26173950,0.00301261
5061.19054687,0.00301241
5063.11935425,0.00303518
5065.04816162,0.00299417
5066.97696899,0.00295833
5068.90577637,0.00298236
5070.83458374,0.00293818
5072.76339111,0.00292321
5074.69219849,0.00301649
5076.62100586,0.00303325
5078.54981323,0.00292734
5080.47862061,0.00290349
5082.40742798,0.00293794
5084.33623535,0.00294637
5086.26504272,0.00290672
5088.19385010,0.00288629
5090.12265747,0.00290801
5092.05146484,0.00286841
5093.98027222,0.00289451
5095.90907959,0.00281747
5097.83788696,0.00277506
5099.76669434,0.00293536
5101.69550171,0.00285193
5103.62430908,0.00279516
5105.55311645,0.00285234
5107.48192383,0.00279416
5109.41073120,0.00281610
5111.33953857,0.00281306
5113.26834595,0.00283505
5115.19715332,0.00285452
5117.12596069,0.00281735
5119.05476807,0.00283989
5120.98357544,0.00275186
5122.91238281,0.00275851
5124.84119019,0.00279218
5126.76999756,0.00273877
5128.69880493,0.00279435
5130.62761230,0.00269598
5132.55641968,0.00270289
5134.48522705,0.00276458
5136.41403442,0.00268912
5138.34284180,0.00276507
5140.27164917,0.00272831
5142.20045654,0.00270139
5144.12926392,0.00270391
5146.05807129,0.00265208
5147.98687866,0.00266729
5149.91568603,0.00265089
5151.84449341,0.00267640
5153.77330078,0.00262566
5155.70210815,0.00261800
5157.63091553,0.00263272
5159.55972290,0.00259429
5161.48853027,0.00259585
5163.41733765,0.00260871
5165.34614502,0.00269480
5167.27495239,0.00265531
5169.20375977,0.00260582
5171.13256714,0.00257910
5173.06137451,0.00256743
5174.99018188,0.00257426
5176.91898926,0.00253726
5178.84779663,0.00257530
5180.77660400,0.00252472
5182.70541138,0.00256143
5184.63421875,0.00247734
5186.56302612,0.00242483
5188.49183350,0.00259553
5190.42064087,0.00247655
5192.34944824,0.00244982
5194.27825562,0.00246584
5196.20706299,0.00244745
5198.13587036,0.00250763
5200.06467773,0.00247835
5201.99348511,0.00248411
5203.92229248,0.00246243
5205.85109985,0.00244415
5207.77990723,0.00234109
5209.70871460,0.00236446
5211.63752197,0.00246333
5213.56632935,0.00244528
5215.49513672,0.00248405
5217.42394409,0.00243781
5219.35275146,0.00243870
5221.28155884,0.00240969
5223.21036621,0.00240652
5225.13917358,0.00244224
5227.06798096,0.00237584
5228.99678833,0.00241078
5230.92559570,0.00240283
5232.85440308,0.00236946
5234.78321045,0.00233884
5236.71201782,0.00235932
5238.64082520,0.00239205
5240.56963257,0.00237387
5242.49843994,0.00234245
5244.42724731,0.00226776
5246.35605469,0.00235537
5248.28486206,0.00226519
5250.21366943,0.00220525
5252.14247681,0.00238635
5254.07128418,0.00228014
5256.00009155,0.00219861
5257.92889893,0.00222289
5259.85770630,0.00222998
5261.78651367,0.00224485
5263.71532104,0.00218773
5265.64412842,0.00223022
5267.57293579,0.00226387
5269.50174316,0.00221579
5271.43055054,0.00221208
5273.35935791,0.00223231
5275.28816528,0.00224037
5277.21697266,0.00230942
5279.14578003,0.00232901
5281.07458740,0.00225246
5283.00339478,0.00223760
5284.93220215,0.00219827
5286.86100952,0.00218708
5288.78981689,0.00219075
5290.71862427,0.00215318
5292.64743164,0.00218626
5294.57623901,0.00224853
5296.50504639,0.00228595
5298.43385376,0.00219496
5300.36266113,0.00211928
5302.29146851,0.00212391
5304.22027588,0.00216047
5306.14908325,0.00220755
5308.07789062,0.00204139
5310.00669800,0.00204157
5311.93550537,0.00216824
5313.86431274,0.00205390
5315.79312012,0.00212432
5317.72192749,0.00222237
5319.65073486,0.00214969
5321.57954224,0.00215757
5323.50834961,0.00212714
5325.43715698,0.00210355
5327.36596436,0.00214078
5329.29477173,0.00207014
5331.22357910,0.00204328
5333.15238647,0.00213971
5335.08119385,0.00212230
5337.01000122,0.00203344
5338.93880859,0.00196754
5340.86761597,0.00200618
5342.79642334,0.00207675
5344.72523071,0.00199090
5346.65403809,0.00198340
5348.58284546,0.00201159
5350.51165283,0.00201851
5352.44046020,0.00200187
5354.36926758,0.00190215
5356.29807495,0.00199219
5358.22688232,0.00202000
5360.15568970,0.00194583
5362.08449707,0.00200695
5364.01330444,0.00201286
5365.94211182,0.00198381
5367.87091919,0.00195951
5369.79972656,0.00195233
5371.72853394,0.00193856
5373.65734131,0.00196692
5375.58614868,0.00200122
5377.51495605,0.00192606
5379.44376343,0.00192691
5381.37257080,0.00193551
5383.30137817,0.00193077
5385.23018555,0.00191049
5387.15899292,0.00188659
5389.08780029,0.00199162
5391.01660767,0.00197836
5392.94541504,0.00186911
5394.87422241,0.00180433
5396.80302978,0.00183283
5398.73183716,0.00185020
5400.66064453,0.00183474
5402.58945190,0.00193993
5404.51825928,0.00183574
5406.44706665,0.00185138
5408.37587402,0.00191771
5410.30468140,0.00174587
5412.23348877,0.00186726
5414.16229614,0.00183960
5416.09110352,0.00182307
5418.01991089,0.00193879
5419.94871826,0.00181648
5421.87752563,0.00184549
5423.80633301,0.00179779
5425.73514038,0.00181849
5427.66394775,0.00183957
5429.59275513,0.00172925
5431.52156250,0.00178017
5433.45036987,0.00172880
5435.37917725,0.00174992
5437.30798462,0.00180330
5439.23679199,0.00178198
5441.16559936,0.00171860
5443.09440674,0.00171859
5445.02321411,0.00179563
5446.95202148,0.00174714
5448.88082886,0.00176745
5450.80963623,0.00171358
5452.73844360,0.00176711
5454.66725098,0.00178283
5456.59605835,0.00172401
5458.52486572,0.00186098
5460.45367310,0.00175725
5462.38248047,0.00174364
5464.31128784,0.00172425
5466.24009521,0.00166916
5468.16890259,0.00174864
5470.09770996,0.00168773
5472.02651733,0.00171656
5473.95532471,0.00167238
5475.88413208,0.00166719
5477.81293945,0.00172218
5479.74174683,0.00168772
5481.67055420,0.00166252
5483.59936157,0.00169127
5485.52816895,0.00172960
5487.45697632,0.00164622
5489.38578369,0.00171028
5491.31459106,0.00162476
5493.24339844,0.00160109
5495.17220581,0.00173805
5497.10101318,0.00158244
5499.02982056,0.00160684
5500.95862793,0.00166704
5502.88743530,0.00164389
5504.81624268,0.00160521
5506.74505005,0.00155656
5508.67385742,0.00159457
5510.60266479,0.00160357
5512.53147217,0.00169201
5514.46027954,0.00164667
5516.38908691,0.00159458
5518.31789429,0.00159828
5520.24670166,0.00157950
5522.17550903,0.00161016
5524.10431641,0.00154503
5526.03312378,0.00154866
5527.96193115,0.00155985
5529.89073853,0.00158505
5531.81954590,0.00159782
5533.74835327,0.00152001
5535.67716064,0.00150055
5537.60596802,0.00154192
5539.53477539,0.00164275
5541.46358276,0.00158302
5543.39239014,0.00147769
5545.32119751,0.00153964
5547.25000488,0.00157305
5549.17881226,0.00155176
5551.10761963,0.00156003
5553.03642700,0.00157055
5554.96523437,0.00156484
5556.89404175,0.00151413
5558.82284912,0.00145446
5560.75165649,0.00152584
5562.68046387,0.00152530
5564.60927124,0.00150418
5566.53807861,0.00159192
5568.46688599,0.00154969
5570.39569336,0.00152855
5572.32450073,0.00151943
5574.25330811,0.00142169
5576.18211548,0.00140087
5578.11092285,0.00145863
5580.03973022,0.00145088
5581.96853760,0.00139707
5583.89734497,0.00145350
5585.82615234,0.00146289
5587.75495972,0.00142292
5589.68376709,0.00146715
5591.61257446,0.00148269
5593.54138184,0.00143758
5595.47018921,0.00140047
5597.39899658,0.00144824
5599.32780395,0.00146085
5601.25661133,0.00137857
5603.18541870,0.00139951
5605.11422607,0.00141963
5607.04303345,0.00138445
5608.97184082,0.00146078
5610.90064819,0.00146037
5612.82945557,0.00143936
5614.75826294,0.00145355
5616.68707031,0.00135086
5618.61587769,0.00137266
5620.54468506,0.00139629
5622.47349243,0.00135477
5624.40229980,0.00143973
5626.33110718,0.00141826
5628.25991455,0.00133015
5630.18872192,0.00135997
5632.11752930,0.00140049
5634.04633667,0.00141380
5635.97514404,0.00138412
5637.90395142,0.00135928
5639.83275879,0.00141667
5641.76156616,0.00138332
5643.69037353,0.00133437
5645.61918091,0.00136733
5647.54798828,0.00134747
5649.47679565,0.00135887
5651.40560303,0.00134818
5653.33441040,0.00131015
5655.26321777,0.00131042
5657.19202515,0.00130167
5659.12083252,0.00127792
5661.04963989,0.00125090
5662.97844727,0.00127669
5664.90725464,0.00131039
5666.83606201,0.00133505
5668.76486938,0.00134220
5670.69367676,0.00131808
5672.62248413,0.00125492
5674.55129150,0.00128827
5676.48009888,0.00131640
5678.40890625,0.00122693
5680.33771362,0.00130559
5682.26652100,0.00129775
5684.19532837,0.00124134
5686.12413574,0.00129388
5688.05294311,0.00128101
5689.98175049,0.00127475
5691.91055786,0.00123646
5693.83936523,0.00126153
5695.76817261,0.00123946
5697.69697998,0.00124445
5699.62578735,0.00126052
5701.55459473,0.00121803
5703.48340210,0.00125382
5705.41220947,0.00118348
5707.34101685,0.00122743
5709.26982422,0.00119490
5711.19863159,0.00116483
5713.12743896,0.00123787
5715.05624634,0.00114494
5716.98505371,0.00120629
5718.91386108,0.00118954
5720.84266846,0.00121141
5722.77147583,0.00125813
5724.70028320,0.00120856
5726.62909058,0.00122240
5728.55789795,0.00114715
5730.48670532,0.00123578
5732.41551270,0.00115976
5734.34432007,0.00109345
5736.27312744,0.00120665
5738.20193481,0.00115289
5740.13074219,0.00122322
5742.05954956,0.00119901
5743.98835693,0.00113443
5745.91716431,0.00114676
5747.84597168,0.00115478
5749.77477905,0.00116290
5751.70358643,0.00108924
5753.63239380,0.00114108
5755.56120117,0.00116786
5757.49000854,0.00112607
5759.41881592,0.00108542
5761.34762329,0.00108419
5763.27643066,0.00113968
5765.20523804,0.00114011
5767.13404541,0.00115912
5769.06285278,0.00110607
5770.99166016,0.00110853
5772.92046753,0.00111793
5774.84927490,0.00104988
5776.77808228,0.00109982
5778.70688965,0.00105660
5780.63569702,0.00106132
5782.56450439,0.00115957
5784.49331177,0.00108528
5786.42211914,0.00104556
5788.35092651,0.00107345
5790.27973389,0.00107015
5792.20854126,0.00106193
5794.13734863,0.00108549
5796.06615601,0.00109040
5797.99496338,0.00099902
5799.92377075,0.00101697
5801.85257812,0.00109942
5803.78138550,0.00109687
5805.71019287,0.00108990
5807.63900024,0.00107104
5809.56780762,0.00105710
5811.49661499,0.00107652
5813.42542236,0.00109550
5815.35422974,0.00103517
5817.28303711,0.00101415
5819.21184448,0.00100512
5821.14065186,0.00098641
5823.06945923,0.00109568
5824.99826660,0.00102912
5826.92707397,0.00092925
5828.85588135,0.00098921
5830.78468872,0.00102124
5832.71349609,0.00104312
5834.64230347,0.00101032
5836.57111084,0.00100494
5838.49991821,0.00099801
5840.42872559,0.00099843
5842.35753296,0.00099055
5844.28634033,0.00100135
5846.21514770,0.00107377
5848.14395508,0.00099629
5850.07276245,0.00099478
5852.00156982,0.00100344
5853.93037720,0.00099692
5855.85918457,0.00108263
5857.78799194,0.00099475
5859.71679932,0.00093831
5861.64560669,0.00097574
5863.57441406,0.00099861
5865.50322144,0.00097727
5867.43202881,0.00093024
5869.36083618,0.00091309
5871.28964355,0.00091659
5873.21845093,0.00097455
5875.14725830,0.00093200
5877.07606567,0.00092298
5879.00487305,0.00095051
5880.93368042,0.00094936
5882.86248779,0.00096192
5884.79129517,0.00088932
5886.72010254,0.00096639
5888.64890991,0.00097271
5890.57771728,0.00086120
5892.50652466,0.00088585
5894.43533203,0.00087614
5896.36413940,0.00093457
5898.29294678,0.00095586
5900.22175415,0.00086832
5902.15056152,0.00084619
5904.07936890,0.00089302
5906.00817627,0.00093161
5907.93698364,0.00089883
5909.86579102,0.00092548
5911.79459839,0.00088219
5913.72340576,0.00085823
5915.65221313,0.00093504
5917.58102051,0.00090020
5919.50982788,0.00091294
5921.43863525,0.00087344
5923.36744263,0.00085120
5925.29625000,0.00088174
5927.22505737,0.00086474
5929.15386475,0.00092286
5931.08267212,0.00081916
5933.01147949,0.00084734
5934.94028686,0.00091475
5936.86909424,0.00078219
5938.79790161,0.00088501
5940.72670898,0.00088073
5942.65551636,0.00078295
5944.58432373,0.00082958
5946.51313110,0.00084501
5948.44193848,0.00086141
5950.37074585,0.00084289
5952.29955322,0.00086638
5954.22836060,0.00083388
5956.15716797,0.00077224
5958.08597534,0.00081404
5960.01478271,0.00088731
5961.94359009,0.00092732
5963.87239746,0.00086513
5965.80120483,0.00085262
5967.73001221,0.00083687
5969.65881958,0.00079444
5971.58762695,0.00083458
5973.51643433,0.00084728
5975.44524170,0.00077937
5977.37404907,0.00074038
5979.30285645,0.00082407
5981.23166382,0.00081090
5983.16047119,0.00077415
5985.08927856,0.00081913
5987.01808594,0.00078888
5988.94689331,0.00085263
5990.87570068,0.00085387
5992.80450806,0.00072493
5994.73331543,0.00075548
5996.66212280,0.00076908
5998.59093018,0.00077318
6000.51973755,0.00080945
