399.26312622,0.00050040
401.19193359,0.00072667
403.12074097,0.00097465
405.04954834,0.00082531
406.97835571,0.00073106
408.90716309,0.00062873
410.83597046,0.00091468
412.76477783,0.00117563
414.69358521,0.00105038
416.62239258,0.00032489
418.55119995,0.00094056
420.48000732,0.00123514
422.40881470,0.00088660
424.33762207,0.00161158
426.26642944,0.00109923
428.19523682,0.00119377
430.12404419,0.00142610
432.05285156,0.00063728
433.98165894,0.00078251
435.91046631,0.00102028
437.83927368,0.00113011
439.76808105,0.00096542
441.69688843,0.00084953
443.62569580,0.00096511
445.55450317,0.00068509
447.48331055,0.00063438
449.41211792,0.00075951
451.34092529,0.00061706
453.26973267,0.00087012
455.19854004,0.00092992
457.12734741,0.00042216
459.05615479,0.00077639
460.98496216,0.00111131
462.91376953,0.00075957
464.84257690,0.00024565
466.77138428,0.00023819
468.70019165,0.00066049
470.62899902,0.00044010
472.55780640,0.00064819
474.48661377,0.00045180
476.41542114,-0.00021872
478.34422852,0.00025147
480.27303589,0.00073055
482.20184326,0.00074077
484.13065063,0.00032770
486.05945801,-0.00001997
487.98826538,-0.00003518
489.91707275,-0.00001818
491.84588013,0.00040692
493.77468750,0.00047905
495.70349487,0.00004346
497.63230225,-0.00017595
499.56110962,0.00016632
501.48991699,0.00029476
503.41872437,-0.00035367
505.34753174,-0.00006732
507.27633911,0.00020689
509.20514648,0.00014317
511.13395386,0.00031525
513.06276123,-0.00004349
514.99156860,0.00020811
516.92037598,0.00045159
518.84918335,0.00051090
520.77799072,0.00038868
522.70679810,0.00038887
524.63560547,0.00026437
526.56441284,0.00029092
528.49322021,0.00061591
530.42202759,-0.00006434
532.35083496,0.00006191
534.27964233,0.00010297
536.20844971,-0.00020982
538.13725708,0.00009140
540.06606445,0.00014082
541.99487183,0.00029177
543.92367920,0.00013750
545.85248657,0.00006929
547.78129395,-0.00008816
549.71010132,0.00019029
551.63890869,0.00021716
553.56771606,-0.00014478
555.49652344,0.00047511
557.42533081,0.00025488
559.35413818,0.00004603
561.28294556,0.00001857
563.21175293,-0.00015395
565.14056030,0.00021679
567.06936768,-0.00006369
568.99817505,-0.00001012
570.92698242,0.00012488
572.85578979,0.00004561
574.78459717,0.00021867
576.71340454,0.00017065
578.64221191,0.00028803
580.57101929,0.00034109
582.49982666,0.00022479
584.42863403,0.00031045
586.35744141,0.00034396
588.28624878,0.00013134
590.21505615,0.00003953
592.14386353,0.00023973
594.07267090,0.00022700
596.00147827,-0.00000991
597.93028564,0.00032370
599.85909302,0.00026898
601.78790039,-0.00015228
603.71670776,0.00035244
605.64551514,0.00016327
607.57432251,-0.00006367
609.50312988,0.00016084
611.43193726,-0.00009788
613.36074463,-0.00007501
615.28955200,-0.00004398
617.21835938,0.00034309
619.14716675,0.00009425
621.07597412,0.00007456
623.00478149,-0.00002067
624.93358887,-0.00004999
626.86239624,0.00016198
628.79120361,0.00011637
630.72001099,0.00044189
632.64881836,0.00050759
634.57762573,0.00071956
636.50643311,0.00096900
638.43524048,0.00115009
640.36404785,0.00088986
642.29285522,0.00095745
644.22166260,0.00141722
646.15046997,0.00103802
648.07927734,0.00122632
650.00808472,0.00134581
651.93689209,0.00108271
653.86569946,0.00157011
655.79450684,0.00149544
657.72331421,0.00124479
659.65212158,0.00159502
661.58092896,0.00156183
663.50973633,0.00150638
665.43854370,0.00176646
667.36735107,0.00190401
669.29615845,0.00199079
671.22496582,0.00197973
673.15377319,0.00232454
675.08258057,0.00246001
677.01138794,0.00219403
678.94019531,0.00235224
680.86900269,0.00228469
682.79781006,0.00229495
684.72661743,0.00229998
686.65542480,0.00221188
688.58423218,0.00236435
690.51303955,0.00222024
692.44184692,0.00252009
694.37065430,0.00291166
696.29946167,0.00278100
698.22826904,0.00307008
700.15707642,0.00351768
702.08588379,0.00334474
704.01469116,0.00341028
705.94349854,0.00331156
707.87230591,0.00249043
709.80111328,0.00198792
711.72992065,0.00119440
713.65872803,0.00081993
715.58753540,0.00074636
717.51634277,0.00033226
719.44515015,0.00037091
721.37395752,0.00016109
723.30276489,0.00052862
725.23157227,0.00034593
727.16037964,-0.00027114
729.08918701,0.00016427
731.01799438,-0.00004259
732.94680176,0.00003945
734.87560913,0.00008765
736.80441650,-0.00024483
738.73322388,0.00012119
740.66203125,0.00026703
742.59083862,0.00024335
744.51964600,0.00023697
746.44845337,0.00020116
748.37726074,0.00035158
750.30606812,0.00031758
752.23487549,0.00024704
754.16368286,0.00035886
756.09249023,0.00025342
758.02129761,0.00025221
759.95010498,0.00019932
761.87891235,0.00002763
763.80771973,0.00029395
765.73652710,0.00038568
767.66533447,0.00036035
769.59414185,0.00035699
771.52294922,0.00028801
773.45175659,0.00039174
775.38056396,0.00034279
777.30937134,0.00024846
779.23817871,0.00042131
781.16698608,0.00041781
783.09579346,0.00024385
785.02460083,0.00047365
786.95340820,0.00053103
788.88221558,0.00027878
790.81102295,0.00036189
792.73983032,0.00061361
794.66863770,0.00024216
796.59744507,0.00004953
798.52625244,0.00079295
800.45505981,0.00055032
802.38386719,0.00026632
804.31267456,0.00071696
806.24148193,0.00061513
808.17028931,0.00070064
810.09909668,0.00042743
812.02790405,0.00011036
813.95671143,0.00023457
815.88551880,0.00022731
817.81432617,0.00041301
819.74313354,0.00035516
821.67194092,0.00040360
823.60074829,0.00053637
825.52955566,0.00051750
827.45836304,0.00057649
829.38717041,0.00050897
831.31597778,0.00076844
833.24478516,0.00092800
835.17359253,0.00074971
837.10239990,0.00082348
839.03120728,0.00071555
840.96001465,0.00047896
842.88882202,0.00065538
844.81762939,0.00075667
846.74643677,0.00066303
848.67524414,0.00067800
850.60405151,0.00069979
852.53285889,0.00070505
854.46166626,0.00078082
856.39047363,0.00063152
858.31928101,0.00041887
860.24808838,0.00053102
862.17689575,0.00020144
864.10570313,0.00021641
866.03451050,0.00048874
867.96331787,0.00019895
869.89212524,0.00017983
871.82093262,0.00002954
873.74973999,0.00017836
875.67854736,0.00033127
877.60735474,0.00030201
879.53616211,0.00033623
881.46496948,0.00034740
883.39377686,0.00062236
885.32258423,0.00033161
887.25139160,0.00039602
889.18019897,0.00044443
891.10900635,0.00028590
893.03781372,0.00037500
894.96662109,0.00043189
896.89542847,0.00064021
898.82423584,0.00005561
900.75304321,0.00023474
902.68185059,0.00055523
904.61065796,0.00014520
906.53946533,0.00040933
908.46827271,0.00047652
910.39708008,0.00056502
912.32588745,0.00039925
914.25469482,0.00048770
916.18350220,0.00073112
918.11230957,0.00029576
920.04111694,0.00059703
921.96992432,0.00083047
923.89873169,0.00070714
925.82753906,0.00076898
927.75634644,0.00082627
929.68515381,0.00099336
931.61396118,0.00102262
933.54276855,0.00112520
935.47157593,0.00116089
937.40038330,0.00117835
939.32919067,0.00117967
941.25799805,0.00127691
943.18680542,0.00149070
945.11561279,0.00140512
947.04442017,0.00131344
948.97322754,0.00121311
950.90203491,0.00114095
952.83084229,0.00131678
954.75964966,0.00128292
956.68845703,0.00106399
958.61726440,0.00133545
960.54607178,0.00133391
962.47487915,0.00114887
964.40368652,0.00135130
966.33249390,0.00122805
968.26130127,0.00144044
970.19010864,0.00137387
972.11891602,0.00117185
974.04772339,0.00172781
975.97653076,0.00176587
977.90533813,0.00176145
979.83414551,0.00201362
981.76295288,0.00224768
983.69176025,0.00251994
985.62056763,0.00271389
987.54937500,0.00299552
989.47818237,0.00305117
991.40698975,0.00339715
993.33579712,0.00381739
995.26460449,0.00397750
997.19341187,0.00451158
999.12221924,0.00493345
1001.05102661,0.00523281
1002.97983398,0.00568907
1004.90864136,0.00590493
1006.83744873,0.00619690
1008.76625610,0.00661538
1010.69506348,0.00692709
1012.62387085,0.00740684
1014.55267822,0.00778663
1016.48148560,0.00789903
1018.41029297,0.00816108
1020.33910034,0.00894615
1022.26790771,0.00961183
1024.19671509,0.00966251
1026.12552246,0.00985156
1028.05432983,0.01013215
1029.98313721,0.01058174
1031.91194458,0.01095216
1033.84075195,0.01095585
1035.76955933,0.01135365
1037.69836670,0.01145519
1039.62717407,0.01134704
1041.55598145,0.01168397
1043.48478882,0.01150859
1045.41359619,0.01119115
1047.34240356,0.01135370
1049.27121094,0.01124017
1051.20001831,0.01087541
1053.12882568,0.01058231
1055.05763306,0.01043583
1056.98644043,0.01027123
1058.91524780,0.00993311
1060.84405518,0.00962309
1062.77286255,0.00919769
1064.70166992,0.00915522
1066.63047729,0.00877393
1068.55928467,0.00826069
1070.48809204,0.00833309
1072.41689941,0.00755123
1074.34570679,0.00732997
1076.27451416,0.00723063
1078.20332153,0.00654828
1080.13212891,0.00655424
1082.06093628,0.00603229
1083.98974365,0.00574437
1085.91855103,0.00551998
1087.84735840,0.00516626
1089.77616577,0.00518244
1091.70497314,0.00465819
1093.63378052,0.00445769
1095.56258789,0.00454905
1097.49139526,0.00448938
1099.42020264,0.00430287
1101.34901001,0.00414888
1103.27781738,0.00395559
1105.20662476,0.00382506
1107.13543213,0.00394555
1109.06423950,0.00392337
1110.99304687,0.00399730
1112.92185425,0.00360460
1114.85066162,0.00362610
1116.77946899,0.00396272
1118.70827637,0.00364664
1120.63708374,0.00366872
1122.56589111,0.00382611
1124.49469849,0.00402775
1126.42350586,0.00390622
1128.35231323,0.00398513
1130.28112061,0.00426183
1132.20992798,0.00407900
1134.13873535,0.00424840
1136.06754272,0.00431822
1137.99635010,0.00459083
1139.92515747,0.00501607
1141.85396484,0.00524173
1143.78277222,0.00561059
1145.71157959,0.00585095
1147.64038696,0.00622938
1149.56919434,0.00666399
1151.49800171,0.00701568
1153.42680908,0.00730018
1155.35561646,0.00767790
1157.28442383,0.00800711
1159.21323120,0.00809819
1161.14203857,0.00833764
1163.07084595,0.00872842
1164.99965332,0.00916771
1166.92846069,0.00949278
1168.85726807,0.00987760
1170.78607544,0.01041040
1172.71488281,0.01067294
1174.64369019,0.01073051
1176.57249756,0.01125949
1178.50130493,0.01194323
1180.43011230,0.01213717
1182.35891968,0.01253545
1184.28772705,0.01330887
1186.21653442,0.01392695
1188.14534180,0.01441323
1190.07414917,0.01520052
1192.00295654,0.01591932
1193.93176392,0.01647384
1195.86057129,0.01748232
1197.78937866,0.01838307
1199.71818604,0.01909097
1201.64699341,0.01991208
1203.57580078,0.02060825
1205.50460815,0.02125264
1207.43341553,0.02209198
1209.36222290,0.02291915
1211.29103027,0.02349956
1213.21983765,0.02409760
1215.14864502,0.02474223
1217.07745239,0.02528241
1219.00625977,0.02565401
1220.93506714,0.02618787
1222.86387451,0.02637611
1224.79268188,0.02637591
1226.72148926,0.02686106
1228.65029663,0.02700287
1230.57910400,0.02707969
1232.50791138,0.02712626
1234.43671875,0.02719310
1236.36552612,0.02725143
1238.29433350,0.02708085
1240.22314087,0.02726972
1242.15194824,0.02717397
1244.08075562,0.02706047
1246.00956299,0.02687131
1247.93837036,0.02659068
1249.86717773,0.02661081
1251.79598511,0.02639120
1253.72479248,0.02621116
1255.65359985,0.02572188
1257.58240723,0.02523787
1259.51121460,0.02497334
1261.44002197,0.02465667
1263.36882935,0.02439877
1265.29763672,0.02410622
1267.22644409,0.02395366
1269.15525146,0.02350568
1271.08405884,0.02318846
1273.01286621,0.02287520
1274.94167358,0.02244034
1276.87048096,0.02229105
1278.79928833,0.02174771
1280.72809570,0.02122574
1282.65690308,0.02095141
1284.58571045,0.02049428
1286.51451782,0.01995437
1288.44332520,0.01971389
1290.37213257,0.01947513
1292.30093994,0.01924830
1294.22974731,0.01930430
1296.15855469,0.01894907
1298.08736206,0.01890108
1300.01616943,0.01920753
1301.94497681,0.01912229
1303.87378418,0.01930891
1305.80259155,0.01968795
1307.73139893,0.01984481
1309.66020630,0.02017618
1311.58901367,0.02043039
1313.51782104,0.02055965
1315.44662842,0.02131981
1317.37543579,0.02178115
1319.30424316,0.02211078
1321.23305054,0.02298521
1323.16185791,0.02368048
1325.09066528,0.02445698
1327.01947266,0.02506062
1328.94828003,0.02574596
1330.87708740,0.02653332
1332.80589478,0.02702095
1334.73470215,0.02750986
1336.66350952,0.02753495
1338.59231689,0.02713228
1340.52112427,0.02754943
1342.44993164,0.02894009
1344.37873901,0.02916433
1346.30754639,0.02901077
1348.23635376,0.02912750
1350.16516113,0.02872497
1352.09396851,0.02881288
1354.02277588,0.02841825
1355.95158325,0.02822067
1357.88039062,0.02815467
1359.80919800,0.02736960
1361.73800537,0.02607168
1363.66681274,0.02562353
1365.59562012,0.02730480
1367.52442749,0.02671219
1369.45323486,0.02642616
1371.38204224,0.02710193
1373.31084961,0.02522666
1375.23965698,0.02547682
1377.16846436,0.02622279
1379.09727173,0.02625663
1381.02607910,0.02635792
1382.95488647,0.02620127
1384.88369385,0.02639010
1386.81250122,0.02474260
1388.74130859,0.02509821
1390.67011597,0.02771775
1392.59892334,0.02677682
1394.52773071,0.02462185
1396.45653809,0.02608770
1398.38534546,0.02606729
1400.31415283,0.02588695
1402.24296021,0.02846309
1404.17176758,0.02637073
1406.10057495,0.02656264
1408.02938232,0.02802475
1409.95818970,0.02668141
1411.88699707,0.02746448
1413.81580444,0.02632724
1415.74461182,0.02678119
1417.67341919,0.02373840
1419.60222656,0.02090089
1421.53103394,0.02504076
1423.45984131,0.02408939
1425.38864868,0.02337331
1427.31745605,0.02404248
1429.24626343,0.02194834
1431.17507080,0.02131545
1433.10387817,0.02196843
1435.03268555,0.01968318
1436.96149292,0.01614781
1438.89030029,0.01916804
1440.81910767,0.01966621
1442.74791504,0.01806044
1444.67672241,0.01926947
1446.60552979,0.01749368
1448.53433716,0.01789885
1450.46314453,0.01840449
1452.39195190,0.01889178
1454.32075928,0.01953894
1456.24956665,0.01518193
1458.17837402,0.01581912
1460.10718140,0.02219387
1462.03598877,0.02400194
1463.96479614,0.02334197
1465.89360352,0.02418275
1467.82241089,0.02826935
1469.75121826,0.03022891
1471.68002563,0.02598411
1473.60883301,0.02737100
1475.53764038,0.03158688
1477.46644775,0.03426047
1479.39525513,0.03809972
1481.32406250,0.03850316
1483.25286987,0.04113912
1485.18167725,0.04228758
1487.11048462,0.04121465
1489.03929199,0.04045083
1490.96809937,0.04027084
1492.89690674,0.04843188
1494.82571411,0.04698987
1496.75452148,0.04112312
1498.68332886,0.04729373
1500.61213623,0.04876157
1502.54094360,0.05289713
1504.46975098,0.04962898
1506.39855835,0.03346108
1508.32736572,0.04201502
1510.25617310,0.05139292
1512.18498047,0.04956848
1514.11378784,0.05423970
1516.04259521,0.04778683
1517.97140259,0.04993974
1519.90020996,0.04864654
1521.82901733,0.04036525
1523.75782471,0.05134185
1525.68663208,0.05064906
1527.61543945,0.04986925
1529.54424683,0.05675190
1531.47305420,0.05412821
1533.40186157,0.04818172
1535.33066895,0.05156169
1537.25947632,0.05650952
1539.18828369,0.03792082
1541.11709106,0.03937610
1543.04589844,0.04934092
1544.97470581,0.04675572
1546.90351318,0.05767560
1548.83232056,0.05321088
1550.76112793,0.05484069
1552.68993530,0.05491403
1554.61874268,0.04838818
1556.54755005,0.05290096
1558.47635742,0.03450324
1560.40516479,0.03756060
1562.33397217,0.05823895
1564.26277954,0.05424750
1566.19158691,0.05619576
1568.12039429,0.05539219
1570.04920166,0.04758782
1571.97800903,0.05686931
1573.90681641,0.05776021
1575.83562378,0.04373667
1577.76443115,0.05054798
1579.69323853,0.05837853
1581.62204590,0.05570612
1583.55085327,0.05755490
1585.47966064,0.05654453
1587.40846802,0.05705074
1589.33727539,0.05633364
1591.26608276,0.05629977
1593.19489014,0.05644114
1595.12369751,0.05540308
1597.05250488,0.05649328
1598.98131226,0.05588970
1600.91011963,0.05624467
1602.83892700,0.05518838
1604.76773437,0.05594443
1606.69654175,0.05517920
1608.62534912,0.05496806
1610.55415649,0.05481339
1612.48296387,0.05515113
1614.41177124,0.05610725
1616.34057861,0.04431361
1618.26938599,0.04852002
1620.19819336,0.05827197
1622.12700073,0.05038735
1624.05580811,0.05053383
1625.98461548,0.05389024
1627.91342285,0.05344716
1629.84223022,0.05336032
1631.77103760,0.05782237
1633.69984497,0.05259606
1635.62865234,0.04155360
1637.55745972,0.04998981
1639.48626709,0.05655285
1641.41507446,0.05485243
1643.34388184,0.05685236
1645.27268921,0.05047993
1647.20149658,0.04264059
1649.13030396,0.05582169
1651.05911133,0.05327188
1652.98791870,0.03073200
1654.91672607,0.04458735
1656.84553345,0.05926900
1658.77434082,0.05659830
1660.70314819,0.05845434
1662.63195557,0.05222225
1664.56076294,0.05557706
1666.48957031,0.06121650
1668.41837769,0.05184834
1670.34718506,0.04977655
1672.27599243,0.05851685
1674.20479980,0.05321522
1676.13360718,0.05058493
1678.06241455,0.06011789
1679.99122192,0.05757809
1681.92002930,0.05674004
1683.84883667,0.04451980
1685.77764404,0.04389248
1687.70645142,0.06406401
1689.63525879,0.05442338
1691.56406616,0.06067063
1693.49287354,0.06256363
1695.42168091,0.04291962
1697.35048828,0.05511289
1699.27929565,0.04718232
1701.20810303,0.04115947
1703.13691040,0.06035503
1705.06571777,0.05448957
1706.99452515,0.05503875
1708.92333252,0.06096249
1710.85213989,0.05828435
1712.78094727,0.05944764
1714.70975464,0.05427321
1716.63856201,0.04807059
1718.56736938,0.04677092
1720.49617676,0.05739162
1722.42498413,0.06062736
1724.35379150,0.05520665
1726.28259888,0.06125091
1728.21140625,0.05592502
1730.14021362,0.05608613
1732.06902100,0.05479186
1733.99782837,0.03933878
1735.92663574,0.05129520
1737.85544312,0.05786920
1739.78425049,0.05020776
1741.71305786,0.05545594
1743.64186523,0.05622085
1745.57067261,0.05641642
1747.49947998,0.05671837
1749.42828735,0.05380257
1751.35709473,0.05105872
1753.28590210,0.05764109
1755.21470947,0.06111966
1757.14351685,0.05434066
1759.07232422,0.06101108
1761.00113159,0.05681239
1762.92993896,0.05404437
1764.85874634,0.06400219
1766.78755371,0.05627218
1768.71636108,0.05665746
1770.64516846,0.05646870
1772.57397583,0.04947944
1774.50278320,0.05652783
1776.43159058,0.06042642
1778.36039795,0.05957496
1780.28920532,0.05858938
1782.21801270,0.05926742
1784.14682007,0.05912835
1786.07562744,0.05750240
1788.00443481,0.06140710
1789.93324219,0.05938028
1791.86204956,0.05229847
1793.79085693,0.05515698
1795.71966431,0.06008861
1797.64847168,0.05922556
1799.57727905,0.05808183
1801.50608643,0.05675175
1803.43489380,0.05913951
1805.36370117,0.06067047
1807.29250854,0.05972116
1809.22131592,0.05997122
1811.15012329,0.05783561
1813.07893066,0.06036947
1815.00773804,0.06050747
1816.93654541,0.05949777
1818.86535278,0.06046011
1820.79416016,0.06004564
1822.72296753,0.06117548
1824.65177490,0.05602777
1826.58058228,0.05850390
1828.50938965,0.05883612
1830.43819702,0.05418671
1832.36700439,0.06048633
1834.29581177,0.05990793
1836.22461914,0.05969210
1838.15342651,0.05950992
1840.08223389,0.05985231
1842.01104126,0.06011731
1843.93984863,0.05184887
1845.86865601,0.05607511
1847.79746338,0.05989716
1849.72627075,0.05848163
1851.65507812,0.06057208
1853.58388550,0.05890026
1855.51269287,0.05977599
1857.44150024,0.05939273
1859.37030762,0.05898345
1861.29911499,0.05947244
1863.22792236,0.05864915
1865.15672974,0.05945361
1867.08553711,0.05691215
1869.01434448,0.05395645
1870.94315186,0.05668743
1872.87195923,0.05940950
1874.80076660,0.05827122
1876.72957397,0.05883700
1878.65838135,0.05847508
1880.58718872,0.05795686
1882.51599609,0.05880962
1884.44480347,0.05756524
1886.37361084,0.05855635
1888.30241821,0.05692782
1890.23122559,0.05548553
1892.16003296,0.05837672
1894.08884033,0.05743558
1896.01764771,0.05693153
1897.94645508,0.05786551
1899.87526245,0.05746226
1901.80406982,0.05754916
1903.73287720,0.05716402
1905.66168457,0.05740489
1907.59049194,0.05697314
1909.51929932,0.05645379
1911.44810669,0.05673205
1913.37691406,0.05694270
1915.30572144,0.05746204
1917.23452881,0.05443434
1919.16333618,0.05454127
1921.09214355,0.05718083
1923.02095093,0.05480161
1924.94975830,0.05621205
1926.87856567,0.05708858
1928.80737305,0.05598213
1930.73618042,0.05707795
1932.66498779,0.05611422
1934.59379517,0.05661120
1936.52260254,0.05624310
1938.45140991,0.05644432
1940.38021729,0.05641026
1942.30902466,0.05407533
1944.23783203,0.05540713
1946.16663940,0.05616067
1948.09544678,0.05602808
1950.02425415,0.05626290
1951.95306152,0.05604844
1953.88186890,0.05614225
1955.81067627,0.05573066
1957.73948364,0.05601265
1959.66829102,0.05593818
1961.59709839,0.05584668
1963.52590576,0.05591448
1965.45471313,0.05549173
1967.38352051,0.05485316
1969.31232788,0.05528545
1971.24113525,0.05591054
1973.16994263,0.05557202
1975.09875000,0.05592363
1977.02755737,0.05541603
1978.95636475,0.05543967
1980.88517212,0.05544149
1982.81397949,0.05508695
1984.74278687,0.05557146
1986.67159424,0.05481352
1988.60040161,0.05501860
1990.52920898,0.05441652
1992.45801636,0.05346485
1994.38682373,0.05465874
1996.31563110,0.05486188
1998.24443848,0.05453780
2000.17324585,0.05440774
2002.10205322,0.05428667
2004.03086060,0.05435054
2005.95966797,0.05428134
2007.88847534,0.05414004
2009.81728271,0.05399734
2011.74609009,0.05392775
2013.67489746,0.05393292
2015.60370483,0.05346544
2017.53251221,0.05289531
2019.46131958,0.05329791
2021.39012695,0.05330510
2023.31893433,0.05317120
2025.24774170,0.05322670
2027.17654907,0.05297145
2029.10535645,0.05296092
2031.03416382,0.05272897
2032.96297119,0.05270109
2034.89177856,0.05264703
2036.82058594,0.05252635
2038.74939331,0.05243276
2040.67820068,0.05206655
2042.60700806,0.05203512
2044.53581543,0.05213038
2046.46462280,0.05202487
2048.39343018,0.05177618
2050.32223755,0.05180596
2052.25104492,0.05185612
2054.17985229,0.05160934
2056.10865967,0.05144572
2058.03746704,0.05144434
2059.96627441,0.05125392
2061.89508179,0.05110200
2063.82388916,0.05097363
2065.75269653,0.05064256
2067.68150391,0.05088193
2069.61031128,0.05080774
2071.53911865,0.05067463
2073.46792603,0.05077385
2075.39673340,0.05050818
2077.32554077,0.05055547
2079.25434814,0.05035789
2081.18315552,0.05032604
2083.11196289,0.05022112
2085.04077026,0.05015695
2086.96957764,0.05024726
2088.89838501,0.04976514
2090.82719238,0.04983430
2092.75599976,0.04979230
2094.68480713,0.04952578
2096.61361450,0.04953136
2098.54242187,0.04947541
2100.47122925,0.04940229
2102.40003662,0.04935642
2104.32884399,0.04935562
2106.25765137,0.04907504
2108.18645874,0.04908197
2110.11526611,0.04913939
2112.04407349,0.04898779
2113.97288086,0.04884588
2115.90168823,0.04886315
2117.83049561,0.04889403
2119.75930298,0.04855783
2121.68811035,0.04859230
2123.61691772,0.04863726
2125.54572510,0.04847898
2127.47453247,0.04840920
2129.40333984,0.04840098
2131.33214722,0.04836471
2133.26095459,0.04827658
2135.18976196,0.04830923
2137.11856934,0.04812302
2139.04737671,0.04805240
2140.97618408,0.04799142
2142.90499146,0.04788307
2144.83379883,0.04786493
2146.76260620,0.04795260
2148.69141357,0.04796870
2150.62022095,0.04776359
2152.54902832,0.04773167
2154.47783569,0.04753280
2156.40664307,0.04758928
2158.33545044,0.04746727
2160.26425781,0.04736847
2162.19306519,0.04756864
2164.12187256,0.04739416
2166.05067993,0.04746206
2167.97948730,0.04712668
2169.90829468,0.04705108
2171.83710205,0.04716413
2173.76590942,0.04704303
2175.69471680,0.04720151
2177.62352417,0.04696953
2179.55233154,0.04695109
2181.48113892,0.04687773
2183.40994629,0.04685611
2185.33875366,0.04677705
2187.26756104,0.04664742
2189.19636841,0.04682750
2191.12517578,0.04659007
2193.05398315,0.04662520
2194.98279053,0.04657767
2196.91159790,0.04638892
2198.84040527,0.04638527
2200.76921265,0.04637950
2202.69802002,0.04634648
2204.62682739,0.04619115
2206.55563477,0.04634502
2208.48444214,0.04622009
2210.41324951,0.04604952
2212.34205688,0.04612179
2214.27086426,0.04604702
2216.19967163,0.04596622
2218.12847900,0.04600039
2220.05728638,0.04595716
2221.98609375,0.04585608
2223.91490112,0.04591775
2225.84370850,0.04564114
2227.77251587,0.04558185
2229.70132324,0.04566289
2231.63013062,0.04556070
2233.55893799,0.04552792
2235.48774536,0.04540107
2237.41655273,0.04543168
2239.34536011,0.04529654
2241.27416748,0.04522254
2243.20297485,0.04511259
2245.13178223,0.04508699
2247.06058960,0.04510786
2248.98939697,0.04487912
2250.91820435,0.04495250
2252.84701172,0.04488963
2254.77581909,0.04486070
2256.70462646,0.04479986
2258.63343384,0.04465611
2260.56224121,0.04451226
2262.49104858,0.04446664
2264.41985596,0.04451197
2266.34866333,0.04425975
2268.27747070,0.04446401
2270.20627808,0.04439610
2272.13508545,0.04421259
2274.06389282,0.04431851
2275.99270020,0.04420397
2277.92150757,0.04418360
2279.85031494,0.04403377
2281.77912231,0.04410673
2283.70792969,0.04407682
2285.63673706,0.04405343
2287.56554443,0.04391770
2289.49435181,0.04361618
2291.42315918,0.04369592
2293.35196655,0.04349997
2295.28077393,0.04346374
2297.20958130,0.04337876
2299.13838867,0.04315079
2301.06719604,0.04308382
2302.99600342,0.04285932
2304.92481079,0.04265783
2306.85361816,0.04244923
2308.78242554,0.04219890
2310.71123291,0.04182997
2312.64004028,0.04148331
2314.56884766,0.04109044
2316.49765503,0.04077673
2318.42646240,0.04023524
2320.35526978,0.03963029
2322.28407715,0.03926617
2324.21288452,0.03871577
2326.14169189,0.03844643
2328.07049927,0.03802501
2329.99930664,0.03763783
2331.92811401,0.03731602
2333.85692139,0.03696108
2335.78572876,0.03691579
2337.71453613,0.03679490
2339.64334351,0.03688532
2341.57215088,0.03697059
2343.50095825,0.03751890
2345.42976562,0.03822103
2347.35857300,0.03947740
2349.28738037,0.04068761
2351.21618774,0.03947670
2353.14499512,0.03778069
2355.07380249,0.03644012
2357.00260986,0.03542870
2358.93141724,0.03487581
2360.86022461,0.03432316
2362.78903198,0.03439569
2364.71783936,0.03455535
2366.64664673,0.03499212
2368.57545410,0.03561549
2370.50426147,0.03640015
2372.43306885,0.03726383
2374.36187622,0.03810482
2376.29068359,0.03913618
2378.21949097,0.03974236
2380.14829834,0.04045416
2382.07710571,0.04089100
2384.00591309,0.04105937
2385.93472046,0.04127635
2387.86352783,0.04118115
2389.79233521,0.04121696
2391.72114258,0.04107779
2393.64994995,0.04095715
2395.57875732,0.04111069
2397.50756470,0.04107533
2399.43637207,0.04082732
2401.36517944,0.04082732
2403.29398682,0.04089148
2405.22279419,0.04078922
2407.15160156,0.04069095
2409.08040894,0.04055298
2411.00921631,0.04059654
2412.93802368,0.04050654
2414.86683105,0.04058272
2416.79563843,0.04064628
2418.72444580,0.04031397
2420.65325317,0.04025035
2422.58206055,0.04026503
2424.51086792,0.04030007
2426.43967529,0.04024239
2428.36848267,0.04010715
2430.29729004,0.04001820
2432.22609741,0.04005078
2434.15490479,0.04011187
2436.08371216,0.03991564
2438.01251953,0.03985556
2439.94132690,0.03984661
2441.87013428,0.03987982
2443.79894165,0.03973782
2445.72774902,0.03960089
2447.65655640,0.03969250
2449.58536377,0.03959063
2451.51417114,0.03950457
2453.44297852,0.03936538
2455.37178589,0.03945476
2457.30059326,0.03944756
2459.22940063,0.03929101
2461.15820801,0.03935587
2463.08701538,0.03917690
2465.01582275,0.03916222
2466.94463013,0.03911689
2468.87343750,0.03894999
2470.80224487,0.03896669
2472.73105225,0.03898234
2474.65985962,0.03897620
2476.58866699,0.03882306
2478.51747437,0.03879584
2480.44628174,0.03883911
2482.37508911,0.03870986
2484.30389648,0.03852545
2486.23270386,0.03850710
2488.16151123,0.03858570
2490.09031860,0.03844124
2492.01912598,0.03835230
2493.94793335,0.03840983
2495.87674072,0.03830960
2497.80554810,0.03829946
2499.73435547,0.03836215
2501.66316284,0.03816932
2503.59197021,0.03815207
2505.52077759,0.03814850
2507.44958496,0.03797023
2509.37839233,0.03791697
2511.30719971,0.03788557
2513.23600708,0.03797811
2515.16481445,0.03782003
2517.09362183,0.03770531
2519.02242920,0.03780107
2520.95123657,0.03766328
2522.88004395,0.03771403
2524.80885132,0.03763582
2526.73765869,0.03752644
2528.66646606,0.03753043
2530.59527344,0.03741857
2532.52408081,0.03753220
2534.45288818,0.03741890
2536.38169556,0.03729565
2538.31050293,0.03730644
2540.23931030,0.03708614
2542.16811768,0.03714996
2544.09692505,0.03713623
2546.02573242,0.03699700
2547.95453979,0.03705524
2549.88334717,0.03691366
2551.81215454,0.03690486
2553.74096191,0.03688912
2555.66976929,0.03676524
2557.59857666,0.03675938
2559.52738403,0.03663861
2561.45619141,0.03670324
2563.38499878,0.03670974
2565.31380615,0.03658945
2567.24261353,0.03657776
2569.17142090,0.03647218
2571.10022827,0.03637753
2573.02903564,0.03624426
2574.95784302,0.03624767
2576.88665039,0.03631373
2578.81545776,0.03616681
2580.74426514,0.03612882
2582.67307251,0.03627032
2584.60187988,0.03612718
2586.53068726,0.03596234
2588.45949463,0.03611800
2590.38830200,0.03591039
2592.31710937,0.03575182
2594.24591675,0.03585140
2596.17472412,0.03572090
2598.10353149,0.03574782
2600.03233887,0.03568555
2601.96114624,0.03556611
2603.88995361,0.03557514
2605.81876099,0.03548800
2607.74756836,0.03550258
2609.67637573,0.03544807
2611.60518311,0.03534468
2613.53399048,0.03532180
2615.46279785,0.03521033
2617.39160522,0.03527459
2619.32041260,0.03521611
2621.24921997,0.03491199
2623.17802734,0.03501157
2625.10683472,0.03507250
2627.03564209,0.03497386
2628.96444946,0.03491826
2630.89325684,0.03480899
2632.82206421,0.03489038
2634.75087158,0.03476251
2636.67967895,0.03464752
2638.60848633,0.03468155
2640.53729370,0.03458800
2642.46610107,0.03450184
2644.39490845,0.03436791
2646.32371582,0.03440426
2648.25252319,0.03432088
2650.18133057,0.03422217
2652.11013794,0.03432507
2654.03894531,0.03431935
2655.96775269,0.03426513
2657.89656006,0.03408399
2659.82536743,0.03402406
2661.75417480,0.03400326
2663.68298218,0.03393275
2665.61178955,0.03394206
2667.54059692,0.03383616
2669.46940430,0.03382476
2671.39821167,0.03382267
2673.32701904,0.03373972
2675.25582642,0.03372992
2677.18463379,0.03367980
2679.11344116,0.03357413
2681.04224854,0.03352667
2682.97105591,0.03348475
2684.89986328,0.03341003
2686.82867065,0.03346276
2688.75747803,0.03341019
2690.68628540,0.03317513
2692.61509277,0.03316534
2694.54390015,0.03315499
2696.47270752,0.03305290
2698.40151489,0.03314874
2700.33032227,0.03305641
2702.25912964,0.03294338
2704.18793701,0.03296353
2706.11674438,0.03277989
2708.04555176,0.03276214
2709.97435913,0.03275384
2711.90316650,0.03265262
2713.83197388,0.03270810
2715.76078125,0.03266605
2717.68958862,0.03252815
2719.61839600,0.03245806
2721.54720337,0.03239388
2723.47601074,0.03224779
2725.40481812,0.03226065
2727.33362549,0.03229334
2729.26243286,0.03218075
2731.19124023,0.03207280
2733.12004761,0.03200818
2735.04885498,0.03212815
2736.97766235,0.03209465
2738.90646973,0.03191328
2740.83527710,0.03188183
2742.76408447,0.03185343
2744.69289185,0.03171252
2746.62169922,0.03154103
2748.55050659,0.03156298
2750.47931396,0.03161280
2752.40812134,0.03156292
2754.33692871,0.03148375
2756.26573608,0.03140283
2758.19454346,0.03135221
2760.12335083,0.03133064
2762.05215820,0.03127479
2763.98096558,0.03115242
2765.90977295,0.03110803
2767.83858032,0.03110573
2769.76738770,0.03107594
2771.69619507,0.03093095
2773.62500244,0.03086382
2775.55380981,0.03084414
2777.48261719,0.03067993
2779.41142456,0.03069398
2781.34023193,0.03070764
2783.26903931,0.03059422
2785.19784668,0.03048836
2787.12665405,0.03046937
2789.05546143,0.03041501
2790.98426880,0.03023649
2792.91307617,0.03019184
2794.84188354,0.03016231
2796.77069092,0.03008962
2798.69949829,0.02994634
2800.62830566,0.02994712
2802.55711304,0.02997082
2804.48592041,0.02977733
2806.41472778,0.02970711
2808.34353516,0.02969083
2810.27234253,0.02969453
2812.20114990,0.02958729
2814.12995728,0.02953349
2816.05876465,0.02945763
2817.98757202,0.02925366
2819.91637939,0.02925390
2821.84518677,0.02916424
2823.77399414,0.02917343
2825.70280151,0.02915569
2827.63160889,0.02902276
2829.56041626,0.02892873
2831.48922363,0.02875041
2833.41803101,0.02869237
2835.34683838,0.02858852
2837.27564575,0.02853205
2839.20445312,0.02842083
2841.13326050,0.02832121
2843.06206787,0.02822721
2844.99087524,0.02794169
2846.91968262,0.02774776
2848.84848999,0.02749538
2850.77729736,0.02756206
2852.70610474,0.02776236
2854.63491211,0.02773352
2856.56371948,0.02779922
2858.49252686,0.02778066
2860.42133423,0.02776510
2862.35014160,0.02774079
2864.27894897,0.02767553
2866.20775635,0.02761175
2868.13656372,0.02746340
2870.06537109,0.02742542
2871.99417847,0.02748842
2873.92298584,0.02736974
2875.85179321,0.02725894
2877.78060059,0.02723944
2879.70940796,0.02709703
2881.63821533,0.02705178
2883.56702270,0.02696172
2885.49583008,0.02695359
2887.42463745,0.02691601
2889.35344482,0.02671830
2891.28225220,0.02674907
2893.21105957,0.02659214
2895.13986694,0.02652857
2897.06867432,0.02641650
2898.99748169,0.02620517
2900.92628906,0.02640116
2902.85509644,0.02621119
2904.78390381,0.02600697
2906.71271118,0.02607262
2908.64151855,0.02589879
2910.57032593,0.02573657
2912.49913330,0.02556330
2914.42794067,0.02537452
2916.35674805,0.02519182
2918.28555542,0.02522013
2920.21436279,0.02534726
2922.14317017,0.02524414
2924.07197754,0.02542643
2926.00078491,0.02556023
2927.92959229,0.02541529
2929.85839966,0.02557955
2931.78720703,0.02558529
2933.71601440,0.02557529
2935.64482178,0.02568595
2937.57362915,0.02555177
2939.50243652,0.02558878
2941.43124390,0.02557444
2943.36005127,0.02549026
2945.28885864,0.02547780
2947.21766602,0.02544352
2949.14647339,0.02537958
2951.07528076,0.02518888
2953.00408813,0.02520496
2954.93289551,0.02519498
2956.86170288,0.02506524
2958.79051025,0.02498675
2960.71931763,0.02490411
2962.64812500,0.02485242
2964.57693237,0.02482682
2966.50573975,0.02483152
2968.43454712,0.02472914
2970.36335449,0.02480980
2972.29216187,0.02480843
2974.22096924,0.02469758
2976.14977661,0.02479263
2978.07858398,0.02476444
2980.00739136,0.02468351
2981.93619873,0.02454632
2983.86500610,0.02460885
2985.79381348,0.02454023
2987.72262085,0.02439625
2989.65142822,0.02455508
2991.58023560,0.02439580
2993.50904297,0.02433903
2995.43785034,0.02428871
2997.36665771,0.02410889
2999.29546509,0.02411003
3001.22427246,0.02409495
3003.15307983,0.02404312
3005.08188721,0.02379089
3007.01069458,0.02378762
3008.93950195,0.02380802
3010.86830933,0.02368765
3012.79711670,0.02374253
3014.72592407,0.02354280
3016.65473145,0.02341970
3018.58353882,0.02340276
3020.51234619,0.02324239
3022.44115356,0.02319369
3024.36996094,0.02313469
3026.29876831,0.02307633
3028.22757568,0.02304913
3030.15638306,0.02291930
3032.08519043,0.02284894
3034.01399780,0.02278928
3035.94280518,0.02262947
3037.87161255,0.02257552
3039.80041992,0.02255218
3041.72922729,0.02246578
3043.65803467,0.02233859
3045.58684204,0.02228628
3047.51564941,0.02223701
3049.44445679,0.02210179
3051.37326416,0.02215309
3053.30207153,0.02215181
3055.23087891,0.02198768
3057.15968628,0.02183719
3059.08849365,0.02174681
3061.01730103,0.02169394
3062.94610840,0.02156594
3064.87491577,0.02153450
3066.80372314,0.02151981
3068.73253052,0.02145254
3070.66133789,0.02137023
3072.59014526,0.02126992
3074.51895264,0.02128360
3076.44776001,0.02127556
3078.37656738,0.02112528
3080.30537476,0.02095905
3082.23418213,0.02095472
3084.16298950,0.02095550
3086.09179687,0.02081360
3088.02060425,0.02072062
3089.94941162,0.02061901
3091.87821899,0.02052813
3093.80702637,0.02057990
3095.73583374,0.02039617
3097.66464111,0.02023054
3099.59344849,0.02026409
3101.52225586,0.01995990
3103.45106323,0.01999643
3105.37987061,0.02019373
3107.30867798,0.01990318
3109.23748535,0.01978911
3111.16629272,0.01972526
3113.09510010,0.01961350
3115.02390747,0.01963248
3116.95271484,0.01959133
3118.88152222,0.01939411
3120.81032959,0.01927574
3122.73913696,0.01927126
3124.66794434,0.01923672
3126.59675171,0.01922664
3128.52555908,0.01899377
3130.45436645,0.01892491
3132.38317383,0.01883062
3134.31198120,0.01869397
3136.24078857,0.01877432
3138.16959595,0.01851037
3140.09840332,0.01849694
3142.02721069,0.01843628
3143.95601807,0.01829279
3145.88482544,0.01840258
3147.81363281,0.01814998
3149.74244019,0.01806343
3151.67124756,0.01803645
3153.60005493,0.01794397
3155.52886230,0.01792557
3157.45766968,0.01779956
3159.38647705,0.01777050
3161.31528442,0.01776803
3163.24409180,0.01767505
3165.17289917,0.01748113
3167.10170654,0.01738471
3169.03051392,0.01733118
3170.95932129,0.01734376
3172.88812866,0.01726008
3174.81693604,0.01707589
3176.74574341,0.01709129
3178.67455078,0.01695050
3180.60335815,0.01687467
3182.53216553,0.01695232
3184.46097290,0.01684894
3186.38978027,0.01663814
3188.31858765,0.01659185
3190.24739502,0.01661840
3192.17620239,0.01651407
3194.10500977,0.01647974
3196.03381714,0.01639747
3197.96262451,0.01633656
3199.89143188,0.01627382
3201.82023926,0.01628629
3203.74904663,0.01627805
3205.67785400,0.01608606
3207.60666138,0.01608443
3209.53546875,0.01607358
3211.46427612,0.01609247
3213.39308350,0.01601526
3215.32189087,0.01594544
3217.25069824,0.01595217
3219.17950562,0.01583456
3221.10831299,0.01586009
3223.03712036,0.01574538
3224.96592773,0.01581187
3226.89473511,0.01578754
3228.82354248,0.01557542
3230.75234985,0.01566833
3232.68115723,0.01561773
3234.60996460,0.01567027
3236.53877197,0.01569997
3238.46757935,0.01561125
3240.39638672,0.01563124
3242.32519409,0.01561163
3244.25400146,0.01543335
3246.18280884,0.01530931
3248.11161621,0.01553142
3250.04042358,0.01551407
3251.96923096,0.01540851
3253.89803833,0.01541620
3255.82684570,0.01539321
3257.75565308,0.01548253
3259.68446045,0.01541977
3261.61326782,0.01529242
3263.54207520,0.01531027
3265.47088257,0.01540211
3267.39968994,0.01528127
3269.32849731,0.01528037
3271.25730469,0.01546571
3273.18611206,0.01533954
3275.11491943,0.01525184
3277.04372681,0.01535659
3278.97253418,0.01538307
3280.90134155,0.01530480
3282.83014893,0.01529777
3284.75895630,0.01528436
3286.68776367,0.01530364
3288.61657104,0.01533719
3290.54537842,0.01528016
3292.47418579,0.01527850
3294.40299316,0.01522229
3296.33180054,0.01524343
3298.26060791,0.01520388
3300.18941528,0.01521820
3302.11822266,0.01531313
3304.04703003,0.01525092
3305.97583740,0.01532468
3307.90464478,0.01519712
3309.83345215,0.01507207
3311.76225952,0.01519118
3313.69106689,0.01516436
3315.61987427,0.01513887
3317.54868164,0.01519171
3319.47748901,0.01514493
3321.40629639,0.01513791
3323.33510376,0.01521362
3325.26391113,0.01509234
3327.19271851,0.01508046
3329.12152588,0.01507749
3331.05033325,0.01503477
3332.97914062,0.01512241
3334.90794800,0.01509721
3336.83675537,0.01508014
3338.76556274,0.01497777
3340.69437012,0.01502060
3342.62317749,0.01507890
3344.55198486,0.01502816
3346.48079224,0.01501395
3348.40959961,0.01491437
3350.33840698,0.01497305
3352.26721436,0.01489715
3354.19602173,0.01491185
3356.12482910,0.01506661
3358.05363647,0.01497257
3359.98244385,0.01483943
3361.91125122,0.01482162
3363.84005859,0.01493997
3365.76886597,0.01490862
3367.69767334,0.01486993
3369.62648071,0.01489777
3371.55528809,0.01494558
3373.48409546,0.01497892
3375.41290283,0.01497233
3377.34171020,0.01498749
3379.27051758,0.01490518
3381.19932495,0.01491994
3383.12813232,0.01494560
3385.05693970,0.01496640
3386.98574707,0.01495223
3388.91455444,0.01498213
3390.84336182,0.01486206
3392.77216919,0.01473245
3394.70097656,0.01500781
3396.62978394,0.01491698
3398.55859131,0.01484941
3400.48739868,0.01487328
3402.41620605,0.01479103
3404.34501343,0.01492628
3406.27382080,0.01498367
3408.20262817,0.01508322
3410.13143555,0.01500435
3412.06024292,0.01498057
3413.98905029,0.01493128
3415.91785767,0.01500148
3417.84666504,0.01516295
3419.77547241,0.01489542
3421.70427979,0.01487982
3423.63308716,0.01495684
3425.56189453,0.01509233
3427.49070190,0.01507409
3429.41950928,0.01496003
3431.34831665,0.01505628
3433.27712402,0.01504511
3435.20593140,0.01513752
3437.13473877,0.01499553
3439.06354614,0.01505595
3440.99235352,0.01512972
3442.92116089,0.01502613
3444.84996826,0.01514742
3446.77877563,0.01492622
3448.70758301,0.01502310
3450.63639038,0.01527967
3452.56519775,0.01514101
3454.49400513,0.01523566
3456.42281250,0.01526929
3458.35161987,0.01508152
3460.28042725,0.01518594
3462.20923462,0.01522754
3464.13804199,0.01522319
3466.06684937,0.01521257
3467.99565674,0.01503658
3469.92446411,0.01523402
3471.85327148,0.01523494
3473.78207886,0.01523941
3475.71088623,0.01531102
3477.63969360,0.01525911
3479.56850098,0.01533997
3481.49730835,0.01504021
3483.42611572,0.01523673
3485.35492310,0.01544147
3487.28373047,0.01530424
3489.21253784,0.01534335
3491.14134521,0.01535143
3493.07015259,0.01550654
3494.99895996,0.01534261
3496.92776733,0.01534395
3498.85657471,0.01545805
3500.78538208,0.01546053
3502.71418945,0.01512571
3504.64299683,0.01502780
3506.57180420,0.01567242
3508.50061157,0.01546012
3510.42941895,0.01537385
3512.35822632,0.01558382
3514.28703369,0.01563942
3516.21584106,0.01575179
3518.14464844,0.01552217
3520.07345581,0.01575392
3522.00226318,0.01558427
3523.93107056,0.01523460
3525.85987793,0.01538064
3527.78868530,0.01536928
3529.71749268,0.01542968
3531.64630005,0.01565576
3533.57510742,0.01591268
3535.50391479,0.01576413
3537.43272217,0.01562068
3539.36152954,0.01585123
3541.29033691,0.01587451
3543.21914429,0.01573569
3545.14795166,0.01539060
3547.07675903,0.01503996
3549.00556641,0.01569997
3550.93437378,0.01595627
3552.86318115,0.01538246
3554.79198853,0.01573531
3556.72079590,0.01595847
3558.64960327,0.01599106
3560.57841064,0.01577341
3562.50721802,0.01561005
3564.43602539,0.01586953
3566.36483276,0.01453625
3568.29364014,0.01405912
3570.22244751,0.01560546
3572.15125488,0.01614236
3574.08006226,0.01588171
3576.00886963,0.01597553
3577.93767700,0.01595408
3579.86648437,0.01592932
3581.79529175,0.01596882
3583.72409912,0.01605071
3585.65290649,0.01557158
3587.58171387,0.01397105
3589.51052124,0.01456663
3591.43932861,0.01620121
3593.36813599,0.01570538
3595.29694336,0.01530834
3597.22575073,0.01559630
3599.15455811,0.01586567
3601.08336548,0.01567053
3603.01217285,0.01583980
3604.94098022,0.01623577
3606.86978760,0.01550420
3608.79859497,0.01439986
3610.72740234,0.01492408
3612.65620972,0.01531780
3614.58501709,0.01474566
3616.51382446,0.01614461
3618.44263184,0.01463692
3620.37143921,0.01407381
3622.30024658,0.01626654
3624.22905395,0.01571090
3626.15786133,0.01681625
3628.08666870,0.01362581
3630.01547607,0.01201853
3631.94428345,0.01614501
3633.87309082,0.01561540
3635.80189819,0.01595432
3637.73070557,0.01631353
3639.65951294,0.01605896
3641.58832031,0.01633123
3643.51712769,0.01602991
3645.44593506,0.01622751
3647.37474243,0.01419752
3649.30354980,0.01283374
3651.23235718,0.01305360
3653.16116455,0.01604191
3655.08997192,0.01588898
3657.01877930,0.01387283
3658.94758667,0.01655963
3660.87639404,0.01615838
3662.80520142,0.01635427
3664.73400879,0.01641124
3666.66281616,0.01616868
3668.59162354,0.01562578
3670.52043091,0.01223794
3672.44923828,0.01541238
3674.37804565,0.01452295
3676.30685303,0.01156316
3678.23566040,0.01538543
3680.16446777,0.01571460
3682.09327515,0.01583136
3684.02208252,0.01634365
3685.95088989,0.01593702
3687.87969727,0.01421533
3689.80850464,0.01264916
3691.73731201,0.01482379
3693.66611938,0.01549256
3695.59492676,0.01592281
3697.52373413,0.01592384
3699.45254150,0.01566737
3701.38134888,0.01524896
3703.31015625,0.01453952
3705.23896362,0.01622274
3707.16777100,0.01534734
3709.09657837,0.01490020
3711.02538574,0.01391711
3712.95419312,0.01277710
3714.88300049,0.01542607
3716.81180786,0.01520301
3718.74061523,0.01529728
3720.66942261,0.01490199
3722.59822998,0.01426999
3724.52703735,0.01499241
3726.45584473,0.01366901
3728.38465210,0.01508943
3730.31345947,0.01505763
3732.24226685,0.01349255
3734.17107422,0.01301396
3736.09988159,0.01222879
3738.02868896,0.01318397
3739.95749634,0.01448724
3741.88630371,0.01521168
3743.81511108,0.01140426
3745.74391846,0.01053861
3747.67272583,0.01432911
3749.60153320,0.01211996
3751.53034058,0.01091486
3753.45914795,0.01286891
3755.38795532,0.01407007
3757.31676270,0.01468303
3759.24557007,0.01340723
3761.17437744,0.01395893
3763.10318481,0.01500315
3765.03199219,0.01385496
3766.96079956,0.01417579
3768.88960693,0.01409457
3770.81841431,0.01331502
3772.74722168,0.01455344
3774.67602905,0.01461865
3776.60483643,0.01456549
3778.53364380,0.01412672
3780.46245117,0.01348224
3782.39125854,0.01456281
3784.32006592,0.01414392
3786.24887329,0.01404982
3788.17768066,0.01453463
3790.10648804,0.01433175
3792.03529541,0.01420911
3793.96410278,0.01455968
3795.89291016,0.01347810
3797.82171753,0.01318544
3799.75052490,0.01411141
3801.67933228,0.01074290
3803.60813965,0.01281751
3805.53694702,0.01420185
3807.46575439,0.01114676
3809.39456177,0.01401482
3811.32336914,0.01379126
3813.25217651,0.01421766
3815.18098389,0.01261578
3817.10979126,0.01079275
3819.03859863,0.01421945
3820.96740601,0.01101314
3822.89621338,0.01167483
3824.82502075,0.01414104
3826.75382812,0.01260062
3828.68263550,0.01365042
3830.61144287,0.01306326
3832.54025024,0.01263686
3834.46905762,0.01286217
3836.39786499,0.01218824
3838.32667236,0.01081336
3840.25547974,0.01171960
3842.18428711,0.01295040
3844.11309448,0.01232746
3846.04190186,0.01336530
3847.97070923,0.01319555
3849.89951660,0.01332418
3851.82832397,0.01163656
3853.75713135,0.00823733
3855.68593872,0.01012601
3857.61474609,0.01313872
3859.54355347,0.01288024
3861.47236084,0.01261665
3863.40116821,0.01237237
3865.32997559,0.01132093
3867.25878296,0.01282679
3869.18759033,0.01163065
3871.11639770,0.01052651
3873.04520508,0.01294338
3874.97401245,0.01160954
3876.90281982,0.01282807
3878.83162720,0.01312943
3880.76043457,0.01069610
3882.68924194,0.01285780
3884.61804932,0.01190867
3886.54685669,0.01068917
3888.47566406,0.01289902
3890.40447144,0.01215700
3892.33327881,0.01128180
3894.26208618,0.01241439
3896.19089355,0.01278087
3898.11970093,0.01205903
3900.04850830,0.01124908
3901.97731567,0.01120312
3903.90612305,0.01103894
3905.83493042,0.01122022
3907.76373779,0.01241111
3909.69254517,0.01239105
3911.62135254,0.01238013
3913.55015991,0.01261215
3915.47896728,0.01204286
3917.40777466,0.01172125
3919.33658203,0.01160316
3921.26538940,0.01205795
3923.19419678,0.01200361
3925.12300415,0.01173771
3927.05181152,0.01198145
3928.98061890,0.01211227
3930.90942627,0.01180626
3932.83823364,0.01133629
3934.76704102,0.01198976
3936.69584839,0.01213727
3938.62465576,0.01197854
3940.55346313,0.01207279
3942.48227051,0.01148094
3944.41107788,0.01162296
3946.33988525,0.01194644
3948.26869263,0.01166988
3950.19750000,0.01154244
3952.12630737,0.01175684
3954.05511475,0.01183133
3955.98392212,0.01177297
3957.91272949,0.01174445
3959.84153687,0.01171336
3961.77034424,0.01164596
3963.69915161,0.01149099
3965.62795898,0.01170010
3967.55676636,0.01167986
3969.48557373,0.01157030
3971.41438110,0.01162174
3973.34318848,0.01152361
3975.27199585,0.01150694
3977.20080322,0.01154625
3979.12961060,0.01159803
3981.05841797,0.01144500
3982.98722534,0.01149772
3984.91603271,0.01146058
3986.84484009,0.01145847
3988.77364746,0.01146743
3990.70245483,0.01120459
3992.63126221,0.01132440
3994.56006958,0.01124806
3996.48887695,0.01129579
3998.41768433,0.01133734
4000.34649170,0.01120983
4002.27529907,0.01118239
4004.20410645,0.01105813
4006.13291382,0.01113373
4008.06172119,0.01099838
4009.99052856,0.01104401
4011.91933594,0.01105450
4013.84814331,0.01096275
4015.77695068,0.01098354
4017.70575806,0.01093842
4019.63456543,0.01103944
4021.56337280,0.01091194
4023.49218018,0.01093542
4025.42098755,0.01086968
4027.34979492,0.01083657
4029.27860229,0.01091427
4031.20740967,0.01083983
4033.13621704,0.01085485
4035.06502441,0.01071751
4036.99383179,0.01080366
4038.92263916,0.01073490
4040.85144653,0.01069951
4042.78025391,0.01071529
4044.70906128,0.01057273
4046.63786865,0.01064347
4048.56667603,0.01059017
4050.49548340,0.01067468
4052.42429077,0.01058780
4054.35309814,0.01056063
4056.28190552,0.01065138
4058.21071289,0.01054727
4060.13952026,0.01056724
4062.06832764,0.01046997
4063.99713501,0.01041440
4065.92594238,0.01041424
4067.85474976,0.01046655
4069.78355713,0.01037767
4071.71236450,0.01030503
4073.64117187,0.01030963
4075.56997925,0.01024553
4077.49878662,0.01034212
4079.42759399,0.01026804
4081.35640137,0.01030890
4083.28520874,0.01027148
4085.21401611,0.01015935
4087.14282349,0.01024238
4089.07163086,0.01019382
4091.00043823,0.01013474
4092.92924561,0.01005580
4094.85805298,0.01005868
4096.78686035,0.01004142
4098.71566772,0.01001418
4100.64447510,0.00996802
4102.57328247,0.00998854
4104.50208984,0.00997108
4106.43089722,0.00980863
4108.35970459,0.00990465
4110.28851196,0.00987995
4112.21731934,0.00985503
4114.14612671,0.00988951
4116.07493408,0.00975372
4118.00374145,0.00968377
4119.93254883,0.00981532
4121.86135620,0.00987570
4123.79016357,0.00969050
4125.71897095,0.00971367
4127.64777832,0.00967355
4129.57658569,0.00965884
4131.50539307,0.00963388
4133.43420044,0.00951897
4135.36300781,0.00958216
4137.29181519,0.00956877
4139.22062256,0.00964196
4141.14942993,0.00952569
4143.07823730,0.00945899
4145.00704468,0.00949066
4146.93585205,0.00950835
4148.86465942,0.00964095
4150.79346680,0.00948974
4152.72227417,0.00942828
4154.65108154,0.00937549
4156.57988892,0.00936135
4158.50869629,0.00936786
4160.43750366,0.00929908
4162.36631103,0.00932861
4164.29511841,0.00928324
4166.22392578,0.00930224
4168.15273315,0.00919455
4170.08154053,0.00913237
4172.01034790,0.00912253
4173.93915527,0.00915827
4175.86796265,0.00921067
4177.79677002,0.00908531
4179.72557739,0.00907305
4181.65438477,0.00903627
4183.58319214,0.00910364
4185.51199951,0.00906372
4187.44080688,0.00897863
4189.36961426,0.00898380
4191.29842163,0.00888319
4193.22722900,0.00896695
4195.15603638,0.00894932
4197.08484375,0.00886891
4199.01365112,0.00883262
4200.94245850,0.00883831
4202.87126587,0.00888096
4204.80007324,0.00884851
4206.72888062,0.00880156
4208.65768799,0.00875880
4210.58649536,0.00878456
4212.51530273,0.00872887
4214.44411011,0.00876976
4216.37291748,0.00873919
4218.30172485,0.00869520
4220.23053223,0.00872328
4222.15933960,0.00856358
4224.08814697,0.00859589
4226.01695435,0.00863136
4227.94576172,0.00856827
4229.87456909,0.00850005
4231.80337646,0.00850354
4233.73218384,0.00855323
4235.66099121,0.00849245
4237.58979858,0.00847651
4239.51860596,0.00844897
4241.44741333,0.00843409
4243.37622070,0.00835874
4245.30502808,0.00843585
4247.23383545,0.00843050
4249.16264282,0.00829720
4251.09145020,0.00837677
4253.02025757,0.00825865
4254.94906494,0.00825805
4256.87787231,0.00830871
4258.80667969,0.00821248
4260.73548706,0.00822951
4262.66429443,0.00822816
4264.59310181,0.00818337
4266.52190918,0.00812781
4268.45071655,0.00817052
4270.37952393,0.00816500
4272.30833130,0.00809640
4274.23713867,0.00806500
4276.16594604,0.00808261
4278.09475342,0.00805442
4280.02356079,0.00800776
4281.95236816,0.00804217
4283.88117554,0.00800643
4285.80998291,0.00798204
4287.73879028,0.00794564
4289.66759766,0.00794061
4291.59640503,0.00786280
4293.52521240,0.00789937
4295.45401978,0.00795594
4297.38282715,0.00782487
4299.31163452,0.00793614
4301.24044189,0.00782363
4303.16924927,0.00773489
4305.09805664,0.00777974
4307.02686401,0.00775268
4308.95567139,0.00785200
4310.88447876,0.00772792
4312.81328613,0.00775959
4314.74209351,0.00770992
4316.67090088,0.00767346
4318.59970825,0.00782498
4320.52851562,0.00769262
4322.45732300,0.00767751
4324.38613037,0.00767824
4326.31493774,0.00764289
4328.24374512,0.00762371
4330.17255249,0.00756251
4332.10135986,0.00754478
4334.03016724,0.00759257
4335.95897461,0.00764067
4337.88778198,0.00753751
4339.81658936,0.00747915
4341.74539673,0.00740969
4343.67420410,0.00742888
4345.60301147,0.00745533
4347.53181885,0.00742195
4349.46062622,0.00745941
4351.38943359,0.00736731
4353.31824097,0.00735531
4355.24704834,0.00733493
4357.17585571,0.00729723
4359.10466309,0.00735262
4361.03347046,0.00729864
4362.96227783,0.00722336
4364.89108520,0.00727046
4366.81989258,0.00735548
4368.74869995,0.00725383
4370.67750732,0.00719101
4372.60631470,0.00722076
4374.53512207,0.00714396
4376.46392944,0.00714370
4378.39273682,0.00718651
4380.32154419,0.00711596
4382.25035156,0.00711529
4384.17915894,0.00716388
4386.10796631,0.00708579
4388.03677368,0.00706272
4389.96558105,0.00703037
4391.89438843,0.00699655
4393.82319580,0.00704177
4395.75200317,0.00697745
4397.68081055,0.00692266
4399.60961792,0.00696117
4401.53842529,0.00691745
4403.46723267,0.00685326
4405.39604004,0.00697253
4407.32484741,0.00694952
4409.25365478,0.00687332
4411.18246216,0.00698518
4413.11126953,0.00687032
4415.04007690,0.00673612
4416.96888428,0.00677524
4418.89769165,0.00678909
4420.82649902,0.00679084
4422.75530640,0.00678977
4424.68411377,0.00673387
4426.61292114,0.00672926
4428.54172852,0.00678752
4430.47053589,0.00665852
4432.39934326,0.00661911
4434.32815063,0.00669014
4436.25695801,0.00661311
4438.18576538,0.00663199
4440.11457275,0.00671647
4442.04338013,0.00665936
4443.97218750,0.00655090
4445.90099487,0.00653558
4447.82980225,0.00659076
4449.75860962,0.00661516
4451.68741699,0.00648768
4453.61622437,0.00645737
4455.54503174,0.00652745
4457.47383911,0.00640574
4459.40264648,0.00640039
4461.33145386,0.00645232
4463.26026123,0.00642261
4465.18906860,0.00645504
4467.11787598,0.00639208
4469.04668335,0.00630201
4470.97549072,0.00631139
4472.90429810,0.00631926
4474.83310547,0.00635923
4476.76191284,0.00634914
4478.69072021,0.00621874
4480.61952759,0.00625620
4482.54833496,0.00627826
4484.47714233,0.00622225
4486.40594971,0.00628446
4488.33475708,0.00625237
4490.26356445,0.00621258
4492.19237183,0.00621309
4494.12117920,0.00616215
4496.04998657,0.00606564
4497.97879395,0.00608506
4499.90760132,0.00611870
4501.83640869,0.00604868
4503.76521606,0.00610607
4505.69402344,0.00601695
4507.62283081,0.00594431
4509.55163818,0.00602878
4511.48044556,0.00600052
4513.40925293,0.00600023
4515.33806030,0.00599344
4517.26686768,0.00600493
4519.19567505,0.00598653
4521.12448242,0.00592771
4523.05328979,0.00592816
4524.98209717,0.00589660
4526.91090454,0.00586672
4528.83971191,0.00590006
4530.76851929,0.00592208
4532.69732666,0.00591413
4534.62613403,0.00589159
4536.55494141,0.00577912
4538.48374878,0.00580421
4540.41255615,0.00583364
4542.34136353,0.00572545
4544.27017090,0.00576270
4546.19897827,0.00576580
4548.12778564,0.00571228
4550.05659302,0.00568921
4551.98540039,0.00570118
4553.91420776,0.00572043
4555.84301514,0.00572508
4557.77182251,0.00571037
4559.70062988,0.00562122
4561.62943726,0.00569095
4563.55824463,0.00571897
4565.48705200,0.00561277
4567.41585937,0.00561626
4569.34466675,0.00563573
4571.27347412,0.00558406
4573.20228149,0.00555725
4575.13108887,0.00565025
4577.05989624,0.00554984
4578.98870361,0.00541658
4580.91751099,0.00550016
4582.84631836,0.00548400
4584.77512573,0.00550110
4586.70393311,0.00551654
4588.63274048,0.00536613
4590.56154785,0.00535755
4592.49035522,0.00541054
4594.41916260,0.00534301
4596.34796997,0.00536705
4598.27677734,0.00538641
4600.20558472,0.00537674
4602.13439209,0.00538391
4604.06319946,0.00527421
4605.99200684,0.00529471
4607.92081421,0.00533923
4609.84962158,0.00527532
4611.77842895,0.00530106
4613.70723633,0.00529025
4615.63604370,0.00533116
4617.56485107,0.00539129
4619.49365845,0.00525964
4621.42246582,0.00521315
4623.35127319,0.00521488
4625.28008057,0.00513178
4627.20888794,0.00520535
4629.13769531,0.00522413
4631.06650269,0.00512580
4632.99531006,0.00511426
4634.92411743,0.00513331
4636.85292480,0.00514378
4638.78173218,0.00507112
4640.71053955,0.00502545
4642.63934692,0.00505302
4644.56815430,0.00508087
4646.49696167,0.00506783
4648.42576904,0.00499372
4650.35457642,0.00492186
4652.28338379,0.00494270
4654.21219116,0.00501422
4656.14099853,0.00488975
4658.06980591,0.00491755
4659.99861328,0.00503984
4661.92742065,0.00495387
4663.85622803,0.00497850
4665.78503540,0.00493514
4667.71384277,0.00490214
4669.64265015,0.00487200
4671.57145752,0.00483137
4673.50026489,0.00498005
4675.42907227,0.00492169
4677.35787964,0.00482502
4679.28668701,0.00484098
4681.21549438,0.00482173
4683.14430176,0.00482785
4685.07310913,0.00477948
4687.00191650,0.00478861
4688.93072388,0.00484782
4690.85953125,0.00478633
4692.78833862,0.00474594
4694.71714600,0.00476981
4696.64595337,0.00471366
4698.57476074,0.00469233
4700.50356812,0.00466543
4702.43237549,0.00467921
4704.36118286,0.00474370
4706.28999023,0.00466745
4708.21879761,0.00464732
4710.14760498,0.00460974
4712.07641235,0.00460802
4714.00521973,0.00464061
4715.93402710,0.00454635
4717.86283447,0.00461450
4719.79164185,0.00460029
4721.72044922,0.00447428
4723.64925659,0.00449710
4725.57806396,0.00446858
4727.50687134,0.00450118
4729.43567871,0.00459059
4731.36448608,0.00453214
4733.29329346,0.00450421
4735.22210083,0.00454058
4737.15090820,0.00453715
4739.07971558,0.00453326
4741.00852295,0.00444918
4742.93733032,0.00438259
4744.86613770,0.00443874
4746.79494507,0.00443898
4748.72375244,0.00438884
4750.65255981,0.00442393
4752.58136719,0.00446552
4754.51017456,0.00443028
4756.43898193,0.00439262
4758.36778931,0.00436201
4760.29659668,0.00432120
4762.22540405,0.00426694
4764.15421143,0.00428318
4766.08301880,0.00428351
4768.01182617,0.00428390
4769.94063354,0.00441256
4771.86944092,0.00431904
4773.79824829,0.00422771
4775.72705566,0.00425876
4777.65586304,0.00419966
4779.58467041,0.00432046
4781.51347778,0.00431587
4783.44228516,0.00418608
4785.37109253,0.00422187
4787.29989990,0.00418755
4789.22870728,0.00412227
4791.15751465,0.00416401
4793.08632202,0.00416623
4795.01512939,0.00413665
4796.94393677,0.00419515
4798.87274414,0.00415053
4800.80155151,0.00414846
4802.73035889,0.00418619
4804.65916626,0.00410160
4806.58797363,0.00412899
4808.51678101,0.00412104
4810.44558838,0.00409043
4812.37439575,0.00406592
4814.30320312,0.00404715
4816.23201050,0.00407000
4818.16081787,0.00399794
4820.08962524,0.00407240
4822.01843262,0.00405634
4823.94723999,0.00395097
4825.87604736,0.00402120
4827.80485474,0.00392430
4829.73366211,0.00392320
4831.66246948,0.00401285
4833.59127686,0.00391161
4835.52008423,0.00389706
4837.44889160,0.00390653
4839.37769897,0.00392528
4841.30650635,0.00391293
4843.23531372,0.00382667
4845.16412109,0.00384333
4847.09292847,0.00384077
4849.02173584,0.00385432
4850.95054321,0.00387943
4852.87935059,0.00388580
4854.80815796,0.00384676
4856.73696533,0.00375326
4858.66577270,0.00384574
4860.59458008,0.00385192
4862.52338745,0.00380304
4864.45219482,0.00384284
4866.38100220,0.00373297
4868.30980957,0.00373728
4870.23861694,0.00377971
4872.16742432,0.00368320
4874.09623169,0.00369034
4876.02503906,0.00371698
4877.95384644,0.00366234
4879.88265381,0.00373209
4881.81146118,0.00375577
4883.74026855,0.00366349
4885.66907593,0.00375597
4887.59788330,0.00373554
4889.52669067,0.00360533
4891.45549805,0.00362850
4893.38430542,0.00365361
4895.31311279,0.00363638
4897.24192017,0.00360467
4899.17072754,0.00363060
4901.09953491,0.00359815
4903.02834228,0.00356627
4904.95714966,0.00356515
4906.88595703,0.00353809
4908.81476440,0.00361824
4910.74357178,0.00363615
4912.67237915,0.00361843
4914.60118652,0.00360921
4916.52999390,0.00359334
4918.45880127,0.00356979
4920.38760864,0.00349461
4922.31641602,0.00349754
4924.24522339,0.00345154
4926.17403076,0.00343774
4928.10283813,0.00348504
4930.03164551,0.00341940
4931.96045288,0.00339307
4933.88926025,0.00342080
4935.81806763,0.00340691
4937.74687500,0.00336987
4939.67568237,0.00342038
4941.60448975,0.00341573
4943.53329712,0.00332452
4945.46210449,0.00340544
4947.39091187,0.00342000
4949.31971924,0.00334412
4951.24852661,0.00337937
4953.17733398,0.00334683
4955.10614136,0.00328592
4957.03494873,0.00329176
4958.96375610,0.00334448
4960.89256348,0.00332771
4962.82137085,0.00326663
4964.75017822,0.00332950
4966.67898560,0.00332088
4968.60779297,0.00329123
4970.53660034,0.00330223
4972.46540771,0.00325534
4974.39421509,0.00321152
4976.32302246,0.00317383
4978.25182983,0.00321934
4980.18063721,0.00321156
4982.10944458,0.00325409
4984.03825195,0.00326107
4985.96705933,0.00314598
4987.89586670,0.00324527
4989.82467407,0.00317790
4991.75348145,0.00310914
4993.68228882,0.00320475
4995.61109619,0.00317018
4997.53990356,0.00321142
4999.46871094,0.00315689
5001.39751831,0.00314056
5003.32632568,0.00318411
5005.25513306,0.00307525
5007.18394043,0.00306764
5009.11274780,0.00309880
5011.04155518,0.00307632
5012.97036255,0.00309711
5014.89916992,0.00312495
5016.82797729,0.00305831
5018.75678467,0.00303405
5020.68559204,0.00304355
5022.61439941,0.00301799
5024.54320679,0.00308645
5026.47201416,0.00308671
5028.40082153,0.00302725
5030.32962891,0.00304728
5032.25843628,0.00302544
5034.18724365,0.00297662
5036.11605103,0.00299722
5038.04485840,0.00295103
5039.97366577,0.00294429
5041.90247314,0.00298938
5043.83128052,0.00290440
5045.76008789,0.00292190
5047.68889526,0.00293462
5049.61770264,0.00294170
5051.54651001,0.00296424
5053.47531738,0.00288918
5055.40412476,0.00291374
5057.33293213,0.00290651
5059.26173950,0.00293679
5061.19054687,0.00292585
5063.11935425,0.00286612
5065.04816162,0.00287014
5066.97696899,0.00279675
5068.90577637,0.00286095
5070.83458374,0.00286341
5072.76339111,0.00280767
5074.69219849,0.00284681
5076.62100586,0.00285755
5078.54981323,0.00288156
5080.47862061,0.00282800
5082.40742798,0.00276548
5084.33623535,0.00272503
5086.26504272,0.00278629
5088.19385010,0.00278978
5090.12265747,0.00272248
5092.05146484,0.00280213
5093.98027222,0.00275458
5095.90907959,0.00273265
5097.83788696,0.00274474
5099.76669434,0.00269916
5101.69550171,0.00274957
5103.62430908,0.00271408
5105.55311645,0.00267988
5107.48192383,0.00268474
5109.41073120,0.00267491
5111.33953857,0.00270804
5113.26834595,0.00270501
5115.19715332,0.00269157
5117.12596069,0.00265554
5119.05476807,0.00263351
5120.98357544,0.00268999
5122.91238281,0.00261372
5124.84119019,0.00254223
5126.76999756,0.00264231
5128.69880493,0.00264483
5130.62761230,0.00258174
5132.55641968,0.00255732
5134.48522705,0.00262281
5136.41403442,0.00260648
5138.34284180,0.00248640
5140.27164917,0.00250071
5142.20045654,0.00248148
5144.12926392,0.00256498
5146.05807129,0.00258624
5147.98687866,0.00251381
5149.91568603,0.00256397
5151.84449341,0.00246674
5153.77330078,0.00249291
5155.70210815,0.00255188
5157.63091553,0.00252480
5159.55972290,0.00253238
5161.48853027,0.00252123
5163.41733765,0.00250754
5165.34614502,0.00242782
5167.27495239,0.00256887
5169.20375977,0.00249589
5171.13256714,0.00236456
5173.06137451,0.00256189
5174.99018188,0.00245592
5176.91898926,0.00241777
5178.84779663,0.00244259
5180.77660400,0.00240854
5182.70541138,0.00249785
5184.63421875,0.00240657
5186.56302612,0.00239800
5188.49183350,0.00246072
5190.42064087,0.00240694
5192.34944824,0.00236354
5194.27825562,0.00244625
5196.20706299,0.00246001
5198.13587036,0.00234016
5200.06467773,0.00237450
5201.99348511,0.00238843
5203.92229248,0.00232158
5205.85109985,0.00221682
5207.77990723,0.00221705
5209.70871460,0.00233192
5211.63752197,0.00234339
5213.56632935,0.00233385
5215.49513672,0.00224067
5217.42394409,0.00221190
5219.35275146,0.00223144
5221.28155884,0.00231234
5223.21036621,0.00236072
5225.13917358,0.00218420
5227.06798096,0.00227075
5228.99678833,0.00231225
5230.92559570,0.00228442
5232.85440308,0.00231898
5234.78321045,0.00215919
5236.71201782,0.00228173
5238.64082520,0.00225025
5240.56963257,0.00214477
5242.49843994,0.00227820
5244.42724731,0.00216092
5246.35605469,0.00216469
5248.28486206,0.00213017
5250.21366943,0.00206955
5252.14247681,0.00220532
5254.07128418,0.00218641
5256.00009155,0.00219027
5257.92889893,0.00219618
5259.85770630,0.00220190
5261.78651367,0.00218016
5263.71532104,0.00208985
5265.64412842,0.00215375
5267.57293579,0.00222197
5269.50174316,0.00213394
5271.43055054,0.00210765
5273.35935791,0.00226604
5275.28816528,0.00219551
5277.21697266,0.00212374
5279.14578003,0.00218170
5281.07458740,0.00208534
5283.00339478,0.00215630
5284.93220215,0.00212449
5286.86100952,0.00209512
5288.78981689,0.00212930
5290.71862427,0.00200946
5292.64743164,0.00209112
5294.57623901,0.00211224
5296.50504639,0.00215888
5298.43385376,0.00215366
5300.36266113,0.00202667
5302.29146851,0.00207789
5304.22027588,0.00205800
5306.14908325,0.00207800
5308.07789062,0.00202450
5310.00669800,0.00201269
5311.93550537,0.00210991
5313.86431274,0.00205159
5315.79312012,0.00206584
5317.72192749,0.00204013
5319.65073486,0.00202491
5321.57954224,0.00200772
5323.50834961,0.00200869
5325.43715698,0.00209152
5327.36596436,0.00198151
5329.29477173,0.00191311
5331.22357910,0.00195143
5333.15238647,0.00198448
5335.08119385,0.00197416
5337.01000122,0.00190006
5338.93880859,0.00185037
5340.86761597,0.00191850
5342.79642334,0.00204589
5344.72523071,0.00192425
5346.65403809,0.00187076
5348.58284546,0.00195786
5350.51165283,0.00193961
5352.44046020,0.00194745
5354.36926758,0.00186963
5356.29807495,0.00187500
5358.22688232,0.00192446
5360.15568970,0.00185998
5362.08449707,0.00186625
5364.01330444,0.00186888
5365.94211182,0.00186662
5367.87091919,0.00186832
5369.79972656,0.00186878
5371.72853394,0.00185225
5373.65734131,0.00182760
5375.58614868,0.00184247
5377.51495605,0.00182131
5379.44376343,0.00186042
5381.37257080,0.00186349
5383.30137817,0.00181353
5385.23018555,0.00183362
5387.15899292,0.00176272
5389.08780029,0.00175263
5391.01660767,0.00182606
5392.94541504,0.00176077
5394.87422241,0.00171819
5396.80302978,0.00177170
5398.73183716,0.00177769
5400.66064453,0.00176519
5402.58945190,0.00176054
5404.51825928,0.00175560
5406.44706665,0.00183989
5408.37587402,0.00179058
5410.30468140,0.00169484
5412.23348877,0.00175578
5414.16229614,0.00163042
5416.09110352,0.00166530
5418.01991089,0.00182917
5419.94871826,0.00168925
5421.87752563,0.00171777
5423.80633301,0.00179286
5425.73514038,0.00174625
5427.66394775,0.00169726
5429.59275513,0.00160428
5431.52156250,0.00172209
5433.45036987,0.00172985
5435.37917725,0.00158450
5437.30798462,0.00170306
5439.23679199,0.00172747
5441.16559936,0.00161349
5443.09440674,0.00165969
5445.02321411,0.00163121
5446.95202148,0.00161175
5448.88082886,0.00162932
5450.80963623,0.00155630
5452.73844360,0.00171420
5454.66725098,0.00171716
5456.59605835,0.00158253
5458.52486572,0.00171294
5460.45367310,0.00160732
5462.38248047,0.00154346
5464.31128784,0.00161486
5466.24009521,0.00153033
5468.16890259,0.00156208
5470.09770996,0.00157834
5472.02651733,0.00162795
5473.95532471,0.00160501
5475.88413208,0.00150112
5477.81293945,0.00158082
5479.74174683,0.00158841
5481.67055420,0.00154120
5483.59936157,0.00150228
5485.52816895,0.00154989
5487.45697632,0.00159482
5489.38578369,0.00151371
5491.31459106,0.00154218
5493.24339844,0.00150219
5495.17220581,0.00151785
5497.10101318,0.00159398
5499.02982056,0.00154038
5500.95862793,0.00157563
5502.88743530,0.00152165
5504.81624268,0.00146761
5506.74505005,0.00152901
5508.67385742,0.00152209
5510.60266479,0.00151471
5512.53147217,0.00151429
5514.46027954,0.00147287
5516.38908691,0.00147006
5518.31789429,0.00153105
5520.24670166,0.00145798
5522.17550903,0.00144164
5524.10431641,0.00150074
5526.03312378,0.00144312
5527.96193115,0.00149537
5529.89073853,0.00151573
5531.81954590,0.00146553
5533.74835327,0.00144590
5535.67716064,0.00147946
5537.60596802,0.00147486
5539.53477539,0.00137899
5541.46358276,0.00149348
5543.39239014,0.00149150
5545.32119751,0.00136992
5547.25000488,0.00144600
5549.17881226,0.00147461
5551.10761963,0.00145546
5553.03642700,0.00137429
5554.96523437,0.00133130
5556.89404175,0.00141784
5558.82284912,0.00144801
5560.75165649,0.00141639
5562.68046387,0.00139902
5564.60927124,0.00142142
5566.53807861,0.00140814
5568.46688599,0.00139428
5570.39569336,0.00143376
5572.32450073,0.00140965
5574.25330811,0.00140129
5576.18211548,0.00140991
5578.11092285,0.00136649
5580.03973022,0.00143273
5581.96853760,0.00139515
5583.89734497,0.00138096
5585.82615234,0.00148753
5587.75495972,0.00133598
5589.68376709,0.00137307
5591.61257446,0.00144154
5593.54138184,0.00133104
5595.47018921,0.00138638
5597.39899658,0.00132406
5599.32780395,0.00131403
5601.25661133,0.00135630
5603.18541870,0.00136768
5605.11422607,0.00139481
5607.04303345,0.00130953
5608.97184082,0.00128882
5610.90064819,0.00127425
5612.82945557,0.00130585
5614.75826294,0.00133084
5616.68707031,0.00131997
5618.61587769,0.00131432
5620.54468506,0.00130307
5622.47349243,0.00134029
5624.40229980,0.00128450
5626.33110718,0.00133794
5628.25991455,0.00133534
5630.18872192,0.00123003
5632.11752930,0.00128795
5634.04633667,0.00128926
5635.97514404,0.00126587
5637.90395142,0.00125098
5639.83275879,0.00126594
5641.76156616,0.00132645
5643.69037353,0.00133373
5645.61918091,0.00125983
5647.54798828,0.00124626
5649.47679565,0.00129875
5651.40560303,0.00125290
5653.33441040,0.00130672
5655.26321777,0.00130114
5657.19202515,0.00121270
5659.12083252,0.00118763
5661.04963989,0.00118478
5662.97844727,0.00129494
5664.90725464,0.00124690
5666.83606201,0.00120396
5668.76486938,0.00124166
5670.69367676,0.00117141
5672.62248413,0.00121715
5674.55129150,0.00123328
5676.48009888,0.00117015
5678.40890625,0.00117455
5680.33771362,0.00119241
5682.26652100,0.00120013
5684.19532837,0.00117716
5686.12413574,0.00115416
5688.05294311,0.00118515
5689.98175049,0.00121357
5691.91055786,0.00122417
5693.83936523,0.00116372
5695.76817261,0.00108316
5697.69697998,0.00114373
5699.62578735,0.00113790
5701.55459473,0.00112694
5703.48340210,0.00117229
5705.41220947,0.00116561
5707.34101685,0.00118919
5709.26982422,0.00112259
5711.19863159,0.00114191
5713.12743896,0.00118092
5715.05624634,0.00115688
5716.98505371,0.00121299
5718.91386108,0.00113710
5720.84266846,0.00108100
5722.77147583,0.00111721
5724.70028320,0.00118599
5726.62909058,0.00117875
5728.55789795,0.00111668
5730.48670532,0.00117898
5732.41551270,0.00109114
5734.34432007,0.00108444
5736.27312744,0.00118731
5738.20193481,0.00108971
5740.13074219,0.00107227
5742.05954956,0.00108913
5743.98835693,0.00111426
5745.91716431,0.00111356
5747.84597168,0.00097873
5749.77477905,0.00107049
5751.70358643,0.00114852
5753.63239380,0.00100944
5755.56120117,0.00107584
5757.49000854,0.00110167
5759.41881592,0.00103487
5761.34762329,0.00111257
5763.27643066,0.00104586
5765.20523804,0.00099463
5767.13404541,0.00108301
5769.06285278,0.00105346
5770.99166016,0.00101817
5772.92046753,0.00101989
5774.84927490,0.00096465
5776.77808228,0.00097436
5778.70688965,0.00103922
5780.63569702,0.00102166
5782.56450439,0.00098604
5784.49331177,0.00097029
5786.42211914,0.00098211
5788.35092651,0.00100302
5790.27973389,0.00097228
5792.20854126,0.00095705
5794.13734863,0.00096644
5796.06615601,0.00100359
5797.99496338,0.00103654
5799.92377075,0.00100785
5801.85257812,0.00093699
5803.78138550,0.00094320
5805.71019287,0.00101027
5807.63900024,0.00094765
5809.56780762,0.00097231
5811.49661499,0.00102922
5813.42542236,0.00095157
5815.35422974,0.00101396
5817.28303711,0.00106479
5819.21184448,0.00096503
5821.14065186,0.00088145
5823.06945923,0.00094348
5824.99826660,0.00097598
5826.92707397,0.00089017
5828.85588135,0.00093387
5830.78468872,0.00092218
5832.71349609,0.00092475
5834.64230347,0.00097574
5836.57111084,0.00090446
5838.49991821,0.00090897
5840.42872559,0.00088860
5842.35753296,0.00088195
5844.28634033,0.00088970
5846.21514770,0.00091173
5848.14395508,0.00097049
5850.07276245,0.00089233
5852.00156982,0.00092108
5853.93037720,0.00095381
5855.85918457,0.00088967
5857.78799194,0.00089213
5859.71679932,0.00090423
5861.64560669,0.00092598
5863.57441406,0.00092192
5865.50322144,0.00091985
5867.43202881,0.00088362
5869.36083618,0.00087853
5871.28964355,0.00090344
5873.21845093,0.00091071
5875.14725830,0.00093425
5877.07606567,0.00090190
5879.00487305,0.00088190
5880.93368042,0.00080142
5882.86248779,0.00083901
5884.79129517,0.00092687
5886.72010254,0.00082469
5888.64890991,0.00087524
5890.57771728,0.00093959
5892.50652466,0.00086279
5894.43533203,0.00084775
5896.36413940,0.00088078
5898.29294678,0.00083701
5900.22175415,0.00080959
5902.15056152,0.00086433
5904.07936890,0.00084768
5906.00817627,0.00084857
5907.93698364,0.00081054
5909.86579102,0.00085638
5911.79459839,0.00091545
5913.72340576,0.00075526
5915.65221313,0.00076836
5917.58102051,0.00085139
5919.50982788,0.00084741
5921.43863525,0.00083569
5923.36744263,0.00078934
5925.29625000,0.00079889
5927.22505737,0.00079760
5929.15386475,0.00082046
5931.08267212,0.00081476
5933.01147949,0.00076357
5934.94028686,0.00078797
5936.86909424,0.00081612
5938.79790161,0.00080642
5940.72670898,0.00078544
5942.65551636,0.00076282
5944.58432373,0.00078959
5946.51313110,0.00080489
5948.44193848,0.00074128
5950.37074585,0.00078872
5952.29955322,0.00079718
5954.22836060,0.00072017
5956.15716797,0.00077242
5958.08597534,0.00075876
5960.01478271,0.00075276
5961.94359009,0.00078644
5963.87239746,0.00074391
5965.80120483,0.00074433
5967.73001221,0.00075911
5969.65881958,0.00073711
5971.58762695,0.00071900
5973.51643433,0.00074960
5975.44524170,0.00075819
5977.37404907,0.00073869
5979.30285645,0.00070550
5981.23166382,0.00070314
5983.16047119,0.00075585
5985.08927856,0.00073421
5987.01808594,0.00075938
5988.94689331,0.00079185
5990.87570068,0.00070814
5992.80450806,0.00069899
5994.73331543,0.00078065
5996.66212280,0.00074012
5998.59093018,0.00064466
6000.51973755,0.00069995
