399.26312622,0.00035872
401.19193359,0.00034882
403.12074097,0.00106462
405.04954834,0.00035848
406.97835571,0.00079657
408.90716309,0.00107546
410.83597046,0.00081308
412.76477783,0.00154806
414.69358521,0.00100878
416.62239258,0.00089587
418.55119995,0.00108962
420.48000732,0.00107862
422.40881470,0.00104859
424.33762207,0.00070945
426.26642944,0.00084022
428.19523682,0.00093741
430.12404419,0.00124110
432.05285156,0.00088928
433.98165894,0.00109350
435.91046631,0.00144120
437.83927368,0.00097211
439.76808105,0.00123142
441.69688843,0.00090076
443.62569580,0.00108599
445.55450317,0.00137049
447.48331055,0.00081249
449.41211792,0.00074393
451.34092529,0.00082660
453.26973267,0.00094940
455.19854004,0.00063005
457.12734741,0.00075135
459.05615479,0.00089785
460.98496216,0.00063982
462.91376953,0.00083464
464.84257690,0.00062364
466.77138428,0.00015867
468.70019165,0.00018206
470.62899902,0.00050001
472.55780640,0.00039009
474.48661377,0.00053016
476.41542114,0.00054759
478.34422852,0.00041137
480.27303589,0.00058249
482.20184326,0.00017817
484.13065063,0.00038002
486.05945801,0.00032230
487.98826538,0.00003693
489.91707275,0.00014045
491.84588013,-0.00004295
493.77468750,0.00014092
495.70349487,-0.00006609
497.63230225,0.00003054
499.56110962,0.00054371
501.48991699,0.00048775
503.41872437,0.00028822
505.34753174,0.00019085
507.27633911,0.00031807
509.20514648,0.00024110
511.13395386,0.00002681
513.06276123,0.00031306
514.99156860,0.00033595
516.92037598,0.00030806
518.84918335,0.00061553
520.77799072,0.00020730
522.70679810,0.00016981
524.63560547,0.00042467
526.56441284,0.00026082
528.49322021,0.00008796
530.42202759,-0.00024263
532.35083496,0.00001926
534.27964233,-0.00006773
536.20844971,-0.00031729
538.13725708,0.00010141
540.06606445,0.00026332
541.99487183,0.00031990
543.92367920,0.00018198
545.85248657,0.00024938
547.78129395,0.00028525
549.71010132,0.00016576
551.63890869,0.00029214
553.56771606,0.00003528
555.49652344,0.00010100
557.42533081,0.00052618
559.35413818,0.00042262
561.28294556,0.00033047
563.21175293,0.00043757
565.14056030,0.00007760
567.06936768,-0.00000189
568.99817505,0.00009064
570.92698242,-0.00011155
572.85578979,0.00020928
574.78459717,0.00005321
576.71340454,-0.00014483
578.64221191,0.00035642
580.57101929,0.00012235
582.49982666,-0.00003598
584.42863403,0.00013356
586.35744141,0.00031379
588.28624878,0.00040018
590.21505615,-0.00001800
592.14386353,0.00021811
594.07267090,0.00021078
596.00147827,-0.00022109
597.93028564,0.00000414
599.85909302,0.00032352
601.78790039,0.00035097
603.71670776,0.00001340
605.64551514,-0.00010599
607.57432251,0.00018507
609.50312988,0.00038162
611.43193726,0.00017589
613.36074463,0.00000113
615.28955200,0.00029648
617.21835938,0.00022083
619.14716675,0.00008701
621.07597412,0.00033426
623.00478149,-0.00002165
624.93358887,-0.00001059
626.86239624,-0.00003940
628.79120361,-0.00021837
630.72001099,0.00034781
632.64881836,0.00058765
634.57762573,0.00091602
636.50643311,0.00103968
638.43524048,0.00069815
640.36404785,0.00089638
642.29285522,0.00104978
644.22166260,0.00099175
646.15046997,0.00131237
648.07927734,0.00134496
650.00808472,0.00113764
651.93689209,0.00130128
653.86569946,0.00121951
655.79450684,0.00128469
657.72331421,0.00152056
659.65212158,0.00161129
661.58092896,0.00188545
663.50973633,0.00190056
665.43854370,0.00175849
667.36735107,0.00167798
669.29615845,0.00191293
671.22496582,0.00200556
673.15377319,0.00194047
675.08258057,0.00231073
677.01138794,0.00239903
678.94019531,0.00227031
680.86900269,0.00202883
682.79781006,0.00214150
684.72661743,0.00231591
686.65542480,0.00209595
688.58423218,0.00243971
690.51303955,0.00251136
692.44184692,0.00273283
694.37065430,0.00304200
696.29946167,0.00270389
698.22826904,0.00320526
700.15707642,0.00365061
702.08588379,0.00350594
704.01469116,0.00329916
705.94349854,0.00283069
707.87230591,0.00251061
709.80111328,0.00201316
711.72992065,0.00136851
713.65872803,0.00076395
715.58753540,0.00045746
717.51634277,0.00049043
719.44515015,0.00038517
721.37395752,0.00030206
723.30276489,0.00016009
725.23157227,0.00028278
727.16037964,0.00032805
729.08918701,0.00022285
731.01799438,0.00022628
732.94680176,-0.00010658
734.87560913,0.00033546
736.80441650,0.00051615
738.73322388,0.00007932
740.66203125,0.00032480
742.59083862,0.00033646
744.51964600,0.00046586
746.44845337,0.00026595
748.37726074,0.00013022
750.30606812,0.00046190
752.23487549,0.00029519
754.16368286,0.00055624
756.09249023,0.00058232
758.02129761,0.00033536
759.95010498,0.00040422
761.87891235,0.00032549
763.80771973,0.00017784
765.73652710,0.00007507
767.66533447,0.00016185
769.59414185,0.00029705
771.52294922,0.00038397
773.45175659,0.00005651
775.38056396,0.00013233
777.30937134,0.00043111
779.23817871,0.00024703
781.16698608,0.00036830
783.09579346,0.00017672
785.02460083,0.00029234
786.95340820,0.00056372
788.88221558,0.00037301
790.81102295,0.00036100
792.73983032,0.00031706
794.66863770,0.00064585
796.59744507,0.00032872
798.52625244,0.00008233
800.45505981,0.00047251
802.38386719,0.00019416
804.31267456,0.00028817
806.24148193,0.00033470
808.17028931,0.00028996
810.09909668,0.00035326
812.02790405,0.00031326
813.95671143,0.00048050
815.88551880,0.00008973
817.81432617,0.00022842
819.74313354,0.00041165
821.67194092,0.00014390
823.60074829,0.00029155
825.52955566,0.00016038
827.45836304,0.00045391
829.38717041,0.00057599
831.31597778,0.00037511
833.24478516,0.00065411
835.17359253,0.00044988
837.10239990,0.00039078
839.03120728,0.00082157
840.96001465,0.00103020
842.88882202,0.00089621
844.81762939,0.00064982
846.74643677,0.00070071
848.67524414,0.00068894
850.60405151,0.00035333
852.53285889,0.00031577
854.46166626,0.00055244
856.39047363,0.00051035
858.31928101,0.00049037
860.24808838,0.00055692
862.17689575,0.00048428
864.10570313,0.00027264
866.03451050,0.00029400
867.96331787,0.00037912
869.89212524,0.00025370
871.82093262,0.00045578
873.74973999,0.00032568
875.67854736,0.00022579
877.60735474,0.00042010
879.53616211,0.00024947
881.46496948,0.00037711
883.39377686,0.00041139
885.32258423,0.00052999
887.25139160,0.00061820
889.18019897,0.00027957
891.10900635,0.00045965
893.03781372,0.00036122
894.96662109,0.00006392
896.89542847,0.00027910
898.82423584,0.00051188
900.75304321,0.00050025
902.68185059,0.00038232
904.61065796,0.00055411
906.53946533,0.00048228
908.46827271,0.00042521
910.39708008,0.00052933
912.32588745,0.00042864
914.25469482,0.00063916
916.18350220,0.00065593
918.11230957,0.00054798
920.04111694,0.00080641
921.96992432,0.00088059
923.89873169,0.00098679
925.82753906,0.00121157
927.75634644,0.00098351
929.68515381,0.00076208
931.61396118,0.00088765
933.54276855,0.00109046
935.47157593,0.00112018
937.40038330,0.00100092
939.32919067,0.00137160
941.25799805,0.00155981
943.18680542,0.00123657
945.11561279,0.00118556
947.04442017,0.00142126
948.97322754,0.00156265
950.90203491,0.00131759
952.83084229,0.00140554
954.75964966,0.00134451
956.68845703,0.00099715
958.61726440,0.00132087
960.54607178,0.00137951
962.47487915,0.00146314
964.40368652,0.00162663
966.33249390,0.00125453
968.26130127,0.00128770
970.19010864,0.00148105
972.11891602,0.00156279
974.04772339,0.00158030
975.97653076,0.00155817
977.90533813,0.00190345
979.83414551,0.00201048
981.76295288,0.00195012
983.69176025,0.00218518
985.62056763,0.00250776
987.54937500,0.00287485
989.47818237,0.00306007
991.40698975,0.00323441
993.33579712,0.00358560
995.26460449,0.00404012
997.19341187,0.00437157
999.12221924,0.00446664
1001.05102661,0.00498860
1002.97983398,0.00539665
1004.90864136,0.00532556
1006.83744873,0.00580271
1008.76625610,0.00634689
1010.69506348,0.00651726
1012.62387085,0.00678510
1014.55267822,0.00707167
1016.48148560,0.00748688
1018.41029297,0.00793259
1020.33910034,0.00822413
1022.26790771,0.00849866
1024.19671509,0.00874937
1026.12552246,0.00907952
1028.05432983,0.00942806
1029.98313721,0.00960556
1031.91194458,0.00974322
1033.84075195,0.01001612
1035.76955933,0.01018908
1037.69836670,0.01007780
1039.62717407,0.01015440
1041.55598145,0.01030293
1043.48478882,0.01023114
1045.41359619,0.01017668
1047.34240356,0.00986040
1049.27121094,0.00970602
1051.20001831,0.00973389
1053.12882568,0.00934196
1055.05763306,0.00929024
1056.98644043,0.00930031
1058.91524780,0.00891724
1060.84405518,0.00872436
1062.77286255,0.00851613
1064.70166992,0.00810078
1066.63047729,0.00779690
1068.55928467,0.00767679
1070.48809204,0.00726011
1072.41689941,0.00696248
1074.34570679,0.00669637
1076.27451416,0.00603643
1078.20332153,0.00610732
1080.13212891,0.00606212
1082.06093628,0.00546016
1083.98974365,0.00533425
1085.91855103,0.00517975
1087.84735840,0.00497463
1089.77616577,0.00463972
1091.70497314,0.00434546
1093.63378052,0.00436620
1095.56258789,0.00418153
1097.49139526,0.00403613
1099.42020264,0.00398402
1101.34901001,0.00379548
1103.27781738,0.00374206
1105.20662476,0.00380435
1107.13543213,0.00368976
1109.06423950,0.00370431
1110.99304687,0.00359242
1112.92185425,0.00343628
1114.85066162,0.00366931
1116.77946899,0.00350231
1118.70827637,0.00349076
1120.63708374,0.00361184
1122.56589111,0.00352925
1124.49469849,0.00371279
1126.42350586,0.00357589
1128.35231323,0.00372347
1130.28112061,0.00397034
1132.20992798,0.00383183
1134.13873535,0.00395663
1136.06754272,0.00421583
1137.99635010,0.00447698
1139.92515747,0.00460393
1141.85396484,0.00490491
1143.78277222,0.00518752
1145.71157959,0.00527301
1147.64038696,0.00558944
1149.56919434,0.00597396
1151.49800171,0.00633908
1153.42680908,0.00657649
1155.35561646,0.00689226
1157.28442383,0.00719327
1159.21323120,0.00737231
1161.14203857,0.00757147
1163.07084595,0.00787447
1164.99965332,0.00830860
1166.92846069,0.00828852
1168.85726807,0.00852628
1170.78607544,0.00906477
1172.71488281,0.00916859
1174.64369019,0.00949216
1176.57249756,0.00994288
1178.50130493,0.01036348
1180.43011230,0.01070251
1182.35891968,0.01102247
1184.28772705,0.01152528
1186.21653442,0.01199609
1188.14534180,0.01252895
1190.07414917,0.01308680
1192.00295654,0.01387514
1193.93176392,0.01456507
1195.86057129,0.01498955
1197.78937866,0.01565183
1199.71818604,0.01634774
1201.64699341,0.01700700
1203.57580078,0.01763614
1205.50460815,0.01838035
1207.43341553,0.01898248
1209.36222290,0.01941972
1211.29103027,0.02007876
1213.21983765,0.02056319
1215.14864502,0.02123636
1217.07745239,0.02179284
1219.00625977,0.02189760
1220.93506714,0.02224203
1222.86387451,0.02252103
1224.79268188,0.02273940
1226.72148926,0.02284276
1228.65029663,0.02280768
1230.57910400,0.02294155
1232.50791138,0.02308219
1234.43671875,0.02317177
1236.36552612,0.02298178
1238.29433350,0.02294947
1240.22314087,0.02294657
1242.15194824,0.02263600
1244.08075562,0.02265398
1246.00956299,0.02248391
1247.93837036,0.02224301
1249.86717773,0.02228640
1251.79598511,0.02199300
1253.72479248,0.02171925
1255.65359985,0.02157928
1257.58240723,0.02120824
1259.51121460,0.02075852
1261.44002197,0.02064846
1263.36882935,0.02053358
1265.29763672,0.02003172
1267.22644409,0.01989413
1269.15525146,0.01972114
1271.08405884,0.01913900
1273.01286621,0.01890313
1274.94167358,0.01875559
1276.87048096,0.01838105
1278.79928833,0.01800341
1280.72809570,0.01786790
1282.65690308,0.01765412
1284.58571045,0.01712092
1286.51451782,0.01674576
1288.44332520,0.01640052
1290.37213257,0.01621153
1292.30093994,0.01614035
1294.22974731,0.01579876
1296.15855469,0.01576614
1298.08736206,0.01588788
1300.01616943,0.01582118
1301.94497681,0.01592062
1303.87378418,0.01613336
1305.80259155,0.01636864
1307.73139893,0.01651839
1309.66020630,0.01658658
1311.58901367,0.01675526
1313.51782104,0.01710185
1315.44662842,0.01757170
1317.37543579,0.01791811
1319.30424316,0.01822548
1321.23305054,0.01886096
1323.16185791,0.01966103
1325.09066528,0.02011359
1327.01947266,0.02052578
1328.94828003,0.02103413
1330.87708740,0.02144318
1332.80589478,0.02203787
1334.73470215,0.02240350
1336.66350952,0.02240471
1338.59231689,0.02204417
1340.52112427,0.02224922
1342.44993164,0.02342062
1344.37873901,0.02355499
1346.30754639,0.02348191
1348.23635376,0.02356992
1350.16516113,0.02328377
1352.09396851,0.02344751
1354.02277588,0.02304537
1355.95158325,0.02272740
1357.88039062,0.02262232
1359.80919800,0.02211716
1361.73800537,0.02104072
1363.66681274,0.02070382
1365.59562012,0.02202614
1367.52442749,0.02136540
1369.45323486,0.02120943
1371.38204224,0.02178723
1373.31084961,0.02020523
1375.23965698,0.02049727
1377.16846436,0.02112385
1379.09727173,0.02088339
1381.02607910,0.02106559
1382.95488647,0.02108877
1384.88369385,0.02093041
1386.81250122,0.01976784
1388.74130859,0.02018154
1390.67011597,0.02202128
1392.59892334,0.02126435
1394.52773071,0.01972057
1396.45653809,0.02093214
1398.38534546,0.02080297
1400.31415283,0.02064282
1402.24296021,0.02256476
1404.17176758,0.02098939
1406.10057495,0.02119016
1408.02938232,0.02226489
1409.95818970,0.02133534
1411.88699707,0.02174557
1413.81580444,0.02090247
1415.74461182,0.02131190
1417.67341919,0.01896913
1419.60222656,0.01698525
1421.53103394,0.01987769
1423.45984131,0.01916582
1425.38864868,0.01868924
1427.31745605,0.01891602
1429.24626343,0.01738806
1431.17507080,0.01702343
1433.10387817,0.01743812
1435.03268555,0.01575883
1436.96149292,0.01313861
1438.89030029,0.01532501
1440.81910767,0.01591547
1442.74791504,0.01452717
1444.67672241,0.01525755
1446.60552979,0.01409657
1448.53433716,0.01404310
1450.46314453,0.01459726
1452.39195190,0.01511984
1454.32075928,0.01544512
1456.24956665,0.01255149
1458.17837402,0.01308799
1460.10718140,0.01760794
1462.03598877,0.01873292
1463.96479614,0.01835493
1465.89360352,0.01916866
1467.82241089,0.02197003
1469.75121826,0.02334230
1471.68002563,0.02030419
1473.60883301,0.02133846
1475.53764038,0.02452409
1477.46644775,0.02645801
1479.39525513,0.02914621
1481.32406250,0.02951432
1483.25286987,0.03129063
1485.18167725,0.03201468
1487.11048462,0.03124926
1489.03929199,0.03055653
1490.96809937,0.03074672
1492.89690674,0.03668471
1494.82571411,0.03514909
1496.75452148,0.03112488
1498.68332886,0.03576817
1500.61213623,0.03683082
1502.54094360,0.04012662
1504.46975098,0.03687111
1506.39855835,0.02511182
1508.32736572,0.03237431
1510.25617310,0.03856319
1512.18498047,0.03731440
1514.11378784,0.04080294
1516.04259521,0.03594523
1517.97140259,0.03779843
1519.90020996,0.03605688
1521.82901733,0.03069904
1523.75782471,0.03886546
1525.68663208,0.03765170
1527.61543945,0.03763895
1529.54424683,0.04254362
1531.47305420,0.04048204
1533.40186157,0.03637579
1535.33066895,0.03945983
1537.25947632,0.04234324
1539.18828369,0.02824461
1541.11709106,0.03029503
1543.04589844,0.03707456
1544.97470581,0.03542029
1546.90351318,0.04326953
1548.83232056,0.03947770
1550.76112793,0.04107111
1552.68993530,0.04081592
1554.61874268,0.03650150
1556.54755005,0.03901520
1558.47635742,0.02548735
1560.40516479,0.02920406
1562.33397217,0.04337225
1564.26277954,0.04013566
1566.19158691,0.04187051
1568.12039429,0.04094766
1570.04920166,0.03587151
1571.97800903,0.04272074
1573.90681641,0.04285396
1575.83562378,0.03286387
1577.76443115,0.03829481
1579.69323853,0.04384258
1581.62204590,0.04148687
1583.55085327,0.04262002
1585.47966064,0.04180071
1587.40846802,0.04224698
1589.33727539,0.04180139
1591.26608276,0.04175570
1593.19489014,0.04192553
1595.12369751,0.04122133
1597.05250488,0.04189564
1598.98131226,0.04162887
1600.91011963,0.04198717
1602.83892700,0.04115695
1604.76773437,0.04187790
1606.69654175,0.04123987
1608.62534912,0.04107375
1610.55415649,0.04116093
1612.48296387,0.04154731
1614.41177124,0.04196923
1616.34057861,0.03322905
1618.26938599,0.03686794
1620.19819336,0.04383667
1622.12700073,0.03791440
1624.05580811,0.03848102
1625.98461548,0.04077746
1627.91342285,0.04021730
1629.84223022,0.04035807
1631.77103760,0.04352956
1633.69984497,0.03929587
1635.62865234,0.03147461
1637.55745972,0.03773972
1639.48626709,0.04214774
1641.41507446,0.04115878
1643.34388184,0.04239653
1645.27268921,0.03716821
1647.20149658,0.03208222
1649.13030396,0.04168357
1651.05911133,0.03871157
1652.98791870,0.02314400
1654.91672607,0.03375527
1656.84553345,0.04327845
1658.77434082,0.04148123
1660.70314819,0.04249642
1662.63195557,0.03771557
1664.56076294,0.04049448
1666.48957031,0.04368272
1668.41837769,0.03702301
1670.34718506,0.03599405
1672.27599243,0.04149821
1674.20479980,0.03742403
1676.13360718,0.03584222
1678.06241455,0.04219668
1679.99122192,0.04024034
1681.92002930,0.03942716
1683.84883667,0.03065767
1685.77764404,0.03111017
1687.70645142,0.04417944
1689.63525879,0.03726306
1691.56406616,0.04219051
1693.49287354,0.04205897
1695.42168091,0.02932381
1697.35048828,0.03778177
1699.27929565,0.03171033
1701.20810303,0.02858403
1703.13691040,0.04088630
1705.06571777,0.03654554
1706.99452515,0.03723431
1708.92333252,0.04099397
1710.85213989,0.03898874
1712.78094727,0.03957921
1714.70975464,0.03601886
1716.63856201,0.03175847
1718.56736938,0.03145501
1720.49617676,0.03832638
1722.42498413,0.03979122
1724.35379150,0.03651967
1726.28259888,0.04042704
1728.21140625,0.03674886
1730.14021362,0.03693788
1732.06902100,0.03575430
1733.99782837,0.02608061
1735.92663574,0.03415920
1737.85544312,0.03766617
1739.78425049,0.03281965
1741.71305786,0.03643527
1743.64186523,0.03673952
1745.57067261,0.03694309
1747.49947998,0.03688088
1749.42828735,0.03480142
1751.35709473,0.03330020
1753.28590210,0.03763644
1755.21470947,0.03933370
1757.14351685,0.03531372
1759.07232422,0.03954209
1761.00113159,0.03634372
1762.92993896,0.03521278
1764.85874634,0.04096931
1766.78755371,0.03599282
1768.71636108,0.03670668
1770.64516846,0.03593143
1772.57397583,0.03189853
1774.50278320,0.03642650
1776.43159058,0.03861003
1778.36039795,0.03803975
1780.28920532,0.03716483
1782.21801270,0.03770884
1784.14682007,0.03754041
1786.07562744,0.03665925
1788.00443481,0.03908329
1789.93324219,0.03746982
1791.86204956,0.03334577
1793.79085693,0.03522872
1795.71966431,0.03803156
1797.64847168,0.03748777
1799.57727905,0.03675190
1801.50608643,0.03588089
1803.43489380,0.03732138
1805.36370117,0.03821068
1807.29250854,0.03763607
1809.22131592,0.03773691
1811.15012329,0.03638605
1813.07893066,0.03788897
1815.00773804,0.03809157
1816.93654541,0.03747219
1818.86535278,0.03779383
1820.79416016,0.03752237
1822.72296753,0.03807652
1824.65177490,0.03502715
1826.58058228,0.03659663
1828.50938965,0.03658097
1830.43819702,0.03401022
1832.36700439,0.03773170
1834.29581177,0.03708671
1836.22461914,0.03705564
1838.15342651,0.03707030
1840.08223389,0.03718556
1842.01104126,0.03690201
1843.93984863,0.03209237
1845.86865601,0.03500766
1847.79746338,0.03699075
1849.72627075,0.03610263
1851.65507812,0.03745452
1853.58388550,0.03638024
1855.51269287,0.03690949
1857.44150024,0.03650371
1859.37030762,0.03618941
1861.29911499,0.03651021
1863.22792236,0.03607723
1865.15672974,0.03654131
1867.08553711,0.03480398
1869.01434448,0.03316347
1870.94315186,0.03487566
1872.87195923,0.03636450
1874.80076660,0.03569752
1876.72957397,0.03590554
1878.65838135,0.03567601
1880.58718872,0.03548264
1882.51599609,0.03580727
1884.44480347,0.03501793
1886.37361084,0.03562922
1888.30241821,0.03441790
1890.23122559,0.03367234
1892.16003296,0.03533692
1894.08884033,0.03458798
1896.01764771,0.03455747
1897.94645508,0.03496959
1899.87526245,0.03467620
1901.80406982,0.03475697
1903.73287720,0.03442492
1905.66168457,0.03465775
1907.59049194,0.03413389
1909.51929932,0.03386392
1911.44810669,0.03410340
1913.37691406,0.03411647
1915.30572144,0.03443306
1917.23452881,0.03255323
1919.16333618,0.03275340
1921.09214355,0.03414113
1923.02095093,0.03269314
1924.94975830,0.03368073
1926.87856567,0.03404075
1928.80737305,0.03339954
1930.73618042,0.03393976
1932.66498779,0.03336207
1934.59379517,0.03373122
1936.52260254,0.03336968
1938.45140991,0.03334793
1940.38021729,0.03331417
1942.30902466,0.03209335
1944.23783203,0.03292087
1946.16663940,0.03321502
1948.09544678,0.03305206
1950.02425415,0.03330780
1951.95306152,0.03301051
1953.88186890,0.03292967
1955.81067627,0.03283776
1957.73948364,0.03295444
1959.66829102,0.03295109
1961.59709839,0.03279564
1963.52590576,0.03272299
1965.45471313,0.03237575
1967.38352051,0.03197275
1969.31232788,0.03252360
1971.24113525,0.03272014
1973.16994263,0.03232669
1975.09875000,0.03257819
1977.02755737,0.03229935
1978.95636475,0.03224152
1980.88517212,0.03213110
1982.81397949,0.03212526
1984.74278687,0.03229120
1986.67159424,0.03177051
1988.60040161,0.03202178
1990.52920898,0.03160734
1992.45801636,0.03105661
1994.38682373,0.03160594
1996.31563110,0.03166998
1998.24443848,0.03146909
2000.17324585,0.03147342
2002.10205322,0.03149156
2004.03086060,0.03135184
2005.95966797,0.03131197
2007.88847534,0.03112893
2009.81728271,0.03094985
2011.74609009,0.03087747
2013.67489746,0.03075061
2015.60370483,0.03058890
2017.53251221,0.03032312
2019.46131958,0.03042584
2021.39012695,0.03039751
2023.31893433,0.03039652
2025.24774170,0.03029768
2027.17654907,0.03012164
2029.10535645,0.03019613
2031.03416382,0.02992981
2032.96297119,0.02996393
2034.89177856,0.02988788
2036.82058594,0.02968275
2038.74939331,0.02962398
2040.67820068,0.02937345
2042.60700806,0.02939717
2044.53581543,0.02939939
2046.46462280,0.02941470
2048.39343018,0.02940996
2050.32223755,0.02914927
2052.25104492,0.02896860
2054.17985229,0.02900965
2056.10865967,0.02892977
2058.03746704,0.02876398
2059.96627441,0.02872630
2061.89508179,0.02867115
2063.82388916,0.02857980
2065.75269653,0.02837455
2067.68150391,0.02846092
2069.61031128,0.02839176
2071.53911865,0.02808553
2073.46792603,0.02816151
2075.39673340,0.02807863
2077.32554077,0.02792066
2079.25434814,0.02792180
2081.18315552,0.02792471
2083.11196289,0.02783073
2085.04077026,0.02774667
2086.96957764,0.02764321
2088.89838501,0.02753852
2090.82719238,0.02746661
2092.75599976,0.02732574
2094.68480713,0.02734927
2096.61361450,0.02722080
2098.54242187,0.02718310
2100.47122925,0.02712545
2102.40003662,0.02699397
2104.32884399,0.02713098
2106.25765137,0.02697113
2108.18645874,0.02690341
2110.11526611,0.02687946
2112.04407349,0.02670210
2113.97288086,0.02667769
2115.90168823,0.02664303
2117.83049561,0.02658833
2119.75930298,0.02654065
2121.68811035,0.02642182
2123.61691772,0.02634373
2125.54572510,0.02644671
2127.47453247,0.02621957
2129.40333984,0.02603850
2131.33214722,0.02612026
2133.26095459,0.02615221
2135.18976196,0.02615251
2137.11856934,0.02591933
2139.04737671,0.02586447
2140.97618408,0.02589993
2142.90499146,0.02594782
2144.83379883,0.02585319
2146.76260620,0.02574546
2148.69141357,0.02569164
2150.62022095,0.02552658
2152.54902832,0.02568556
2154.47783569,0.02543868
2156.40664307,0.02538834
2158.33545044,0.02554489
2160.26425781,0.02522808
2162.19306519,0.02523901
2164.12187256,0.02523598
2166.05067993,0.02525489
2167.97948730,0.02516071
2169.90829468,0.02496303
2171.83710205,0.02500472
2173.76590942,0.02498862
2175.69471680,0.02491939
2177.62352417,0.02489486
2179.55233154,0.02492397
2181.48113892,0.02475056
2183.40994629,0.02477483
2185.33875366,0.02488644
2187.26756104,0.02465766
2189.19636841,0.02450280
2191.12517578,0.02465196
2193.05398315,0.02457979
2194.98279053,0.02436907
2196.91159790,0.02451468
2198.84040527,0.02428743
2200.76921265,0.02419225
2202.69802002,0.02423217
2204.62682739,0.02405918
2206.55563477,0.02422487
2208.48444214,0.02411184
2210.41324951,0.02392355
2212.34205688,0.02386174
2214.27086426,0.02385604
2216.19967163,0.02382241
2218.12847900,0.02378837
2220.05728638,0.02383331
2221.98609375,0.02368455
2223.91490112,0.02362310
2225.84370850,0.02353592
2227.77251587,0.02350720
2229.70132324,0.02346129
2231.63013062,0.02351743
2233.55893799,0.02339472
2235.48774536,0.02316619
2237.41655273,0.02327873
2239.34536011,0.02301585
2241.27416748,0.02309634
2243.20297485,0.02308873
2245.13178223,0.02289302
2247.06058960,0.02307322
2248.98939697,0.02297427
2250.91820435,0.02296647
2252.84701172,0.02272832
2254.77581909,0.02270162
2256.70462646,0.02276355
2258.63343384,0.02254251
2260.56224121,0.02258155
2262.49104858,0.02244513
2264.41985596,0.02236450
2266.34866333,0.02233758
2268.27747070,0.02228035
2270.20627808,0.02223340
2272.13508545,0.02224853
2274.06389282,0.02228553
2275.99270020,0.02225350
2277.92150757,0.02218521
2279.85031494,0.02197439
2281.77912231,0.02204208
2283.70792969,0.02206151
2285.63673706,0.02196654
2287.56554443,0.02184500
2289.49435181,0.02177065
2291.42315918,0.02180181
2293.35196655,0.02168815
2295.28077393,0.02173100
2297.20958130,0.02153111
2299.13838867,0.02131215
2301.06719604,0.02122808
2302.99600342,0.02116041
2304.92481079,0.02112737
2306.85361816,0.02092750
2308.78242554,0.02084939
2310.71123291,0.02064821
2312.64004028,0.02045281
2314.56884766,0.02016438
2316.49765503,0.01993157
2318.42646240,0.01971981
2320.35526978,0.01934611
2322.28407715,0.01927751
2324.21288452,0.01900877
2326.14169189,0.01877705
2328.07049927,0.01858008
2329.99930664,0.01829616
2331.92811401,0.01812844
2333.85692139,0.01795979
2335.78572876,0.01794722
2337.71453613,0.01792889
2339.64334351,0.01785594
2341.57215088,0.01778352
2343.50095825,0.01817587
2345.42976562,0.01850773
2347.35857300,0.01909235
2349.28738037,0.01971549
2351.21618774,0.01896029
2353.14499512,0.01815227
2355.07380249,0.01745789
2357.00260986,0.01698640
2358.93141724,0.01677970
2360.86022461,0.01639193
2362.78903198,0.01645601
2364.71783936,0.01647079
2366.64664673,0.01673770
2368.57545410,0.01702532
2370.50426147,0.01735296
2372.43306885,0.01781990
2374.36187622,0.01814864
2376.29068359,0.01876966
2378.21949097,0.01896605
2380.14829834,0.01914357
2382.07710571,0.01930290
2384.00591309,0.01938950
2385.93472046,0.01960167
2387.86352783,0.01937431
2389.79233521,0.01936578
2391.72114258,0.01936913
2393.64994995,0.01925778
2395.57875732,0.01926578
2397.50756470,0.01923155
2399.43637207,0.01920016
2401.36517944,0.01904519
2403.29398682,0.01902095
2405.22279419,0.01909431
2407.15160156,0.01904100
2409.08040894,0.01893568
2411.00921631,0.01891720
2412.93802368,0.01887134
2414.86683105,0.01891206
2416.79563843,0.01891906
2418.72444580,0.01878210
2420.65325317,0.01879491
2422.58206055,0.01862105
2424.51086792,0.01860022
2426.43967529,0.01864243
2428.36848267,0.01845922
2430.29729004,0.01848612
2432.22609741,0.01846612
2434.15490479,0.01841385
2436.08371216,0.01831959
2438.01251953,0.01838209
2439.94132690,0.01845633
2441.87013428,0.01824509
2443.79894165,0.01827101
2445.72774902,0.01819491
2447.65655640,0.01806600
2449.58536377,0.01808238
2451.51417114,0.01799402
2453.44297852,0.01801903
2455.37178589,0.01797106
2457.30059326,0.01789090
2459.22940063,0.01780877
2461.15820801,0.01775570
2463.08701538,0.01782665
2465.01582275,0.01772860
2466.94463013,0.01768377
2468.87343750,0.01766500
2470.80224487,0.01764745
2472.73105225,0.01769884
2474.65985962,0.01757068
2476.58866699,0.01745904
2478.51747437,0.01744076
2480.44628174,0.01750816
2482.37508911,0.01747650
2484.30389648,0.01730903
2486.23270386,0.01727175
2488.16151123,0.01729776
2490.09031860,0.01723973
2492.01912598,0.01714999
2493.94793335,0.01724243
2495.87674072,0.01719353
2497.80554810,0.01710963
2499.73435547,0.01708715
2501.66316284,0.01693644
2503.59197021,0.01700187
2505.52077759,0.01698804
2507.44958496,0.01693922
2509.37839233,0.01693485
2511.30719971,0.01686594
2513.23600708,0.01685769
2515.16481445,0.01684139
2517.09362183,0.01679775
2519.02242920,0.01661989
2520.95123657,0.01663576
2522.88004395,0.01657523
2524.80885132,0.01647395
2526.73765869,0.01651322
2528.66646606,0.01642096
2530.59527344,0.01649114
2532.52408081,0.01646478
2534.45288818,0.01646622
2536.38169556,0.01636301
2538.31050293,0.01627549
2540.23931030,0.01637402
2542.16811768,0.01620762
2544.09692505,0.01624915
2546.02573242,0.01621358
2547.95453979,0.01610520
2549.88334717,0.01609029
2551.81215454,0.01607024
2553.74096191,0.01607622
2555.66976929,0.01593073
2557.59857666,0.01595419
2559.52738403,0.01584182
2561.45619141,0.01576129
2563.38499878,0.01581315
2565.31380615,0.01580862
2567.24261353,0.01572980
2569.17142090,0.01561925
2571.10022827,0.01573797
2573.02903564,0.01555210
2574.95784302,0.01550388
2576.88665039,0.01558659
2578.81545776,0.01545578
2580.74426514,0.01537119
2582.67307251,0.01531239
2584.60187988,0.01542980
2586.53068726,0.01528441
2588.45949463,0.01532223
2590.38830200,0.01529168
2592.31710937,0.01509614
2594.24591675,0.01525253
2596.17472412,0.01511767
2598.10353149,0.01519998
2600.03233887,0.01515578
2601.96114624,0.01498342
2603.88995361,0.01512006
2605.81876099,0.01494588
2607.74756836,0.01498199
2609.67637573,0.01498652
2611.60518311,0.01482079
2613.53399048,0.01494639
2615.46279785,0.01493001
2617.39160522,0.01476386
2619.32041260,0.01469500
2621.24921997,0.01468728
2623.17802734,0.01469091
2625.10683472,0.01467067
2627.03564209,0.01465666
2628.96444946,0.01468064
2630.89325684,0.01467512
2632.82206421,0.01455898
2634.75087158,0.01443510
2636.67967895,0.01445052
2638.60848633,0.01442193
2640.53729370,0.01444307
2642.46610107,0.01442873
2644.39490845,0.01432369
2646.32371582,0.01438246
2648.25252319,0.01424285
2650.18133057,0.01421893
2652.11013794,0.01417889
2654.03894531,0.01408028
2655.96775269,0.01422025
2657.89656006,0.01397818
2659.82536743,0.01402662
2661.75417480,0.01414190
2663.68298218,0.01393583
2665.61178955,0.01399483
2667.54059692,0.01393116
2669.46940430,0.01390034
2671.39821167,0.01379666
2673.32701904,0.01367787
2675.25582642,0.01382937
2677.18463379,0.01380873
2679.11344116,0.01368294
2681.04224854,0.01369883
2682.97105591,0.01374067
2684.89986328,0.01366000
2686.82867065,0.01353230
2688.75747803,0.01347781
2690.68628540,0.01351076
2692.61509277,0.01343340
2694.54390015,0.01349402
2696.47270752,0.01350387
2698.40151489,0.01333259
2700.33032227,0.01348789
2702.25912964,0.01331832
2704.18793701,0.01318772
2706.11674438,0.01326262
2708.04555176,0.01310812
2709.97435913,0.01321136
2711.90316650,0.01313669
2713.83197388,0.01315152
2715.76078125,0.01317137
2717.68958862,0.01300549
2719.61839600,0.01312351
2721.54720337,0.01304348
2723.47601074,0.01297863
2725.40481812,0.01288716
2727.33362549,0.01275192
2729.26243286,0.01282648
2731.19124023,0.01280292
2733.12004761,0.01284860
2735.04885498,0.01279618
2736.97766235,0.01268788
2738.90646973,0.01272328
2740.83527710,0.01266146
2742.76408447,0.01262860
2744.69289185,0.01262073
2746.62169922,0.01255403
2748.55050659,0.01258693
2750.47931396,0.01257450
2752.40812134,0.01237526
2754.33692871,0.01239546
2756.26573608,0.01254145
2758.19454346,0.01236554
2760.12335083,0.01227294
2762.05215820,0.01231363
2763.98096558,0.01220869
2765.90977295,0.01221411
2767.83858032,0.01213544
2769.76738770,0.01202805
2771.69619507,0.01215321
2773.62500244,0.01210821
2775.55380981,0.01202878
2777.48261719,0.01205469
2779.41142456,0.01196970
2781.34023193,0.01191703
2783.26903931,0.01186082
2785.19784668,0.01185582
2787.12665405,0.01189295
2789.05546143,0.01181743
2790.98426880,0.01184653
2792.91307617,0.01178522
2794.84188354,0.01161603
2796.77069092,0.01176385
2798.69949829,0.01178460
2800.62830566,0.01161171
2802.55711304,0.01163293
2804.48592041,0.01156591
2806.41472778,0.01155378
2808.34353516,0.01158794
2810.27234253,0.01140345
2812.20114990,0.01132798
2814.12995728,0.01137577
2816.05876465,0.01138365
2817.98757202,0.01134755
2819.91637939,0.01123913
2821.84518677,0.01121415
2823.77399414,0.01130202
2825.70280151,0.01123800
2827.63160889,0.01104812
2829.56041626,0.01107481
2831.48922363,0.01115637
2833.41803101,0.01102415
2835.34683838,0.01096782
2837.27564575,0.01101622
2839.20445312,0.01096540
2841.13326050,0.01088741
2843.06206787,0.01080144
2844.99087524,0.01076823
2846.91968262,0.01075043
2848.84848999,0.01067058
2850.77729736,0.01064654
2852.70610474,0.01070579
2854.63491211,0.01072992
2856.56371948,0.01066981
2858.49252686,0.01068048
2860.42133423,0.01063665
2862.35014160,0.01056063
2864.27894897,0.01055950
2866.20775635,0.01045944
2868.13656372,0.01043412
2870.06537109,0.01042461
2871.99417847,0.01039494
2873.92298584,0.01033625
2875.85179321,0.01032894
2877.78060059,0.01045237
2879.70940796,0.01027186
2881.63821533,0.01019728
2883.56702270,0.01026697
2885.49583008,0.01017333
2887.42463745,0.01016669
2889.35344482,0.01010671
2891.28225220,0.01014194
2893.21105957,0.01008944
2895.13986694,0.00996670
2897.06867432,0.01008683
2898.99748169,0.01008920
2900.92628906,0.00997847
2902.85509644,0.00994398
2904.78390381,0.00991646
2906.71271118,0.00984993
2908.64151855,0.00990848
2910.57032593,0.00987636
2912.49913330,0.00981780
2914.42794067,0.00997530
2916.35674805,0.00984731
2918.28555542,0.00975531
2920.21436279,0.00985104
2922.14317017,0.00979460
2924.07197754,0.00980835
2926.00078491,0.00976196
2927.92959229,0.00967029
2929.85839966,0.00975423
2931.78720703,0.00978321
2933.71601440,0.00962195
2935.64482178,0.00962287
2937.57362915,0.00962596
2939.50243652,0.00956101
2941.43124390,0.00967347
2943.36005127,0.00955246
2945.28885864,0.00948331
2947.21766602,0.00952003
2949.14647339,0.00942221
2951.07528076,0.00949191
2953.00408813,0.00945984
2954.93289551,0.00938676
2956.86170288,0.00934946
2958.79051025,0.00928878
2960.71931763,0.00930186
2962.64812500,0.00927938
2964.57693237,0.00926328
2966.50573975,0.00921596
2968.43454712,0.00925314
2970.36335449,0.00923748
2972.29216187,0.00910753
2974.22096924,0.00914328
2976.14977661,0.00920115
2978.07858398,0.00916088
2980.00739136,0.00912728
2981.93619873,0.00923442
2983.86500610,0.00917540
2985.79381348,0.00898935
2987.72262085,0.00903529
2989.65142822,0.00901946
2991.58023560,0.00896524
2993.50904297,0.00898283
2995.43785034,0.00894900
2997.36665771,0.00884192
2999.29546509,0.00886585
3001.22427246,0.00905902
3003.15307983,0.00895320
3005.08188721,0.00876883
3007.01069458,0.00879949
3008.93950195,0.00881822
3010.86830933,0.00879299
3012.79711670,0.00869822
3014.72592407,0.00864907
3016.65473145,0.00871026
3018.58353882,0.00875234
3020.51234619,0.00872892
3022.44115356,0.00865179
3024.36996094,0.00857785
3026.29876831,0.00855643
3028.22757568,0.00853501
3030.15638306,0.00846395
3032.08519043,0.00847893
3034.01399780,0.00850905
3035.94280518,0.00840176
3037.87161255,0.00836808
3039.80041992,0.00839391
3041.72922729,0.00834023
3043.65803467,0.00831418
3045.58684204,0.00827929
3047.51564941,0.00824488
3049.44445679,0.00827169
3051.37326416,0.00826530
3053.30207153,0.00818074
3055.23087891,0.00813599
3057.15968628,0.00814441
3059.08849365,0.00812624
3061.01730103,0.00819857
3062.94610840,0.00819045
3064.87491577,0.00814294
3066.80372314,0.00816485
3068.73253052,0.00807369
3070.66133789,0.00806927
3072.59014526,0.00801103
3074.51895264,0.00801585
3076.44776001,0.00806303
3078.37656738,0.00792007
3080.30537476,0.00798182
3082.23418213,0.00797599
3084.16298950,0.00789134
3086.09179687,0.00788750
3088.02060425,0.00791526
3089.94941162,0.00793871
3091.87821899,0.00785941
3093.80702637,0.00791846
3095.73583374,0.00778719
3097.66464111,0.00772054
3099.59344849,0.00785904
3101.52225586,0.00785231
3103.45106323,0.00779349
3105.37987061,0.00766475
3107.30867798,0.00777085
3109.23748535,0.00774853
3111.16629272,0.00770866
3113.09510010,0.00773702
3115.02390747,0.00752619
3116.95271484,0.00765191
3118.88152222,0.00766418
3120.81032959,0.00755297
3122.73913696,0.00762433
3124.66794434,0.00758864
3126.59675171,0.00757275
3128.52555908,0.00752113
3130.45436645,0.00748412
3132.38317383,0.00748964
3134.31198120,0.00754223
3136.24078857,0.00753440
3138.16959595,0.00749323
3140.09840332,0.00746344
3142.02721069,0.00739320
3143.95601807,0.00740682
3145.88482544,0.00736095
3147.81363281,0.00733293
3149.74244019,0.00730191
3151.67124756,0.00729199
3153.60005493,0.00733873
3155.52886230,0.00735266
3157.45766968,0.00733273
3159.38647705,0.00724680
3161.31528442,0.00721805
3163.24409180,0.00717858
3165.17289917,0.00729394
3167.10170654,0.00725700
3169.03051392,0.00714680
3170.95932129,0.00722836
3172.88812866,0.00709220
3174.81693604,0.00720470
3176.74574341,0.00718950
3178.67455078,0.00702393
3180.60335815,0.00713349
3182.53216553,0.00707705
3184.46097290,0.00713479
3186.38978027,0.00713322
3188.31858765,0.00707705
3190.24739502,0.00710316
3192.17620239,0.00702042
3194.10500977,0.00707013
3196.03381714,0.00708359
3197.96262451,0.00696021
3199.89143188,0.00699470
3201.82023926,0.00704559
3203.74904663,0.00693106
3205.67785400,0.00703580
3207.60666138,0.00700715
3209.53546875,0.00690593
3211.46427612,0.00708682
3213.39308350,0.00697747
3215.32189087,0.00699605
3217.25069824,0.00710801
3219.17950562,0.00700304
3221.10831299,0.00704749
3223.03712036,0.00702593
3224.96592773,0.00695072
3226.89473511,0.00700959
3228.82354248,0.00702303
3230.75234985,0.00692333
3232.68115723,0.00695355
3234.60996460,0.00687909
3236.53877197,0.00681071
3238.46757935,0.00693775
3240.39638672,0.00689488
3242.32519409,0.00695654
3244.25400146,0.00701581
3246.18280884,0.00696369
3248.11161621,0.00690147
3250.04042358,0.00687450
3251.96923096,0.00696189
3253.89803833,0.00684878
3255.82684570,0.00683356
3257.75565308,0.00689555
3259.68446045,0.00687997
3261.61326782,0.00695225
3263.54207520,0.00687589
3265.47088257,0.00685894
3267.39968994,0.00696059
3269.32849731,0.00686020
3271.25730469,0.00679818
3273.18611206,0.00691351
3275.11491943,0.00684961
3277.04372681,0.00679383
3278.97253418,0.00686506
3280.90134155,0.00685766
3282.83014893,0.00691791
3284.75895630,0.00696681
3286.68776367,0.00687490
3288.61657104,0.00680899
3290.54537842,0.00692889
3292.47418579,0.00689813
3294.40299316,0.00680969
3296.33180054,0.00686943
3298.26060791,0.00680753
3300.18941528,0.00688912
3302.11822266,0.00692563
3304.04703003,0.00685340
3305.97583740,0.00682117
3307.90464478,0.00677391
3309.83345215,0.00688418
3311.76225952,0.00685912
3313.69106689,0.00682252
3315.61987427,0.00683374
3317.54868164,0.00680264
3319.47748901,0.00687646
3321.40629639,0.00685759
3323.33510376,0.00682255
3325.26391113,0.00682997
3327.19271851,0.00678159
3329.12152588,0.00678536
3331.05033325,0.00686679
3332.97914062,0.00681418
3334.90794800,0.00676993
3336.83675537,0.00676486
3338.76556274,0.00675949
3340.69437012,0.00687804
3342.62317749,0.00679622
3344.55198486,0.00672732
3346.48079224,0.00673561
3348.40959961,0.00675776
3350.33840698,0.00684592
3352.26721436,0.00681046
3354.19602173,0.00684421
3356.12482910,0.00678233
3358.05363647,0.00679768
3359.98244385,0.00682661
3361.91125122,0.00671314
3363.84005859,0.00682623
3365.76886597,0.00682084
3367.69767334,0.00672425
3369.62648071,0.00674511
3371.55528809,0.00675118
3373.48409546,0.00671347
3375.41290283,0.00670325
3377.34171020,0.00673583
3379.27051758,0.00679825
3381.19932495,0.00679965
3383.12813232,0.00669445
3385.05693970,0.00672180
3386.98574707,0.00668855
3388.91455444,0.00680506
3390.84336182,0.00684190
3392.77216919,0.00661414
3394.70097656,0.00665900
3396.62978394,0.00662619
3398.55859131,0.00671701
3400.48739868,0.00669863
3402.41620605,0.00656510
3404.34501343,0.00671694
3406.27382080,0.00663441
3408.20262817,0.00664890
3410.13143555,0.00667811
3412.06024292,0.00661013
3413.98905029,0.00668646
3415.91785767,0.00674090
3417.84666504,0.00665330
3419.77547241,0.00658248
3421.70427979,0.00665145
3423.63308716,0.00653015
3425.56189453,0.00655525
3427.49070190,0.00658996
3429.41950928,0.00658556
3431.34831665,0.00661062
3433.27712402,0.00648898
3435.20593140,0.00663268
3437.13473877,0.00652802
3439.06354614,0.00645050
3440.99235352,0.00656637
3442.92116089,0.00647841
3444.84996826,0.00644203
3446.77877563,0.00632711
3448.70758301,0.00645283
3450.63639038,0.00652578
3452.56519775,0.00641904
3454.49400513,0.00646017
3456.42281250,0.00640994
3458.35161987,0.00639675
3460.28042725,0.00640519
3462.20923462,0.00637167
3464.13804199,0.00635339
3466.06684937,0.00634181
3467.99565674,0.00628205
3469.92446411,0.00632311
3471.85327148,0.00636586
3473.78207886,0.00630653
3475.71088623,0.00632001
3477.63969360,0.00625619
3479.56850098,0.00625701
3481.49730835,0.00617446
3483.42611572,0.00613401
3485.35492310,0.00626813
3487.28373047,0.00613043
3489.21253784,0.00610764
3491.14134521,0.00627260
3493.07015259,0.00621796
3494.99895996,0.00610692
3496.92776733,0.00613547
3498.85657471,0.00611915
3500.78538208,0.00606312
3502.71418945,0.00601540
3504.64299683,0.00601812
3506.57180420,0.00612287
3508.50061157,0.00599740
3510.42941895,0.00593955
3512.35822632,0.00603372
3514.28703369,0.00602369
3516.21584106,0.00604810
3518.14464844,0.00604383
3520.07345581,0.00603750
3522.00226318,0.00594029
3523.93107056,0.00584661
3525.85987793,0.00586605
3527.78868530,0.00586733
3529.71749268,0.00586665
3531.64630005,0.00589101
3533.57510742,0.00595400
3535.50391479,0.00594151
3537.43272217,0.00588624
3539.36152954,0.00591941
3541.29033691,0.00587763
3543.21914429,0.00574494
3545.14795166,0.00565069
3547.07675903,0.00543274
3549.00556641,0.00558326
3550.93437378,0.00582537
3552.86318115,0.00556184
3554.79198853,0.00568577
3556.72079590,0.00586187
3558.64960327,0.00576814
3560.57841064,0.00562178
3562.50721802,0.00553179
3564.43602539,0.00561720
3566.36483276,0.00512841
3568.29364014,0.00497505
3570.22244751,0.00549949
3572.15125488,0.00568468
3574.08006226,0.00555582
3576.00886963,0.00539089
3577.93767700,0.00548169
3579.86648437,0.00550694
3581.79529175,0.00545915
3583.72409912,0.00550854
3585.65290649,0.00525902
3587.58171387,0.00482486
3589.51052124,0.00497531
3591.43932861,0.00546550
3593.36813599,0.00536786
3595.29694336,0.00518815
3597.22575073,0.00532626
3599.15455811,0.00536007
3601.08336548,0.00523628
3603.01217285,0.00531255
3604.94098022,0.00538886
3606.86978760,0.00510600
3608.79859497,0.00479915
3610.72740234,0.00491255
3612.65620972,0.00492752
3614.58501709,0.00480996
3616.51382446,0.00522693
3618.44263184,0.00463321
3620.37143921,0.00448763
3622.30024658,0.00533434
3624.22905395,0.00511188
3626.15786133,0.00530913
3628.08666870,0.00434573
3630.01547607,0.00387157
3631.94428345,0.00512803
3633.87309082,0.00490044
3635.80189819,0.00502682
3637.73070557,0.00510657
3639.65951294,0.00503420
3641.58832031,0.00517358
3643.51712769,0.00492168
3645.44593506,0.00498178
3647.37474243,0.00442830
3649.30354980,0.00401221
3651.23235718,0.00399363
3653.16116455,0.00477877
3655.08997192,0.00479371
3657.01877930,0.00413176
3658.94758667,0.00488384
3660.87639404,0.00482351
3662.80520142,0.00482521
3664.73400879,0.00482930
3666.66281616,0.00482421
3668.59162354,0.00457226
3670.52043091,0.00355246
3672.44923828,0.00448665
3674.37804565,0.00420372
3676.30685303,0.00343472
3678.23566040,0.00439566
3680.16446777,0.00448596
3682.09327515,0.00452776
3684.02208252,0.00457555
3685.95088989,0.00459643
3687.87969727,0.00402613
3689.80850464,0.00353271
3691.73731201,0.00412865
3693.66611938,0.00430895
3695.59492676,0.00450373
3697.52373413,0.00444983
3699.45254150,0.00435777
3701.38134888,0.00414479
3703.31015625,0.00395467
3705.23896362,0.00448958
3707.16777100,0.00429058
3709.09657837,0.00414284
3711.02538574,0.00377600
3712.95419312,0.00349121
3714.88300049,0.00423450
3716.81180786,0.00421949
3718.74061523,0.00421944
3720.66942261,0.00413400
3722.59822998,0.00395351
3724.52703735,0.00408635
3726.45584473,0.00376524
3728.38465210,0.00403413
3730.31345947,0.00402446
3732.24226685,0.00362995
3734.17107422,0.00345179
3736.09988159,0.00325650
3738.02868896,0.00350811
3739.95749634,0.00386593
3741.88630371,0.00407559
3743.81511108,0.00304965
3745.74391846,0.00282193
3747.67272583,0.00394575
3749.60153320,0.00329537
3751.53034058,0.00293252
3753.45914795,0.00352261
3755.38795532,0.00374245
3757.31676270,0.00389737
3759.24557007,0.00361283
3761.17437744,0.00376096
3763.10318481,0.00397247
3765.03199219,0.00372626
3766.96079956,0.00377426
3768.88960693,0.00364383
3770.81841431,0.00361243
3772.74722168,0.00387372
3774.67602905,0.00381005
3776.60483643,0.00391574
3778.53364380,0.00376673
3780.46245117,0.00353432
3782.39125854,0.00386025
3784.32006592,0.00373950
3786.24887329,0.00367069
3788.17768066,0.00380535
3790.10648804,0.00362859
3792.03529541,0.00361829
3793.96410278,0.00376434
3795.89291016,0.00356573
3797.82171753,0.00351379
3799.75052490,0.00358018
3801.67933228,0.00288610
3803.60813965,0.00338450
3805.53694702,0.00362561
3807.46575439,0.00292425
3809.39456177,0.00356407
3811.32336914,0.00359738
3813.25217651,0.00374388
3815.18098389,0.00324787
3817.10979126,0.00279385
3819.03859863,0.00374093
3820.96740601,0.00288465
3822.89621338,0.00297376
3824.82502075,0.00361554
3826.75382812,0.00315534
3828.68263550,0.00349498
3830.61144287,0.00336393
3832.54025024,0.00319524
3834.46905762,0.00325509
3836.39786499,0.00304066
3838.32667236,0.00276953
3840.25547974,0.00302161
3842.18428711,0.00330391
3844.11309448,0.00310880
3846.04190186,0.00331932
3847.97070923,0.00329935
3849.89951660,0.00336611
3851.82832397,0.00293669
3853.75713135,0.00204573
3855.68593872,0.00258752
3857.61474609,0.00330799
3859.54355347,0.00318143
3861.47236084,0.00319191
3863.40116821,0.00303832
3865.32997559,0.00280674
3867.25878296,0.00334353
3869.18759033,0.00293888
3871.11639770,0.00267489
3873.04520508,0.00333262
3874.97401245,0.00293137
3876.90281982,0.00327650
3878.83162720,0.00326241
3880.76043457,0.00267258
3882.68924194,0.00326006
3884.61804932,0.00287807
3886.54685669,0.00261277
3888.47566406,0.00315938
3890.40447144,0.00292455
3892.33327881,0.00276402
3894.26208618,0.00309818
3896.19089355,0.00317396
3898.11970093,0.00294293
3900.04850830,0.00276485
3901.97731567,0.00272451
3903.90612305,0.00267842
3905.83493042,0.00270491
3907.76373779,0.00305873
3909.69254517,0.00311320
3911.62135254,0.00296277
3913.55015991,0.00304505
3915.47896728,0.00295559
3917.40777466,0.00287944
3919.33658203,0.00281961
3921.26538940,0.00287342
3923.19419678,0.00296314
3925.12300415,0.00283679
3927.05181152,0.00286614
3928.98061890,0.00295405
3930.90942627,0.00283216
3932.83823364,0.00274881
3934.76704102,0.00289831
3936.69584839,0.00294583
3938.62465576,0.00290498
3940.55346313,0.00286521
3942.48227051,0.00275876
3944.41107788,0.00277425
3946.33988525,0.00281179
3948.26869263,0.00286641
3950.19750000,0.00286896
3952.12630737,0.00277021
3954.05511475,0.00277596
3955.98392212,0.00282589
3957.91272949,0.00283307
3959.84153687,0.00280726
3961.77034424,0.00278293
3963.69915161,0.00279652
3965.62795898,0.00280028
3967.55676636,0.00279261
3969.48557373,0.00273231
3971.41438110,0.00270604
3973.34318848,0.00272757
3975.27199585,0.00267289
3977.20080322,0.00279194
3979.12961060,0.00269022
3981.05841797,0.00254777
3982.98722534,0.00280284
3984.91603271,0.00269405
3986.84484009,0.00266310
3988.77364746,0.00275631
3990.70245483,0.00261041
3992.63126221,0.00262607
3994.56006958,0.00265864
3996.48887695,0.00269401
3998.41768433,0.00259879
4000.34649170,0.00259787
4002.27529907,0.00260723
4004.20410645,0.00256768
4006.13291382,0.00270237
4008.06172119,0.00259733
4009.99052856,0.00250117
4011.91933594,0.00257547
4013.84814331,0.00262747
4015.77695068,0.00253119
4017.70575806,0.00254660
4019.63456543,0.00259117
4021.56337280,0.00246617
4023.49218018,0.00254002
4025.42098755,0.00252244
4027.34979492,0.00250543
4029.27860229,0.00243979
4031.20740967,0.00241625
4033.13621704,0.00251896
4035.06502441,0.00241848
4036.99383179,0.00244869
4038.92263916,0.00246259
4040.85144653,0.00250746
4042.78025391,0.00246926
4044.70906128,0.00244055
4046.63786865,0.00249611
4048.56667603,0.00236628
4050.49548340,0.00249098
4052.42429077,0.00250429
4054.35309814,0.00244691
4056.28190552,0.00248785
4058.21071289,0.00241185
4060.13952026,0.00237383
4062.06832764,0.00238378
4063.99713501,0.00245144
4065.92594238,0.00236506
4067.85474976,0.00239771
4069.78355713,0.00246017
4071.71236450,0.00236322
4073.64117187,0.00237148
4075.56997925,0.00238585
4077.49878662,0.00230191
4079.42759399,0.00219854
4081.35640137,0.00226795
4083.28520874,0.00229561
4085.21401611,0.00235506
4087.14282349,0.00233151
4089.07163086,0.00220583
4091.00043823,0.00232308
4092.92924561,0.00230826
4094.85805298,0.00229083
4096.78686035,0.00232149
4098.71566772,0.00224661
4100.64447510,0.00225311
4102.57328247,0.00225275
4104.50208984,0.00220766
4106.43089722,0.00223208
4108.35970459,0.00220151
4110.28851196,0.00217171
4112.21731934,0.00229753
4114.14612671,0.00221218
4116.07493408,0.00218535
4118.00374145,0.00219643
4119.93254883,0.00211895
4121.86135620,0.00217358
4123.79016357,0.00209672
4125.71897095,0.00218606
4127.64777832,0.00219711
4129.57658569,0.00210474
4131.50539307,0.00211710
4133.43420044,0.00209768
4135.36300781,0.00215986
4137.29181519,0.00212785
4139.22062256,0.00222111
4141.14942993,0.00216128
4143.07823730,0.00212036
4145.00704468,0.00222069
4146.93585205,0.00211042
4148.86465942,0.00214290
4150.79346680,0.00206267
4152.72227417,0.00207383
4154.65108154,0.00206189
4156.57988892,0.00195947
4158.50869629,0.00212549
4160.43750366,0.00207103
4162.36631103,0.00200250
4164.29511841,0.00201432
4166.22392578,0.00196990
4168.15273315,0.00198704
4170.08154053,0.00202713
4172.01034790,0.00201120
4173.93915527,0.00196478
4175.86796265,0.00200455
4177.79677002,0.00198396
4179.72557739,0.00203142
4181.65438477,0.00201269
4183.58319214,0.00193457
4185.51199951,0.00200288
4187.44080688,0.00194422
4189.36961426,0.00192386
4191.29842163,0.00196967
4193.22722900,0.00190571
4195.15603638,0.00185318
4197.08484375,0.00188266
4199.01365112,0.00192201
4200.94245850,0.00188500
4202.87126587,0.00187141
4204.80007324,0.00190154
4206.72888062,0.00189261
4208.65768799,0.00189279
4210.58649536,0.00188919
4212.51530273,0.00182111
4214.44411011,0.00186330
4216.37291748,0.00191032
4218.30172485,0.00180603
4220.23053223,0.00179853
4222.15933960,0.00181335
4224.08814697,0.00179257
4226.01695435,0.00184357
4227.94576172,0.00183529
4229.87456909,0.00178470
4231.80337646,0.00174164
4233.73218384,0.00173443
4235.66099121,0.00180373
4237.58979858,0.00179093
4239.51860596,0.00181884
4241.44741333,0.00189527
4243.37622070,0.00177790
4245.30502808,0.00174601
4247.23383545,0.00175060
4249.16264282,0.00172316
4251.09145020,0.00184116
4253.02025757,0.00174785
4254.94906494,0.00167321
4256.87787231,0.00179301
4258.80667969,0.00172543
4260.73548706,0.00169068
4262.66429443,0.00171041
4264.59310181,0.00169862
4266.52190918,0.00172546
4268.45071655,0.00166666
4270.37952393,0.00166050
4272.30833130,0.00167171
4274.23713867,0.00167483
4276.16594604,0.00169582
4278.09475342,0.00170080
4280.02356079,0.00170740
4281.95236816,0.00161260
4283.88117554,0.00172785
4285.80998291,0.00178979
4287.73879028,0.00160375
4289.66759766,0.00158485
4291.59640503,0.00161726
4293.52521240,0.00167815
4295.45401978,0.00156239
4297.38282715,0.00151939
4299.31163452,0.00169034
4301.24044189,0.00169834
4303.16924927,0.00163333
4305.09805664,0.00144738
4307.02686401,0.00151514
4308.95567139,0.00165546
4310.88447876,0.00158859
4312.81328613,0.00157444
4314.74209351,0.00150317
4316.67090088,0.00155282
4318.59970825,0.00154489
4320.52851562,0.00149757
4322.45732300,0.00153622
4324.38613037,0.00150713
4326.31493774,0.00155411
4328.24374512,0.00158070
4330.17255249,0.00151674
4332.10135986,0.00151005
4334.03016724,0.00156752
4335.95897461,0.00150052
4337.88778198,0.00148307
4339.81658936,0.00148988
4341.74539673,0.00148395
4343.67420410,0.00152300
4345.60301147,0.00141158
4347.53181885,0.00145434
4349.46062622,0.00149647
4351.38943359,0.00148180
4353.31824097,0.00151585
4355.24704834,0.00144159
4357.17585571,0.00143973
4359.10466309,0.00147360
4361.03347046,0.00148383
4362.96227783,0.00142490
4364.89108520,0.00144242
4366.81989258,0.00143241
4368.74869995,0.00143032
4370.67750732,0.00150932
4372.60631470,0.00143681
4374.53512207,0.00138937
4376.46392944,0.00132335
4378.39273682,0.00143576
4380.32154419,0.00147468
4382.25035156,0.00140017
4384.17915894,0.00147262
4386.10796631,0.00139549
4388.03677368,0.00140778
4389.96558105,0.00132913
4391.89438843,0.00137461
4393.82319580,0.00149693
4395.75200317,0.00139917
4397.68081055,0.00143252
4399.60961792,0.00133485
4401.53842529,0.00130147
4403.46723267,0.00136109
4405.39604004,0.00138292
4407.32484741,0.00136120
4409.25365478,0.00128703
4411.18246216,0.00135136
4413.11126953,0.00131521
4415.04007690,0.00128513
4416.96888428,0.00132408
4418.89769165,0.00134342
4420.82649902,0.00126188
4422.75530640,0.00121521
4424.68411377,0.00132027
4426.61292114,0.00132257
4428.54172852,0.00132744
4430.47053589,0.00132264
4432.39934326,0.00133067
4434.32815063,0.00131922
4436.25695801,0.00129789
4438.18576538,0.00129071
4440.11457275,0.00122126
4442.04338013,0.00123052
4443.97218750,0.00123636
4445.90099487,0.00124000
4447.82980225,0.00122661
4449.75860962,0.00128910
4451.68741699,0.00126089
4453.61622437,0.00116592
4455.54503174,0.00128342
4457.47383911,0.00126913
4459.40264648,0.00123099
4461.33145386,0.00123063
4463.26026123,0.00125229
4465.18906860,0.00129327
4467.11787598,0.00123200
4469.04668335,0.00120802
4470.97549072,0.00122341
4472.90429810,0.00126039
4474.83310547,0.00116357
4476.76191284,0.00120287
4478.69072021,0.00125629
4480.61952759,0.00113410
4482.54833496,0.00121976
4484.47714233,0.00120614
4486.40594971,0.00112528
4488.33475708,0.00117141
4490.26356445,0.00117617
4492.19237183,0.00114082
4494.12117920,0.00117941
4496.04998657,0.00123194
4497.97879395,0.00118109
4499.90760132,0.00118726
4501.83640869,0.00116042
4503.76521606,0.00108924
4505.69402344,0.00107079
4507.62283081,0.00111107
4509.55163818,0.00109405
4511.48044556,0.00110405
4513.40925293,0.00123115
4515.33806030,0.00112348
4517.26686768,0.00110119
4519.19567505,0.00116247
4521.12448242,0.00105291
4523.05328979,0.00107732
4524.98209717,0.00110369
4526.91090454,0.00111543
4528.83971191,0.00110385
4530.76851929,0.00103979
4532.69732666,0.00109406
4534.62613403,0.00110596
4536.55494141,0.00106775
4538.48374878,0.00105760
4540.41255615,0.00098917
4542.34136353,0.00104546
4544.27017090,0.00111146
4546.19897827,0.00103903
4548.12778564,0.00106696
4550.05659302,0.00108400
4551.98540039,0.00108057
4553.91420776,0.00105386
4555.84301514,0.00102806
4557.77182251,0.00106783
4559.70062988,0.00101918
4561.62943726,0.00100782
4563.55824463,0.00101063
4565.48705200,0.00103467
4567.41585937,0.00101583
4569.34466675,0.00094705
4571.27347412,0.00098253
4573.20228149,0.00101982
4575.13108887,0.00101325
4577.05989624,0.00092424
4578.98870361,0.00097814
4580.91751099,0.00101299
4582.84631836,0.00096747
4584.77512573,0.00102196
4586.70393311,0.00096937
4588.63274048,0.00102863
4590.56154785,0.00104560
4592.49035522,0.00094945
4594.41916260,0.00095297
4596.34796997,0.00093535
4598.27677734,0.00095505
4600.20558472,0.00099320
4602.13439209,0.00099313
4604.06319946,0.00093828
4605.99200684,0.00090259
4607.92081421,0.00091199
4609.84962158,0.00096398
4611.77842895,0.00096585
4613.70723633,0.00095956
4615.63604370,0.00101702
4617.56485107,0.00095755
4619.49365845,0.00094568
4621.42246582,0.00089473
4623.35127319,0.00090557
4625.28008057,0.00100885
4627.20888794,0.00091762
4629.13769531,0.00092294
4631.06650269,0.00091814
4632.99531006,0.00090809
4634.92411743,0.00098758
4636.85292480,0.00093937
4638.78173218,0.00089665
4640.71053955,0.00086716
4642.63934692,0.00086369
4644.56815430,0.00094176
4646.49696167,0.00091652
4648.42576904,0.00085587
4650.35457642,0.00088816
4652.28338379,0.00086863
4654.21219116,0.00090809
4656.14099853,0.00090277
4658.06980591,0.00089651
4659.99861328,0.00096721
4661.92742065,0.00082778
4663.85622803,0.00086737
4665.78503540,0.00090901
4667.71384277,0.00087010
4669.64265015,0.00095052
4671.57145752,0.00081579
4673.50026489,0.00079735
4675.42907227,0.00088047
4677.35787964,0.00093480
4679.28668701,0.00089700
4681.21549438,0.00081105
4683.14430176,0.00090033
4685.07310913,0.00086829
4687.00191650,0.00084462
4688.93072388,0.00084053
4690.85953125,0.00082324
4692.78833862,0.00085941
4694.71714600,0.00082846
4696.64595337,0.00082746
4698.57476074,0.00085263
4700.50356812,0.00083040
4702.43237549,0.00073025
4704.36118286,0.00081245
4706.28999023,0.00086333
4708.21879761,0.00077374
4710.14760498,0.00084905
4712.07641235,0.00085466
4714.00521973,0.00081458
4715.93402710,0.00075739
4717.86283447,0.00075620
4719.79164185,0.00079463
4721.72044922,0.00076219
4723.64925659,0.00081970
4725.57806396,0.00079324
4727.50687134,0.00077622
4729.43567871,0.00082247
4731.36448608,0.00079328
4733.29329346,0.00077361
4735.22210083,0.00078563
4737.15090820,0.00080843
4739.07971558,0.00078999
4741.00852295,0.00076657
4742.93733032,0.00073691
4744.86613770,0.00073493
4746.79494507,0.00074044
4748.72375244,0.00073925
4750.65255981,0.00076571
4752.58136719,0.00078137
4754.51017456,0.00076235
4756.43898193,0.00070645
4758.36778931,0.00080045
4760.29659668,0.00078452
4762.22540405,0.00068267
4764.15421143,0.00079343
4766.08301880,0.00071015
4768.01182617,0.00067382
4769.94063354,0.00076002
4771.86944092,0.00065887
4773.79824829,0.00071935
4775.72705566,0.00076885
4777.65586304,0.00068498
4779.58467041,0.00069657
4781.51347778,0.00067376
4783.44228516,0.00072298
4785.37109253,0.00079281
4787.29989990,0.00066258
4789.22870728,0.00063561
4791.15751465,0.00072569
4793.08632202,0.00072434
4795.01512939,0.00072716
4796.94393677,0.00064600
4798.87274414,0.00064246
4800.80155151,0.00073996
4802.73035889,0.00062145
4804.65916626,0.00060794
4806.58797363,0.00075388
4808.51678101,0.00070452
4810.44558838,0.00062680
4812.37439575,0.00063889
4814.30320312,0.00064549
4816.23201050,0.00067669
4818.16081787,0.00068452
4820.08962524,0.00065743
4822.01843262,0.00066426
4823.94723999,0.00064832
4825.87604736,0.00061737
4827.80485474,0.00056941
4829.73366211,0.00062234
4831.66246948,0.00070402
4833.59127686,0.00059886
4835.52008423,0.00066194
4837.44889160,0.00071727
4839.37769897,0.00062986
4841.30650635,0.00067583
4843.23531372,0.00058564
4845.16412109,0.00062703
4847.09292847,0.00072168
4849.02173584,0.00059143
4850.95054321,0.00063443
4852.87935059,0.00069051
4854.80815796,0.00067945
4856.73696533,0.00066418
4858.66577270,0.00059823
4860.59458008,0.00062085
4862.52338745,0.00061639
4864.45219482,0.00053447
4866.38100220,0.00055850
4868.30980957,0.00065116
4870.23861694,0.00067587
4872.16742432,0.00068819
4874.09623169,0.00063841
4876.02503906,0.00056948
4877.95384644,0.00053708
4879.88265381,0.00056799
4881.81146118,0.00065376
4883.74026855,0.00063583
4885.66907593,0.00067687
4887.59788330,0.00061794
4889.52669067,0.00057170
4891.45549805,0.00066783
4893.38430542,0.00054992
4895.31311279,0.00055611
4897.24192017,0.00058391
4899.17072754,0.00056688
4901.09953491,0.00063392
4903.02834228,0.00056347
4904.95714966,0.00056847
4906.88595703,0.00053828
4908.81476440,0.00051966
4910.74357178,0.00054150
4912.67237915,0.00050662
4914.60118652,0.00055927
4916.52999390,0.00056208
4918.45880127,0.00060397
4920.38760864,0.00056001
4922.31641602,0.00047792
4924.24522339,0.00056318
4926.17403076,0.00053211
4928.10283813,0.00052766
4930.03164551,0.00061416
4931.96045288,0.00060371
4933.88926025,0.00057889
4935.81806763,0.00054750
4937.74687500,0.00051227
4939.67568237,0.00048829
4941.60448975,0.00050713
4943.53329712,0.00055417
4945.46210449,0.00052950
4947.39091187,0.00054333
4949.31971924,0.00055602
4951.24852661,0.00052018
4953.17733398,0.00054493
4955.10614136,0.00054360
4957.03494873,0.00058046
4958.96375610,0.00055765
4960.89256348,0.00047812
4962.82137085,0.00050828
4964.75017822,0.00051149
4966.67898560,0.00052066
4968.60779297,0.00047860
4970.53660034,0.00052001
4972.46540771,0.00060534
4974.39421509,0.00052359
4976.32302246,0.00053031
4978.25182983,0.00051611
4980.18063721,0.00049243
4982.10944458,0.00049965
4984.03825195,0.00047932
4985.96705933,0.00049567
4987.89586670,0.00044532
4989.82467407,0.00051566
4991.75348145,0.00055822
4993.68228882,0.00046394
4995.61109619,0.00045312
4997.53990356,0.00046170
4999.46871094,0.00049329
5001.39751831,0.00050773
5003.32632568,0.00048808
5005.25513306,0.00045226
5007.18394043,0.00045242
5009.11274780,0.00051044
5011.04155518,0.00054902
5012.97036255,0.00052615
5014.89916992,0.00039420
5016.82797729,0.00040526
5018.75678467,0.00049109
5020.68559204,0.00043314
5022.61439941,0.00047116
5024.54320679,0.00046589
5026.47201416,0.00038107
5028.40082153,0.00043860
5030.32962891,0.00043447
5032.25843628,0.00040011
5034.18724365,0.00045777
5036.11605103,0.00046834
5038.04485840,0.00046477
5039.97366577,0.00048112
5041.90247314,0.00045486
5043.83128052,0.00038664
5045.76008789,0.00039731
5047.68889526,0.00043153
5049.61770264,0.00042738
5051.54651001,0.00048777
5053.47531738,0.00044165
5055.40412476,0.00040975
5057.33293213,0.00045987
5059.26173950,0.00042419
5061.19054687,0.00046210
5063.11935425,0.00044105
5065.04816162,0.00038004
5066.97696899,0.00040847
5068.90577637,0.00037059
5070.83458374,0.00035811
5072.76339111,0.00044536
5074.69219849,0.00044848
5076.62100586,0.00036711
5078.54981323,0.00044992
5080.47862061,0.00048795
5082.40742798,0.00038947
5084.33623535,0.00040888
5086.26504272,0.00041932
5088.19385010,0.00041017
5090.12265747,0.00042335
5092.05146484,0.00036804
5093.98027222,0.00031552
5095.90907959,0.00039749
5097.83788696,0.00046199
5099.76669434,0.00039396
5101.69550171,0.00040520
5103.62430908,0.00044943
5105.55311645,0.00042449
5107.48192383,0.00038169
5109.41073120,0.00042544
5111.33953857,0.00043801
5113.26834595,0.00035096
5115.19715332,0.00041954
5117.12596069,0.00047214
5119.05476807,0.00043787
5120.98357544,0.00040351
5122.91238281,0.00035581
5124.84119019,0.00035827
5126.76999756,0.00031211
5128.69880493,0.00031978
5130.62761230,0.00037074
5132.55641968,0.00039907
5134.48522705,0.00043533
5136.41403442,0.00039605
5138.34284180,0.00037753
5140.27164917,0.00037366
5142.20045654,0.00035918
5144.12926392,0.00036411
5146.05807129,0.00038115
5147.98687866,0.00040052
5149.91568603,0.00032575
5151.84449341,0.00032181
5153.77330078,0.00039397
5155.70210815,0.00033634
5157.63091553,0.00033895
5159.55972290,0.00035092
5161.48853027,0.00029824
5163.41733765,0.00035293
5165.34614502,0.00037425
5167.27495239,0.00036489
5169.20375977,0.00032800
5171.13256714,0.00029928
5173.06137451,0.00039698
5174.99018188,0.00038986
5176.91898926,0.00030655
5178.84779663,0.00033279
5180.77660400,0.00038189
5182.70541138,0.00034510
5184.63421875,0.00031826
5186.56302612,0.00032506
5188.49183350,0.00033218
5190.42064087,0.00037442
5192.34944824,0.00033694
5194.27825562,0.00034509
5196.20706299,0.00038586
5198.13587036,0.00039282
5200.06467773,0.00035483
5201.99348511,0.00026996
5203.92229248,0.00033597
5205.85109985,0.00031587
5207.77990723,0.00032647
5209.70871460,0.00035259
5211.63752197,0.00026445
5213.56632935,0.00029735
5215.49513672,0.00025082
5217.42394409,0.00030304
5219.35275146,0.00030406
5221.28155884,0.00025599
5223.21036621,0.00033961
5225.13917358,0.00024452
5227.06798096,0.00026844
5228.99678833,0.00030941
5230.92559570,0.00032929
5232.85440308,0.00034051
5234.78321045,0.00026414
5236.71201782,0.00036000
5238.64082520,0.00032106
5240.56963257,0.00027476
5242.49843994,0.00036421
5244.42724731,0.00035045
5246.35605469,0.00027696
5248.28486206,0.00030412
5250.21366943,0.00036065
5252.14247681,0.00023380
5254.07128418,0.00026099
5256.00009155,0.00031355
5257.92889893,0.00025518
5259.85770630,0.00031451
5261.78651367,0.00027032
5263.71532104,0.00023955
5265.64412842,0.00027628
5267.57293579,0.00028110
5269.50174316,0.00028140
5271.43055054,0.00025993
5273.35935791,0.00030595
5275.28816528,0.00030817
5277.21697266,0.00021049
5279.14578003,0.00021384
5281.07458740,0.00028064
5283.00339478,0.00026626
5284.93220215,0.00031286
5286.86100952,0.00039289
5288.78981689,0.00035062
5290.71862427,0.00030016
5292.64743164,0.00035394
5294.57623901,0.00034285
5296.50504639,0.00026758
5298.43385376,0.00030108
5300.36266113,0.00024430
5302.29146851,0.00024448
5304.22027588,0.00023014
5306.14908325,0.00009593
5308.07789062,0.00025486
5310.00669800,0.00029565
5311.93550537,0.00026969
5313.86431274,0.00039055
5315.79312012,0.00031571
5317.72192749,0.00028027
5319.65073486,0.00024041
5321.57954224,0.00021036
5323.50834961,0.00032070
5325.43715698,0.00033900
5327.36596436,0.00023629
5329.29477173,0.00022203
5331.22357910,0.00025981
5333.15238647,0.00018270
5335.08119385,0.00025496
5337.01000122,0.00025529
5338.93880859,0.00017432
5340.86761597,0.00028093
5342.79642334,0.00021858
5344.72523071,0.00022988
5346.65403809,0.00028553
5348.58284546,0.00025290
5350.51165283,0.00035029
5352.44046020,0.00024932
5354.36926758,0.00016407
5356.29807495,0.00023419
5358.22688232,0.00019126
5360.15568970,0.00022562
5362.08449707,0.00029205
5364.01330444,0.00027005
5365.94211182,0.00025370
5367.87091919,0.00019792
5369.79972656,0.00015174
5371.72853394,0.00020989
5373.65734131,0.00028767
5375.58614868,0.00024499
5377.51495605,0.00014343
5379.44376343,0.00022007
5381.37257080,0.00030272
5383.30137817,0.00022206
5385.23018555,0.00021788
5387.15899292,0.00027769
5389.08780029,0.00025069
5391.01660767,0.00021204
5392.94541504,0.00028418
5394.87422241,0.00027563
5396.80302978,0.00019167
5398.73183716,0.00022289
5400.66064453,0.00017033
5402.58945190,0.00016249
5404.51825928,0.00022464
5406.44706665,0.00020716
5408.37587402,0.00025534
5410.30468140,0.00024155
5412.23348877,0.00020908
5414.16229614,0.00023690
5416.09110352,0.00023348
5418.01991089,0.00023437
5419.94871826,0.00018837
5421.87752563,0.00018731
5423.80633301,0.00023980
5425.73514038,0.00022217
5427.66394775,0.00022049
5429.59275513,0.00020045
5431.52156250,0.00018523
5433.45036987,0.00022427
5435.37917725,0.00020119
5437.30798462,0.00020207
5439.23679199,0.00018488
5441.16559936,0.00017603
5443.09440674,0.00025312
5445.02321411,0.00022158
5446.95202148,0.00021216
5448.88082886,0.00020543
5450.80963623,0.00015193
5452.73844360,0.00020311
5454.66725098,0.00022041
5456.59605835,0.00021699
5458.52486572,0.00019986
5460.45367310,0.00017784
5462.38248047,0.00018691
5464.31128784,0.00017652
5466.24009521,0.00015780
5468.16890259,0.00012851
5470.09770996,0.00021177
5472.02651733,0.00025243
5473.95532471,0.00021098
5475.88413208,0.00021151
5477.81293945,0.00014380
5479.74174683,0.00020111
5481.67055420,0.00024611
5483.59936157,0.00013805
5485.52816895,0.00019648
5487.45697632,0.00019841
5489.38578369,0.00009838
5491.31459106,0.00019800
5493.24339844,0.00021557
5495.17220581,0.00014954
5497.10101318,0.00019284
5499.02982056,0.00017279
5500.95862793,0.00017875
5502.88743530,0.00019084
5504.81624268,0.00016311
5506.74505005,0.00018659
5508.67385742,0.00019573
5510.60266479,0.00018534
5512.53147217,0.00014262
5514.46027954,0.00016508
5516.38908691,0.00020333
5518.31789429,0.00016710
5520.24670166,0.00019884
5522.17550903,0.00022771
5524.10431641,0.00015860
5526.03312378,0.00014043
5527.96193115,0.00014430
5529.89073853,0.00008793
5531.81954590,0.00021185
5533.74835327,0.00026382
5535.67716064,0.00013364
5537.60596802,0.00014037
5539.53477539,0.00010157
5541.46358276,0.00015752
5543.39239014,0.00019874
5545.32119751,0.00013170
5547.25000488,0.00021876
5549.17881226,0.00014831
5551.10761963,0.00011329
5553.03642700,0.00015804
5554.96523437,0.00014500
5556.89404175,0.00022841
5558.82284912,0.00020873
5560.75165649,0.00023028
5562.68046387,0.00019197
5564.60927124,0.00012805
5566.53807861,0.00017700
5568.46688599,0.00009852
5570.39569336,0.00015428
5572.32450073,0.00016889
5574.25330811,0.00011843
5576.18211548,0.00017935
5578.11092285,0.00014402
5580.03973022,0.00016772
5581.96853760,0.00013183
5583.89734497,0.00012415
5585.82615234,0.00018764
5587.75495972,0.00013559
5589.68376709,0.00017095
5591.61257446,0.00015820
5593.54138184,0.00011066
5595.47018921,0.00016957
5597.39899658,0.00016444
5599.32780395,0.00009839
5601.25661133,0.00015713
5603.18541870,0.00022783
5605.11422607,0.00014266
5607.04303345,0.00018820
5608.97184082,0.00023560
5610.90064819,0.00012825
5612.82945557,0.00014128
5614.75826294,0.00016434
5616.68707031,0.00017278
5618.61587769,0.00020672
5620.54468506,0.00013031
5622.47349243,0.00010878
5624.40229980,0.00015812
5626.33110718,0.00011966
5628.25991455,0.00009943
5630.18872192,0.00007964
5632.11752930,0.00008282
5634.04633667,0.00014684
5635.97514404,0.00014404
5637.90395142,0.00016758
5639.83275879,0.00017511
5641.76156616,0.00017046
5643.69037353,0.00018023
5645.61918091,0.00010227
5647.54798828,0.00011935
5649.47679565,0.00019231
5651.40560303,0.00016388
5653.33441040,0.00011700
5655.26321777,0.00014870
5657.19202515,0.00016576
5659.12083252,0.00016065
5661.04963989,0.00016793
5662.97844727,0.00009196
5664.90725464,0.00013715
5666.83606201,0.00015549
5668.76486938,0.00013876
5670.69367676,0.00019394
5672.62248413,0.00009751
5674.55129150,0.00014369
5676.48009888,0.00014891
5678.40890625,0.00009367
5680.33771362,0.00018526
5682.26652100,0.00011969
5684.19532837,0.00014457
5686.12413574,0.00021871
5688.05294311,0.00015336
5689.98175049,0.00010345
5691.91055786,0.00008804
5693.83936523,0.00010581
5695.76817261,0.00011414
5697.69697998,0.00016642
5699.62578735,0.00016050
5701.55459473,0.00013713
5703.48340210,0.00017916
5705.41220947,0.00014120
5707.34101685,0.00014125
5709.26982422,0.00013527
5711.19863159,0.00009294
5713.12743896,0.00014727
5715.05624634,0.00012263
5716.98505371,0.00007417
5718.91386108,0.00012644
5720.84266846,0.00011577
5722.77147583,0.00009797
5724.70028320,0.00014981
5726.62909058,0.00015521
5728.55789795,0.00007661
5730.48670532,0.00010087
5732.41551270,0.00018763
5734.34432007,0.00013662
5736.27312744,0.00008444
5738.20193481,0.00007852
5740.13074219,0.00011695
5742.05954956,0.00011327
5743.98835693,0.00010225
5745.91716431,0.00012003
5747.84597168,0.00002534
5749.77477905,0.00007469
5751.70358643,0.00012940
5753.63239380,0.00010416
5755.56120117,0.00011156
5757.49000854,0.00007072
5759.41881592,0.00010682
5761.34762329,0.00008128
5763.27643066,0.00008345
5765.20523804,0.00011252
5767.13404541,0.00013254
5769.06285278,0.00015657
5770.99166016,0.00007079
5772.92046753,0.00011666
5774.84927490,0.00012029
5776.77808228,0.00006569
5778.70688965,0.00008928
5780.63569702,0.00013468
5782.56450439,0.00017130
5784.49331177,0.00007693
5786.42211914,0.00005388
5788.35092651,0.00007315
5790.27973389,0.00009583
5792.20854126,0.00014053
5794.13734863,0.00010502
5796.06615601,0.00011812
5797.99496338,0.00011653
5799.92377075,0.00008647
5801.85257812,0.00006779
5803.78138550,0.00007201
5805.71019287,0.00010985
5807.63900024,0.00011638
5809.56780762,0.00012101
5811.49661499,0.00014734
5813.42542236,0.00016377
5815.35422974,0.00013017
5817.28303711,0.00011210
5819.21184448,0.00008869
5821.14065186,0.00008444
5823.06945923,0.00012680
5824.99826660,0.00011634
5826.92707397,0.00011837
5828.85588135,0.00009337
5830.78468872,0.00009608
5832.71349609,0.00009869
5834.64230347,0.00001919
5836.57111084,0.00008151
5838.49991821,0.00012956
5840.42872559,0.00006180
5842.35753296,0.00010510
5844.28634033,0.00014482
5846.21514770,0.00007418
5848.14395508,0.00003455
5850.07276245,0.00009508
5852.00156982,0.00012586
5853.93037720,0.00009875
5855.85918457,0.00011693
5857.78799194,0.00009279
5859.71679932,0.00010636
5861.64560669,0.00017685
5863.57441406,0.00010574
5865.50322144,0.00005561
5867.43202881,0.00006427
5869.36083618,0.00007452
5871.28964355,0.00012379
5873.21845093,0.00006886
5875.14725830,0.00000859
5877.07606567,0.00006132
5879.00487305,0.00012309
5880.93368042,0.00012727
5882.86248779,0.00009686
5884.79129517,0.00006974
5886.72010254,0.00006321
5888.64890991,0.00010800
5890.57771728,0.00011275
5892.50652466,0.00004164
5894.43533203,0.00005066
5896.36413940,0.00009388
5898.29294678,0.00005848
5900.22175415,0.00007677
5902.15056152,0.00005793
5904.07936890,0.00003949
5906.00817627,0.00010440
5907.93698364,0.00005609
5909.86579102,0.00008757
5911.79459839,0.00009124
5913.72340576,0.00004654
5915.65221313,0.00007678
5917.58102051,0.00003094
5919.50982788,0.00011100
5921.43863525,0.00010387
5923.36744263,0.00004795
5925.29625000,0.00012830
5927.22505737,0.00012295
5929.15386475,0.00009506
5931.08267212,0.00007322
5933.01147949,0.00006050
5934.94028686,0.00008396
5936.86909424,0.00010568
5938.79790161,0.00003644
5940.72670898,0.00005249
5942.65551636,0.00008186
5944.58432373,0.00004068
5946.51313110,0.00013770
5948.44193848,0.00010060
5950.37074585,0.00009749
5952.29955322,0.00012057
5954.22836060,0.00004275
5956.15716797,0.00009387
5958.08597534,0.00001956
5960.01478271,-0.00001566
5961.94359009,0.00007278
5963.87239746,0.00009027
5965.80120483,0.00006231
5967.73001221,0.00001087
5969.65881958,0.00006331
5971.58762695,0.00007194
5973.51643433,0.00007280
5975.44524170,0.00010866
5977.37404907,0.00003616
5979.30285645,0.00006928
5981.23166382,0.00011156
5983.16047119,0.00007136
5985.08927856,0.00006979
5987.01808594,0.00002191
5988.94689331,0.00008133
5990.87570068,0.00007394
5992.80450806,0.00002292
5994.73331543,0.00011855
5996.66212280,0.00003636
5998.59093018,0.00007826
6000.51973755,0.00009966
