399.26312622,0.00102906
401.19193359,0.00141144
403.12074097,0.00118487
405.04954834,0.00095125
406.97835571,0.00085212
408.90716309,0.00103439
410.83597046,0.00134588
412.76477783,0.00100725
414.69358521,0.00111996
416.62239258,0.00154156
418.55119995,0.00130726
420.48000732,0.00104625
422.40881470,0.00142019
424.33762207,0.00161219
426.26642944,0.00091773
428.19523682,0.00099284
430.12404419,0.00132542
432.05285156,0.00113106
433.98165894,0.00138848
435.91046631,0.00134578
437.83927368,0.00144603
439.76808105,0.00111700
441.69688843,0.00069302
443.62569580,0.00133834
445.55450317,0.00117923
447.48331055,0.00109407
449.41211792,0.00141278
451.34092529,0.00130523
453.26973267,0.00092820
455.19854004,0.00060158
457.12734741,0.00090435
459.05615479,0.00085394
460.98496216,0.00105365
462.91376953,0.00072310
464.84257690,0.00036731
466.77138428,0.00113127
468.70019165,0.00077166
470.62899902,0.00048330
472.55780640,0.00073627
474.48661377,0.00085676
476.41542114,0.00070536
478.34422852,0.00041903
480.27303589,0.00048605
482.20184326,0.00021655
484.13065063,0.00046393
486.05945801,0.00035856
487.98826538,0.00016988
489.91707275,0.00020278
491.84588013,-0.00006046
493.77468750,0.00061236
495.70349487,0.00039639
497.63230225,0.00008333
499.56110962,0.00073946
501.48991699,0.00048668
503.41872437,0.00003554
505.34753174,0.00029707
507.27633911,0.00036710
509.20514648,0.00006787
511.13395386,0.00040134
513.06276123,0.00043627
514.99156860,0.00012016
516.92037598,0.00012756
518.84918335,0.00031093
520.77799072,0.00026729
522.70679810,-0.00014893
524.63560547,0.00032355
526.56441284,0.00068112
528.49322021,0.00047893
530.42202759,0.00043503
532.35083496,0.00023182
534.27964233,0.00000438
536.20844971,0.00046569
538.13725708,0.00014373
540.06606445,0.00011429
541.99487183,0.00062803
543.92367920,0.00011773
545.85248657,0.00019999
547.78129395,0.00012584
549.71010132,0.00006083
551.63890869,0.00008110
553.56771606,-0.00025310
555.49652344,0.00018661
557.42533081,0.00033562
559.35413818,0.00020945
561.28294556,0.00030552
563.21175293,0.00037943
565.14056030,-0.00012200
567.06936768,0.00000791
568.99817505,0.00042044
570.92698242,-0.00029917
572.85578979,-0.00005123
574.78459717,0.00026903
576.71340454,-0.00001215
578.64221191,-0.00002153
580.57101929,0.00023165
582.49982666,0.00010855
584.42863403,-0.00021083
586.35744141,0.00035933
588.28624878,0.00030840
590.21505615,0.00026882
592.14386353,0.00015556
594.07267090,-0.00002804
596.00147827,0.00046242
597.93028564,0.00026360
599.85909302,0.00025663
601.78790039,0.00017022
603.71670776,0.00006866
605.64551514,0.00030316
607.57432251,0.00032704
609.50312988,0.00011293
611.43193726,-0.00023326
613.36074463,0.00026040
615.28955200,0.00000161
617.21835938,-0.00007097
619.14716675,-0.00014275
621.07597412,-0.00023210
623.00478149,0.00022441
624.93358887,-0.00016247
626.86239624,-0.00008131
628.79120361,0.00017434
630.72001099,0.00036970
632.64881836,0.00080313
634.57762573,0.00077023
636.50643311,0.00101292
638.43524048,0.00108008
640.36404785,0.00085925
642.29285522,0.00127697
644.22166260,0.00169264
646.15046997,0.00121186
648.07927734,0.00098535
650.00808472,0.00153253
651.93689209,0.00126988
653.86569946,0.00139427
655.79450684,0.00186598
657.72331421,0.00163442
659.65212158,0.00188779
661.58092896,0.00184312
663.50973633,0.00198876
665.43854370,0.00221930
667.36735107,0.00151420
669.29615845,0.00177481
671.22496582,0.00237606
673.15377319,0.00235488
675.08258057,0.00258759
677.01138794,0.00254669
678.94019531,0.00264762
680.86900269,0.00293674
682.79781006,0.00271494
684.72661743,0.00264223
686.65542480,0.00260955
688.58423218,0.00253345
690.51303955,0.00279148
692.44184692,0.00311007
694.37065430,0.00310016
696.29946167,0.00318159
698.22826904,0.00399692
700.15707642,0.00419638
702.08588379,0.00390332
704.01469116,0.00399021
705.94349854,0.00341859
707.87230591,0.00287780
709.80111328,0.00241249
711.72992065,0.00170113
713.65872803,0.00126518
715.58753540,0.00058996
717.51634277,0.00029275
719.44515015,0.00031115
721.37395752,0.00027012
723.30276489,0.00038045
725.23157227,0.00025122
727.16037964,0.00032678
729.08918701,0.00023421
731.01799438,-0.00011219
732.94680176,-0.00005942
734.87560913,0.00007542
736.80441650,0.00014421
738.73322388,0.00006499
740.66203125,0.00008946
742.59083862,0.00012179
744.51964600,0.00008031
746.44845337,0.00026319
748.37726074,0.00044864
750.30606812,0.00019201
752.23487549,0.00006151
754.16368286,0.00027014
756.09249023,0.00019687
758.02129761,0.00011785
759.95010498,0.00053059
761.87891235,0.00033161
763.80771973,0.00034103
765.73652710,0.00043361
767.66533447,0.00021548
769.59414185,-0.00009548
771.52294922,0.00001569
773.45175659,0.00052022
775.38056396,-0.00000443
777.30937134,0.00026926
779.23817871,0.00043614
781.16698608,0.00015516
783.09579346,0.00050130
785.02460083,0.00035617
786.95340820,0.00034636
788.88221558,0.00022669
790.81102295,0.00046049
792.73983032,0.00018807
794.66863770,0.00012872
796.59744507,0.00054742
798.52625244,0.00024207
800.45505981,0.00077076
802.38386719,0.00052146
804.31267456,0.00023763
806.24148193,0.00035704
808.17028931,0.00014724
810.09909668,0.00046738
812.02790405,0.00015426
813.95671143,0.00009216
815.88551880,0.00026259
817.81432617,0.00045096
819.74313354,0.00053449
821.67194092,0.00021880
823.60074829,0.00012718
825.52955566,0.00028826
827.45836304,0.00057840
829.38717041,0.00022130
831.31597778,0.00062150
833.24478516,0.00101138
835.17359253,0.00073770
837.10239990,0.00100338
839.03120728,0.00075437
840.96001465,0.00064290
842.88882202,0.00080456
844.81762939,0.00088238
846.74643677,0.00062176
848.67524414,0.00061772
850.60405151,0.00083511
852.53285889,0.00060351
854.46166626,0.00090104
856.39047363,0.00054768
858.31928101,0.00052773
860.24808838,0.00067566
862.17689575,0.00017302
864.10570313,0.00041599
866.03451050,0.00029029
867.96331787,0.00033235
869.89212524,0.00031536
871.82093262,0.00025847
873.74973999,0.00049019
875.67854736,0.00009899
877.60735474,0.00030737
879.53616211,0.00042384
881.46496948,0.00011469
883.39377686,0.00046375
885.32258423,0.00047455
887.25139160,0.00026947
889.18019897,0.00047755
891.10900635,0.00043548
893.03781372,0.00046498
894.96662109,0.00043539
896.89542847,0.00034085
898.82423584,0.00047171
900.75304321,0.00033935
902.68185059,0.00040133
904.61065796,0.00058258
906.53946533,0.00072277
908.46827271,0.00065958
910.39708008,0.00048771
912.32588745,0.00058988
914.25469482,0.00057469
916.18350220,0.00066312
918.11230957,0.00056874
920.04111694,0.00065185
921.96992432,0.00099130
923.89873169,0.00071356
925.82753906,0.00038261
927.75634644,0.00055442
929.68515381,0.00100929
931.61396118,0.00097503
933.54276855,0.00103015
935.47157593,0.00129003
937.40038330,0.00120595
939.32919067,0.00127762
941.25799805,0.00127394
943.18680542,0.00150923
945.11561279,0.00154688
947.04442017,0.00133215
948.97322754,0.00120341
950.90203491,0.00104397
952.83084229,0.00135824
954.75964966,0.00132235
956.68845703,0.00128216
958.61726440,0.00123701
960.54607178,0.00097425
962.47487915,0.00129266
964.40368652,0.00154091
966.33249390,0.00153412
968.26130127,0.00116193
970.19010864,0.00117682
972.11891602,0.00169853
974.04772339,0.00147621
975.97653076,0.00143748
977.90533813,0.00184817
979.83414551,0.00194666
981.76295288,0.00221884
983.69176025,0.00244438
985.62056763,0.00254779
987.54937500,0.00300616
989.47818237,0.00298989
991.40698975,0.00325584
993.33579712,0.00398425
995.26460449,0.00404224
997.19341187,0.00453085
999.12221924,0.00485847
1001.05102661,0.00494990
1002.97983398,0.00548762
1004.90864136,0.00576872
1006.83744873,0.00616557
1008.76625610,0.00655894
1010.69506348,0.00697386
1012.62387085,0.00719083
1014.55267822,0.00756959
1016.48148560,0.00830212
1018.41029297,0.00863696
1020.33910034,0.00907586
1022.26790771,0.00927276
1024.19671509,0.00955770
1026.12552246,0.01003851
1028.05432983,0.01014784
1029.98313721,0.01050563
1031.91194458,0.01082832
1033.84075195,0.01100751
1035.76955933,0.01125177
1037.69836670,0.01129979
1039.62717407,0.01132167
1041.55598145,0.01144693
1043.48478882,0.01118562
1045.41359619,0.01106390
1047.34240356,0.01125912
1049.27121094,0.01100387
1051.20001831,0.01073636
1053.12882568,0.01039482
1055.05763306,0.01029622
1056.98644043,0.01032050
1058.91524780,0.00992092
1060.84405518,0.00964346
1062.77286255,0.00921276
1064.70166992,0.00879335
1066.63047729,0.00846606
1068.55928467,0.00823728
1070.48809204,0.00791357
1072.41689941,0.00734028
1074.34570679,0.00729311
1076.27451416,0.00693956
1078.20332153,0.00627400
1080.13212891,0.00623020
1082.06093628,0.00601791
1083.98974365,0.00559078
1085.91855103,0.00544179
1087.84735840,0.00506944
1089.77616577,0.00486422
1091.70497314,0.00484775
1093.63378052,0.00446941
1095.56258789,0.00440574
1097.49139526,0.00431371
1099.42020264,0.00414466
1101.34901001,0.00407403
1103.27781738,0.00400646
1105.20662476,0.00406615
1107.13543213,0.00366637
1109.06423950,0.00379566
1110.99304687,0.00395256
1112.92185425,0.00361472
1114.85066162,0.00379381
1116.77946899,0.00362763
1118.70827637,0.00368005
1120.63708374,0.00378102
1122.56589111,0.00345790
1124.49469849,0.00378976
1126.42350586,0.00400709
1128.35231323,0.00395341
1130.28112061,0.00405189
1132.20992798,0.00415669
1134.13873535,0.00421324
1136.06754272,0.00420024
1137.99635010,0.00442975
1139.92515747,0.00475057
1141.85396484,0.00500077
1143.78277222,0.00516194
1145.71157959,0.00571173
1147.64038696,0.00635045
1149.56919434,0.00624677
1151.49800171,0.00652099
1153.42680908,0.00731207
1155.35561646,0.00752870
1157.28442383,0.00761021
1159.21323120,0.00800851
1161.14203857,0.00826455
1163.07084595,0.00847829
1164.99965332,0.00898765
1166.92846069,0.00937723
1168.85726807,0.00955000
1170.78607544,0.00978984
1172.71488281,0.01027837
1174.64369019,0.01067998
1176.57249756,0.01080647
1178.50130493,0.01122602
1180.43011230,0.01163918
1182.35891968,0.01211539
1184.28772705,0.01274122
1186.21653442,0.01313809
1188.14534180,0.01384147
1190.07414917,0.01447546
1192.00295654,0.01508503
1193.93176392,0.01596376
1195.86057129,0.01665478
1197.78937866,0.01730865
1199.71818604,0.01791122
1201.64699341,0.01880599
1203.57580078,0.01956924
1205.50460815,0.02012492
1207.43341553,0.02103014
1209.36222290,0.02155285
1211.29103027,0.02218018
1213.21983765,0.02300692
1215.14864502,0.02334355
1217.07745239,0.02384042
1219.00625977,0.02451703
1220.93506714,0.02465234
1222.86387451,0.02469958
1224.79268188,0.02513688
1226.72148926,0.02539880
1228.65029663,0.02553870
1230.57910400,0.02555586
1232.50791138,0.02563061
1234.43671875,0.02570548
1236.36552612,0.02554424
1238.29433350,0.02566924
1240.22314087,0.02545769
1242.15194824,0.02524473
1244.08075562,0.02532094
1246.00956299,0.02512515
1247.93837036,0.02489055
1249.86717773,0.02458591
1251.79598511,0.02444361
1253.72479248,0.02419611
1255.65359985,0.02415924
1257.58240723,0.02396041
1259.51121460,0.02310853
1261.44002197,0.02282452
1263.36882935,0.02262042
1265.29763672,0.02224839
1267.22644409,0.02206577
1269.15525146,0.02189566
1271.08405884,0.02152129
1273.01286621,0.02094483
1274.94167358,0.02075927
1276.87048096,0.02045342
1278.79928833,0.02002072
1280.72809570,0.01960482
1282.65690308,0.01904365
1284.58571045,0.01883185
1286.51451782,0.01848889
1288.44332520,0.01794246
1290.37213257,0.01781630
1292.30093994,0.01771722
1294.22974731,0.01747340
1296.15855469,0.01756733
1298.08736206,0.01758104
1300.01616943,0.01738176
1301.94497681,0.01746922
1303.87378418,0.01770949
1305.80259155,0.01788963
1307.73139893,0.01812008
1309.66020630,0.01835747
1311.58901367,0.01832414
1313.51782104,0.01878607
1315.44662842,0.01955381
1317.37543579,0.01975279
1319.30424316,0.02014579
1321.23305054,0.02092049
1323.16185791,0.02159271
1325.09066528,0.02207310
1327.01947266,0.02286030
1328.94828003,0.02343746
1330.87708740,0.02379180
1332.80589478,0.02451392
1334.73470215,0.02468299
1336.66350952,0.02493754
1338.59231689,0.02470689
1340.52112427,0.02473464
1342.44993164,0.02617678
1344.37873901,0.02632278
1346.30754639,0.02619627
1348.23635376,0.02607438
1350.16516113,0.02570420
1352.09396851,0.02605322
1354.02277588,0.02559304
1355.95158325,0.02541416
1357.88039062,0.02528417
1359.80919800,0.02470769
1361.73800537,0.02354123
1363.66681274,0.02299287
1365.59562012,0.02460624
1367.52442749,0.02403736
1369.45323486,0.02370447
1371.38204224,0.02433626
1373.31084961,0.02265536
1375.23965698,0.02283857
1377.16846436,0.02350401
1379.09727173,0.02327125
1381.02607910,0.02348543
1382.95488647,0.02351613
1384.88369385,0.02332981
1386.81250122,0.02208618
1388.74130859,0.02236650
1390.67011597,0.02452559
1392.59892334,0.02390078
1394.52773071,0.02195624
1396.45653809,0.02329614
1398.38534546,0.02319120
1400.31415283,0.02316117
1402.24296021,0.02527758
1404.17176758,0.02317560
1406.10057495,0.02364797
1408.02938232,0.02487385
1409.95818970,0.02372845
1411.88699707,0.02431340
1413.81580444,0.02327348
1415.74461182,0.02390084
1417.67341919,0.02100811
1419.60222656,0.01854051
1421.53103394,0.02216172
1423.45984131,0.02129070
1425.38864868,0.02069349
1427.31745605,0.02117302
1429.24626343,0.01927789
1431.17507080,0.01856699
1433.10387817,0.01923101
1435.03268555,0.01729607
1436.96149292,0.01424428
1438.89030029,0.01695906
1440.81910767,0.01730166
1442.74791504,0.01589367
1444.67672241,0.01699652
1446.60552979,0.01535462
1448.53433716,0.01556089
1450.46314453,0.01622028
1452.39195190,0.01661402
1454.32075928,0.01698282
1456.24956665,0.01335790
1458.17837402,0.01399914
1460.10718140,0.01953878
1462.03598877,0.02099551
1463.96479614,0.02038734
1465.89360352,0.02109467
1467.82241089,0.02464704
1469.75121826,0.02629218
1471.68002563,0.02250853
1473.60883301,0.02376598
1475.53764038,0.02728307
1477.46644775,0.02975377
1479.39525513,0.03318101
1481.32406250,0.03326115
1483.25286987,0.03535021
1485.18167725,0.03623790
1487.11048462,0.03520014
1489.03929199,0.03439350
1490.96809937,0.03455477
1492.89690674,0.04158407
1494.82571411,0.03992094
1496.75452148,0.03501221
1498.68332886,0.04044998
1500.61213623,0.04176455
1502.54094360,0.04534982
1504.46975098,0.04212993
1506.39855835,0.02849699
1508.32736572,0.03622527
1510.25617310,0.04363284
1512.18498047,0.04221691
1514.11378784,0.04626544
1516.04259521,0.04058066
1517.97140259,0.04260673
1519.90020996,0.04092440
1521.82901733,0.03453077
1523.75782471,0.04381520
1525.68663208,0.04266965
1527.61543945,0.04284132
1529.54424683,0.04825043
1531.47305420,0.04572446
1533.40186157,0.04107541
1535.33066895,0.04439486
1537.25947632,0.04802143
1539.18828369,0.03194459
1541.11709106,0.03406730
1543.04589844,0.04187723
1544.97470581,0.03987835
1546.90351318,0.04896826
1548.83232056,0.04477351
1550.76112793,0.04667103
1552.68993530,0.04621012
1554.61874268,0.04117689
1556.54755005,0.04440773
1558.47635742,0.02875179
1560.40516479,0.03249710
1562.33397217,0.04906650
1564.26277954,0.04570171
1566.19158691,0.04756681
1568.12039429,0.04657830
1570.04920166,0.04034336
1571.97800903,0.04816294
1573.90681641,0.04860230
1575.83562378,0.03681777
1577.76443115,0.04316429
1579.69323853,0.04966745
1581.62204590,0.04690215
1583.55085327,0.04827982
1585.47966064,0.04732375
1587.40846802,0.04777859
1589.33727539,0.04721787
1591.26608276,0.04714718
1593.19489014,0.04726081
1595.12369751,0.04649997
1597.05250488,0.04731248
1598.98131226,0.04696205
1600.91011963,0.04734924
1602.83892700,0.04636315
1604.76773437,0.04716219
1606.69654175,0.04638826
1608.62534912,0.04613917
1610.55415649,0.04613812
1612.48296387,0.04646878
1614.41177124,0.04692313
1616.34057861,0.03714294
1618.26938599,0.04114611
1620.19819336,0.04905368
1622.12700073,0.04243577
1624.05580811,0.04261063
1625.98461548,0.04536067
1627.91342285,0.04487274
1629.84223022,0.04480828
1631.77103760,0.04853602
1633.69984497,0.04369456
1635.62865234,0.03473142
1637.55745972,0.04168349
1639.48626709,0.04694609
1641.41507446,0.04575458
1643.34388184,0.04690434
1645.27268921,0.04135444
1647.20149658,0.03510005
1649.13030396,0.04590726
1651.05911133,0.04302342
1652.98791870,0.02492018
1654.91672607,0.03681391
1656.84553345,0.04767031
1658.77434082,0.04540940
1660.70314819,0.04681834
1662.63195557,0.04151843
1664.56076294,0.04432293
1666.48957031,0.04794078
1668.41837769,0.04034068
1670.34718506,0.03901793
1672.27599243,0.04561187
1674.20479980,0.04118545
1676.13360718,0.03913305
1678.06241455,0.04631948
1679.99122192,0.04410536
1681.92002930,0.04312835
1683.84883667,0.03352480
1685.77764404,0.03388575
1687.70645142,0.04841757
1689.63525879,0.04059105
1691.56406616,0.04602697
1693.49287354,0.04630876
1695.42168091,0.03198222
1697.35048828,0.04124599
1699.27929565,0.03461028
1701.20810303,0.03103032
1703.13691040,0.04478222
1705.06571777,0.04016218
1706.99452515,0.04090405
1708.92333252,0.04496733
1710.85213989,0.04305612
1712.78094727,0.04371786
1714.70975464,0.03985420
1716.63856201,0.03520382
1718.56736938,0.03435015
1720.49617676,0.04238835
1722.42498413,0.04436421
1724.35379150,0.04068538
1726.28259888,0.04520479
1728.21140625,0.04091702
1730.14021362,0.04131421
1732.06902100,0.04007130
1733.99782837,0.02883525
1735.92663574,0.03800624
1737.85544312,0.04256949
1739.78425049,0.03704294
1741.71305786,0.04097831
1743.64186523,0.04147419
1745.57067261,0.04145914
1747.49947998,0.04183923
1749.42828735,0.03957087
1751.35709473,0.03748732
1753.28590210,0.04267256
1755.21470947,0.04459849
1757.14351685,0.03993791
1759.07232422,0.04508733
1761.00113159,0.04170567
1762.92993896,0.04010353
1764.85874634,0.04703673
1766.78755371,0.04150362
1768.71636108,0.04180992
1770.64516846,0.04130088
1772.57397583,0.03652997
1774.50278320,0.04177692
1776.43159058,0.04449789
1778.36039795,0.04365382
1780.28920532,0.04300826
1782.21801270,0.04350643
1784.14682007,0.04347716
1786.07562744,0.04248635
1788.00443481,0.04515407
1789.93324219,0.04352732
1791.86204956,0.03836244
1793.79085693,0.04078434
1795.71966431,0.04427244
1797.64847168,0.04335967
1799.57727905,0.04271155
1801.50608643,0.04179256
1803.43489380,0.04345232
1805.36370117,0.04471308
1807.29250854,0.04397484
1809.22131592,0.04386289
1811.15012329,0.04258874
1813.07893066,0.04434512
1815.00773804,0.04437755
1816.93654541,0.04382425
1818.86535278,0.04426895
1820.79416016,0.04395462
1822.72296753,0.04461145
1824.65177490,0.04117566
1826.58058228,0.04307746
1828.50938965,0.04301018
1830.43819702,0.03978621
1832.36700439,0.04424583
1834.29581177,0.04384481
1836.22461914,0.04363620
1838.15342651,0.04359584
1840.08223389,0.04381268
1842.01104126,0.04374806
1843.93984863,0.03799505
1845.86865601,0.04108652
1847.79746338,0.04373599
1849.72627075,0.04260102
1851.65507812,0.04410796
1853.58388550,0.04284979
1855.51269287,0.04348449
1857.44150024,0.04320364
1859.37030762,0.04281978
1861.29911499,0.04324747
1863.22792236,0.04247204
1865.15672974,0.04321949
1867.08553711,0.04139586
1869.01434448,0.03905597
1870.94315186,0.04116888
1872.87195923,0.04305810
1874.80076660,0.04207986
1876.72957397,0.04240351
1878.65838135,0.04235978
1880.58718872,0.04199768
1882.51599609,0.04256478
1884.44480347,0.04159674
1886.37361084,0.04211571
1888.30241821,0.04112181
1890.23122559,0.04002303
1892.16003296,0.04201023
1894.08884033,0.04116839
1896.01764771,0.04079808
1897.94645508,0.04160482
1899.87526245,0.04127210
1901.80406982,0.04142501
1903.73287720,0.04102732
1905.66168457,0.04116938
1907.59049194,0.04066418
1909.51929932,0.04032186
1911.44810669,0.04067521
1913.37691406,0.04059951
1915.30572144,0.04098684
1917.23452881,0.03873981
1919.16333618,0.03899162
1921.09214355,0.04091477
1923.02095093,0.03904141
1924.94975830,0.03997950
1926.87856567,0.04051147
1928.80737305,0.03994781
1930.73618042,0.04046316
1932.66498779,0.03972227
1934.59379517,0.04026866
1936.52260254,0.03979257
1938.45140991,0.04008202
1940.38021729,0.04003658
1942.30902466,0.03825915
1944.23783203,0.03925774
1946.16663940,0.03959912
1948.09544678,0.03946448
1950.02425415,0.03972393
1951.95306152,0.03948656
1953.88186890,0.03953249
1955.81067627,0.03922192
1957.73948364,0.03944770
1959.66829102,0.03926481
1961.59709839,0.03893885
1963.52590576,0.03912730
1965.45471313,0.03877764
1967.38352051,0.03832053
1969.31232788,0.03872319
1971.24113525,0.03898094
1973.16994263,0.03862432
1975.09875000,0.03875110
1977.02755737,0.03850359
1978.95636475,0.03850099
1980.88517212,0.03855943
1982.81397949,0.03829500
1984.74278687,0.03841844
1986.67159424,0.03805517
1988.60040161,0.03796761
1990.52920898,0.03756186
1992.45801636,0.03700570
1994.38682373,0.03762765
1996.31563110,0.03779627
1998.24443848,0.03738997
2000.17324585,0.03748821
2002.10205322,0.03744914
2004.03086060,0.03721357
2005.95966797,0.03718568
2007.88847534,0.03701127
2009.81728271,0.03694019
2011.74609009,0.03689596
2013.67489746,0.03683358
2015.60370483,0.03644691
2017.53251221,0.03605451
2019.46131958,0.03640056
2021.39012695,0.03632381
2023.31893433,0.03611767
2025.24774170,0.03604284
2027.17654907,0.03599932
2029.10535645,0.03604810
2031.03416382,0.03569753
2032.96297119,0.03570017
2034.89177856,0.03563256
2036.82058594,0.03541427
2038.74939331,0.03539704
2040.67820068,0.03513747
2042.60700806,0.03503010
2044.53581543,0.03502786
2046.46462280,0.03480753
2048.39343018,0.03482326
2050.32223755,0.03492799
2052.25104492,0.03462208
2054.17985229,0.03445332
2056.10865967,0.03433650
2058.03746704,0.03423377
2059.96627441,0.03419264
2061.89508179,0.03416719
2063.82388916,0.03406155
2065.75269653,0.03368625
2067.68150391,0.03391443
2069.61031128,0.03385113
2071.53911865,0.03360323
2073.46792603,0.03379538
2075.39673340,0.03354906
2077.32554077,0.03335370
2079.25434814,0.03320616
2081.18315552,0.03318333
2083.11196289,0.03310628
2085.04077026,0.03302853
2086.96957764,0.03298298
2088.89838501,0.03274227
2090.82719238,0.03276845
2092.75599976,0.03258475
2094.68480713,0.03258465
2096.61361450,0.03257940
2098.54242187,0.03237923
2100.47122925,0.03244345
2102.40003662,0.03230768
2104.32884399,0.03214724
2106.25765137,0.03213087
2108.18645874,0.03213689
2110.11526611,0.03197159
2112.04407349,0.03188955
2113.97288086,0.03182660
2115.90168823,0.03183047
2117.83049561,0.03178765
2119.75930298,0.03154783
2121.68811035,0.03161621
2123.61691772,0.03144484
2125.54572510,0.03142719
2127.47453247,0.03133168
2129.40333984,0.03108795
2131.33214722,0.03127817
2133.26095459,0.03118562
2135.18976196,0.03118045
2137.11856934,0.03100828
2139.04737671,0.03083242
2140.97618408,0.03095089
2142.90499146,0.03087121
2144.83379883,0.03082946
2146.76260620,0.03071081
2148.69141357,0.03059544
2150.62022095,0.03056017
2152.54902832,0.03057462
2154.47783569,0.03042901
2156.40664307,0.03041948
2158.33545044,0.03048232
2160.26425781,0.03034622
2162.19306519,0.03039771
2164.12187256,0.03021624
2166.05067993,0.03010188
2167.97948730,0.03006249
2169.90829468,0.02999751
2171.83710205,0.03009918
2173.76590942,0.02997002
2175.69471680,0.02993713
2177.62352417,0.02993955
2179.55233154,0.02988949
2181.48113892,0.02985120
2183.40994629,0.02969923
2185.33875366,0.02962279
2187.26756104,0.02961733
2189.19636841,0.02952138
2191.12517578,0.02953686
2193.05398315,0.02957588
2194.98279053,0.02936596
2196.91159790,0.02929862
2198.84040527,0.02922538
2200.76921265,0.02921451
2202.69802002,0.02923683
2204.62682739,0.02910687
2206.55563477,0.02919758
2208.48444214,0.02913933
2210.41324951,0.02904239
2212.34205688,0.02907139
2214.27086426,0.02894757
2216.19967163,0.02882038
2218.12847900,0.02883239
2220.05728638,0.02874369
2221.98609375,0.02869675
2223.91490112,0.02876915
2225.84370850,0.02850761
2227.77251587,0.02847666
2229.70132324,0.02854526
2231.63013062,0.02846100
2233.55893799,0.02842569
2235.48774536,0.02832345
2237.41655273,0.02840281
2239.34536011,0.02826454
2241.27416748,0.02816569
2243.20297485,0.02815009
2245.13178223,0.02797736
2247.06058960,0.02786594
2248.98939697,0.02788216
2250.91820435,0.02811007
2252.84701172,0.02793068
2254.77581909,0.02775330
2256.70462646,0.02771928
2258.63343384,0.02750908
2260.56224121,0.02751561
2262.49104858,0.02756872
2264.41985596,0.02757497
2266.34866333,0.02743746
2268.27747070,0.02744353
2270.20627808,0.02744746
2272.13508545,0.02720636
2274.06389282,0.02718986
2275.99270020,0.02723210
2277.92150757,0.02717241
2279.85031494,0.02713524
2281.77912231,0.02714318
2283.70792969,0.02709050
2285.63673706,0.02699632
2287.56554443,0.02690790
2289.49435181,0.02682241
2291.42315918,0.02676355
2293.35196655,0.02666987
2295.28077393,0.02655891
2297.20958130,0.02653506
2299.13838867,0.02647754
2301.06719604,0.02623841
2302.99600342,0.02616912
2304.92481079,0.02603107
2306.85361816,0.02582858
2308.78242554,0.02574466
2310.71123291,0.02540842
2312.64004028,0.02514290
2314.56884766,0.02499003
2316.49765503,0.02477129
2318.42646240,0.02442190
2320.35526978,0.02417379
2322.28407715,0.02386874
2324.21288452,0.02341129
2326.14169189,0.02331756
2328.07049927,0.02303474
2329.99930664,0.02273314
2331.92811401,0.02259316
2333.85692139,0.02243649
2335.78572876,0.02236459
2337.71453613,0.02224692
2339.64334351,0.02236077
2341.57215088,0.02240434
2343.50095825,0.02249504
2345.42976562,0.02288871
2347.35857300,0.02386612
2349.28738037,0.02459205
2351.21618774,0.02379146
2353.14499512,0.02276536
2355.07380249,0.02194117
2357.00260986,0.02120306
2358.93141724,0.02089737
2360.86022461,0.02074771
2362.78903198,0.02069341
2364.71783936,0.02068860
2366.64664673,0.02096077
2368.57545410,0.02139712
2370.50426147,0.02188136
2372.43306885,0.02232977
2374.36187622,0.02280897
2376.29068359,0.02339623
2378.21949097,0.02385361
2380.14829834,0.02424264
2382.07710571,0.02434536
2384.00591309,0.02441494
2385.93472046,0.02460105
2387.86352783,0.02453406
2389.79233521,0.02442108
2391.72114258,0.02446574
2393.64994995,0.02435722
2395.57875732,0.02414139
2397.50756470,0.02424426
2399.43637207,0.02427895
2401.36517944,0.02410508
2403.29398682,0.02406589
2405.22279419,0.02413637
2407.15160156,0.02414360
2409.08040894,0.02404745
2411.00921631,0.02393366
2412.93802368,0.02389386
2414.86683105,0.02395394
2416.79563843,0.02381326
2418.72444580,0.02376013
2420.65325317,0.02383825
2422.58206055,0.02374841
2424.51086792,0.02373124
2426.43967529,0.02367321
2428.36848267,0.02353653
2430.29729004,0.02344932
2432.22609741,0.02353691
2434.15490479,0.02350419
2436.08371216,0.02335038
2438.01251953,0.02334076
2439.94132690,0.02327335
2441.87013428,0.02328919
2443.79894165,0.02315726
2445.72774902,0.02304669
2447.65655640,0.02314482
2449.58536377,0.02304795
2451.51417114,0.02290388
2453.44297852,0.02287802
2455.37178589,0.02290046
2457.30059326,0.02291360
2459.22940063,0.02298531
2461.15820801,0.02277554
2463.08701538,0.02260823
2465.01582275,0.02275364
2466.94463013,0.02263245
2468.87343750,0.02258263
2470.80224487,0.02257290
2472.73105225,0.02251516
2474.65985962,0.02253402
2476.58866699,0.02244369
2478.51747437,0.02245005
2480.44628174,0.02229622
2482.37508911,0.02219944
2484.30389648,0.02241710
2486.23270386,0.02224035
2488.16151123,0.02208278
2490.09031860,0.02226776
2492.01912598,0.02214567
2493.94793335,0.02205575
2495.87674072,0.02193410
2497.80554810,0.02174156
2499.73435547,0.02186463
2501.66316284,0.02190605
2503.59197021,0.02187204
2505.52077759,0.02175411
2507.44958496,0.02177038
2509.37839233,0.02173923
2511.30719971,0.02155353
2513.23600708,0.02166594
2515.16481445,0.02152712
2517.09362183,0.02146585
2519.02242920,0.02146682
2520.95123657,0.02133250
2522.88004395,0.02145161
2524.80885132,0.02127975
2526.73765869,0.02123964
2528.66646606,0.02137044
2530.59527344,0.02118069
2532.52408081,0.02111217
2534.45288818,0.02109992
2536.38169556,0.02095038
2538.31050293,0.02093015
2540.23931030,0.02103432
2542.16811768,0.02094937
2544.09692505,0.02082289
2546.02573242,0.02084363
2547.95453979,0.02078734
2549.88334717,0.02065838
2551.81215454,0.02068545
2553.74096191,0.02063975
2555.66976929,0.02050732
2557.59857666,0.02049853
2559.52738403,0.02042281
2561.45619141,0.02046857
2563.38499878,0.02042454
2565.31380615,0.02027887
2567.24261353,0.02035039
2569.17142090,0.02029476
2571.10022827,0.02029708
2573.02903564,0.02023965
2574.95784302,0.02004069
2576.88665039,0.02006077
2578.81545776,0.01999352
2580.74426514,0.01991396
2582.67307251,0.01995515
2584.60187988,0.01991536
2586.53068726,0.01990830
2588.45949463,0.01983549
2590.38830200,0.01964411
2592.31710937,0.01966310
2594.24591675,0.01980090
2596.17472412,0.01967552
2598.10353149,0.01951236
2600.03233887,0.01952470
2601.96114624,0.01942535
2603.88995361,0.01938201
2605.81876099,0.01942563
2607.74756836,0.01941269
2609.67637573,0.01935045
2611.60518311,0.01921040
2613.53399048,0.01937000
2615.46279785,0.01928445
2617.39160522,0.01905196
2619.32041260,0.01917709
2621.24921997,0.01905740
2623.17802734,0.01899979
2625.10683472,0.01886272
2627.03564209,0.01883068
2628.96444946,0.01896581
2630.89325684,0.01877232
2632.82206421,0.01881075
2634.75087158,0.01874098
2636.67967895,0.01867558
2638.60848633,0.01865267
2640.53729370,0.01854398
2642.46610107,0.01866048
2644.39490845,0.01851566
2646.32371582,0.01846019
2648.25252319,0.01849986
2650.18133057,0.01842283
2652.11013794,0.01838107
2654.03894531,0.01824617
2655.96775269,0.01813359
2657.89656006,0.01817600
2659.82536743,0.01827330
2661.75417480,0.01808410
2663.68298218,0.01801528
2665.61178955,0.01804203
2667.54059692,0.01791201
2669.46940430,0.01786624
2671.39821167,0.01779253
2673.32701904,0.01779670
2675.25582642,0.01776669
2677.18463379,0.01774817
2679.11344116,0.01768624
2681.04224854,0.01756031
2682.97105591,0.01758721
2684.89986328,0.01751328
2686.82867065,0.01743283
2688.75747803,0.01744934
2690.68628540,0.01741811
2692.61509277,0.01729788
2694.54390015,0.01725770
2696.47270752,0.01720860
2698.40151489,0.01713130
2700.33032227,0.01713354
2702.25912964,0.01701567
2704.18793701,0.01699826
2706.11674438,0.01698006
2708.04555176,0.01691042
2709.97435913,0.01689132
2711.90316650,0.01684508
2713.83197388,0.01682759
2715.76078125,0.01670036
2717.68958862,0.01667920
2719.61839600,0.01669206
2721.54720337,0.01658298
2723.47601074,0.01648120
2725.40481812,0.01644662
2727.33362549,0.01648349
2729.26243286,0.01647171
2731.19124023,0.01644612
2733.12004761,0.01628887
2735.04885498,0.01629612
2736.97766235,0.01632283
2738.90646973,0.01614532
2740.83527710,0.01624164
2742.76408447,0.01608697
2744.69289185,0.01588723
2746.62169922,0.01607584
2748.55050659,0.01600520
2750.47931396,0.01592501
2752.40812134,0.01594725
2754.33692871,0.01581148
2756.26573608,0.01568829
2758.19454346,0.01564037
2760.12335083,0.01567408
2762.05215820,0.01562751
2763.98096558,0.01556647
2765.90977295,0.01553596
2767.83858032,0.01549255
2769.76738770,0.01546580
2771.69619507,0.01533442
2773.62500244,0.01533712
2775.55380981,0.01527805
2777.48261719,0.01512319
2779.41142456,0.01507708
2781.34023193,0.01499983
2783.26903931,0.01511197
2785.19784668,0.01500876
2787.12665405,0.01486754
2789.05546143,0.01500986
2790.98426880,0.01494878
2792.91307617,0.01483718
2794.84188354,0.01476444
2796.77069092,0.01473953
2798.69949829,0.01464948
2800.62830566,0.01454608
2802.55711304,0.01452648
2804.48592041,0.01458486
2806.41472778,0.01460091
2808.34353516,0.01437336
2810.27234253,0.01435050
2812.20114990,0.01427984
2814.12995728,0.01428801
2816.05876465,0.01429956
2817.98757202,0.01405616
2819.91637939,0.01411388
2821.84518677,0.01396446
2823.77399414,0.01399475
2825.70280151,0.01404287
2827.63160889,0.01377611
2829.56041626,0.01386241
2831.48922363,0.01373904
2833.41803101,0.01371748
2835.34683838,0.01371125
2837.27564575,0.01346399
2839.20445312,0.01356000
2841.13326050,0.01359934
2843.06206787,0.01344455
2844.99087524,0.01336878
2846.91968262,0.01332201
2848.84848999,0.01319250
2850.77729736,0.01324216
2852.70610474,0.01325124
2854.63491211,0.01314155
2856.56371948,0.01321500
2858.49252686,0.01311392
2860.42133423,0.01306548
2862.35014160,0.01310618
2864.27894897,0.01303822
2866.20775635,0.01293636
2868.13656372,0.01287791
2870.06537109,0.01301389
2871.99417847,0.01285633
2873.92298584,0.01268961
2875.85179321,0.01285047
2877.78060059,0.01274124
2879.70940796,0.01257427
2881.63821533,0.01256985
2883.56702270,0.01247352
2885.49583008,0.01242785
2887.42463745,0.01243661
2889.35344482,0.01235434
2891.28225220,0.01231453
2893.21105957,0.01226739
2895.13986694,0.01221223
2897.06867432,0.01228290
2898.99748169,0.01230307
2900.92628906,0.01228127
2902.85509644,0.01221905
2904.78390381,0.01203786
2906.71271118,0.01197443
2908.64151855,0.01196062
2910.57032593,0.01194067
2912.49913330,0.01197556
2914.42794067,0.01191139
2916.35674805,0.01187509
2918.28555542,0.01184150
2920.21436279,0.01180213
2922.14317017,0.01181252
2924.07197754,0.01176963
2926.00078491,0.01179148
2927.92959229,0.01178534
2929.85839966,0.01175325
2931.78720703,0.01177562
2933.71601440,0.01176813
2935.64482178,0.01163095
2937.57362915,0.01154791
2939.50243652,0.01162657
2941.43124390,0.01144343
2943.36005127,0.01138554
2945.28885864,0.01146805
2947.21766602,0.01138141
2949.14647339,0.01143100
2951.07528076,0.01133423
2953.00408813,0.01135202
2954.93289551,0.01141995
2956.86170288,0.01122009
2958.79051025,0.01112684
2960.71931763,0.01107269
2962.64812500,0.01110981
2964.57693237,0.01106912
2966.50573975,0.01106395
2968.43454712,0.01114088
2970.36335449,0.01092960
2972.29216187,0.01096455
2974.22096924,0.01107412
2976.14977661,0.01092791
2978.07858398,0.01090252
2980.00739136,0.01088000
2981.93619873,0.01085194
2983.86500610,0.01084334
2985.79381348,0.01082488
2987.72262085,0.01078921
2989.65142822,0.01079020
2991.58023560,0.01086008
2993.50904297,0.01068855
2995.43785034,0.01062822
2997.36665771,0.01069204
2999.29546509,0.01057194
3001.22427246,0.01066559
3003.15307983,0.01063222
3005.08188721,0.01046203
3007.01069458,0.01048407
3008.93950195,0.01042723
3010.86830933,0.01040834
3012.79711670,0.01038704
3014.72592407,0.01031321
3016.65473145,0.01029056
3018.58353882,0.01024854
3020.51234619,0.01018127
3022.44115356,0.01013041
3024.36996094,0.01012303
3026.29876831,0.01011408
3028.22757568,0.01011780
3030.15638306,0.01009679
3032.08519043,0.01004450
3034.01399780,0.00997198
3035.94280518,0.00999260
3037.87161255,0.01004390
3039.80041992,0.00993745
3041.72922729,0.00986317
3043.65803467,0.00984364
3045.58684204,0.00984434
3047.51564941,0.00975091
3049.44445679,0.00967078
3051.37326416,0.00972254
3053.30207153,0.00967296
3055.23087891,0.00964779
3057.15968628,0.00962454
3059.08849365,0.00969085
3061.01730103,0.00968957
3062.94610840,0.00949115
3064.87491577,0.00949444
3066.80372314,0.00946820
3068.73253052,0.00942249
3070.66133789,0.00946726
3072.59014526,0.00946905
3074.51895264,0.00945466
3076.44776001,0.00936336
3078.37656738,0.00933769
3080.30537476,0.00931376
3082.23418213,0.00926087
3084.16298950,0.00933354
3086.09179687,0.00931400
3088.02060425,0.00920955
3089.94941162,0.00925523
3091.87821899,0.00920526
3093.80702637,0.00916398
3095.73583374,0.00925833
3097.66464111,0.00917466
3099.59344849,0.00911153
3101.52225586,0.00906258
3103.45106323,0.00907577
3105.37987061,0.00913839
3107.30867798,0.00900334
3109.23748535,0.00896347
3111.16629272,0.00899199
3113.09510010,0.00895016
3115.02390747,0.00887676
3116.95271484,0.00890632
3118.88152222,0.00886456
3120.81032959,0.00877209
3122.73913696,0.00887640
3124.66794434,0.00874702
3126.59675171,0.00870940
3128.52555908,0.00879969
3130.45436645,0.00876703
3132.38317383,0.00876541
3134.31198120,0.00858612
3136.24078857,0.00866425
3138.16959595,0.00874517
3140.09840332,0.00856804
3142.02721069,0.00858374
3143.95601807,0.00857834
3145.88482544,0.00854778
3147.81363281,0.00854644
3149.74244019,0.00854136
3151.67124756,0.00851643
3153.60005493,0.00845484
3155.52886230,0.00845374
3157.45766968,0.00850320
3159.38647705,0.00854075
3161.31528442,0.00846690
3163.24409180,0.00840126
3165.17289917,0.00842244
3167.10170654,0.00845542
3169.03051392,0.00839003
3170.95932129,0.00829343
3172.88812866,0.00832007
3174.81693604,0.00830163
3176.74574341,0.00824043
3178.67455078,0.00825340
3180.60335815,0.00821922
3182.53216553,0.00817460
3184.46097290,0.00820767
3186.38978027,0.00807406
3188.31858765,0.00805546
3190.24739502,0.00827084
3192.17620239,0.00814096
3194.10500977,0.00805774
3196.03381714,0.00812880
3197.96262451,0.00801476
3199.89143188,0.00804574
3201.82023926,0.00810811
3203.74904663,0.00806561
3205.67785400,0.00804337
3207.60666138,0.00803953
3209.53546875,0.00803069
3211.46427612,0.00801277
3213.39308350,0.00799420
3215.32189087,0.00795144
3217.25069824,0.00794799
3219.17950562,0.00798575
3221.10831299,0.00799322
3223.03712036,0.00797409
3224.96592773,0.00801562
3226.89473511,0.00798151
3228.82354248,0.00791726
3230.75234985,0.00798807
3232.68115723,0.00800997
3234.60996460,0.00804012
3236.53877197,0.00802347
3238.46757935,0.00794943
3240.39638672,0.00791064
3242.32519409,0.00793358
3244.25400146,0.00806329
3246.18280884,0.00795100
3248.11161621,0.00786566
3250.04042358,0.00796710
3251.96923096,0.00791795
3253.89803833,0.00794115
3255.82684570,0.00799573
3257.75565308,0.00797818
3259.68446045,0.00793261
3261.61326782,0.00791266
3263.54207520,0.00799469
3265.47088257,0.00796840
3267.39968994,0.00792992
3269.32849731,0.00797008
3271.25730469,0.00789665
3273.18611206,0.00789351
3275.11491943,0.00793699
3277.04372681,0.00782532
3278.97253418,0.00787828
3280.90134155,0.00796102
3282.83014893,0.00787437
3284.75895630,0.00791151
3286.68776367,0.00792258
3288.61657104,0.00791713
3290.54537842,0.00791332
3292.47418579,0.00780458
3294.40299316,0.00787512
3296.33180054,0.00792052
3298.26060791,0.00780350
3300.18941528,0.00786768
3302.11822266,0.00793056
3304.04703003,0.00786241
3305.97583740,0.00788418
3307.90464478,0.00789204
3309.83345215,0.00782612
3311.76225952,0.00780724
3313.69106689,0.00793365
3315.61987427,0.00796304
3317.54868164,0.00781297
3319.47748901,0.00792572
3321.40629639,0.00794170
3323.33510376,0.00781185
3325.26391113,0.00792052
3327.19271851,0.00787024
3329.12152588,0.00780448
3331.05033325,0.00785481
3332.97914062,0.00786024
3334.90794800,0.00786411
3336.83675537,0.00784368
3338.76556274,0.00783782
3340.69437012,0.00784013
3342.62317749,0.00791039
3344.55198486,0.00783339
3346.48079224,0.00779692
3348.40959961,0.00788821
3350.33840698,0.00779600
3352.26721436,0.00784466
3354.19602173,0.00786811
3356.12482910,0.00787857
3358.05363647,0.00789122
3359.98244385,0.00773199
3361.91125122,0.00780740
3363.84005859,0.00783030
3365.76886597,0.00783443
3367.69767334,0.00788030
3369.62648071,0.00781148
3371.55528809,0.00786562
3373.48409546,0.00777457
3375.41290283,0.00773819
3377.34171020,0.00780144
3379.27051758,0.00780752
3381.19932495,0.00789513
3383.12813232,0.00782191
3385.05693970,0.00774140
3386.98574707,0.00780484
3388.91455444,0.00790064
3390.84336182,0.00784377
3392.77216919,0.00773245
3394.70097656,0.00781396
3396.62978394,0.00780701
3398.55859131,0.00778678
3400.48739868,0.00781884
3402.41620605,0.00773043
3404.34501343,0.00774431
3406.27382080,0.00789892
3408.20262817,0.00790537
3410.13143555,0.00779481
3412.06024292,0.00777876
3413.98905029,0.00779718
3415.91785767,0.00780696
3417.84666504,0.00775614
3419.77547241,0.00776125
3421.70427979,0.00778275
3423.63308716,0.00775333
3425.56189453,0.00781074
3427.49070190,0.00772927
3429.41950928,0.00775292
3431.34831665,0.00776891
3433.27712402,0.00764012
3435.20593140,0.00781373
3437.13473877,0.00780624
3439.06354614,0.00770235
3440.99235352,0.00774071
3442.92116089,0.00763054
3444.84996826,0.00765333
3446.77877563,0.00765532
3448.70758301,0.00764449
3450.63639038,0.00771732
3452.56519775,0.00762492
3454.49400513,0.00764437
3456.42281250,0.00768028
3458.35161987,0.00765726
3460.28042725,0.00769034
3462.20923462,0.00761208
3464.13804199,0.00768784
3466.06684937,0.00769685
3467.99565674,0.00760266
3469.92446411,0.00765098
3471.85327148,0.00758969
3473.78207886,0.00763486
3475.71088623,0.00757398
3477.63969360,0.00751207
3479.56850098,0.00754928
3481.49730835,0.00740807
3483.42611572,0.00748059
3485.35492310,0.00742996
3487.28373047,0.00745285
3489.21253784,0.00756526
3491.14134521,0.00739696
3493.07015259,0.00750341
3494.99895996,0.00750860
3496.92776733,0.00741608
3498.85657471,0.00754479
3500.78538208,0.00749228
3502.71418945,0.00727962
3504.64299683,0.00734605
3506.57180420,0.00748901
3508.50061157,0.00723623
3510.42941895,0.00726120
3512.35822632,0.00745385
3514.28703369,0.00738945
3516.21584106,0.00739961
3518.14464844,0.00736185
3520.07345581,0.00741272
3522.00226318,0.00734842
3523.93107056,0.00715510
3525.85987793,0.00720750
3527.78868530,0.00721704
3529.71749268,0.00723036
3531.64630005,0.00732282
3533.57510742,0.00731555
3535.50391479,0.00725360
3537.43272217,0.00723718
3539.36152954,0.00731677
3541.29033691,0.00734167
3543.21914429,0.00724959
3545.14795166,0.00698969
3547.07675903,0.00685087
3549.00556641,0.00722131
3550.93437378,0.00728390
3552.86318115,0.00701158
3554.79198853,0.00716582
3556.72079590,0.00723814
3558.64960327,0.00717179
3560.57841064,0.00712943
3562.50721802,0.00703745
3564.43602539,0.00698250
3566.36483276,0.00653118
3568.29364014,0.00637184
3570.22244751,0.00703751
3572.15125488,0.00717295
3574.08006226,0.00701426
3576.00886963,0.00720061
3577.93767700,0.00699782
3579.86648437,0.00697714
3581.79529175,0.00706483
3583.72409912,0.00703496
3585.65290649,0.00692543
3587.58171387,0.00625096
3589.51052124,0.00643205
3591.43932861,0.00715237
3593.36813599,0.00692935
3595.29694336,0.00656881
3597.22575073,0.00680403
3599.15455811,0.00689927
3601.08336548,0.00669057
3603.01217285,0.00692931
3604.94098022,0.00702354
3606.86978760,0.00681503
3608.79859497,0.00629822
3610.72740234,0.00643514
3612.65620972,0.00667545
3614.58501709,0.00624388
3616.51382446,0.00699272
3618.44263184,0.00635381
3620.37143921,0.00602945
3622.30024658,0.00712013
3624.22905395,0.00681951
3626.15786133,0.00716272
3628.08666870,0.00580645
3630.01547607,0.00528813
3631.94428345,0.00699237
3633.87309082,0.00668831
3635.80189819,0.00684069
3637.73070557,0.00693894
3639.65951294,0.00692515
3641.58832031,0.00700917
3643.51712769,0.00681779
3645.44593506,0.00696695
3647.37474243,0.00614336
3649.30354980,0.00547658
3651.23235718,0.00555542
3653.16116455,0.00694650
3655.08997192,0.00684100
3657.01877930,0.00602193
3658.94758667,0.00718658
3660.87639404,0.00693836
3662.80520142,0.00708798
3664.73400879,0.00709419
3666.66281616,0.00697020
3668.59162354,0.00682025
3670.52043091,0.00536189
3672.44923828,0.00675290
3674.37804565,0.00641270
3676.30685303,0.00499202
3678.23566040,0.00669414
3680.16446777,0.00695520
3682.09327515,0.00697656
3684.02208252,0.00742436
3685.95088989,0.00719047
3687.87969727,0.00629896
3689.80850464,0.00582126
3691.73731201,0.00673627
3693.66611938,0.00700314
3695.59492676,0.00719978
3697.52373413,0.00719624
3699.45254150,0.00712956
3701.38134888,0.00683555
3703.31015625,0.00659887
3705.23896362,0.00743877
3707.16777100,0.00703966
3709.09657837,0.00681324
3711.02538574,0.00633565
3712.95419312,0.00583063
3714.88300049,0.00698975
3716.81180786,0.00701329
3718.74061523,0.00701013
3720.66942261,0.00683669
3722.59822998,0.00668595
3724.52703735,0.00683738
3726.45584473,0.00623391
3728.38465210,0.00691844
3730.31345947,0.00687724
3732.24226685,0.00611702
3734.17107422,0.00586592
3736.09988159,0.00561284
3738.02868896,0.00591823
3739.95749634,0.00653387
3741.88630371,0.00704682
3743.81511108,0.00522874
3745.74391846,0.00475209
3747.67272583,0.00654879
3749.60153320,0.00557648
3751.53034058,0.00502480
3753.45914795,0.00590919
3755.38795532,0.00640733
3757.31676270,0.00677129
3759.24557007,0.00608267
3761.17437744,0.00624265
3763.10318481,0.00684507
3765.03199219,0.00626448
3766.96079956,0.00643652
3768.88960693,0.00636506
3770.81841431,0.00597350
3772.74722168,0.00661923
3774.67602905,0.00669298
3776.60483643,0.00667128
3778.53364380,0.00638167
3780.46245117,0.00615388
3782.39125854,0.00659706
3784.32006592,0.00636452
3786.24887329,0.00637498
3788.17768066,0.00648912
3790.10648804,0.00642862
3792.03529541,0.00639664
3793.96410278,0.00648747
3795.89291016,0.00598029
3797.82171753,0.00592205
3799.75052490,0.00637312
3801.67933228,0.00484819
3803.60813965,0.00582222
3805.53694702,0.00642328
3807.46575439,0.00507381
3809.39456177,0.00631390
3811.32336914,0.00617276
3813.25217651,0.00633984
3815.18098389,0.00558767
3817.10979126,0.00482279
3819.03859863,0.00628589
3820.96740601,0.00491155
3822.89621338,0.00529457
3824.82502075,0.00624155
3826.75382812,0.00552557
3828.68263550,0.00613598
3830.61144287,0.00585067
3832.54025024,0.00558090
3834.46905762,0.00568284
3836.39786499,0.00534631
3838.32667236,0.00481637
3840.25547974,0.00522183
3842.18428711,0.00566462
3844.11309448,0.00539642
3846.04190186,0.00589593
3847.97070923,0.00586708
3849.89951660,0.00593286
3851.82832397,0.00518272
3853.75713135,0.00358505
3855.68593872,0.00448431
3857.61474609,0.00583271
3859.54355347,0.00555772
3861.47236084,0.00556167
3863.40116821,0.00538316
3865.32997559,0.00485250
3867.25878296,0.00562707
3869.18759033,0.00504280
3871.11639770,0.00457922
3873.04520508,0.00561424
3874.97401245,0.00501378
3876.90281982,0.00559911
3878.83162720,0.00578578
3880.76043457,0.00473752
3882.68924194,0.00558225
3884.61804932,0.00506853
3886.54685669,0.00450342
3888.47566406,0.00560701
3890.40447144,0.00527629
3892.33327881,0.00486049
3894.26208618,0.00541160
3896.19089355,0.00542991
3898.11970093,0.00517026
3900.04850830,0.00486128
3901.97731567,0.00475178
3903.90612305,0.00476955
3905.83493042,0.00484261
3907.76373779,0.00534506
3909.69254517,0.00538209
3911.62135254,0.00532802
3913.55015991,0.00537209
3915.47896728,0.00516227
3917.40777466,0.00508034
3919.33658203,0.00492277
3921.26538940,0.00510560
3923.19419678,0.00519823
3925.12300415,0.00501008
3927.05181152,0.00511823
3928.98061890,0.00520730
3930.90942627,0.00501196
3932.83823364,0.00487881
3934.76704102,0.00507746
3936.69584839,0.00509005
3938.62465576,0.00512707
3940.55346313,0.00505962
3942.48227051,0.00483744
3944.41107788,0.00496920
3946.33988525,0.00499048
3948.26869263,0.00494577
3950.19750000,0.00494502
3952.12630737,0.00497844
3954.05511475,0.00506306
3955.98392212,0.00500796
3957.91272949,0.00487290
3959.84153687,0.00483404
3961.77034424,0.00489685
3963.69915161,0.00493439
3965.62795898,0.00493963
3967.55676636,0.00481101
3969.48557373,0.00481343
3971.41438110,0.00483904
3973.34318848,0.00483393
3975.27199585,0.00486858
3977.20080322,0.00475525
3979.12961060,0.00481644
3981.05841797,0.00477015
3982.98722534,0.00468139
3984.91603271,0.00474727
3986.84484009,0.00468998
3988.77364746,0.00462775
3990.70245483,0.00466356
3992.63126221,0.00472272
3994.56006958,0.00462775
3996.48887695,0.00466192
3998.41768433,0.00471539
4000.34649170,0.00463319
4002.27529907,0.00462495
4004.20410645,0.00463423
4006.13291382,0.00465515
4008.06172119,0.00462378
4009.99052856,0.00460119
4011.91933594,0.00453125
4013.84814331,0.00456613
4015.77695068,0.00461276
4017.70575806,0.00455698
4019.63456543,0.00454295
4021.56337280,0.00447946
4023.49218018,0.00455952
4025.42098755,0.00451436
4027.34979492,0.00445918
4029.27860229,0.00450648
4031.20740967,0.00444436
4033.13621704,0.00450822
4035.06502441,0.00445177
4036.99383179,0.00436588
4038.92263916,0.00439470
4040.85144653,0.00438149
4042.78025391,0.00433773
4044.70906128,0.00434841
4046.63786865,0.00440945
4048.56667603,0.00439841
4050.49548340,0.00441052
4052.42429077,0.00437378
4054.35309814,0.00430897
4056.28190552,0.00427001
4058.21071289,0.00419894
4060.13952026,0.00415374
4062.06832764,0.00424698
4063.99713501,0.00426932
4065.92594238,0.00416474
4067.85474976,0.00424939
4069.78355713,0.00414959
4071.71236450,0.00408607
4073.64117187,0.00422765
4075.56997925,0.00415662
4077.49878662,0.00418885
4079.42759399,0.00421276
4081.35640137,0.00417374
4083.28520874,0.00416627
4085.21401611,0.00408559
4087.14282349,0.00411314
4089.07163086,0.00413741
4091.00043823,0.00408425
4092.92924561,0.00404568
4094.85805298,0.00403041
4096.78686035,0.00407773
4098.71566772,0.00411344
4100.64447510,0.00405018
4102.57328247,0.00401731
4104.50208984,0.00401044
4106.43089722,0.00390661
4108.35970459,0.00389716
4110.28851196,0.00401865
4112.21731934,0.00397689
4114.14612671,0.00389317
4116.07493408,0.00389753
4118.00374145,0.00390578
4119.93254883,0.00396957
4121.86135620,0.00387856
4123.79016357,0.00386028
4125.71897095,0.00393423
4127.64777832,0.00384025
4129.57658569,0.00379959
4131.50539307,0.00373427
4133.43420044,0.00384011
4135.36300781,0.00390733
4137.29181519,0.00377848
4139.22062256,0.00377513
4141.14942993,0.00376109
4143.07823730,0.00377164
4145.00704468,0.00374783
4146.93585205,0.00377950
4148.86465942,0.00375630
4150.79346680,0.00367898
4152.72227417,0.00373250
4154.65108154,0.00374326
4156.57988892,0.00374630
4158.50869629,0.00366332
4160.43750366,0.00365610
4162.36631103,0.00364127
4164.29511841,0.00364038
4166.22392578,0.00367321
4168.15273315,0.00361351
4170.08154053,0.00367890
4172.01034790,0.00352859
4173.93915527,0.00347942
4175.86796265,0.00362794
4177.79677002,0.00357112
4179.72557739,0.00354113
4181.65438477,0.00356013
4183.58319214,0.00356804
4185.51199951,0.00357379
4187.44080688,0.00361104
4189.36961426,0.00352358
4191.29842163,0.00347283
4193.22722900,0.00348784
4195.15603638,0.00350877
4197.08484375,0.00357889
4199.01365112,0.00349675
4200.94245850,0.00350357
4202.87126587,0.00347692
4204.80007324,0.00343826
4206.72888062,0.00347215
4208.65768799,0.00349582
4210.58649536,0.00347995
4212.51530273,0.00339669
4214.44411011,0.00341368
4216.37291748,0.00329519
4218.30172485,0.00333808
4220.23053223,0.00334755
4222.15933960,0.00331317
4224.08814697,0.00339553
4226.01695435,0.00317801
4227.94576172,0.00327102
4229.87456909,0.00334560
4231.80337646,0.00329498
4233.73218384,0.00336287
4235.66099121,0.00326967
4237.58979858,0.00330752
4239.51860596,0.00330557
4241.44741333,0.00325024
4243.37622070,0.00323689
4245.30502808,0.00328653
4247.23383545,0.00318061
4249.16264282,0.00316943
4251.09145020,0.00331059
4253.02025757,0.00313832
4254.94906494,0.00319467
4256.87787231,0.00319623
4258.80667969,0.00314207
4260.73548706,0.00322421
4262.66429443,0.00314076
4264.59310181,0.00320618
4266.52190918,0.00322367
4268.45071655,0.00319238
4270.37952393,0.00308545
4272.30833130,0.00301121
4274.23713867,0.00310703
4276.16594604,0.00306254
4278.09475342,0.00304634
4280.02356079,0.00311607
4281.95236816,0.00312346
4283.88117554,0.00309878
4285.80998291,0.00310658
4287.73879028,0.00298800
4289.66759766,0.00295150
4291.59640503,0.00300955
4293.52521240,0.00296445
4295.45401978,0.00305182
4297.38282715,0.00305962
4299.31163452,0.00303755
4301.24044189,0.00303499
4303.16924927,0.00299675
4305.09805664,0.00297776
4307.02686401,0.00293436
4308.95567139,0.00297805
4310.88447876,0.00290306
4312.81328613,0.00285546
4314.74209351,0.00287019
4316.67090088,0.00288748
4318.59970825,0.00297662
4320.52851562,0.00292230
4322.45732300,0.00285471
4324.38613037,0.00277689
4326.31493774,0.00282711
4328.24374512,0.00291762
4330.17255249,0.00284478
4332.10135986,0.00285811
4334.03016724,0.00281265
4335.95897461,0.00283570
4337.88778198,0.00288702
4339.81658936,0.00276404
4341.74539673,0.00280978
4343.67420410,0.00283481
4345.60301147,0.00274753
4347.53181885,0.00276024
4349.46062622,0.00275473
4351.38943359,0.00274976
4353.31824097,0.00269664
4355.24704834,0.00264387
4357.17585571,0.00273213
4359.10466309,0.00280453
4361.03347046,0.00273290
4362.96227783,0.00268099
4364.89108520,0.00278848
4366.81989258,0.00276177
4368.74869995,0.00268026
4370.67750732,0.00273509
4372.60631470,0.00270450
4374.53512207,0.00267084
4376.46392944,0.00266349
4378.39273682,0.00267318
4380.32154419,0.00268597
4382.25035156,0.00265617
4384.17915894,0.00258960
4386.10796631,0.00250980
4388.03677368,0.00261141
4389.96558105,0.00266093
4391.89438843,0.00261178
4393.82319580,0.00259410
4395.75200317,0.00254273
4397.68081055,0.00260360
4399.60961792,0.00258063
4401.53842529,0.00254704
4403.46723267,0.00259661
4405.39604004,0.00252409
4407.32484741,0.00252651
4409.25365478,0.00257666
4411.18246216,0.00256133
4413.11126953,0.00247584
4415.04007690,0.00244788
4416.96888428,0.00253493
4418.89769165,0.00252265
4420.82649902,0.00250248
4422.75530640,0.00245825
4424.68411377,0.00247081
4426.61292114,0.00251915
4428.54172852,0.00247353
4430.47053589,0.00250766
4432.39934326,0.00242704
4434.32815063,0.00244098
4436.25695801,0.00251322
4438.18576538,0.00241344
4440.11457275,0.00240969
4442.04338013,0.00233716
4443.97218750,0.00232537
4445.90099487,0.00236352
4447.82980225,0.00239459
4449.75860962,0.00244102
4451.68741699,0.00237869
4453.61622437,0.00237380
4455.54503174,0.00231237
4457.47383911,0.00233403
4459.40264648,0.00234429
4461.33145386,0.00231348
4463.26026123,0.00235345
4465.18906860,0.00233192
4467.11787598,0.00236646
4469.04668335,0.00230910
4470.97549072,0.00233210
4472.90429810,0.00227909
4474.83310547,0.00222502
4476.76191284,0.00231984
4478.69072021,0.00221808
4480.61952759,0.00224543
4482.54833496,0.00221343
4484.47714233,0.00219325
4486.40594971,0.00228196
4488.33475708,0.00221931
4490.26356445,0.00217116
4492.19237183,0.00220030
4494.12117920,0.00231584
4496.04998657,0.00224868
4497.97879395,0.00214269
4499.90760132,0.00209513
4501.83640869,0.00213884
4503.76521606,0.00215828
4505.69402344,0.00210555
4507.62283081,0.00221509
4509.55163818,0.00211360
4511.48044556,0.00214226
4513.40925293,0.00217419
4515.33806030,0.00208385
4517.26686768,0.00214856
4519.19567505,0.00207892
4521.12448242,0.00214111
4523.05328979,0.00217696
4524.98209717,0.00216584
4526.91090454,0.00209993
4528.83971191,0.00205516
4530.76851929,0.00210306
4532.69732666,0.00203312
4534.62613403,0.00213078
4536.55494141,0.00207003
4538.48374878,0.00207818
4540.41255615,0.00215154
4542.34136353,0.00199078
4544.27017090,0.00200689
4546.19897827,0.00208654
4548.12778564,0.00208323
4550.05659302,0.00195721
4551.98540039,0.00204621
4553.91420776,0.00209957
4555.84301514,0.00194891
4557.77182251,0.00199942
4559.70062988,0.00197899
4561.62943726,0.00200863
4563.55824463,0.00202104
4565.48705200,0.00191299
4567.41585937,0.00197900
4569.34466675,0.00202920
4571.27347412,0.00191396
4573.20228149,0.00191884
4575.13108887,0.00200505
4577.05989624,0.00196543
4578.98870361,0.00198946
4580.91751099,0.00198086
4582.84631836,0.00193159
4584.77512573,0.00188607
4586.70393311,0.00184785
4588.63274048,0.00188782
4590.56154785,0.00188412
4592.49035522,0.00186149
4594.41916260,0.00183017
4596.34796997,0.00185685
4598.27677734,0.00187420
4600.20558472,0.00192469
4602.13439209,0.00195815
4604.06319946,0.00189793
4605.99200684,0.00191461
4607.92081421,0.00184576
4609.84962158,0.00181316
4611.77842895,0.00184747
4613.70723633,0.00184464
4615.63604370,0.00185217
4617.56485107,0.00179684
4619.49365845,0.00177172
4621.42246582,0.00185418
4623.35127319,0.00184552
4625.28008057,0.00173256
4627.20888794,0.00181301
4629.13769531,0.00182883
4631.06650269,0.00175928
4632.99531006,0.00175417
4634.92411743,0.00179288
4636.85292480,0.00185794
4638.78173218,0.00175985
4640.71053955,0.00177059
4642.63934692,0.00171514
4644.56815430,0.00166895
4646.49696167,0.00172757
4648.42576904,0.00169184
4650.35457642,0.00178028
4652.28338379,0.00174461
4654.21219116,0.00169161
4656.14099853,0.00167870
4658.06980591,0.00175180
4659.99861328,0.00175599
4661.92742065,0.00162825
4663.85622803,0.00172399
4665.78503540,0.00164448
4667.71384277,0.00168123
4669.64265015,0.00176987
4671.57145752,0.00163690
4673.50026489,0.00164557
4675.42907227,0.00164538
4677.35787964,0.00167495
4679.28668701,0.00168383
4681.21549438,0.00161944
4683.14430176,0.00158893
4685.07310913,0.00161761
4687.00191650,0.00156823
4688.93072388,0.00152406
4690.85953125,0.00160579
4692.78833862,0.00162491
4694.71714600,0.00160476
4696.64595337,0.00158800
4698.57476074,0.00160397
4700.50356812,0.00153302
4702.43237549,0.00162844
4704.36118286,0.00166322
4706.28999023,0.00155801
4708.21879761,0.00162412
4710.14760498,0.00145647
4712.07641235,0.00151989
4714.00521973,0.00156086
4715.93402710,0.00151212
4717.86283447,0.00164306
4719.79164185,0.00149490
4721.72044922,0.00157578
4723.64925659,0.00160491
4725.57806396,0.00152348
4727.50687134,0.00156829
4729.43567871,0.00155182
4731.36448608,0.00155295
4733.29329346,0.00148733
4735.22210083,0.00150143
4737.15090820,0.00147497
4739.07971558,0.00150101
4741.00852295,0.00149723
4742.93733032,0.00149324
4744.86613770,0.00151904
4746.79494507,0.00140107
4748.72375244,0.00142497
4750.65255981,0.00145578
4752.58136719,0.00152191
4754.51017456,0.00143814
4756.43898193,0.00140153
4758.36778931,0.00148817
4760.29659668,0.00141756
4762.22540405,0.00151536
4764.15421143,0.00143434
4766.08301880,0.00140639
4768.01182617,0.00149293
4769.94063354,0.00144266
4771.86944092,0.00147838
4773.79824829,0.00142339
4775.72705566,0.00139899
4777.65586304,0.00138083
4779.58467041,0.00135174
4781.51347778,0.00137235
4783.44228516,0.00141705
4785.37109253,0.00139450
4787.29989990,0.00138015
4789.22870728,0.00144244
4791.15751465,0.00136693
4793.08632202,0.00136913
4795.01512939,0.00135708
4796.94393677,0.00137445
4798.87274414,0.00140396
4800.80155151,0.00131067
4802.73035889,0.00135212
4804.65916626,0.00136980
4806.58797363,0.00134786
4808.51678101,0.00132185
4810.44558838,0.00134466
4812.37439575,0.00131136
4814.30320312,0.00127775
4816.23201050,0.00137603
4818.16081787,0.00137117
4820.08962524,0.00140079
4822.01843262,0.00133395
4823.94723999,0.00129731
4825.87604736,0.00138186
4827.80485474,0.00136315
4829.73366211,0.00135199
4831.66246948,0.00129589
4833.59127686,0.00129511
4835.52008423,0.00126306
4837.44889160,0.00125353
4839.37769897,0.00130890
4841.30650635,0.00123193
4843.23531372,0.00121302
4845.16412109,0.00123428
4847.09292847,0.00124824
4849.02173584,0.00127233
4850.95054321,0.00126340
4852.87935059,0.00120418
4854.80815796,0.00113050
4856.73696533,0.00120237
4858.66577270,0.00127828
4860.59458008,0.00121779
4862.52338745,0.00126755
4864.45219482,0.00132063
4866.38100220,0.00119114
4868.30980957,0.00118137
4870.23861694,0.00120796
4872.16742432,0.00116403
4874.09623169,0.00114220
4876.02503906,0.00116725
4877.95384644,0.00124946
4879.88265381,0.00116097
4881.81146118,0.00111962
4883.74026855,0.00119000
4885.66907593,0.00122587
4887.59788330,0.00125203
4889.52669067,0.00117184
4891.45549805,0.00117182
4893.38430542,0.00113073
4895.31311279,0.00107949
4897.24192017,0.00114564
4899.17072754,0.00113664
4901.09953491,0.00115856
4903.02834228,0.00115625
4904.95714966,0.00112574
4906.88595703,0.00107304
4908.81476440,0.00107228
4910.74357178,0.00117738
4912.67237915,0.00111151
4914.60118652,0.00108821
4916.52999390,0.00116983
4918.45880127,0.00115616
4920.38760864,0.00114752
4922.31641602,0.00112588
4924.24522339,0.00108703
4926.17403076,0.00107289
4928.10283813,0.00110610
4930.03164551,0.00110725
4931.96045288,0.00105894
4933.88926025,0.00107746
4935.81806763,0.00111240
4937.74687500,0.00107783
4939.67568237,0.00103998
4941.60448975,0.00107840
4943.53329712,0.00107626
4945.46210449,0.00106746
4947.39091187,0.00102958
4949.31971924,0.00097398
4951.24852661,0.00102186
4953.17733398,0.00102206
4955.10614136,0.00106340
4957.03494873,0.00103282
4958.96375610,0.00102683
4960.89256348,0.00107509
4962.82137085,0.00091938
4964.75017822,0.00100607
4966.67898560,0.00108806
4968.60779297,0.00103103
4970.53660034,0.00106769
4972.46540771,0.00104158
4974.39421509,0.00106421
4976.32302246,0.00098391
4978.25182983,0.00094707
4980.18063721,0.00094765
4982.10944458,0.00094114
4984.03825195,0.00098584
4985.96705933,0.00089178
4987.89586670,0.00093499
4989.82467407,0.00096956
4991.75348145,0.00093709
4993.68228882,0.00098500
4995.61109619,0.00100195
4997.53990356,0.00098860
4999.46871094,0.00097404
5001.39751831,0.00100231
5003.32632568,0.00096021
5005.25513306,0.00096905
5007.18394043,0.00096739
5009.11274780,0.00093108
5011.04155518,0.00098890
5012.97036255,0.00099486
5014.89916992,0.00091632
5016.82797729,0.00086419
5018.75678467,0.00093040
5020.68559204,0.00089958
5022.61439941,0.00088571
5024.54320679,0.00091627
5026.47201416,0.00093888
5028.40082153,0.00096403
5030.32962891,0.00089162
5032.25843628,0.00100522
5034.18724365,0.00096925
5036.11605103,0.00085293
5038.04485840,0.00086260
5039.97366577,0.00083468
5041.90247314,0.00090841
5043.83128052,0.00085308
5045.76008789,0.00086237
5047.68889526,0.00091899
5049.61770264,0.00090460
5051.54651001,0.00084721
5053.47531738,0.00079732
5055.40412476,0.00091865
5057.33293213,0.00090647
5059.26173950,0.00090295
5061.19054687,0.00084987
5063.11935425,0.00084783
5065.04816162,0.00094043
5066.97696899,0.00083646
5068.90577637,0.00085481
5070.83458374,0.00082356
5072.76339111,0.00082134
5074.69219849,0.00087107
5076.62100586,0.00080482
5078.54981323,0.00087216
5080.47862061,0.00087747
5082.40742798,0.00079388
5084.33623535,0.00078146
5086.26504272,0.00081787
5088.19385010,0.00085130
5090.12265747,0.00089232
5092.05146484,0.00081870
5093.98027222,0.00073082
5095.90907959,0.00080169
5097.83788696,0.00080954
5099.76669434,0.00083005
5101.69550171,0.00083635
5103.62430908,0.00078537
5105.55311645,0.00075348
5107.48192383,0.00075212
5109.41073120,0.00084324
5111.33953857,0.00085429
5113.26834595,0.00079890
5115.19715332,0.00078390
5117.12596069,0.00079835
5119.05476807,0.00081505
5120.98357544,0.00080673
5122.91238281,0.00075833
5124.84119019,0.00074406
5126.76999756,0.00077762
5128.69880493,0.00076403
5130.62761230,0.00076021
5132.55641968,0.00072083
5134.48522705,0.00078504
5136.41403442,0.00084618
5138.34284180,0.00074275
5140.27164917,0.00076566
5142.20045654,0.00076501
5144.12926392,0.00072546
5146.05807129,0.00076888
5147.98687866,0.00079525
5149.91568603,0.00082317
5151.84449341,0.00076007
5153.77330078,0.00066676
5155.70210815,0.00072040
5157.63091553,0.00075402
5159.55972290,0.00069052
5161.48853027,0.00075181
5163.41733765,0.00079295
5165.34614502,0.00074921
5167.27495239,0.00071349
5169.20375977,0.00066716
5171.13256714,0.00072243
5173.06137451,0.00075347
5174.99018188,0.00077717
5176.91898926,0.00077333
5178.84779663,0.00066582
5180.77660400,0.00068742
5182.70541138,0.00074952
5184.63421875,0.00069964
5186.56302612,0.00067980
5188.49183350,0.00073401
5190.42064087,0.00069846
5192.34944824,0.00064841
5194.27825562,0.00067634
5196.20706299,0.00066270
5198.13587036,0.00064539
5200.06467773,0.00063968
5201.99348511,0.00066447
5203.92229248,0.00072782
5205.85109985,0.00073631
5207.77990723,0.00067702
5209.70871460,0.00062151
5211.63752197,0.00064319
5213.56632935,0.00067399
5215.49513672,0.00065777
5217.42394409,0.00069520
5219.35275146,0.00070815
5221.28155884,0.00065053
5223.21036621,0.00065481
5225.13917358,0.00058104
5227.06798096,0.00054753
5228.99678833,0.00063588
5230.92559570,0.00057417
5232.85440308,0.00061210
5234.78321045,0.00067713
5236.71201782,0.00055987
5238.64082520,0.00066483
5240.56963257,0.00074383
5242.49843994,0.00062965
5244.42724731,0.00069931
5246.35605469,0.00064651
5248.28486206,0.00054214
5250.21366943,0.00062004
5252.14247681,0.00059618
5254.07128418,0.00061217
5256.00009155,0.00060483
5257.92889893,0.00060298
5259.85770630,0.00066704
5261.78651367,0.00061078
5263.71532104,0.00062430
5265.64412842,0.00058974
5267.57293579,0.00059508
5269.50174316,0.00063172
5271.43055054,0.00053140
5273.35935791,0.00059936
5275.28816528,0.00061561
5277.21697266,0.00055707
5279.14578003,0.00059130
5281.07458740,0.00058692
5283.00339478,0.00065163
5284.93220215,0.00065407
5286.86100952,0.00056958
5288.78981689,0.00056517
5290.71862427,0.00059573
5292.64743164,0.00065802
5294.57623901,0.00061733
5296.50504639,0.00055933
5298.43385376,0.00058172
5300.36266113,0.00051578
5302.29146851,0.00057310
5304.22027588,0.00066031
5306.14908325,0.00063668
5308.07789062,0.00059402
5310.00669800,0.00052978
5311.93550537,0.00064115
5313.86431274,0.00064504
5315.79312012,0.00052765
5317.72192749,0.00052415
5319.65073486,0.00056463
5321.57954224,0.00062937
5323.50834961,0.00058687
5325.43715698,0.00061376
5327.36596436,0.00055829
5329.29477173,0.00048270
5331.22357910,0.00061677
5333.15238647,0.00063254
5335.08119385,0.00061861
5337.01000122,0.00058523
5338.93880859,0.00056224
5340.86761597,0.00056676
5342.79642334,0.00050295
5344.72523071,0.00052568
5346.65403809,0.00055830
5348.58284546,0.00057605
5350.51165283,0.00058882
5352.44046020,0.00054455
5354.36926758,0.00052264
5356.29807495,0.00054524
5358.22688232,0.00050405
5360.15568970,0.00051325
5362.08449707,0.00052721
5364.01330444,0.00045861
5365.94211182,0.00054753
5367.87091919,0.00057573
5369.79972656,0.00052206
5371.72853394,0.00051040
5373.65734131,0.00050252
5375.58614868,0.00056242
5377.51495605,0.00053232
5379.44376343,0.00050543
5381.37257080,0.00050056
5383.30137817,0.00046853
5385.23018555,0.00047924
5387.15899292,0.00049089
5389.08780029,0.00047733
5391.01660767,0.00048147
5392.94541504,0.00052093
5394.87422241,0.00049734
5396.80302978,0.00055392
5398.73183716,0.00055852
5400.66064453,0.00045798
5402.58945190,0.00050795
5404.51825928,0.00050916
5406.44706665,0.00044634
5408.37587402,0.00050445
5410.30468140,0.00050862
5412.23348877,0.00040631
5414.16229614,0.00049669
5416.09110352,0.00051318
5418.01991089,0.00040180
5419.94871826,0.00049562
5421.87752563,0.00049691
5423.80633301,0.00047538
5425.73514038,0.00050355
5427.66394775,0.00047002
5429.59275513,0.00042418
5431.52156250,0.00039114
5433.45036987,0.00045105
5435.37917725,0.00047565
5437.30798462,0.00049485
5439.23679199,0.00046918
5441.16559936,0.00045152
5443.09440674,0.00051407
5445.02321411,0.00047084
5446.95202148,0.00041773
5448.88082886,0.00046311
5450.80963623,0.00049029
5452.73844360,0.00044405
5454.66725098,0.00050472
5456.59605835,0.00051517
5458.52486572,0.00047546
5460.45367310,0.00049367
5462.38248047,0.00040610
5464.31128784,0.00046457
5466.24009521,0.00053150
5468.16890259,0.00045490
5470.09770996,0.00039131
5472.02651733,0.00042691
5473.95532471,0.00048023
5475.88413208,0.00037010
5477.81293945,0.00042123
5479.74174683,0.00043606
5481.67055420,0.00036101
5483.59936157,0.00048516
5485.52816895,0.00046738
5487.45697632,0.00042833
5489.38578369,0.00046378
5491.31459106,0.00043843
5493.24339844,0.00041493
5495.17220581,0.00035078
5497.10101318,0.00039122
5499.02982056,0.00047259
5500.95862793,0.00039018
5502.88743530,0.00036248
5504.81624268,0.00043884
5506.74505005,0.00045258
5508.67385742,0.00041897
5510.60266479,0.00037266
5512.53147217,0.00039606
5514.46027954,0.00042116
5516.38908691,0.00040992
5518.31789429,0.00040179
5520.24670166,0.00037990
5522.17550903,0.00041828
5524.10431641,0.00040831
5526.03312378,0.00038258
5527.96193115,0.00042073
5529.89073853,0.00044152
5531.81954590,0.00044436
5533.74835327,0.00039398
5535.67716064,0.00035992
5537.60596802,0.00038663
5539.53477539,0.00037717
5541.46358276,0.00035035
5543.39239014,0.00040904
5545.32119751,0.00043118
5547.25000488,0.00041562
5549.17881226,0.00048101
5551.10761963,0.00041761
5553.03642700,0.00028998
5554.96523437,0.00035944
5556.89404175,0.00041374
5558.82284912,0.00033162
5560.75165649,0.00038010
5562.68046387,0.00040159
5564.60927124,0.00034001
5566.53807861,0.00041144
5568.46688599,0.00040080
5570.39569336,0.00036929
5572.32450073,0.00033080
5574.25330811,0.00029935
5576.18211548,0.00037780
5578.11092285,0.00032039
5580.03973022,0.00030647
5581.96853760,0.00035777
5583.89734497,0.00031356
5585.82615234,0.00034072
5587.75495972,0.00043395
5589.68376709,0.00043160
5591.61257446,0.00038275
5593.54138184,0.00040957
5595.47018921,0.00036716
5597.39899658,0.00038628
5599.32780395,0.00038138
5601.25661133,0.00027908
5603.18541870,0.00039876
5605.11422607,0.00040931
5607.04303345,0.00035428
5608.97184082,0.00038881
5610.90064819,0.00030110
5612.82945557,0.00033778
5614.75826294,0.00040535
5616.68707031,0.00044965
5618.61587769,0.00041216
5620.54468506,0.00031715
5622.47349243,0.00047125
5624.40229980,0.00039060
5626.33110718,0.00031098
5628.25991455,0.00044814
5630.18872192,0.00030008
5632.11752930,0.00033147
5634.04633667,0.00039739
5635.97514404,0.00034154
5637.90395142,0.00037431
5639.83275879,0.00030194
5641.76156616,0.00041363
5643.69037353,0.00041439
5645.61918091,0.00029283
5647.54798828,0.00038116
5649.47679565,0.00033818
5651.40560303,0.00029530
5653.33441040,0.00035793
5655.26321777,0.00035419
5657.19202515,0.00030096
5659.12083252,0.00034253
5661.04963989,0.00037311
5662.97844727,0.00027762
5664.90725464,0.00032229
5666.83606201,0.00036594
5668.76486938,0.00025077
5670.69367676,0.00025338
5672.62248413,0.00035229
5674.55129150,0.00032171
5676.48009888,0.00031464
5678.40890625,0.00031811
5680.33771362,0.00023448
5682.26652100,0.00028562
5684.19532837,0.00033602
5686.12413574,0.00031799
5688.05294311,0.00028479
5689.98175049,0.00026186
5691.91055786,0.00031853
5693.83936523,0.00030681
5695.76817261,0.00028276
5697.69697998,0.00026984
5699.62578735,0.00030619
5701.55459473,0.00032263
5703.48340210,0.00025774
5705.41220947,0.00029125
5707.34101685,0.00028060
5709.26982422,0.00032221
5711.19863159,0.00034441
5713.12743896,0.00025626
5715.05624634,0.00031199
5716.98505371,0.00029886
5718.91386108,0.00030919
5720.84266846,0.00033401
5722.77147583,0.00026157
5724.70028320,0.00032907
5726.62909058,0.00035916
5728.55789795,0.00035783
5730.48670532,0.00030766
5732.41551270,0.00027002
5734.34432007,0.00033969
5736.27312744,0.00029131
5738.20193481,0.00033494
5740.13074219,0.00035120
5742.05954956,0.00026874
5743.98835693,0.00027045
5745.91716431,0.00027674
5747.84597168,0.00032951
5749.77477905,0.00027920
5751.70358643,0.00025494
5753.63239380,0.00031948
5755.56120117,0.00031552
5757.49000854,0.00023374
5759.41881592,0.00016837
5761.34762329,0.00030988
5763.27643066,0.00033880
5765.20523804,0.00029391
5767.13404541,0.00032689
5769.06285278,0.00026449
5770.99166016,0.00024024
5772.92046753,0.00027381
5774.84927490,0.00028388
5776.77808228,0.00022523
5778.70688965,0.00027454
5780.63569702,0.00030416
5782.56450439,0.00021241
5784.49331177,0.00023873
5786.42211914,0.00025941
5788.35092651,0.00026872
5790.27973389,0.00023573
5792.20854126,0.00022450
5794.13734863,0.00024998
5796.06615601,0.00024151
5797.99496338,0.00028126
5799.92377075,0.00020178
5801.85257812,0.00019084
5803.78138550,0.00029447
5805.71019287,0.00027664
5807.63900024,0.00023641
5809.56780762,0.00026015
5811.49661499,0.00027816
5813.42542236,0.00026687
5815.35422974,0.00025930
5817.28303711,0.00018030
5819.21184448,0.00020188
5821.14065186,0.00029235
5823.06945923,0.00023476
5824.99826660,0.00018105
5826.92707397,0.00019430
5828.85588135,0.00022212
5830.78468872,0.00023070
5832.71349609,0.00025312
5834.64230347,0.00024626
5836.57111084,0.00024935
5838.49991821,0.00027511
5840.42872559,0.00024471
5842.35753296,0.00024604
5844.28634033,0.00026859
5846.21514770,0.00030020
5848.14395508,0.00019153
5850.07276245,0.00016109
5852.00156982,0.00031491
5853.93037720,0.00023887
5855.85918457,0.00018764
5857.78799194,0.00025112
5859.71679932,0.00026813
5861.64560669,0.00027981
5863.57441406,0.00021754
5865.50322144,0.00023226
5867.43202881,0.00024537
5869.36083618,0.00019710
5871.28964355,0.00024694
5873.21845093,0.00025232
5875.14725830,0.00026408
5877.07606567,0.00032759
5879.00487305,0.00021774
5880.93368042,0.00016916
5882.86248779,0.00022021
5884.79129517,0.00018295
5886.72010254,0.00020661
5888.64890991,0.00018745
5890.57771728,0.00019270
5892.50652466,0.00021392
5894.43533203,0.00016971
5896.36413940,0.00024900
5898.29294678,0.00026554
5900.22175415,0.00024001
5902.15056152,0.00024002
5904.07936890,0.00020034
5906.00817627,0.00020704
5907.93698364,0.00018602
5909.86579102,0.00020803
5911.79459839,0.00021948
5913.72340576,0.00020787
5915.65221313,0.00029832
5917.58102051,0.00024814
5919.50982788,0.00018938
5921.43863525,0.00027274
5923.36744263,0.00020230
5925.29625000,0.00014484
5927.22505737,0.00021103
5929.15386475,0.00019666
5931.08267212,0.00017080
5933.01147949,0.00019150
5934.94028686,0.00021433
5936.86909424,0.00018630
5938.79790161,0.00017848
5940.72670898,0.00021501
5942.65551636,0.00017288
5944.58432373,0.00015516
5946.51313110,0.00022549
5948.44193848,0.00022091
5950.37074585,0.00015546
5952.29955322,0.00017318
5954.22836060,0.00019641
5956.15716797,0.00020102
5958.08597534,0.00023473
5960.01478271,0.00022008
5961.94359009,0.00019545
5963.87239746,0.00018562
5965.80120483,0.00021698
5967.73001221,0.00028504
5969.65881958,0.00023392
5971.58762695,0.00015771
5973.51643433,0.00023035
5975.44524170,0.00023561
5977.37404907,0.00016083
5979.30285645,0.00019006
5981.23166382,0.00019487
5983.16047119,0.00020744
5985.08927856,0.00022522
5987.01808594,0.00015350
5988.94689331,0.00012738
5990.87570068,0.00022152
5992.80450806,0.00023852
5994.73331543,0.00013724
5996.66212280,0.00018676
5998.59093018,0.00019050
6000.51973755,0.00013942
