399.26312622,0.00026046
401.19193359,0.00080096
403.12074097,0.00057391
405.04954834,0.00076660
406.97835571,0.00122030
408.90716309,0.00074566
410.83597046,0.00069225
412.76477783,0.00033927
414.69358521,0.00091912
416.62239258,0.00086611
418.55119995,-0.00005415
420.48000732,0.00107407
422.40881470,0.00096986
424.33762207,0.00082681
426.26642944,0.00160400
428.19523682,0.00113929
430.12404419,0.00095494
432.05285156,0.00096978
433.98165894,0.00099121
435.91046631,0.00088287
437.83927368,0.00086994
439.76808105,0.00098232
441.69688843,0.00104621
443.62569580,0.00100166
445.55450317,0.00052131
447.48331055,0.00063226
449.41211792,0.00078669
451.34092529,0.00072196
453.26973267,0.00033417
455.19854004,0.00053088
457.12734741,0.00115988
459.05615479,0.00046259
460.98496216,0.00047361
462.91376953,0.00058456
464.84257690,0.00032851
466.77138428,0.00069580
468.70019165,0.00071705
470.62899902,0.00055419
472.55780640,0.00034144
474.48661377,0.00036973
476.41542114,0.00001852
478.34422852,0.00039545
480.27303589,0.00059159
482.20184326,-0.00019457
484.13065063,0.00044486
486.05945801,0.00029088
487.98826538,-0.00018548
489.91707275,0.00034081
491.84588013,0.00039130
493.77468750,0.00034771
495.70349487,0.00026623
497.63230225,0.00020545
499.56110962,0.00015500
501.48991699,0.00014084
503.41872437,-0.00000025
505.34753174,0.00045449
507.27633911,0.00085826
509.20514648,0.00008780
511.13395386,0.00006540
513.06276123,0.00046121
514.99156860,0.00013503
516.92037598,0.00018065
518.84918335,0.00020074
520.77799072,-0.00005196
522.70679810,0.00006121
524.63560547,0.00038374
526.56441284,0.00013854
528.49322021,0.00019213
530.42202759,0.00032102
532.35083496,-0.00010808
534.27964233,0.00024207
536.20844971,0.00036231
538.13725708,0.00043643
540.06606445,0.00036206
541.99487183,-0.00002240
543.92367920,0.00038469
545.85248657,0.00013524
547.78129395,-0.00044685
549.71010132,-0.00007217
551.63890869,0.00008539
553.56771606,-0.00009694
555.49652344,-0.00009051
557.42533081,0.00023396
559.35413818,0.00046138
561.28294556,0.00012917
563.21175293,0.00020417
565.14056030,0.00023389
567.06936768,0.00010696
568.99817505,0.00021759
570.92698242,-0.00012598
572.85578979,-0.00017660
574.78459717,0.00004869
576.71340454,-0.00001423
578.64221191,0.00011509
580.57101929,0.00015049
582.49982666,-0.00009454
584.42863403,0.00037884
586.35744141,0.00061487
588.28624878,-0.00004011
590.21505615,0.00006582
592.14386353,0.00040834
594.07267090,-0.00004041
596.00147827,-0.00005158
597.93028564,-0.00007277
599.85909302,0.00012051
601.78790039,0.00051094
603.71670776,0.00016460
605.64551514,0.00021662
607.57432251,-0.00004800
609.50312988,0.00008534
611.43193726,0.00016809
613.36074463,-0.00002864
615.28955200,0.00007573
617.21835938,-0.00008220
619.14716675,0.00031120
621.07597412,0.00006367
623.00478149,-0.00024328
624.93358887,0.00026927
626.86239624,0.00026116
628.79120361,0.00024804
630.72001099,0.00039508
632.64881836,0.00044096
634.57762573,0.00076894
636.50643311,0.00062000
638.43524048,0.00056720
640.36404785,0.00086175
642.29285522,0.00082236
644.22166260,0.00112553
646.15046997,0.00100400
648.07927734,0.00095629
650.00808472,0.00132048
651.93689209,0.00098594
653.86569946,0.00115452
655.79450684,0.00116029
657.72331421,0.00117271
659.65212158,0.00178522
661.58092896,0.00151085
663.50973633,0.00157170
665.43854370,0.00182592
667.36735107,0.00173341
669.29615845,0.00201881
671.22496582,0.00183703
673.15377319,0.00176630
675.08258057,0.00207767
677.01138794,0.00213754
678.94019531,0.00212697
680.86900269,0.00186700
682.79781006,0.00176414
684.72661743,0.00212447
686.65542480,0.00185995
688.58423218,0.00150018
690.51303955,0.00218075
692.44184692,0.00241603
694.37065430,0.00238252
696.29946167,0.00283343
698.22826904,0.00303488
700.15707642,0.00327812
702.08588379,0.00299367
704.01469116,0.00268974
705.94349854,0.00254596
707.87230591,0.00199631
709.80111328,0.00196992
711.72992065,0.00144167
713.65872803,0.00076333
715.58753540,0.00060207
717.51634277,0.00036604
719.44515015,0.00055692
721.37395752,0.00042087
723.30276489,0.00017678
725.23157227,0.00015233
727.16037964,0.00009871
729.08918701,0.00015962
731.01799438,-0.00006437
732.94680176,0.00003662
734.87560913,0.00015332
736.80441650,0.00000346
738.73322388,0.00017527
740.66203125,0.00015222
742.59083862,0.00012714
744.51964600,0.00034709
746.44845337,0.00027992
748.37726074,0.00009556
750.30606812,0.00005454
752.23487549,-0.00005364
754.16368286,0.00018430
756.09249023,0.00036757
758.02129761,0.00013266
759.95010498,0.00027660
761.87891235,0.00036136
763.80771973,0.00036794
765.73652710,0.00035111
767.66533447,0.00040203
769.59414185,0.00048890
771.52294922,0.00023294
773.45175659,0.00010609
775.38056396,0.00017101
777.30937134,0.00046638
779.23817871,0.00042472
781.16698608,0.00013974
783.09579346,0.00043118
785.02460083,0.00055391
786.95340820,0.00037646
788.88221558,0.00063452
790.81102295,0.00067571
792.73983032,0.00024682
794.66863770,0.00055903
796.59744507,0.00066272
798.52625244,0.00022279
800.45505981,0.00038386
802.38386719,0.00052518
804.31267456,0.00058569
806.24148193,0.00020769
808.17028931,-0.00011121
810.09909668,0.00044623
812.02790405,0.00053301
813.95671143,0.00028797
815.88551880,0.00041078
817.81432617,0.00028122
819.74313354,0.00027241
821.67194092,0.00045244
823.60074829,0.00026002
825.52955566,0.00049721
827.45836304,0.00047954
829.38717041,0.00018816
831.31597778,0.00072962
833.24478516,0.00094785
835.17359253,0.00086959
837.10239990,0.00090958
839.03120728,0.00098524
840.96001465,0.00086793
842.88882202,0.00073592
844.81762939,0.00091328
846.74643677,0.00076910
848.67524414,0.00073355
850.60405151,0.00059988
852.53285889,0.00061516
854.46166626,0.00067689
856.39047363,0.00032583
858.31928101,0.00026115
860.24808838,0.00021772
862.17689575,0.00034052
864.10570313,0.00033629
866.03451050,0.00036054
867.96331787,0.00034603
869.89212524,0.00026209
871.82093262,0.00052769
873.74973999,0.00052088
875.67854736,0.00047905
877.60735474,0.00029801
879.53616211,0.00041232
881.46496948,0.00047058
883.39377686,0.00032987
885.32258423,0.00031041
887.25139160,0.00023072
889.18019897,0.00045761
891.10900635,0.00021877
893.03781372,0.00038536
894.96662109,0.00050840
896.89542847,0.00028595
898.82423584,0.00061266
900.75304321,0.00043803
902.68185059,0.00063517
904.61065796,0.00051330
906.53946533,0.00033046
908.46827271,0.00072610
910.39708008,0.00034068
912.32588745,0.00036410
914.25469482,0.00040549
916.18350220,0.00048530
918.11230957,0.00060683
920.04111694,0.00047574
921.96992432,0.00072786
923.89873169,0.00063931
925.82753906,0.00093491
927.75634644,0.00114032
929.68515381,0.00092460
931.61396118,0.00091499
933.54276855,0.00097289
935.47157593,0.00122466
937.40038330,0.00115607
939.32919067,0.00121495
941.25799805,0.00118465
943.18680542,0.00094509
945.11561279,0.00087856
947.04442017,0.00106883
948.97322754,0.00141482
950.90203491,0.00107764
952.83084229,0.00115499
954.75964966,0.00138683
956.68845703,0.00109599
958.61726440,0.00109564
960.54607178,0.00115349
962.47487915,0.00128536
964.40368652,0.00118493
966.33249390,0.00123764
968.26130127,0.00139672
970.19010864,0.00134578
972.11891602,0.00133476
974.04772339,0.00135539
975.97653076,0.00180184
977.90533813,0.00175570
979.83414551,0.00179137
981.76295288,0.00204014
983.69176025,0.00193890
985.62056763,0.00252142
987.54937500,0.00273974
989.47818237,0.00270879
991.40698975,0.00298961
993.33579712,0.00336490
995.26460449,0.00387668
997.19341187,0.00419098
999.12221924,0.00455154
1001.05102661,0.00470219
1002.97983398,0.00519801
1004.90864136,0.00558577
1006.83744873,0.00576688
1008.76625610,0.00621799
1010.69506348,0.00637181
1012.62387085,0.00689822
1014.55267822,0.00721597
1016.48148560,0.00770838
1018.41029297,0.00811782
1020.33910034,0.00814967
1022.26790771,0.00886857
1024.19671509,0.00891337
1026.12552246,0.00911239
1028.05432983,0.00960316
1029.98313721,0.00989872
1031.91194458,0.01037913
1033.84075195,0.01038318
1035.76955933,0.01058017
1037.69836670,0.01056629
1039.62717407,0.01083696
1041.55598145,0.01089983
1043.48478882,0.01038217
1045.41359619,0.01066526
1047.34240356,0.01049665
1049.27121094,0.01011312
1051.20001831,0.00993650
1053.12882568,0.00974867
1055.05763306,0.00960479
1056.98644043,0.00946665
1058.91524780,0.00939657
1060.84405518,0.00875688
1062.77286255,0.00878855
1064.70166992,0.00871832
1066.63047729,0.00798550
1068.55928467,0.00778741
1070.48809204,0.00732889
1072.41689941,0.00715513
1074.34570679,0.00700312
1076.27451416,0.00650537
1078.20332153,0.00615724
1080.13212891,0.00585120
1082.06093628,0.00580324
1083.98974365,0.00541192
1085.91855103,0.00508275
1087.84735840,0.00502765
1089.77616577,0.00482990
1091.70497314,0.00468780
1093.63378052,0.00441018
1095.56258789,0.00417496
1097.49139526,0.00400925
1099.42020264,0.00393939
1101.34901001,0.00385787
1103.27781738,0.00373517
1105.20662476,0.00371540
1107.13543213,0.00362506
1109.06423950,0.00370068
1110.99304687,0.00362526
1112.92185425,0.00361959
1114.85066162,0.00377450
1116.77946899,0.00352521
1118.70827637,0.00359321
1120.63708374,0.00364598
1122.56589111,0.00344890
1124.49469849,0.00355337
1126.42350586,0.00365556
1128.35231323,0.00375595
1130.28112061,0.00377685
1132.20992798,0.00408936
1134.13873535,0.00434966
1136.06754272,0.00416208
1137.99635010,0.00436413
1139.92515747,0.00476658
1141.85396484,0.00505440
1143.78277222,0.00523340
1145.71157959,0.00551252
1147.64038696,0.00586263
1149.56919434,0.00618663
1151.49800171,0.00670407
1153.42680908,0.00701170
1155.35561646,0.00728368
1157.28442383,0.00757069
1159.21323120,0.00765210
1161.14203857,0.00793559
1163.07084595,0.00843503
1164.99965332,0.00860521
1166.92846069,0.00878780
1168.85726807,0.00934500
1170.78607544,0.00948975
1172.71488281,0.00972758
1174.64369019,0.01027840
1176.57249756,0.01065100
1178.50130493,0.01104070
1180.43011230,0.01143142
1182.35891968,0.01209746
1184.28772705,0.01260871
1186.21653442,0.01288114
1188.14534180,0.01342013
1190.07414917,0.01420980
1192.00295654,0.01492167
1193.93176392,0.01549959
1195.86057129,0.01622436
1197.78937866,0.01677474
1199.71818604,0.01777084
1201.64699341,0.01865026
1203.57580078,0.01899775
1205.50460815,0.01995211
1207.43341553,0.02072282
1209.36222290,0.02147358
1211.29103027,0.02215518
1213.21983765,0.02243563
1215.14864502,0.02304856
1217.07745239,0.02356674
1219.00625977,0.02394754
1220.93506714,0.02416645
1222.86387451,0.02463725
1224.79268188,0.02506145
1226.72148926,0.02497852
1228.65029663,0.02524676
1230.57910400,0.02534919
1232.50791138,0.02546473
1234.43671875,0.02563526
1236.36552612,0.02540521
1238.29433350,0.02542965
1240.22314087,0.02548052
1242.15194824,0.02542279
1244.08075562,0.02531123
1246.00956299,0.02525410
1247.93837036,0.02513236
1249.86717773,0.02487936
1251.79598511,0.02478501
1253.72479248,0.02437930
1255.65359985,0.02416787
1257.58240723,0.02401127
1259.51121460,0.02342667
1261.44002197,0.02320638
1263.36882935,0.02298592
1265.29763672,0.02272627
1267.22644409,0.02251306
1269.15525146,0.02206305
1271.08405884,0.02180877
1273.01286621,0.02165050
1274.94167358,0.02138834
1276.87048096,0.02086903
1278.79928833,0.02025330
1280.72809570,0.01987345
1282.65690308,0.01967313
1284.58571045,0.01944651
1286.51451782,0.01893166
1288.44332520,0.01864624
1290.37213257,0.01840761
1292.30093994,0.01805647
1294.22974731,0.01815209
1296.15855469,0.01791707
1298.08736206,0.01777017
1300.01616943,0.01816338
1301.94497681,0.01810396
1303.87378418,0.01805483
1305.80259155,0.01827006
1307.73139893,0.01863711
1309.66020630,0.01913002
1311.58901367,0.01927640
1313.51782104,0.01951882
1315.44662842,0.01997049
1317.37543579,0.02032515
1319.30424316,0.02080907
1321.23305054,0.02154322
1323.16185791,0.02245026
1325.09066528,0.02325745
1327.01947266,0.02376268
1328.94828003,0.02427150
1330.87708740,0.02498046
1332.80589478,0.02547789
1334.73470215,0.02594933
1336.66350952,0.02615665
1338.59231689,0.02561994
1340.52112427,0.02604247
1342.44993164,0.02734948
1344.37873901,0.02752365
1346.30754639,0.02733627
1348.23635376,0.02741523
1350.16516113,0.02735452
1352.09396851,0.02733341
1354.02277588,0.02710246
1355.95158325,0.02665166
1357.88039062,0.02627835
1359.80919800,0.02612963
1361.73800537,0.02493092
1363.66681274,0.02440166
1365.59562012,0.02585456
1367.52442749,0.02527226
1369.45323486,0.02509508
1371.38204224,0.02563780
1373.31084961,0.02391900
1375.23965698,0.02407653
1377.16846436,0.02498977
1379.09727173,0.02492364
1381.02607910,0.02488935
1382.95488647,0.02483812
1384.88369385,0.02482693
1386.81250122,0.02356111
1388.74130859,0.02391172
1390.67011597,0.02613967
1392.59892334,0.02538756
1394.52773071,0.02346325
1396.45653809,0.02482709
1398.38534546,0.02471967
1400.31415283,0.02460594
1402.24296021,0.02709984
1404.17176758,0.02517845
1406.10057495,0.02532164
1408.02938232,0.02673588
1409.95818970,0.02550226
1411.88699707,0.02608658
1413.81580444,0.02514118
1415.74461182,0.02569914
1417.67341919,0.02271867
1419.60222656,0.01983336
1421.53103394,0.02379460
1423.45984131,0.02300319
1425.38864868,0.02216861
1427.31745605,0.02277111
1429.24626343,0.02081805
1431.17507080,0.02039670
1433.10387817,0.02092490
1435.03268555,0.01880015
1436.96149292,0.01554142
1438.89030029,0.01789634
1440.81910767,0.01871333
1442.74791504,0.01735760
1444.67672241,0.01813575
1446.60552979,0.01665418
1448.53433716,0.01697976
1450.46314453,0.01751065
1452.39195190,0.01800044
1454.32075928,0.01871540
1456.24956665,0.01482832
1458.17837402,0.01530151
1460.10718140,0.02121087
1462.03598877,0.02276893
1463.96479614,0.02225832
1465.89360352,0.02286014
1467.82241089,0.02664628
1469.75121826,0.02897562
1471.68002563,0.02477741
1473.60883301,0.02601580
1475.53764038,0.03015022
1477.46644775,0.03269259
1479.39525513,0.03641556
1481.32406250,0.03662506
1483.25286987,0.03920826
1485.18167725,0.04037039
1487.11048462,0.03910556
1489.03929199,0.03856696
1490.96809937,0.03871743
1492.89690674,0.04634394
1494.82571411,0.04485114
1496.75452148,0.03924968
1498.68332886,0.04519012
1500.61213623,0.04677281
1502.54094360,0.05069767
1504.46975098,0.04758084
1506.39855835,0.03206362
1508.32736572,0.04013454
1510.25617310,0.04917351
1512.18498047,0.04762880
1514.11378784,0.05230404
1516.04259521,0.04595569
1517.97140259,0.04794561
1519.90020996,0.04666341
1521.82901733,0.03869741
1523.75782471,0.04922234
1525.68663208,0.04819267
1527.61543945,0.04758516
1529.54424683,0.05440091
1531.47305420,0.05189975
1533.40186157,0.04652009
1535.33066895,0.04970305
1537.25947632,0.05433372
1539.18828369,0.03632078
1541.11709106,0.03754212
1543.04589844,0.04736083
1544.97470581,0.04495681
1546.90351318,0.05549520
1548.83232056,0.05110940
1550.76112793,0.05261382
1552.68993530,0.05298852
1554.61874268,0.04666193
1556.54755005,0.05097784
1558.47635742,0.03332816
1560.40516479,0.03607807
1562.33397217,0.05598710
1564.26277954,0.05224013
1566.19158691,0.05408438
1568.12039429,0.05337616
1570.04920166,0.04597299
1571.97800903,0.05466156
1573.90681641,0.05575011
1575.83562378,0.04241858
1577.76443115,0.04859152
1579.69323853,0.05650800
1581.62204590,0.05370008
1583.55085327,0.05509689
1585.47966064,0.05447371
1587.40846802,0.05488286
1589.33727539,0.05437293
1591.26608276,0.05424654
1593.19489014,0.05439204
1595.12369751,0.05363940
1597.05250488,0.05446905
1598.98131226,0.05415386
1600.91011963,0.05439788
1602.83892700,0.05332671
1604.76773437,0.05435995
1606.69654175,0.05334093
1608.62534912,0.05315138
1610.55415649,0.05311404
1612.48296387,0.05358841
1614.41177124,0.05467797
1616.34057861,0.04297366
1618.26938599,0.04697081
1620.19819336,0.05668071
1622.12700073,0.04917647
1624.05580811,0.04906201
1625.98461548,0.05225014
1627.91342285,0.05193485
1629.84223022,0.05152860
1631.77103760,0.05584066
1633.69984497,0.05094603
1635.62865234,0.04012610
1637.55745972,0.04831015
1639.48626709,0.05465689
1641.41507446,0.05305320
1643.34388184,0.05505563
1645.27268921,0.04883739
1647.20149658,0.04114512
1649.13030396,0.05375508
1651.05911133,0.05150556
1652.98791870,0.02989797
1654.91672607,0.04295240
1656.84553345,0.05699496
1658.77434082,0.05464109
1660.70314819,0.05621977
1662.63195557,0.05006298
1664.56076294,0.05335306
1666.48957031,0.05855258
1668.41837769,0.04978258
1670.34718506,0.04770873
1672.27599243,0.05596482
1674.20479980,0.05130404
1676.13360718,0.04834765
1678.06241455,0.05741454
1679.99122192,0.05535574
1681.92002930,0.05432957
1683.84883667,0.04269658
1685.77764404,0.04203896
1687.70645142,0.06118453
1689.63525879,0.05200218
1691.56406616,0.05800690
1693.49287354,0.05997155
1695.42168091,0.04097114
1697.35048828,0.05268567
1699.27929565,0.04539794
1701.20810303,0.03929036
1703.13691040,0.05768332
1705.06571777,0.05213918
1706.99452515,0.05256971
1708.92333252,0.05844055
1710.85213989,0.05568641
1712.78094727,0.05696408
1714.70975464,0.05196696
1716.63856201,0.04572514
1718.56736938,0.04473037
1720.49617676,0.05482190
1722.42498413,0.05805808
1724.35379150,0.05295110
1726.28259888,0.05868038
1728.21140625,0.05364677
1730.14021362,0.05369136
1732.06902100,0.05271551
1733.99782837,0.03755583
1735.92663574,0.04883656
1737.85544312,0.05560401
1739.78425049,0.04796660
1741.71305786,0.05303753
1743.64186523,0.05392347
1745.57067261,0.05398765
1747.49947998,0.05441446
1749.42828735,0.05151933
1751.35709473,0.04883891
1753.28590210,0.05511788
1755.21470947,0.05850347
1757.14351685,0.05210691
1759.07232422,0.05853678
1761.00113159,0.05462976
1762.92993896,0.05182255
1764.85874634,0.06146691
1766.78755371,0.05409898
1768.71636108,0.05433804
1770.64516846,0.05428927
1772.57397583,0.04747935
1774.50278320,0.05419338
1776.43159058,0.05787144
1778.36039795,0.05710899
1780.28920532,0.05621244
1782.21801270,0.05669415
1784.14682007,0.05672794
1786.07562744,0.05523092
1788.00443481,0.05905382
1789.93324219,0.05720647
1791.86204956,0.05035600
1793.79085693,0.05298155
1795.71966431,0.05772471
1797.64847168,0.05708797
1799.57727905,0.05587658
1801.50608643,0.05459434
1803.43489380,0.05688609
1805.36370117,0.05848878
1807.29250854,0.05760043
1809.22131592,0.05769142
1811.15012329,0.05581671
1813.07893066,0.05802232
1815.00773804,0.05828205
1816.93654541,0.05749000
1818.86535278,0.05822222
1820.79416016,0.05779603
1822.72296753,0.05889527
1824.65177490,0.05413411
1826.58058228,0.05636738
1828.50938965,0.05686875
1830.43819702,0.05224851
1832.36700439,0.05793701
1834.29581177,0.05785450
1836.22461914,0.05758427
1838.15342651,0.05718464
1840.08223389,0.05764561
1842.01104126,0.05819035
1843.93984863,0.05010244
1845.86865601,0.05396140
1847.79746338,0.05795069
1849.72627075,0.05647080
1851.65507812,0.05854402
1853.58388550,0.05700195
1855.51269287,0.05772585
1857.44150024,0.05737852
1859.37030762,0.05685370
1861.29911499,0.05732664
1863.22792236,0.05667220
1865.15672974,0.05762379
1867.08553711,0.05509468
1869.01434448,0.05220260
1870.94315186,0.05480868
1872.87195923,0.05751766
1874.80076660,0.05647790
1876.72957397,0.05675832
1878.65838135,0.05660819
1880.58718872,0.05610692
1882.51599609,0.05686447
1884.44480347,0.05590541
1886.37361084,0.05682456
1888.30241821,0.05517301
1890.23122559,0.05373096
1892.16003296,0.05648808
1894.08884033,0.05548038
1896.01764771,0.05505447
1897.94645508,0.05603328
1899.87526245,0.05565393
1901.80406982,0.05566508
1903.73287720,0.05534553
1905.66168457,0.05575568
1907.59049194,0.05508585
1909.51929932,0.05479372
1911.44810669,0.05521426
1913.37691406,0.05529343
1915.30572144,0.05587886
1917.23452881,0.05266123
1919.16333618,0.05281173
1921.09214355,0.05553150
1923.02095093,0.05332996
1924.94975830,0.05465730
1926.87856567,0.05534893
1928.80737305,0.05449777
1930.73618042,0.05539849
1932.66498779,0.05442514
1934.59379517,0.05515194
1936.52260254,0.05462532
1938.45140991,0.05476466
1940.38021729,0.05482523
1942.30902466,0.05252109
1944.23783203,0.05391965
1946.16663940,0.05464048
1948.09544678,0.05436840
1950.02425415,0.05478694
1951.95306152,0.05455910
1953.88186890,0.05452796
1955.81067627,0.05427350
1957.73948364,0.05467442
1959.66829102,0.05450971
1961.59709839,0.05427105
1963.52590576,0.05458695
1965.45471313,0.05414913
1967.38352051,0.05336925
1969.31232788,0.05401754
1971.24113525,0.05456641
1973.16994263,0.05388688
1975.09875000,0.05421712
1977.02755737,0.05400235
1978.95636475,0.05396957
1980.88517212,0.05409681
1982.81397949,0.05374291
1984.74278687,0.05399849
1986.67159424,0.05357155
1988.60040161,0.05364258
1990.52920898,0.05304008
1992.45801636,0.05231325
1994.38682373,0.05331026
1996.31563110,0.05344474
1998.24443848,0.05305232
2000.17324585,0.05322571
2002.10205322,0.05312852
2004.03086060,0.05298677
2005.95966797,0.05291359
2007.88847534,0.05266836
2009.81728271,0.05278645
2011.74609009,0.05250445
2013.67489746,0.05246001
2015.60370483,0.05236930
2017.53251221,0.05160161
2019.46131958,0.05207030
2021.39012695,0.05212934
2023.31893433,0.05194381
2025.24774170,0.05210397
2027.17654907,0.05182935
2029.10535645,0.05174013
2031.03416382,0.05147748
2032.96297119,0.05159991
2034.89177856,0.05145258
2036.82058594,0.05140213
2038.74939331,0.05138131
2040.67820068,0.05088769
2042.60700806,0.05094771
2044.53581543,0.05097111
2046.46462280,0.05099589
2048.39343018,0.05083409
2050.32223755,0.05076990
2052.25104492,0.05065788
2054.17985229,0.05035401
2056.10865967,0.05041928
2058.03746704,0.05025747
2059.96627441,0.05019559
2061.89508179,0.05014157
2063.82388916,0.04992222
2065.75269653,0.04975116
2067.68150391,0.04980932
2069.61031128,0.04983481
2071.53911865,0.04978088
2073.46792603,0.04968568
2075.39673340,0.04938937
2077.32554077,0.04959728
2079.25434814,0.04945640
2081.18315552,0.04915981
2083.11196289,0.04914822
2085.04077026,0.04902006
2086.96957764,0.04908686
2088.89838501,0.04898488
2090.82719238,0.04895499
2092.75599976,0.04886930
2094.68480713,0.04881359
2096.61361450,0.04870807
2098.54242187,0.04860479
2100.47122925,0.04864705
2102.40003662,0.04841544
2104.32884399,0.04847421
2106.25765137,0.04835074
2108.18645874,0.04812894
2110.11526611,0.04824120
2112.04407349,0.04827919
2113.97288086,0.04810654
2115.90168823,0.04798374
2117.83049561,0.04805468
2119.75930298,0.04781887
2121.68811035,0.04778936
2123.61691772,0.04780439
2125.54572510,0.04763426
2127.47453247,0.04757576
2129.40333984,0.04747398
2131.33214722,0.04750492
2133.26095459,0.04748495
2135.18976196,0.04740413
2137.11856934,0.04726090
2139.04737671,0.04726996
2140.97618408,0.04730622
2142.90499146,0.04717571
2144.83379883,0.04711336
2146.76260620,0.04713373
2148.69141357,0.04719377
2150.62022095,0.04701363
2152.54902832,0.04691384
2154.47783569,0.04687782
2156.40664307,0.04686155
2158.33545044,0.04691396
2160.26425781,0.04683016
2162.19306519,0.04671123
2164.12187256,0.04664888
2166.05067993,0.04672930
2167.97948730,0.04655493
2169.90829468,0.04647398
2171.83710205,0.04651654
2173.76590942,0.04641324
2175.69471680,0.04635921
2177.62352417,0.04626254
2179.55233154,0.04625912
2181.48113892,0.04627755
2183.40994629,0.04634064
2185.33875366,0.04615886
2187.26756104,0.04614121
2189.19636841,0.04612384
2191.12517578,0.04591267
2193.05398315,0.04606051
2194.98279053,0.04583517
2196.91159790,0.04583742
2198.84040527,0.04582778
2200.76921265,0.04562591
2202.69802002,0.04582730
2204.62682739,0.04566053
2206.55563477,0.04558198
2208.48444214,0.04561290
2210.41324951,0.04557268
2212.34205688,0.04562707
2214.27086426,0.04559024
2216.19967163,0.04543785
2218.12847900,0.04536383
2220.05728638,0.04529989
2221.98609375,0.04513007
2223.91490112,0.04529863
2225.84370850,0.04521918
2227.77251587,0.04500960
2229.70132324,0.04493102
2231.63013062,0.04487790
2233.55893799,0.04494803
2235.48774536,0.04480205
2237.41655273,0.04483723
2239.34536011,0.04474115
2241.27416748,0.04465069
2243.20297485,0.04462563
2245.13178223,0.04443509
2247.06058960,0.04450477
2248.98939697,0.04439158
2250.91820435,0.04428083
2252.84701172,0.04434198
2254.77581909,0.04432575
2256.70462646,0.04419497
2258.63343384,0.04414956
2260.56224121,0.04417054
2262.49104858,0.04395872
2264.41985596,0.04390867
2266.34866333,0.04403734
2268.27747070,0.04394147
2270.20627808,0.04373600
2272.13508545,0.04376632
2274.06389282,0.04373423
2275.99270020,0.04372020
2277.92150757,0.04370414
2279.85031494,0.04354697
2281.77912231,0.04357301
2283.70792969,0.04354487
2285.63673706,0.04361248
2287.56554443,0.04343546
2289.49435181,0.04330900
2291.42315918,0.04338009
2293.35196655,0.04314541
2295.28077393,0.04308610
2297.20958130,0.04288252
2299.13838867,0.04273766
2301.06719604,0.04260746
2302.99600342,0.04242305
2304.92481079,0.04230573
2306.85361816,0.04197074
2308.78242554,0.04178787
2310.71123291,0.04146636
2312.64004028,0.04117291
2314.56884766,0.04080424
2316.49765503,0.04023834
2318.42646240,0.03986705
2320.35526978,0.03948992
2322.28407715,0.03894956
2324.21288452,0.03849861
2326.14169189,0.03822456
2328.07049927,0.03759672
2329.99930664,0.03727277
2331.92811401,0.03709247
2333.85692139,0.03675325
2335.78572876,0.03668553
2337.71453613,0.03664052
2339.64334351,0.03676944
2341.57215088,0.03677140
2343.50095825,0.03715985
2345.42976562,0.03787053
2347.35857300,0.03921314
2349.28738037,0.04044257
2351.21618774,0.03922526
2353.14499512,0.03742719
2355.07380249,0.03616663
2357.00260986,0.03514280
2358.93141724,0.03460019
2360.86022461,0.03422991
2362.78903198,0.03419193
2364.71783936,0.03428594
2366.64664673,0.03468549
2368.57545410,0.03523960
2370.50426147,0.03615825
2372.43306885,0.03712837
2374.36187622,0.03785244
2376.29068359,0.03883756
2378.21949097,0.03950375
2380.14829834,0.04008202
2382.07710571,0.04058012
2384.00591309,0.04079210
2385.93472046,0.04090479
2387.86352783,0.04093473
2389.79233521,0.04094581
2391.72114258,0.04079534
2393.64994995,0.04079345
2395.57875732,0.04073192
2397.50756470,0.04070358
2399.43637207,0.04074775
2401.36517944,0.04050892
2403.29398682,0.04057952
2405.22279419,0.04063208
2407.15160156,0.04040081
2409.08040894,0.04049582
2411.00921631,0.04044511
2412.93802368,0.04033102
2414.86683105,0.04041284
2416.79563843,0.04019714
2418.72444580,0.04020094
2420.65325317,0.04024399
2422.58206055,0.04010122
2424.51086792,0.04007385
2426.43967529,0.03997345
2428.36848267,0.03992781
2430.29729004,0.03976713
2432.22609741,0.03978253
2434.15490479,0.03982944
2436.08371216,0.03977320
2438.01251953,0.03976396
2439.94132690,0.03958006
2441.87013428,0.03960918
2443.79894165,0.03955688
2445.72774902,0.03950544
2447.65655640,0.03949770
2449.58536377,0.03953024
2451.51417114,0.03951190
2453.44297852,0.03917506
2455.37178589,0.03925996
2457.30059326,0.03924469
2459.22940063,0.03914164
2461.15820801,0.03916126
2463.08701538,0.03893431
2465.01582275,0.03889874
2466.94463013,0.03900443
2468.87343750,0.03904372
2470.80224487,0.03881104
2472.73105225,0.03881675
2474.65985962,0.03888008
2476.58866699,0.03866542
2478.51747437,0.03867079
2480.44628174,0.03860722
2482.37508911,0.03854387
2484.30389648,0.03856823
2486.23270386,0.03855547
2488.16151123,0.03849552
2490.09031860,0.03848903
2492.01912598,0.03846786
2493.94793335,0.03839025
2495.87674072,0.03831033
2497.80554810,0.03815601
2499.73435547,0.03821801
2501.66316284,0.03811257
2503.59197021,0.03811453
2505.52077759,0.03822105
2507.44958496,0.03792578
2509.37839233,0.03798121
2511.30719971,0.03808005
2513.23600708,0.03790272
2515.16481445,0.03787789
2517.09362183,0.03789954
2519.02242920,0.03773321
2520.95123657,0.03756873
2522.88004395,0.03759596
2524.80885132,0.03757770
2526.73765869,0.03754690
2528.66646606,0.03757072
2530.59527344,0.03753329
2532.52408081,0.03737346
2534.45288818,0.03737993
2536.38169556,0.03732561
2538.31050293,0.03712374
2540.23931030,0.03717964
2542.16811768,0.03716996
2544.09692505,0.03711961
2546.02573242,0.03709426
2547.95453979,0.03713604
2549.88334717,0.03709626
2551.81215454,0.03694269
2553.74096191,0.03694905
2555.66976929,0.03679290
2557.59857666,0.03677301
2559.52738403,0.03677480
2561.45619141,0.03665544
2563.38499878,0.03674655
2565.31380615,0.03665739
2567.24261353,0.03653399
2569.17142090,0.03660681
2571.10022827,0.03656698
2573.02903564,0.03643392
2574.95784302,0.03635857
2576.88665039,0.03628633
2578.81545776,0.03629167
2580.74426514,0.03624666
2582.67307251,0.03619285
2584.60187988,0.03621493
2586.53068726,0.03611809
2588.45949463,0.03606939
2590.38830200,0.03598067
2592.31710937,0.03588136
2594.24591675,0.03582143
2596.17472412,0.03587509
2598.10353149,0.03595505
2600.03233887,0.03580832
2601.96114624,0.03579073
2603.88995361,0.03573816
2605.81876099,0.03566403
2607.74756836,0.03563377
2609.67637573,0.03554541
2611.60518311,0.03546660
2613.53399048,0.03536203
2615.46279785,0.03543891
2617.39160522,0.03535745
2619.32041260,0.03526694
2621.24921997,0.03533135
2623.17802734,0.03523703
2625.10683472,0.03517274
2627.03564209,0.03519455
2628.96444946,0.03515369
2630.89325684,0.03500726
2632.82206421,0.03499228
2634.75087158,0.03490943
2636.67967895,0.03483996
2638.60848633,0.03489994
2640.53729370,0.03479437
2642.46610107,0.03475879
2644.39490845,0.03472218
2646.32371582,0.03458619
2648.25252319,0.03448857
2650.18133057,0.03456984
2652.11013794,0.03456479
2654.03894531,0.03445368
2655.96775269,0.03453936
2657.89656006,0.03442484
2659.82536743,0.03426436
2661.75417480,0.03426312
2663.68298218,0.03422936
2665.61178955,0.03413714
2667.54059692,0.03403953
2669.46940430,0.03401209
2671.39821167,0.03402295
2673.32701904,0.03403586
2675.25582642,0.03396580
2677.18463379,0.03390265
2679.11344116,0.03377694
2681.04224854,0.03375689
2682.97105591,0.03380498
2684.89986328,0.03365458
2686.82867065,0.03356527
2688.75747803,0.03352507
2690.68628540,0.03353201
2692.61509277,0.03357778
2694.54390015,0.03360253
2696.47270752,0.03343990
2698.40151489,0.03334055
2700.33032227,0.03338912
2702.25912964,0.03313417
2704.18793701,0.03309284
2706.11674438,0.03316244
2708.04555176,0.03312258
2709.97435913,0.03313270
2711.90316650,0.03298487
2713.83197388,0.03294794
2715.76078125,0.03293660
2717.68958862,0.03285116
2719.61839600,0.03278568
2721.54720337,0.03274317
2723.47601074,0.03267905
2725.40481812,0.03267023
2727.33362549,0.03276233
2729.26243286,0.03262938
2731.19124023,0.03248638
2733.12004761,0.03252153
2735.04885498,0.03248605
2736.97766235,0.03232745
2738.90646973,0.03229006
2740.83527710,0.03231455
2742.76408447,0.03215547
2744.69289185,0.03205416
2746.62169922,0.03211374
2748.55050659,0.03213432
2750.47931396,0.03193900
2752.40812134,0.03188743
2754.33692871,0.03204176
2756.26573608,0.03183250
2758.19454346,0.03166677
2760.12335083,0.03179910
2762.05215820,0.03167205
2763.98096558,0.03155632
2765.90977295,0.03160425
2767.83858032,0.03156181
2769.76738770,0.03154048
2771.69619507,0.03131315
2773.62500244,0.03126142
2775.55380981,0.03128440
2777.48261719,0.03106588
2779.41142456,0.03118977
2781.34023193,0.03106494
2783.26903931,0.03092151
2785.19784668,0.03104152
2787.12665405,0.03088157
2789.05546143,0.03085542
2790.98426880,0.03075526
2792.91307617,0.03060143
2794.84188354,0.03064045
2796.77069092,0.03066132
2798.69949829,0.03054070
2800.62830566,0.03039345
2802.55711304,0.03045008
2804.48592041,0.03039053
2806.41472778,0.03028636
2808.34353516,0.03032012
2810.27234253,0.03018159
2812.20114990,0.03000670
2814.12995728,0.03008281
2816.05876465,0.03002994
2817.98757202,0.02990746
2819.91637939,0.02984309
2821.84518677,0.02967335
2823.77399414,0.02973449
2825.70280151,0.02962359
2827.63160889,0.02951682
2829.56041626,0.02958288
2831.48922363,0.02940635
2833.41803101,0.02931874
2835.34683838,0.02914321
2837.27564575,0.02902223
2839.20445312,0.02893593
2841.13326050,0.02873524
2843.06206787,0.02865758
2844.99087524,0.02852406
2846.91968262,0.02831732
2848.84848999,0.02811980
2850.77729736,0.02816165
2852.70610474,0.02818565
2854.63491211,0.02821157
2856.56371948,0.02839175
2858.49252686,0.02836042
2860.42133423,0.02833194
2862.35014160,0.02826240
2864.27894897,0.02816579
2866.20775635,0.02826102
2868.13656372,0.02820851
2870.06537109,0.02801477
2871.99417847,0.02801101
2873.92298584,0.02794537
2875.85179321,0.02783228
2877.78060059,0.02787777
2879.70940796,0.02781072
2881.63821533,0.02773641
2883.56702270,0.02767824
2885.49583008,0.02755738
2887.42463745,0.02745116
2889.35344482,0.02742326
2891.28225220,0.02736790
2893.21105957,0.02727441
2895.13986694,0.02720187
2897.06867432,0.02700136
2898.99748169,0.02696999
2900.92628906,0.02689615
2902.85509644,0.02679934
2904.78390381,0.02679243
2906.71271118,0.02670111
2908.64151855,0.02666323
2910.57032593,0.02642628
2912.49913330,0.02630712
2914.42794067,0.02605824
2916.35674805,0.02584872
2918.28555542,0.02589324
2920.21436279,0.02578216
2922.14317017,0.02601609
2924.07197754,0.02603781
2926.00078491,0.02606610
2927.92959229,0.02623253
2929.85839966,0.02616964
2931.78720703,0.02633551
2933.71601440,0.02632959
2935.64482178,0.02636298
2937.57362915,0.02640237
2939.50243652,0.02634388
2941.43124390,0.02631198
2943.36005127,0.02622652
2945.28885864,0.02628077
2947.21766602,0.02616411
2949.14647339,0.02609862
2951.07528076,0.02606860
2953.00408813,0.02592566
2954.93289551,0.02589890
2956.86170288,0.02581282
2958.79051025,0.02573757
2960.71931763,0.02570716
2962.64812500,0.02558433
2964.57693237,0.02559652
2966.50573975,0.02568492
2968.43454712,0.02559029
2970.36335449,0.02563903
2972.29216187,0.02559853
2974.22096924,0.02548538
2976.14977661,0.02565364
2978.07858398,0.02567162
2980.00739136,0.02551807
2981.93619873,0.02546210
2983.86500610,0.02549670
2985.79381348,0.02544148
2987.72262085,0.02547243
2989.65142822,0.02536602
2991.58023560,0.02521652
2993.50904297,0.02528913
2995.43785034,0.02513101
2997.36665771,0.02514301
2999.29546509,0.02507572
3001.22427246,0.02494945
3003.15307983,0.02493668
3005.08188721,0.02474976
3007.01069458,0.02478384
3008.93950195,0.02475017
3010.86830933,0.02473778
3012.79711670,0.02462216
3014.72592407,0.02443500
3016.65473145,0.02441278
3018.58353882,0.02438291
3020.51234619,0.02437925
3022.44115356,0.02414210
3024.36996094,0.02416771
3026.29876831,0.02413530
3028.22757568,0.02394276
3030.15638306,0.02397433
3032.08519043,0.02386325
3034.01399780,0.02388954
3035.94280518,0.02382665
3037.87161255,0.02369162
3039.80041992,0.02366757
3041.72922729,0.02359809
3043.65803467,0.02351973
3045.58684204,0.02347207
3047.51564941,0.02334516
3049.44445679,0.02317195
3051.37326416,0.02328869
3053.30207153,0.02324984
3055.23087891,0.02312177
3057.15968628,0.02306147
3059.08849365,0.02298271
3061.01730103,0.02286901
3062.94610840,0.02263750
3064.87491577,0.02268604
3066.80372314,0.02264102
3068.73253052,0.02265235
3070.66133789,0.02270925
3072.59014526,0.02250101
3074.51895264,0.02246656
3076.44776001,0.02245151
3078.37656738,0.02239186
3080.30537476,0.02225458
3082.23418213,0.02220867
3084.16298950,0.02222678
3086.09179687,0.02213164
3088.02060425,0.02206836
3089.94941162,0.02194847
3091.87821899,0.02177745
3093.80702637,0.02167130
3095.73583374,0.02170156
3097.66464111,0.02163582
3099.59344849,0.02157336
3101.52225586,0.02147073
3103.45106323,0.02143001
3105.37987061,0.02149310
3107.30867798,0.02128696
3109.23748535,0.02121676
3111.16629272,0.02116480
3113.09510010,0.02110482
3115.02390747,0.02101230
3116.95271484,0.02084912
3118.88152222,0.02088401
3120.81032959,0.02077031
3122.73913696,0.02067281
3124.66794434,0.02055833
3126.59675171,0.02044430
3128.52555908,0.02049593
3130.45436645,0.02047805
3132.38317383,0.02029775
3134.31198120,0.02012919
3136.24078857,0.02015605
3138.16959595,0.02008658
3140.09840332,0.01999023
3142.02721069,0.01995376
3143.95601807,0.01996323
3145.88482544,0.01985730
3147.81363281,0.01969615
3149.74244019,0.01968991
3151.67124756,0.01957276
3153.60005493,0.01953776
3155.52886230,0.01946508
3157.45766968,0.01935124
3159.38647705,0.01935798
3161.31528442,0.01933158
3163.24409180,0.01915918
3165.17289917,0.01902333
3167.10170654,0.01899184
3169.03051392,0.01883382
3170.95932129,0.01894729
3172.88812866,0.01882713
3174.81693604,0.01863904
3176.74574341,0.01867127
3178.67455078,0.01849878
3180.60335815,0.01857048
3182.53216553,0.01844811
3184.46097290,0.01830233
3186.38978027,0.01822308
3188.31858765,0.01820211
3190.24739502,0.01828228
3192.17620239,0.01809509
3194.10500977,0.01808116
3196.03381714,0.01798073
3197.96262451,0.01792208
3199.89143188,0.01781187
3201.82023926,0.01774630
3203.74904663,0.01776082
3205.67785400,0.01763853
3207.60666138,0.01778083
3209.53546875,0.01764536
3211.46427612,0.01763156
3213.39308350,0.01755784
3215.32189087,0.01746530
3217.25069824,0.01751833
3219.17950562,0.01724292
3221.10831299,0.01736194
3223.03712036,0.01731406
3224.96592773,0.01733156
3226.89473511,0.01739511
3228.82354248,0.01715174
3230.75234985,0.01723358
3232.68115723,0.01717740
3234.60996460,0.01708071
3236.53877197,0.01707243
3238.46757935,0.01715558
3240.39638672,0.01715157
3242.32519409,0.01704001
3244.25400146,0.01697416
3246.18280884,0.01695672
3248.11161621,0.01700121
3250.04042358,0.01686190
3251.96923096,0.01696611
3253.89803833,0.01692455
3255.82684570,0.01679424
3257.75565308,0.01679159
3259.68446045,0.01669931
3261.61326782,0.01683938
3263.54207520,0.01680414
3265.47088257,0.01677016
3267.39968994,0.01679785
3269.32849731,0.01679854
3271.25730469,0.01676475
3273.18611206,0.01671730
3275.11491943,0.01668636
3277.04372681,0.01653053
3278.97253418,0.01668437
3280.90134155,0.01671292
3282.83014893,0.01667380
3284.75895630,0.01671131
3286.68776367,0.01659869
3288.61657104,0.01657461
3290.54537842,0.01654619
3292.47418579,0.01656448
3294.40299316,0.01652429
3296.33180054,0.01660740
3298.26060791,0.01662398
3300.18941528,0.01654401
3302.11822266,0.01652141
3304.04703003,0.01652966
3305.97583740,0.01661688
3307.90464478,0.01643403
3309.83345215,0.01644645
3311.76225952,0.01648396
3313.69106689,0.01645450
3315.61987427,0.01647479
3317.54868164,0.01642048
3319.47748901,0.01653797
3321.40629639,0.01643137
3323.33510376,0.01639437
3325.26391113,0.01635316
3327.19271851,0.01628632
3329.12152588,0.01635535
3331.05033325,0.01634133
3332.97914062,0.01640909
3334.90794800,0.01628354
3336.83675537,0.01619754
3338.76556274,0.01621264
3340.69437012,0.01621509
3342.62317749,0.01617224
3344.55198486,0.01611355
3346.48079224,0.01620735
3348.40959961,0.01622474
3350.33840698,0.01615320
3352.26721436,0.01604650
3354.19602173,0.01612108
3356.12482910,0.01612494
3358.05363647,0.01610694
3359.98244385,0.01614157
3361.91125122,0.01604124
3363.84005859,0.01605014
3365.76886597,0.01603365
3367.69767334,0.01604271
3369.62648071,0.01596727
3371.55528809,0.01607911
3373.48409546,0.01613604
3375.41290283,0.01595344
3377.34171020,0.01605868
3379.27051758,0.01599685
3381.19932495,0.01591717
3383.12813232,0.01595653
3385.05693970,0.01595692
3386.98574707,0.01589922
3388.91455444,0.01594486
3390.84336182,0.01588154
3392.77216919,0.01571428
3394.70097656,0.01593484
3396.62978394,0.01583191
3398.55859131,0.01585689
3400.48739868,0.01599087
3402.41620605,0.01590023
3404.34501343,0.01597041
3406.27382080,0.01587833
3408.20262817,0.01594545
3410.13143555,0.01588918
3412.06024292,0.01585987
3413.98905029,0.01587152
3415.91785767,0.01583415
3417.84666504,0.01594792
3419.77547241,0.01584205
3421.70427979,0.01585440
3423.63308716,0.01579695
3425.56189453,0.01583300
3427.49070190,0.01590160
3429.41950928,0.01588008
3431.34831665,0.01598585
3433.27712402,0.01594653
3435.20593140,0.01588702
3437.13473877,0.01581242
3439.06354614,0.01596497
3440.99235352,0.01586454
3442.92116089,0.01578473
3444.84996826,0.01595688
3446.77877563,0.01567983
3448.70758301,0.01574294
3450.63639038,0.01601043
3452.56519775,0.01593639
3454.49400513,0.01584978
3456.42281250,0.01591785
3458.35161987,0.01593840
3460.28042725,0.01581285
3462.20923462,0.01579176
3464.13804199,0.01598288
3466.06684937,0.01603195
3467.99565674,0.01588564
3469.92446411,0.01606416
3471.85327148,0.01603952
3473.78207886,0.01600532
3475.71088623,0.01606057
3477.63969360,0.01604109
3479.56850098,0.01614663
3481.49730835,0.01582760
3483.42611572,0.01590363
3485.35492310,0.01603761
3487.28373047,0.01589439
3489.21253784,0.01603818
3491.14134521,0.01603038
3493.07015259,0.01603295
3494.99895996,0.01608958
3496.92776733,0.01617279
3498.85657471,0.01609804
3500.78538208,0.01606816
3502.71418945,0.01574701
3504.64299683,0.01570836
3506.57180420,0.01633605
3508.50061157,0.01606275
3510.42941895,0.01596628
3512.35822632,0.01623048
3514.28703369,0.01625709
3516.21584106,0.01637390
3518.14464844,0.01623298
3520.07345581,0.01628319
3522.00226318,0.01616329
3523.93107056,0.01591990
3525.85987793,0.01592499
3527.78868530,0.01600054
3529.71749268,0.01611552
3531.64630005,0.01627720
3533.57510742,0.01645482
3535.50391479,0.01621917
3537.43272217,0.01609967
3539.36152954,0.01639320
3541.29033691,0.01645922
3543.21914429,0.01630440
3545.14795166,0.01580250
3547.07675903,0.01554278
3549.00556641,0.01630060
3550.93437378,0.01629703
3552.86318115,0.01595883
3554.79198853,0.01638726
3556.72079590,0.01638590
3558.64960327,0.01651823
3560.57841064,0.01622460
3562.50721802,0.01618632
3564.43602539,0.01637772
3566.36483276,0.01500903
3568.29364014,0.01470499
3570.22244751,0.01609675
3572.15125488,0.01667414
3574.08006226,0.01635353
3576.00886963,0.01646466
3577.93767700,0.01645829
3579.86648437,0.01640448
3581.79529175,0.01647118
3583.72409912,0.01645356
3585.65290649,0.01618805
3587.58171387,0.01446295
3589.51052124,0.01497624
3591.43932861,0.01666389
3593.36813599,0.01601531
3595.29694336,0.01586251
3597.22575073,0.01624161
3599.15455811,0.01640031
3601.08336548,0.01614948
3603.01217285,0.01638888
3604.94098022,0.01673594
3606.86978760,0.01592645
3608.79859497,0.01488852
3610.72740234,0.01528913
3612.65620972,0.01584265
3614.58501709,0.01522811
3616.51382446,0.01651729
3618.44263184,0.01509059
3620.37143921,0.01431168
3622.30024658,0.01669623
3624.22905395,0.01623958
3626.15786133,0.01712812
3628.08666870,0.01409407
3630.01547607,0.01254920
3631.94428345,0.01654161
3633.87309082,0.01601432
3635.80189819,0.01634457
3637.73070557,0.01678894
3639.65951294,0.01659987
3641.58832031,0.01667089
3643.51712769,0.01638702
3645.44593506,0.01664130
3647.37474243,0.01457569
3649.30354980,0.01317717
3651.23235718,0.01337953
3653.16116455,0.01653844
3655.08997192,0.01632826
3657.01877930,0.01428915
3658.94758667,0.01684902
3660.87639404,0.01634413
3662.80520142,0.01679129
3664.73400879,0.01679923
3666.66281616,0.01657505
3668.59162354,0.01596854
3670.52043091,0.01255145
3672.44923828,0.01596464
3674.37804565,0.01491175
3676.30685303,0.01180637
3678.23566040,0.01571272
3680.16446777,0.01616787
3682.09327515,0.01623381
3684.02208252,0.01674580
3685.95088989,0.01645456
3687.87969727,0.01457369
3689.80850464,0.01303338
3691.73731201,0.01524392
3693.66611938,0.01584932
3695.59492676,0.01629679
3697.52373413,0.01629801
3699.45254150,0.01611684
3701.38134888,0.01565742
3703.31015625,0.01490569
3705.23896362,0.01664821
3707.16777100,0.01580856
3709.09657837,0.01521876
3711.02538574,0.01421053
3712.95419312,0.01316983
3714.88300049,0.01573924
3716.81180786,0.01567701
3718.74061523,0.01581412
3720.66942261,0.01533700
3722.59822998,0.01470350
3724.52703735,0.01533034
3726.45584473,0.01411817
3728.38465210,0.01552401
3730.31345947,0.01542754
3732.24226685,0.01385035
3734.17107422,0.01333888
3736.09988159,0.01256596
3738.02868896,0.01345256
3739.95749634,0.01491563
3741.88630371,0.01570335
3743.81511108,0.01171101
3745.74391846,0.01086367
3747.67272583,0.01478932
3749.60153320,0.01244224
3751.53034058,0.01113031
3753.45914795,0.01329543
3755.38795532,0.01454091
3757.31676270,0.01513893
3759.24557007,0.01378958
3761.17437744,0.01440279
3763.10318481,0.01553385
3765.03199219,0.01420645
3766.96079956,0.01460738
3768.88960693,0.01438304
3770.81841431,0.01354117
3772.74722168,0.01498597
3774.67602905,0.01500953
3776.60483643,0.01505680
3778.53364380,0.01458608
3780.46245117,0.01387186
3782.39125854,0.01496927
3784.32006592,0.01458045
3786.24887329,0.01451516
3788.17768066,0.01489858
3790.10648804,0.01480489
3792.03529541,0.01468489
3793.96410278,0.01492930
3795.89291016,0.01387971
3797.82171753,0.01360542
3799.75052490,0.01448085
3801.67933228,0.01103363
3803.60813965,0.01325197
3805.53694702,0.01465037
3807.46575439,0.01149631
3809.39456177,0.01442330
3811.32336914,0.01419612
3813.25217651,0.01472026
3815.18098389,0.01307547
3817.10979126,0.01116113
3819.03859863,0.01472893
3820.96740601,0.01138043
3822.89621338,0.01207142
3824.82502075,0.01465150
3826.75382812,0.01292740
3828.68263550,0.01415223
3830.61144287,0.01356055
3832.54025024,0.01303035
3834.46905762,0.01333148
3836.39786499,0.01256807
3838.32667236,0.01130032
3840.25547974,0.01220321
3842.18428711,0.01330189
3844.11309448,0.01258640
3846.04190186,0.01381570
3847.97070923,0.01388474
3849.89951660,0.01380573
3851.82832397,0.01206717
3853.75713135,0.00863120
3855.68593872,0.01059642
3857.61474609,0.01366416
3859.54355347,0.01328610
3861.47236084,0.01308388
3863.40116821,0.01274204
3865.32997559,0.01180125
3867.25878296,0.01336914
3869.18759033,0.01205790
3871.11639770,0.01094548
3873.04520508,0.01334754
3874.97401245,0.01212375
3876.90281982,0.01331695
3878.83162720,0.01362568
3880.76043457,0.01121551
3882.68924194,0.01342949
3884.61804932,0.01239361
3886.54685669,0.01105891
3888.47566406,0.01347870
3890.40447144,0.01255702
3892.33327881,0.01167383
3894.26208618,0.01302991
3896.19089355,0.01328775
3898.11970093,0.01257103
3900.04850830,0.01169063
3901.97731567,0.01152182
3903.90612305,0.01134961
3905.83493042,0.01162558
3907.76373779,0.01294350
3909.69254517,0.01297090
3911.62135254,0.01291583
3913.55015991,0.01311169
3915.47896728,0.01258842
3917.40777466,0.01214824
3919.33658203,0.01202882
3921.26538940,0.01263587
3923.19419678,0.01253758
3925.12300415,0.01222674
3927.05181152,0.01252803
3928.98061890,0.01267941
3930.90942627,0.01232880
3932.83823364,0.01181841
3934.76704102,0.01245904
3936.69584839,0.01256912
3938.62465576,0.01241573
3940.55346313,0.01267730
3942.48227051,0.01208308
3944.41107788,0.01212951
3946.33988525,0.01244036
3948.26869263,0.01204296
3950.19750000,0.01197202
3952.12630737,0.01226957
3954.05511475,0.01236656
3955.98392212,0.01233914
3957.91272949,0.01229289
3959.84153687,0.01224817
3961.77034424,0.01209782
3963.69915161,0.01208623
3965.62795898,0.01228819
3967.55676636,0.01209772
3969.48557373,0.01209493
3971.41438110,0.01214418
3973.34318848,0.01207938
3975.27199585,0.01205276
3977.20080322,0.01191700
3979.12961060,0.01204681
3981.05841797,0.01191805
3982.98722534,0.01185265
3984.91603271,0.01191622
3986.84484009,0.01190188
3988.77364746,0.01182934
3990.70245483,0.01170700
3992.63126221,0.01189867
3994.56006958,0.01183538
3996.48887695,0.01178071
3998.41768433,0.01174269
4000.34649170,0.01178691
4002.27529907,0.01185939
4004.20410645,0.01167380
4006.13291382,0.01166536
4008.06172119,0.01155329
4009.99052856,0.01165366
4011.91933594,0.01164964
4013.84814331,0.01153521
4015.77695068,0.01156043
4017.70575806,0.01143269
4019.63456543,0.01148099
4021.56337280,0.01147857
4023.49218018,0.01148844
4025.42098755,0.01141087
4027.34979492,0.01143178
4029.27860229,0.01144319
4031.20740967,0.01126754
4033.13621704,0.01133981
4035.06502441,0.01128542
4036.99383179,0.01122309
4038.92263916,0.01127003
4040.85144653,0.01130659
4042.78025391,0.01117248
4044.70906128,0.01105393
4046.63786865,0.01114994
4048.56667603,0.01116750
4050.49548340,0.01115277
4052.42429077,0.01107740
4054.35309814,0.01101825
4056.28190552,0.01098295
4058.21071289,0.01114382
4060.13952026,0.01109892
4062.06832764,0.01089584
4063.99713501,0.01096835
4065.92594238,0.01091132
4067.85474976,0.01090890
4069.78355713,0.01086089
4071.71236450,0.01091509
4073.64117187,0.01088084
4075.56997925,0.01077038
4077.49878662,0.01081878
4079.42759399,0.01062435
4081.35640137,0.01076071
4083.28520874,0.01079864
4085.21401611,0.01062679
4087.14282349,0.01067323
4089.07163086,0.01066877
4091.00043823,0.01064623
4092.92924561,0.01057619
4094.85805298,0.01059489
4096.78686035,0.01057539
4098.71566772,0.01056565
4100.64447510,0.01049458
4102.57328247,0.01047179
4104.50208984,0.01047819
4106.43089722,0.01034684
4108.35970459,0.01036604
4110.28851196,0.01034205
4112.21731934,0.01041755
4114.14612671,0.01038814
4116.07493408,0.01030002
4118.00374145,0.01033100
4119.93254883,0.01028439
4121.86135620,0.01029166
4123.79016357,0.01021841
4125.71897095,0.01031456
4127.64777832,0.01029472
4129.57658569,0.01013087
4131.50539307,0.01015035
4133.43420044,0.01008540
4135.36300781,0.01009890
4137.29181519,0.01014956
4139.22062256,0.01003858
4141.14942993,0.00996371
4143.07823730,0.01002876
4145.00704468,0.00998558
4146.93585205,0.00996622
4148.86465942,0.00992110
4150.79346680,0.00985504
4152.72227417,0.00991808
4154.65108154,0.00988090
4156.57988892,0.00986231
4158.50869629,0.00984478
4160.43750366,0.00989214
4162.36631103,0.00974628
4164.29511841,0.00968848
4166.22392578,0.00979483
4168.15273315,0.00963855
4170.08154053,0.00972516
4172.01034790,0.00966441
4173.93915527,0.00966322
4175.86796265,0.00971402
4177.79677002,0.00955380
4179.72557739,0.00963075
4181.65438477,0.00952544
4183.58319214,0.00953572
4185.51199951,0.00957452
4187.44080688,0.00951210
4189.36961426,0.00954352
4191.29842163,0.00942613
4193.22722900,0.00940462
4195.15603638,0.00946686
4197.08484375,0.00942251
4199.01365112,0.00934717
4200.94245850,0.00940068
4202.87126587,0.00933939
4204.80007324,0.00928589
4206.72888062,0.00930535
4208.65768799,0.00926150
4210.58649536,0.00924595
4212.51530273,0.00920801
4214.44411011,0.00930165
4216.37291748,0.00917848
4218.30172485,0.00910600
4220.23053223,0.00916023
4222.15933960,0.00908007
4224.08814697,0.00915489
4226.01695435,0.00911416
4227.94576172,0.00910115
4229.87456909,0.00911498
4231.80337646,0.00906783
4233.73218384,0.00898351
4235.66099121,0.00897393
4237.58979858,0.00906279
4239.51860596,0.00894440
4241.44741333,0.00891522
4243.37622070,0.00892707
4245.30502808,0.00889172
4247.23383545,0.00889697
4249.16264282,0.00890815
4251.09145020,0.00880169
4253.02025757,0.00882430
4254.94906494,0.00890265
4256.87787231,0.00868280
4258.80667969,0.00873853
4260.73548706,0.00864171
4262.66429443,0.00860379
4264.59310181,0.00882450
4266.52190918,0.00865144
4268.45071655,0.00869159
4270.37952393,0.00875775
4272.30833130,0.00863815
4274.23713867,0.00856561
4276.16594604,0.00859996
4278.09475342,0.00862879
4280.02356079,0.00854704
4281.95236816,0.00853153
4283.88117554,0.00845011
4285.80998291,0.00852212
4287.73879028,0.00855309
4289.66759766,0.00840710
4291.59640503,0.00834623
4293.52521240,0.00841262
4295.45401978,0.00843250
4297.38282715,0.00837735
4299.31163452,0.00842975
4301.24044189,0.00831488
4303.16924927,0.00834456
4305.09805664,0.00837061
4307.02686401,0.00824756
4308.95567139,0.00828083
4310.88447876,0.00819092
4312.81328613,0.00820509
4314.74209351,0.00823504
4316.67090088,0.00819290
4318.59970825,0.00818858
4320.52851562,0.00814517
4322.45732300,0.00808593
4324.38613037,0.00807427
4326.31493774,0.00813041
4328.24374512,0.00803566
4330.17255249,0.00798951
4332.10135986,0.00803845
4334.03016724,0.00801986
4335.95897461,0.00793854
4337.88778198,0.00792870
4339.81658936,0.00794756
4341.74539673,0.00793214
4343.67420410,0.00795302
4345.60301147,0.00784507
4347.53181885,0.00785299
4349.46062622,0.00782399
4351.38943359,0.00779429
4353.31824097,0.00785547
4355.24704834,0.00778427
4357.17585571,0.00777405
4359.10466309,0.00769819
4361.03347046,0.00780841
4362.96227783,0.00788993
4364.89108520,0.00778708
4366.81989258,0.00774513
4368.74869995,0.00767026
4370.67750732,0.00768513
4372.60631470,0.00761129
4374.53512207,0.00765184
4376.46392944,0.00766051
4378.39273682,0.00758971
4380.32154419,0.00769343
4382.25035156,0.00762680
4384.17915894,0.00752532
4386.10796631,0.00750704
4388.03677368,0.00750942
4389.96558105,0.00750585
4391.89438843,0.00754866
4393.82319580,0.00754564
4395.75200317,0.00747952
4397.68081055,0.00748343
4399.60961792,0.00742995
4401.53842529,0.00732917
4403.46723267,0.00726366
4405.39604004,0.00734447
4407.32484741,0.00730460
4409.25365478,0.00724343
4411.18246216,0.00730607
4413.11126953,0.00730578
4415.04007690,0.00734451
4416.96888428,0.00724622
4418.89769165,0.00717726
4420.82649902,0.00723730
4422.75530640,0.00730104
4424.68411377,0.00724375
4426.61292114,0.00714227
4428.54172852,0.00717586
4430.47053589,0.00712499
4432.39934326,0.00710931
4434.32815063,0.00712301
4436.25695801,0.00716920
4438.18576538,0.00714848
4440.11457275,0.00707233
4442.04338013,0.00709087
4443.97218750,0.00701591
4445.90099487,0.00698799
4447.82980225,0.00701036
4449.75860962,0.00704343
4451.68741699,0.00695107
4453.61622437,0.00687910
4455.54503174,0.00691001
4457.47383911,0.00690629
4459.40264648,0.00693718
4461.33145386,0.00684299
4463.26026123,0.00680925
4465.18906860,0.00678503
4467.11787598,0.00685655
4469.04668335,0.00680549
4470.97549072,0.00670864
4472.90429810,0.00689606
4474.83310547,0.00674261
4476.76191284,0.00671733
4478.69072021,0.00675674
4480.61952759,0.00669228
4482.54833496,0.00676960
4484.47714233,0.00668202
4486.40594971,0.00671379
4488.33475708,0.00664923
4490.26356445,0.00658757
4492.19237183,0.00660970
4494.12117920,0.00658655
4496.04998657,0.00658297
4497.97879395,0.00651719
4499.90760132,0.00656625
4501.83640869,0.00652375
4503.76521606,0.00650189
4505.69402344,0.00652658
4507.62283081,0.00649322
4509.55163818,0.00646755
4511.48044556,0.00643096
4513.40925293,0.00646070
4515.33806030,0.00643906
4517.26686768,0.00641492
4519.19567505,0.00638978
4521.12448242,0.00637584
4523.05328979,0.00636834
4524.98209717,0.00638024
4526.91090454,0.00631530
4528.83971191,0.00631376
4530.76851929,0.00640896
4532.69732666,0.00627988
4534.62613403,0.00630921
4536.55494141,0.00629048
4538.48374878,0.00624486
4540.41255615,0.00630122
4542.34136353,0.00621507
4544.27017090,0.00619542
4546.19897827,0.00614710
4548.12778564,0.00625037
4550.05659302,0.00619195
4551.98540039,0.00610960
4553.91420776,0.00613161
4555.84301514,0.00601782
4557.77182251,0.00613543
4559.70062988,0.00606208
4561.62943726,0.00606964
4563.55824463,0.00607395
4565.48705200,0.00594305
4567.41585937,0.00606597
4569.34466675,0.00601396
4571.27347412,0.00601590
4573.20228149,0.00595523
4575.13108887,0.00593372
4577.05989624,0.00606588
4578.98870361,0.00596242
4580.91751099,0.00589537
4582.84631836,0.00586866
4584.77512573,0.00589993
4586.70393311,0.00589638
4588.63274048,0.00586647
4590.56154785,0.00592339
4592.49035522,0.00580538
4594.41916260,0.00568020
4596.34796997,0.00575609
4598.27677734,0.00581101
4600.20558472,0.00575625
4602.13439209,0.00574896
4604.06319946,0.00574067
4605.99200684,0.00572558
4607.92081421,0.00573115
4609.84962158,0.00573666
4611.77842895,0.00574895
4613.70723633,0.00570897
4615.63604370,0.00567391
4617.56485107,0.00564010
4619.49365845,0.00558486
4621.42246582,0.00554620
4623.35127319,0.00561291
4625.28008057,0.00563065
4627.20888794,0.00557865
4629.13769531,0.00562649
4631.06650269,0.00554441
4632.99531006,0.00551134
4634.92411743,0.00560054
4636.85292480,0.00558689
4638.78173218,0.00553036
4640.71053955,0.00545797
4642.63934692,0.00549918
4644.56815430,0.00546270
4646.49696167,0.00540955
4648.42576904,0.00548975
4650.35457642,0.00543939
4652.28338379,0.00546886
4654.21219116,0.00545401
4656.14099853,0.00539085
4658.06980591,0.00544345
4659.99861328,0.00532306
4661.92742065,0.00532838
4663.85622803,0.00531500
4665.78503540,0.00526286
4667.71384277,0.00539997
4669.64265015,0.00530299
4671.57145752,0.00526596
4673.50026489,0.00529111
4675.42907227,0.00527552
4677.35787964,0.00537598
4679.28668701,0.00529603
4681.21549438,0.00516130
4683.14430176,0.00513097
4685.07310913,0.00520139
4687.00191650,0.00519925
4688.93072388,0.00518099
4690.85953125,0.00518580
4692.78833862,0.00508095
4694.71714600,0.00514733
4696.64595337,0.00518021
4698.57476074,0.00509750
4700.50356812,0.00510392
4702.43237549,0.00512100
4704.36118286,0.00511336
4706.28999023,0.00509821
4708.21879761,0.00507476
4710.14760498,0.00503350
4712.07641235,0.00502630
4714.00521973,0.00499225
4715.93402710,0.00505920
4717.86283447,0.00504301
4719.79164185,0.00493525
4721.72044922,0.00499793
4723.64925659,0.00495111
4725.57806396,0.00495563
4727.50687134,0.00500215
4729.43567871,0.00493202
4731.36448608,0.00486832
4733.29329346,0.00485999
4735.22210083,0.00490584
4737.15090820,0.00491520
4739.07971558,0.00489136
4741.00852295,0.00476026
4742.93733032,0.00478627
4744.86613770,0.00480958
4746.79494507,0.00478216
4748.72375244,0.00485717
4750.65255981,0.00470923
4752.58136719,0.00479227
4754.51017456,0.00485301
4756.43898193,0.00468770
4758.36778931,0.00475720
4760.29659668,0.00474009
4762.22540405,0.00468281
4764.15421143,0.00470291
4766.08301880,0.00470579
4768.01182617,0.00466125
4769.94063354,0.00460149
4771.86944092,0.00458189
4773.79824829,0.00458928
4775.72705566,0.00464871
4777.65586304,0.00464942
4779.58467041,0.00462166
4781.51347778,0.00461474
4783.44228516,0.00464573
4785.37109253,0.00463406
4787.29989990,0.00460789
4789.22870728,0.00458255
4791.15751465,0.00450216
4793.08632202,0.00455995
4795.01512939,0.00454823
4796.94393677,0.00449600
4798.87274414,0.00449489
4800.80155151,0.00442964
4802.73035889,0.00450601
4804.65916626,0.00452027
4806.58797363,0.00445522
4808.51678101,0.00447382
4810.44558838,0.00446755
4812.37439575,0.00450530
4814.30320312,0.00453898
4816.23201050,0.00448526
4818.16081787,0.00439695
4820.08962524,0.00436002
4822.01843262,0.00433126
4823.94723999,0.00429459
4825.87604736,0.00434932
4827.80485474,0.00437457
4829.73366211,0.00440504
4831.66246948,0.00439109
4833.59127686,0.00427479
4835.52008423,0.00432536
4837.44889160,0.00434370
4839.37769897,0.00429771
4841.30650635,0.00429480
4843.23531372,0.00422952
4845.16412109,0.00429634
4847.09292847,0.00432828
4849.02173584,0.00426963
4850.95054321,0.00423646
4852.87935059,0.00416023
4854.80815796,0.00420608
4856.73696533,0.00427265
4858.66577270,0.00420596
4860.59458008,0.00414278
4862.52338745,0.00413215
4864.45219482,0.00411530
4866.38100220,0.00407805
4868.30980957,0.00406741
4870.23861694,0.00414042
4872.16742432,0.00412961
4874.09623169,0.00406323
4876.02503906,0.00406847
4877.95384644,0.00400059
4879.88265381,0.00403786
4881.81146118,0.00403075
4883.74026855,0.00394183
4885.66907593,0.00403470
4887.59788330,0.00408257
4889.52669067,0.00403285
4891.45549805,0.00397304
4893.38430542,0.00402426
4895.31311279,0.00401378
4897.24192017,0.00397388
4899.17072754,0.00400557
4901.09953491,0.00392567
4903.02834228,0.00393111
4904.95714966,0.00393250
4906.88595703,0.00393773
4908.81476440,0.00393397
4910.74357178,0.00390752
4912.67237915,0.00393461
4914.60118652,0.00393110
4916.52999390,0.00387941
4918.45880127,0.00379856
4920.38760864,0.00397354
4922.31641602,0.00389954
4924.24522339,0.00379960
4926.17403076,0.00398411
4928.10283813,0.00384229
4930.03164551,0.00385219
4931.96045288,0.00383863
4933.88926025,0.00370443
4935.81806763,0.00371613
4937.74687500,0.00370255
4939.67568237,0.00374558
4941.60448975,0.00372276
4943.53329712,0.00379662
4945.46210449,0.00381882
4947.39091187,0.00371724
4949.31971924,0.00368291
4951.24852661,0.00372404
4953.17733398,0.00368717
4955.10614136,0.00361679
4957.03494873,0.00375239
4958.96375610,0.00368415
4960.89256348,0.00362417
4962.82137085,0.00362693
4964.75017822,0.00356756
4966.67898560,0.00364947
4968.60779297,0.00358457
4970.53660034,0.00359110
4972.46540771,0.00366502
4974.39421509,0.00362838
4976.32302246,0.00357571
4978.25182983,0.00356220
4980.18063721,0.00355021
4982.10944458,0.00348965
4984.03825195,0.00352683
4985.96705933,0.00353284
4987.89586670,0.00348784
4989.82467407,0.00347861
4991.75348145,0.00351173
4993.68228882,0.00343835
4995.61109619,0.00340811
4997.53990356,0.00349529
4999.46871094,0.00344117
5001.39751831,0.00344307
5003.32632568,0.00341619
5005.25513306,0.00345288
5007.18394043,0.00348270
5009.11274780,0.00340157
5011.04155518,0.00343198
5012.97036255,0.00340652
5014.89916992,0.00344138
5016.82797729,0.00337849
5018.75678467,0.00333753
5020.68559204,0.00341620
5022.61439941,0.00332379
5024.54320679,0.00333274
5026.47201416,0.00337677
5028.40082153,0.00333570
5030.32962891,0.00334064
5032.25843628,0.00337309
5034.18724365,0.00333085
5036.11605103,0.00332002
5038.04485840,0.00334235
5039.97366577,0.00325629
5041.90247314,0.00324846
5043.83128052,0.00328074
5045.76008789,0.00321991
5047.68889526,0.00320010
5049.61770264,0.00323257
5051.54651001,0.00318330
5053.47531738,0.00326483
5055.40412476,0.00328386
5057.33293213,0.00316326
5059.26173950,0.00319955
5061.19054687,0.00314053
5063.11935425,0.00322233
5065.04816162,0.00324646
5066.97696899,0.00316979
5068.90577637,0.00325848
5070.83458374,0.00315314
5072.76339111,0.00312190
5074.69219849,0.00313503
5076.62100586,0.00314973
5078.54981323,0.00316512
5080.47862061,0.00317144
5082.40742798,0.00317705
5084.33623535,0.00305329
5086.26504272,0.00310263
5088.19385010,0.00303740
5090.12265747,0.00304451
5092.05146484,0.00313023
5093.98027222,0.00301188
5095.90907959,0.00310345
5097.83788696,0.00313351
5099.76669434,0.00303272
5101.69550171,0.00299782
5103.62430908,0.00300823
5105.55311645,0.00295984
5107.48192383,0.00294335
5109.41073120,0.00302754
5111.33953857,0.00300162
5113.26834595,0.00297526
5115.19715332,0.00296314
5117.12596069,0.00300640
5119.05476807,0.00296078
5120.98357544,0.00289859
5122.91238281,0.00294166
5124.84119019,0.00292871
5126.76999756,0.00299299
5128.69880493,0.00296353
5130.62761230,0.00290200
5132.55641968,0.00290109
5134.48522705,0.00291134
5136.41403442,0.00291183
5138.34284180,0.00289566
5140.27164917,0.00294410
5142.20045654,0.00286225
5144.12926392,0.00286475
5146.05807129,0.00290171
5147.98687866,0.00284167
5149.91568603,0.00284666
5151.84449341,0.00282782
5153.77330078,0.00282632
5155.70210815,0.00279434
5157.63091553,0.00279224
5159.55972290,0.00281807
5161.48853027,0.00281756
5163.41733765,0.00276428
5165.34614502,0.00275646
5167.27495239,0.00281283
5169.20375977,0.00268947
5171.13256714,0.00271860
5173.06137451,0.00280455
5174.99018188,0.00275397
5176.91898926,0.00275536
5178.84779663,0.00269135
5180.77660400,0.00272092
5182.70541138,0.00272518
5184.63421875,0.00267805
5186.56302612,0.00271149
5188.49183350,0.00264287
5190.42064087,0.00266462
5192.34944824,0.00270792
5194.27825562,0.00267198
5196.20706299,0.00266201
5198.13587036,0.00261988
5200.06467773,0.00272323
5201.99348511,0.00272995
5203.92229248,0.00259243
5205.85109985,0.00258466
5207.77990723,0.00252181
5209.70871460,0.00257091
5211.63752197,0.00264580
5213.56632935,0.00262998
5215.49513672,0.00265137
5217.42394409,0.00255181
5219.35275146,0.00249943
5221.28155884,0.00255899
5223.21036621,0.00258608
5225.13917358,0.00252003
5227.06798096,0.00254645
5228.99678833,0.00258087
5230.92559570,0.00250953
5232.85440308,0.00255813
5234.78321045,0.00250659
5236.71201782,0.00252129
5238.64082520,0.00256049
5240.56963257,0.00252490
5242.49843994,0.00257792
5244.42724731,0.00247970
5246.35605469,0.00249342
5248.28486206,0.00249680
5250.21366943,0.00243559
5252.14247681,0.00251408
5254.07128418,0.00249879
5256.00009155,0.00241884
5257.92889893,0.00239713
5259.85770630,0.00251850
5261.78651367,0.00246459
5263.71532104,0.00236670
5265.64412842,0.00244318
5267.57293579,0.00241554
5269.50174316,0.00240163
5271.43055054,0.00237345
5273.35935791,0.00238704
5275.28816528,0.00240535
5277.21697266,0.00233043
5279.14578003,0.00230027
5281.07458740,0.00231491
5283.00339478,0.00237644
5284.93220215,0.00234282
5286.86100952,0.00231908
5288.78981689,0.00235872
5290.71862427,0.00234742
5292.64743164,0.00234669
5294.57623901,0.00232960
5296.50504639,0.00237931
5298.43385376,0.00241031
5300.36266113,0.00225969
5302.29146851,0.00219734
5304.22027588,0.00229654
5306.14908325,0.00227850
5308.07789062,0.00228518
5310.00669800,0.00233743
5311.93550537,0.00228131
5313.86431274,0.00229597
5315.79312012,0.00231365
5317.72192749,0.00229059
5319.65073486,0.00224481
5321.57954224,0.00223496
5323.50834961,0.00227438
5325.43715698,0.00220118
5327.36596436,0.00220600
5329.29477173,0.00226912
5331.22357910,0.00224604
5333.15238647,0.00218236
5335.08119385,0.00217825
5337.01000122,0.00221067
5338.93880859,0.00213526
5340.86761597,0.00218815
5342.79642334,0.00220836
5344.72523071,0.00210650
5346.65403809,0.00214552
5348.58284546,0.00216486
5350.51165283,0.00215487
5352.44046020,0.00209696
5354.36926758,0.00211531
5356.29807495,0.00218154
5358.22688232,0.00214768
5360.15568970,0.00217556
5362.08449707,0.00211591
5364.01330444,0.00214437
5365.94211182,0.00220524
5367.87091919,0.00212483
5369.79972656,0.00216154
5371.72853394,0.00215924
5373.65734131,0.00211796
5375.58614868,0.00204101
5377.51495605,0.00200239
5379.44376343,0.00206275
5381.37257080,0.00206708
5383.30137817,0.00212690
5385.23018555,0.00209690
5387.15899292,0.00200937
5389.08780029,0.00203869
5391.01660767,0.00210066
5392.94541504,0.00207938
5394.87422241,0.00201196
5396.80302978,0.00201792
5398.73183716,0.00199671
5400.66064453,0.00203931
5402.58945190,0.00204316
5404.51825928,0.00196395
5406.44706665,0.00197445
5408.37587402,0.00194103
5410.30468140,0.00196218
5412.23348877,0.00197899
5414.16229614,0.00190018
5416.09110352,0.00195917
5418.01991089,0.00202398
5419.94871826,0.00198239
5421.87752563,0.00201913
5423.80633301,0.00198040
5425.73514038,0.00192619
5427.66394775,0.00197801
5429.59275513,0.00187209
5431.52156250,0.00187937
5433.45036987,0.00194064
5435.37917725,0.00185017
5437.30798462,0.00186782
5439.23679199,0.00188284
5441.16559936,0.00187667
5443.09440674,0.00187206
5445.02321411,0.00185944
5446.95202148,0.00184601
5448.88082886,0.00184972
5450.80963623,0.00183659
5452.73844360,0.00182034
5454.66725098,0.00193972
5456.59605835,0.00192336
5458.52486572,0.00183247
5460.45367310,0.00181041
5462.38248047,0.00184283
5464.31128784,0.00188172
5466.24009521,0.00179803
5468.16890259,0.00183558
5470.09770996,0.00185378
5472.02651733,0.00184578
5473.95532471,0.00185812
5475.88413208,0.00174910
5477.81293945,0.00178394
5479.74174683,0.00188889
5481.67055420,0.00185079
5483.59936157,0.00179350
5485.52816895,0.00184313
5487.45697632,0.00179137
5489.38578369,0.00173574
5491.31459106,0.00171832
5493.24339844,0.00163243
5495.17220581,0.00175483
5497.10101318,0.00178557
5499.02982056,0.00172475
5500.95862793,0.00171927
5502.88743530,0.00168426
5504.81624268,0.00180130
5506.74505005,0.00181612
5508.67385742,0.00172393
5510.60266479,0.00167429
5512.53147217,0.00172086
5514.46027954,0.00179549
5516.38908691,0.00170579
5518.31789429,0.00168919
5520.24670166,0.00172301
5522.17550903,0.00168458
5524.10431641,0.00170483
5526.03312378,0.00171313
5527.96193115,0.00166426
5529.89073853,0.00167903
5531.81954590,0.00167912
5533.74835327,0.00166048
5535.67716064,0.00173244
5537.60596802,0.00173593
5539.53477539,0.00169318
5541.46358276,0.00167924
5543.39239014,0.00164528
5545.32119751,0.00163958
5547.25000488,0.00167591
5549.17881226,0.00166995
5551.10761963,0.00162896
5553.03642700,0.00162413
5554.96523437,0.00160089
5556.89404175,0.00163331
5558.82284912,0.00163408
5560.75165649,0.00159569
5562.68046387,0.00163451
5564.60927124,0.00161492
5566.53807861,0.00163603
5568.46688599,0.00162637
5570.39569336,0.00157568
5572.32450073,0.00161701
5574.25330811,0.00162384
5576.18211548,0.00158901
5578.11092285,0.00152041
5580.03973022,0.00157194
5581.96853760,0.00162639
5583.89734497,0.00154347
5585.82615234,0.00159437
5587.75495972,0.00163821
5589.68376709,0.00158986
5591.61257446,0.00158573
5593.54138184,0.00156162
5595.47018921,0.00151783
5597.39899658,0.00150559
5599.32780395,0.00152204
5601.25661133,0.00151278
5603.18541870,0.00157887
5605.11422607,0.00164267
5607.04303345,0.00156423
5608.97184082,0.00154224
5610.90064819,0.00153707
5612.82945557,0.00154550
5614.75826294,0.00154238
5616.68707031,0.00150565
5618.61587769,0.00156310
5620.54468506,0.00147825
5622.47349243,0.00148622
5624.40229980,0.00158583
5626.33110718,0.00150775
5628.25991455,0.00154423
5630.18872192,0.00148592
5632.11752930,0.00143287
5634.04633667,0.00148559
5635.97514404,0.00140863
5637.90395142,0.00146154
5639.83275879,0.00151916
5641.76156616,0.00151793
5643.69037353,0.00148543
5645.61918091,0.00140992
5647.54798828,0.00149677
5649.47679565,0.00147601
5651.40560303,0.00141554
5653.33441040,0.00149407
5655.26321777,0.00141181
5657.19202515,0.00140023
5659.12083252,0.00149296
5661.04963989,0.00143226
5662.97844727,0.00143390
5664.90725464,0.00142124
5666.83606201,0.00139443
5668.76486938,0.00145271
5670.69367676,0.00140988
5672.62248413,0.00140083
5674.55129150,0.00143298
5676.48009888,0.00138873
5678.40890625,0.00139015
5680.33771362,0.00143583
5682.26652100,0.00140555
5684.19532837,0.00134456
5686.12413574,0.00135517
5688.05294311,0.00140364
5689.98175049,0.00140314
5691.91055786,0.00132281
5693.83936523,0.00135343
5695.76817261,0.00138409
5697.69697998,0.00130165
5699.62578735,0.00133752
5701.55459473,0.00137221
5703.48340210,0.00136075
5705.41220947,0.00134229
5707.34101685,0.00136521
5709.26982422,0.00135668
5711.19863159,0.00122966
5713.12743896,0.00130261
5715.05624634,0.00132776
5716.98505371,0.00124064
5718.91386108,0.00129128
5720.84266846,0.00125677
5722.77147583,0.00127101
5724.70028320,0.00126360
5726.62909058,0.00123827
5728.55789795,0.00135495
5730.48670532,0.00126590
5732.41551270,0.00121448
5734.34432007,0.00129132
5736.27312744,0.00126497
5738.20193481,0.00129563
5740.13074219,0.00123224
5742.05954956,0.00123233
5743.98835693,0.00126595
5745.91716431,0.00116631
5747.84597168,0.00124418
5749.77477905,0.00125937
5751.70358643,0.00124359
5753.63239380,0.00128417
5755.56120117,0.00121483
5757.49000854,0.00123057
5759.41881592,0.00124419
5761.34762329,0.00123834
5763.27643066,0.00117517
5765.20523804,0.00112716
5767.13404541,0.00122465
5769.06285278,0.00120452
5770.99166016,0.00116369
5772.92046753,0.00115386
5774.84927490,0.00114114
5776.77808228,0.00118684
5778.70688965,0.00112342
5780.63569702,0.00114891
5782.56450439,0.00127254
5784.49331177,0.00117353
5786.42211914,0.00111656
5788.35092651,0.00115650
5790.27973389,0.00111265
5792.20854126,0.00114045
5794.13734863,0.00118024
5796.06615601,0.00119946
5797.99496338,0.00117155
5799.92377075,0.00113127
5801.85257812,0.00116092
5803.78138550,0.00113590
5805.71019287,0.00114677
5807.63900024,0.00114752
5809.56780762,0.00116005
5811.49661499,0.00120255
5813.42542236,0.00110915
5815.35422974,0.00106584
5817.28303711,0.00110125
5819.21184448,0.00111975
5821.14065186,0.00109513
5823.06945923,0.00104253
5824.99826660,0.00106403
5826.92707397,0.00107818
5828.85588135,0.00107779
5830.78468872,0.00112550
5832.71349609,0.00110309
5834.64230347,0.00108286
5836.57111084,0.00113373
5838.49991821,0.00108705
5840.42872559,0.00107893
5842.35753296,0.00110672
5844.28634033,0.00110053
5846.21514770,0.00110286
5848.14395508,0.00106159
5850.07276245,0.00110887
5852.00156982,0.00103745
5853.93037720,0.00096532
5855.85918457,0.00104549
5857.78799194,0.00103537
5859.71679932,0.00103769
5861.64560669,0.00097579
5863.57441406,0.00097629
5865.50322144,0.00104376
5867.43202881,0.00104592
5869.36083618,0.00105150
5871.28964355,0.00104090
5873.21845093,0.00107689
5875.14725830,0.00098788
5877.07606567,0.00097586
5879.00487305,0.00102858
5880.93368042,0.00102975
5882.86248779,0.00113864
5884.79129517,0.00105946
5886.72010254,0.00099609
5888.64890991,0.00102245
5890.57771728,0.00102281
5892.50652466,0.00108093
5894.43533203,0.00103522
5896.36413940,0.00097062
5898.29294678,0.00096019
5900.22175415,0.00100415
5902.15056152,0.00098780
5904.07936890,0.00095500
5906.00817627,0.00097469
5907.93698364,0.00094152
5909.86579102,0.00095155
5911.79459839,0.00097606
5913.72340576,0.00103022
5915.65221313,0.00101482
5917.58102051,0.00098261
5919.50982788,0.00101429
5921.43863525,0.00095131
5923.36744263,0.00095884
5925.29625000,0.00095284
5927.22505737,0.00096800
5929.15386475,0.00103471
5931.08267212,0.00093799
5933.01147949,0.00088945
5934.94028686,0.00093487
5936.86909424,0.00096951
5938.79790161,0.00092893
5940.72670898,0.00092016
5942.65551636,0.00098575
5944.58432373,0.00091870
5946.51313110,0.00087043
5948.44193848,0.00089731
5950.37074585,0.00093114
5952.29955322,0.00092689
5954.22836060,0.00093335
5956.15716797,0.00096647
5958.08597534,0.00086715
5960.01478271,0.00090274
5961.94359009,0.00089935
5963.87239746,0.00082041
5965.80120483,0.00095348
5967.73001221,0.00088644
5969.65881958,0.00082882
5971.58762695,0.00087372
5973.51643433,0.00085610
5975.44524170,0.00092752
5977.37404907,0.00089608
5979.30285645,0.00091444
5981.23166382,0.00087797
5983.16047119,0.00081374
5985.08927856,0.00089833
5987.01808594,0.00089079
5988.94689331,0.00090976
5990.87570068,0.00085484
5992.80450806,0.00085696
5994.73331543,0.00090655
5996.66212280,0.00084117
5998.59093018,0.00088555
6000.51973755,0.00083686
