399.26312622,0.00100568
401.19193359,0.00023330
403.12074097,0.00110634
405.04954834,0.00115235
406.97835571,0.00050125
408.90716309,0.00087207
410.83597046,0.00064745
412.76477783,0.00065543
414.69358521,0.00093811
416.62239258,0.00038935
418.55119995,0.00066062
420.48000732,0.00102349
422.40881470,0.00099954
424.33762207,0.00127686
426.26642944,0.00103538
428.19523682,0.00104196
430.12404419,0.00122551
432.05285156,0.00126103
433.98165894,0.00104392
435.91046631,0.00091292
437.83927368,0.00118474
439.76808105,0.00076331
441.69688843,0.00098082
443.62569580,0.00120595
445.55450317,0.00090134
447.48331055,0.00132524
449.41211792,0.00104198
451.34092529,0.00078251
453.26973267,0.00080483
455.19854004,0.00051683
457.12734741,0.00069680
459.05615479,0.00063463
460.98496216,0.00028918
462.91376953,0.00036235
464.84257690,0.00071629
466.77138428,0.00066326
468.70019165,0.00040925
470.62899902,0.00064077
472.55780640,0.00075112
474.48661377,0.00037257
476.41542114,0.00052157
478.34422852,0.00085373
480.27303589,0.00041052
482.20184326,0.00032306
484.13065063,0.00048913
486.05945801,0.00035359
487.98826538,0.00021919
489.91707275,0.00016165
491.84588013,0.00049676
493.77468750,0.00013776
495.70349487,0.00004768
497.63230225,0.00050226
499.56110962,0.00017180
501.48991699,0.00033293
503.41872437,0.00019705
505.34753174,-0.00007345
507.27633911,0.00022663
509.20514648,0.00021862
511.13395386,0.00023137
513.06276123,0.00025025
514.99156860,0.00023164
516.92037598,0.00007338
518.84918335,0.00015858
520.77799072,0.00002728
522.70679810,0.00001907
524.63560547,0.00014899
526.56441284,-0.00025466
528.49322021,0.00009852
530.42202759,0.00007448
532.35083496,0.00006918
534.27964233,0.00038185
536.20844971,0.00028521
538.13725708,0.00024949
540.06606445,-0.00013426
541.99487183,0.00011970
543.92367920,0.00004916
545.85248657,0.00027347
547.78129395,0.00032681
549.71010132,-0.00022603
551.63890869,0.00021533
553.56771606,0.00001688
555.49652344,0.00042230
557.42533081,0.00044240
559.35413818,-0.00002610
561.28294556,0.00046326
563.21175293,0.00018593
565.14056030,0.00033096
567.06936768,0.00025118
568.99817505,-0.00005571
570.92698242,-0.00000209
572.85578979,-0.00027469
574.78459717,-0.00029161
576.71340454,-0.00000114
578.64221191,0.00026836
580.57101929,0.00002792
582.49982666,-0.00010159
584.42863403,0.00012413
586.35744141,0.00034837
588.28624878,0.00011433
590.21505615,0.00025547
592.14386353,0.00067125
594.07267090,0.00006955
596.00147827,0.00005576
597.93028564,0.00010901
599.85909302,-0.00014545
601.78790039,0.00004437
603.71670776,-0.00016227
605.64551514,-0.00018081
607.57432251,0.00036556
609.50312988,0.00001776
611.43193726,0.00016961
613.36074463,0.00071575
615.28955200,-0.00003934
617.21835938,-0.00022551
619.14716675,0.00001033
621.07597412,0.00025513
623.00478149,-0.00000329
624.93358887,0.00008649
626.86239624,0.00035609
628.79120361,-0.00030493
630.72001099,-0.00022497
632.64881836,0.00065419
634.57762573,0.00108237
636.50643311,0.00068739
638.43524048,0.00097093
640.36404785,0.00120443
642.29285522,0.00048722
644.22166260,0.00112871
646.15046997,0.00147917
648.07927734,0.00085796
650.00808472,0.00116282
651.93689209,0.00146849
653.86569946,0.00146259
655.79450684,0.00144516
657.72331421,0.00164894
659.65212158,0.00193739
661.58092896,0.00149521
663.50973633,0.00152581
665.43854370,0.00207104
667.36735107,0.00203505
669.29615845,0.00220481
671.22496582,0.00196389
673.15377319,0.00187555
675.08258057,0.00242691
677.01138794,0.00219447
678.94019531,0.00212688
680.86900269,0.00229075
682.79781006,0.00252752
684.72661743,0.00259654
686.65542480,0.00223499
688.58423218,0.00255913
690.51303955,0.00267856
692.44184692,0.00258915
694.37065430,0.00279348
696.29946167,0.00315183
698.22826904,0.00360521
700.15707642,0.00365499
702.08588379,0.00371250
704.01469116,0.00368390
705.94349854,0.00321172
707.87230591,0.00236226
709.80111328,0.00199071
711.72992065,0.00171523
713.65872803,0.00100288
715.58753540,0.00073589
717.51634277,0.00031292
719.44515015,0.00020607
721.37395752,0.00034652
723.30276489,0.00018431
725.23157227,0.00018316
727.16037964,-0.00002930
729.08918701,0.00013344
731.01799438,0.00012575
732.94680176,-0.00000193
734.87560913,0.00015159
736.80441650,-0.00012018
738.73322388,0.00014290
740.66203125,0.00045885
742.59083862,0.00031829
744.51964600,0.00037205
746.44845337,0.00043866
748.37726074,0.00025782
750.30606812,0.00027970
752.23487549,0.00019474
754.16368286,0.00017981
756.09249023,0.00037863
758.02129761,0.00024537
759.95010498,0.00040930
761.87891235,0.00019060
763.80771973,0.00008772
765.73652710,0.00016754
767.66533447,-0.00018179
769.59414185,0.00019474
771.52294922,0.00038015
773.45175659,0.00046691
775.38056396,0.00026100
777.30937134,-0.00024827
779.23817871,0.00016523
781.16698608,0.00026837
783.09579346,0.00021625
785.02460083,0.00049071
786.95340820,0.00041550
788.88221558,0.00021479
790.81102295,0.00020226
792.73983032,0.00027083
794.66863770,0.00034585
796.59744507,0.00051395
798.52625244,0.00035261
800.45505981,0.00044730
802.38386719,0.00064399
804.31267456,0.00046931
806.24148193,0.00065363
808.17028931,0.00062686
810.09909668,0.00046249
812.02790405,0.00047136
813.95671143,0.00034581
815.88551880,-0.00000957
817.81432617,-0.00004794
819.74313354,0.00041531
821.67194092,0.00018769
823.60074829,0.00024289
825.52955566,0.00047248
827.45836304,0.00033025
829.38717041,0.00071933
831.31597778,0.00056528
833.24478516,0.00068890
835.17359253,0.00098077
837.10239990,0.00075570
839.03120728,0.00111126
840.96001465,0.00106627
842.88882202,0.00076366
844.81762939,0.00084185
846.74643677,0.00078143
848.67524414,0.00036866
850.60405151,0.00052970
852.53285889,0.00090633
854.46166626,0.00045165
856.39047363,0.00049515
858.31928101,0.00043470
860.24808838,0.00030825
862.17689575,0.00043793
864.10570313,0.00015891
866.03451050,0.00046900
867.96331787,0.00044616
869.89212524,0.00020736
871.82093262,0.00017895
873.74973999,0.00015777
875.67854736,0.00047351
877.60735474,0.00019692
879.53616211,0.00011515
881.46496948,0.00037438
883.39377686,0.00026457
885.32258423,0.00039550
887.25139160,0.00044350
889.18019897,0.00017904
891.10900635,0.00027293
893.03781372,0.00048524
894.96662109,0.00041715
896.89542847,0.00060051
898.82423584,0.00051300
900.75304321,0.00029654
902.68185059,0.00050013
904.61065796,0.00048846
906.53946533,0.00034174
908.46827271,0.00021185
910.39708008,0.00031377
912.32588745,0.00059697
914.25469482,0.00064496
916.18350220,0.00050676
918.11230957,0.00058894
920.04111694,0.00069156
921.96992432,0.00076509
923.89873169,0.00089326
925.82753906,0.00074795
927.75634644,0.00111057
929.68515381,0.00118608
931.61396118,0.00089719
933.54276855,0.00108531
935.47157593,0.00105583
937.40038330,0.00138809
939.32919067,0.00141438
941.25799805,0.00126282
943.18680542,0.00149265
945.11561279,0.00130407
947.04442017,0.00145752
948.97322754,0.00143769
950.90203491,0.00127037
952.83084229,0.00143487
954.75964966,0.00109041
956.68845703,0.00121878
958.61726440,0.00149632
960.54607178,0.00105803
962.47487915,0.00122319
964.40368652,0.00139944
966.33249390,0.00123450
968.26130127,0.00145824
970.19010864,0.00152146
972.11891602,0.00164590
974.04772339,0.00185026
975.97653076,0.00198898
977.90533813,0.00193016
979.83414551,0.00205945
981.76295288,0.00250207
983.69176025,0.00243299
985.62056763,0.00256997
987.54937500,0.00294993
989.47818237,0.00345866
991.40698975,0.00374761
993.33579712,0.00372925
995.26460449,0.00419509
997.19341187,0.00450211
999.12221924,0.00486666
1001.05102661,0.00532667
1002.97983398,0.00556247
1004.90864136,0.00587778
1006.83744873,0.00669649
1008.76625610,0.00713225
1010.69506348,0.00702066
1012.62387085,0.00782032
1014.55267822,0.00803518
1016.48148560,0.00810529
1018.41029297,0.00879344
1020.33910034,0.00917632
1022.26790771,0.00967218
1024.19671509,0.00979989
1026.12552246,0.01028476
1028.05432983,0.01087588
1029.98313721,0.01096211
1031.91194458,0.01099966
1033.84075195,0.01113330
1035.76955933,0.01163132
1037.69836670,0.01176306
1039.62717407,0.01163103
1041.55598145,0.01165371
1043.48478882,0.01177333
1045.41359619,0.01155487
1047.34240356,0.01130236
1049.27121094,0.01123165
1051.20001831,0.01088631
1053.12882568,0.01067382
1055.05763306,0.01032179
1056.98644043,0.01029798
1058.91524780,0.01033778
1060.84405518,0.00998518
1062.77286255,0.00966342
1064.70166992,0.00914051
1066.63047729,0.00877378
1068.55928467,0.00837915
1070.48809204,0.00810647
1072.41689941,0.00776400
1074.34570679,0.00733915
1076.27451416,0.00721620
1078.20332153,0.00683019
1080.13212891,0.00635460
1082.06093628,0.00606859
1083.98974365,0.00601086
1085.91855103,0.00581650
1087.84735840,0.00550330
1089.77616577,0.00507858
1091.70497314,0.00485264
1093.63378052,0.00481791
1095.56258789,0.00442265
1097.49139526,0.00440181
1099.42020264,0.00425592
1101.34901001,0.00414681
1103.27781738,0.00426267
1105.20662476,0.00409187
1107.13543213,0.00400768
1109.06423950,0.00380163
1110.99304687,0.00392083
1112.92185425,0.00402313
1114.85066162,0.00397494
1116.77946899,0.00393873
1118.70827637,0.00380147
1120.63708374,0.00381455
1122.56589111,0.00371480
1124.49469849,0.00397248
1126.42350586,0.00425898
1128.35231323,0.00423324
1130.28112061,0.00406573
1132.20992798,0.00421398
1134.13873535,0.00472510
1136.06754272,0.00469411
1137.99635010,0.00480808
1139.92515747,0.00519207
1141.85396484,0.00536217
1143.78277222,0.00558477
1145.71157959,0.00611051
1147.64038696,0.00649966
1149.56919434,0.00663320
1151.49800171,0.00714997
1153.42680908,0.00742276
1155.35561646,0.00777337
1157.28442383,0.00827022
1159.21323120,0.00824852
1161.14203857,0.00850852
1163.07084595,0.00900425
1164.99965332,0.00938895
1166.92846069,0.00970878
1168.85726807,0.00996321
1170.78607544,0.01043565
1172.71488281,0.01083644
1174.64369019,0.01102128
1176.57249756,0.01154457
1178.50130493,0.01203220
1180.43011230,0.01242085
1182.35891968,0.01298000
1184.28772705,0.01332068
1186.21653442,0.01407075
1188.14534180,0.01480915
1190.07414917,0.01529295
1192.00295654,0.01627654
1193.93176392,0.01695001
1195.86057129,0.01753030
1197.78937866,0.01844910
1199.71818604,0.01926615
1201.64699341,0.02003378
1203.57580078,0.02067974
1205.50460815,0.02161795
1207.43341553,0.02247863
1209.36222290,0.02286762
1211.29103027,0.02372980
1213.21983765,0.02454866
1215.14864502,0.02503935
1217.07745239,0.02553634
1219.00625977,0.02586216
1220.93506714,0.02642958
1222.86387451,0.02661177
1224.79268188,0.02662899
1226.72148926,0.02699383
1228.65029663,0.02720492
1230.57910400,0.02740026
1232.50791138,0.02749773
1234.43671875,0.02762884
1236.36552612,0.02755075
1238.29433350,0.02746638
1240.22314087,0.02747781
1242.15194824,0.02720040
1244.08075562,0.02713637
1246.00956299,0.02713408
1247.93837036,0.02689847
1249.86717773,0.02654770
1251.79598511,0.02659090
1253.72479248,0.02638947
1255.65359985,0.02589490
1257.58240723,0.02576713
1259.51121460,0.02515694
1261.44002197,0.02472517
1263.36882935,0.02442892
1265.29763672,0.02414410
1267.22644409,0.02426195
1269.15525146,0.02374489
1271.08405884,0.02319478
1273.01286621,0.02316508
1274.94167358,0.02282203
1276.87048096,0.02228932
1278.79928833,0.02197448
1280.72809570,0.02132325
1282.65690308,0.02093164
1284.58571045,0.02069655
1286.51451782,0.02004405
1288.44332520,0.01995203
1290.37213257,0.01974278
1292.30093994,0.01943447
1294.22974731,0.01942673
1296.15855469,0.01929215
1298.08736206,0.01917655
1300.01616943,0.01921064
1301.94497681,0.01941752
1303.87378418,0.01960875
1305.80259155,0.01994329
1307.73139893,0.01988869
1309.66020630,0.02025459
1311.58901367,0.02069981
1313.51782104,0.02067858
1315.44662842,0.02164932
1317.37543579,0.02198031
1319.30424316,0.02217778
1321.23305054,0.02316178
1323.16185791,0.02391075
1325.09066528,0.02473675
1327.01947266,0.02521438
1328.94828003,0.02581241
1330.87708740,0.02656617
1332.80589478,0.02718300
1334.73470215,0.02775406
1336.66350952,0.02779824
1338.59231689,0.02722901
1340.52112427,0.02775435
1342.44993164,0.02938341
1344.37873901,0.02935249
1346.30754639,0.02919722
1348.23635376,0.02946601
1350.16516113,0.02907529
1352.09396851,0.02891620
1354.02277588,0.02868950
1355.95158325,0.02851767
1357.88039062,0.02826660
1359.80919800,0.02788582
1361.73800537,0.02605597
1363.66681274,0.02557183
1365.59562012,0.02760312
1367.52442749,0.02677157
1369.45323486,0.02662894
1371.38204224,0.02711049
1373.31084961,0.02542644
1375.23965698,0.02573938
1377.16846436,0.02645361
1379.09727173,0.02648018
1381.02607910,0.02632565
1382.95488647,0.02652605
1384.88369385,0.02644817
1386.81250122,0.02482346
1388.74130859,0.02538861
1390.67011597,0.02770588
1392.59892334,0.02705982
1394.52773071,0.02479759
1396.45653809,0.02614831
1398.38534546,0.02623002
1400.31415283,0.02589153
1402.24296021,0.02863700
1404.17176758,0.02662239
1406.10057495,0.02670615
1408.02938232,0.02829040
1409.95818970,0.02696931
1411.88699707,0.02762252
1413.81580444,0.02655340
1415.74461182,0.02709754
1417.67341919,0.02408062
1419.60222656,0.02116544
1421.53103394,0.02520399
1423.45984131,0.02420499
1425.38864868,0.02356827
1427.31745605,0.02424656
1429.24626343,0.02189569
1431.17507080,0.02136981
1433.10387817,0.02211645
1435.03268555,0.02002845
1436.96149292,0.01659465
1438.89030029,0.01921006
1440.81910767,0.01995039
1442.74791504,0.01845730
1444.67672241,0.01949218
1446.60552979,0.01752222
1448.53433716,0.01768268
1450.46314453,0.01849146
1452.39195190,0.01887368
1454.32075928,0.01959499
1456.24956665,0.01551982
1458.17837402,0.01602475
1460.10718140,0.02233139
1462.03598877,0.02390534
1463.96479614,0.02347324
1465.89360352,0.02430275
1467.82241089,0.02814309
1469.75121826,0.03056126
1471.68002563,0.02625738
1473.60883301,0.02741482
1475.53764038,0.03182130
1477.46644775,0.03441552
1479.39525513,0.03817829
1481.32406250,0.03854131
1483.25286987,0.04106844
1485.18167725,0.04252994
1487.11048462,0.04136451
1489.03929199,0.04025113
1490.96809937,0.04042097
1492.89690674,0.04845046
1494.82571411,0.04690550
1496.75452148,0.04126783
1498.68332886,0.04730446
1500.61213623,0.04892422
1502.54094360,0.05294262
1504.46975098,0.04951540
1506.39855835,0.03357796
1508.32736572,0.04223484
1510.25617310,0.05139710
1512.18498047,0.04939635
1514.11378784,0.05430807
1516.04259521,0.04785085
1517.97140259,0.04992989
1519.90020996,0.04849058
1521.82901733,0.04018006
1523.75782471,0.05139988
1525.68663208,0.05057340
1527.61543945,0.04989228
1529.54424683,0.05679411
1531.47305420,0.05392724
1533.40186157,0.04826145
1535.33066895,0.05200070
1537.25947632,0.05650143
1539.18828369,0.03756397
1541.11709106,0.03948353
1543.04589844,0.04942449
1544.97470581,0.04666282
1546.90351318,0.05766831
1548.83232056,0.05311546
1550.76112793,0.05461846
1552.68993530,0.05492245
1554.61874268,0.04857929
1556.54755005,0.05271548
1558.47635742,0.03461705
1560.40516479,0.03771000
1562.33397217,0.05806423
1564.26277954,0.05417817
1566.19158691,0.05597376
1568.12039429,0.05536895
1570.04920166,0.04732265
1571.97800903,0.05660889
1573.90681641,0.05784017
1575.83562378,0.04341869
1577.76443115,0.05045615
1579.69323853,0.05845424
1581.62204590,0.05549423
1583.55085327,0.05728269
1585.47966064,0.05622044
1587.40846802,0.05677585
1589.33727539,0.05611333
1591.26608276,0.05582134
1593.19489014,0.05610213
1595.12369751,0.05532103
1597.05250488,0.05596376
1598.98131226,0.05554128
1600.91011963,0.05589350
1602.83892700,0.05466340
1604.76773437,0.05578846
1606.69654175,0.05476105
1608.62534912,0.05449668
1610.55415649,0.05435783
1612.48296387,0.05478745
1614.41177124,0.05573593
1616.34057861,0.04383031
1618.26938599,0.04834914
1620.19819336,0.05787537
1622.12700073,0.05012920
1624.05580811,0.05033416
1625.98461548,0.05355290
1627.91342285,0.05327822
1629.84223022,0.05291573
1631.77103760,0.05749577
1633.69984497,0.05238942
1635.62865234,0.04138383
1637.55745972,0.04980430
1639.48626709,0.05628064
1641.41507446,0.05493993
1643.34388184,0.05684084
1645.27268921,0.05033801
1647.20149658,0.04269485
1649.13030396,0.05572873
1651.05911133,0.05316683
1652.98791870,0.03108659
1654.91672607,0.04498395
1656.84553345,0.05931187
1658.77434082,0.05661162
1660.70314819,0.05848797
1662.63195557,0.05240929
1664.56076294,0.05568665
1666.48957031,0.06098542
1668.41837769,0.05179357
1670.34718506,0.04997766
1672.27599243,0.05860914
1674.20479980,0.05323350
1676.13360718,0.05070961
1678.06241455,0.06022970
1679.99122192,0.05774720
1681.92002930,0.05683070
1683.84883667,0.04446754
1685.77764404,0.04403915
1687.70645142,0.06402183
1689.63525879,0.05434397
1691.56406616,0.06091364
1693.49287354,0.06258396
1695.42168091,0.04282566
1697.35048828,0.05521525
1699.27929565,0.04737858
1701.20810303,0.04143307
1703.13691040,0.06057392
1705.06571777,0.05453479
1706.99452515,0.05511145
1708.92333252,0.06113128
1710.85213989,0.05832517
1712.78094727,0.05959449
1714.70975464,0.05438872
1716.63856201,0.04787086
1718.56736938,0.04686826
1720.49617676,0.05762842
1722.42498413,0.06067812
1724.35379150,0.05536671
1726.28259888,0.06125263
1728.21140625,0.05578432
1730.14021362,0.05618519
1732.06902100,0.05496942
1733.99782837,0.03925548
1735.92663574,0.05123492
1737.85544312,0.05792297
1739.78425049,0.05009598
1741.71305786,0.05557647
1743.64186523,0.05633121
1745.57067261,0.05634147
1747.49947998,0.05690511
1749.42828735,0.05375323
1751.35709473,0.05089203
1753.28590210,0.05770150
1755.21470947,0.06099610
1757.14351685,0.05424698
1759.07232422,0.06098182
1761.00113159,0.05676644
1762.92993896,0.05405446
1764.85874634,0.06378718
1766.78755371,0.05624505
1768.71636108,0.05684212
1770.64516846,0.05637482
1772.57397583,0.04941580
1774.50278320,0.05649789
1776.43159058,0.06036600
1778.36039795,0.05951678
1780.28920532,0.05831023
1782.21801270,0.05890369
1784.14682007,0.05892830
1786.07562744,0.05741339
1788.00443481,0.06123679
1789.93324219,0.05929786
1791.86204956,0.05223248
1793.79085693,0.05513780
1795.71966431,0.06023744
1797.64847168,0.05912098
1799.57727905,0.05802994
1801.50608643,0.05670236
1803.43489380,0.05893447
1805.36370117,0.06068596
1807.29250854,0.05956821
1809.22131592,0.05988021
1811.15012329,0.05777013
1813.07893066,0.06002451
1815.00773804,0.06061120
1816.93654541,0.05971806
1818.86535278,0.06030241
1820.79416016,0.05982688
1822.72296753,0.06096632
1824.65177490,0.05589923
1826.58058228,0.05838899
1828.50938965,0.05875619
1830.43819702,0.05403640
1832.36700439,0.06017035
1834.29581177,0.05972327
1836.22461914,0.05953713
1838.15342651,0.05942530
1840.08223389,0.05979402
1842.01104126,0.05982777
1843.93984863,0.05162782
1845.86865601,0.05590797
1847.79746338,0.05955581
1849.72627075,0.05809192
1851.65507812,0.06041192
1853.58388550,0.05883568
1855.51269287,0.05945623
1857.44150024,0.05905906
1859.37030762,0.05870607
1861.29911499,0.05917148
1863.22792236,0.05839076
1865.15672974,0.05922621
1867.08553711,0.05679196
1869.01434448,0.05376984
1870.94315186,0.05642593
1872.87195923,0.05923427
1874.80076660,0.05807013
1876.72957397,0.05855804
1878.65838135,0.05825038
1880.58718872,0.05779708
1882.51599609,0.05847585
1884.44480347,0.05731351
1886.37361084,0.05845453
1888.30241821,0.05666246
1890.23122559,0.05537761
1892.16003296,0.05816560
1894.08884033,0.05705358
1896.01764771,0.05667396
1897.94645508,0.05738018
1899.87526245,0.05718016
1901.80406982,0.05739290
1903.73287720,0.05687096
1905.66168457,0.05719673
1907.59049194,0.05652888
1909.51929932,0.05616578
1911.44810669,0.05653875
1913.37691406,0.05667077
1915.30572144,0.05736193
1917.23452881,0.05418710
1919.16333618,0.05424048
1921.09214355,0.05688275
1923.02095093,0.05457963
1924.94975830,0.05599060
1926.87856567,0.05690540
1928.80737305,0.05596088
1930.73618042,0.05672052
1932.66498779,0.05572651
1934.59379517,0.05641730
1936.52260254,0.05590814
1938.45140991,0.05610254
1940.38021729,0.05615614
1942.30902466,0.05379311
1944.23783203,0.05513949
1946.16663940,0.05578118
1948.09544678,0.05543355
1950.02425415,0.05590807
1951.95306152,0.05576348
1953.88186890,0.05578072
1955.81067627,0.05546250
1957.73948364,0.05565392
1959.66829102,0.05559842
1961.59709839,0.05555392
1963.52590576,0.05569497
1965.45471313,0.05519506
1967.38352051,0.05455171
1969.31232788,0.05505886
1971.24113525,0.05560773
1973.16994263,0.05517212
1975.09875000,0.05524696
1977.02755737,0.05500510
1978.95636475,0.05512195
1980.88517212,0.05497832
1982.81397949,0.05484144
1984.74278687,0.05515414
1986.67159424,0.05435444
1988.60040161,0.05457725
1990.52920898,0.05413400
1992.45801636,0.05322379
1994.38682373,0.05416755
1996.31563110,0.05449711
1998.24443848,0.05410520
2000.17324585,0.05402024
2002.10205322,0.05393956
2004.03086060,0.05394832
2005.95966797,0.05387738
2007.88847534,0.05356178
2009.81728271,0.05360708
2011.74609009,0.05354911
2013.67489746,0.05352397
2015.60370483,0.05323852
2017.53251221,0.05257589
2019.46131958,0.05291529
2021.39012695,0.05291084
2023.31893433,0.05273658
2025.24774170,0.05273198
2027.17654907,0.05248084
2029.10535645,0.05258471
2031.03416382,0.05239732
2032.96297119,0.05223952
2034.89177856,0.05212501
2036.82058594,0.05201094
2038.74939331,0.05190970
2040.67820068,0.05177124
2042.60700806,0.05164959
2044.53581543,0.05150685
2046.46462280,0.05159206
2048.39343018,0.05151610
2050.32223755,0.05139702
2052.25104492,0.05112940
2054.17985229,0.05099001
2056.10865967,0.05099060
2058.03746704,0.05087339
2059.96627441,0.05077357
2061.89508179,0.05072013
2063.82388916,0.05063629
2065.75269653,0.05021265
2067.68150391,0.05045566
2069.61031128,0.05047512
2071.53911865,0.05008993
2073.46792603,0.05014680
2075.39673340,0.04993144
2077.32554077,0.04993562
2079.25434814,0.04975102
2081.18315552,0.04964948
2083.11196289,0.04968519
2085.04077026,0.04959728
2086.96957764,0.04957677
2088.89838501,0.04920348
2090.82719238,0.04916320
2092.75599976,0.04922134
2094.68480713,0.04915921
2096.61361450,0.04898322
2098.54242187,0.04899576
2100.47122925,0.04904892
2102.40003662,0.04881046
2104.32884399,0.04888838
2106.25765137,0.04861391
2108.18645874,0.04843993
2110.11526611,0.04855605
2112.04407349,0.04843277
2113.97288086,0.04832345
2115.90168823,0.04819927
2117.83049561,0.04822371
2119.75930298,0.04820381
2121.68811035,0.04807729
2123.61691772,0.04796037
2125.54572510,0.04802457
2127.47453247,0.04802400
2129.40333984,0.04785686
2131.33214722,0.04775321
2133.26095459,0.04779290
2135.18976196,0.04773802
2137.11856934,0.04754304
2139.04737671,0.04763913
2140.97618408,0.04737421
2142.90499146,0.04743437
2144.83379883,0.04755694
2146.76260620,0.04711256
2148.69141357,0.04728763
2150.62022095,0.04728484
2152.54902832,0.04724666
2154.47783569,0.04721483
2156.40664307,0.04692852
2158.33545044,0.04695196
2160.26425781,0.04689909
2162.19306519,0.04693669
2164.12187256,0.04675904
2166.05067993,0.04660413
2167.97948730,0.04675450
2169.90829468,0.04664446
2171.83710205,0.04658730
2173.76590942,0.04667026
2175.69471680,0.04651077
2177.62352417,0.04645948
2179.55233154,0.04647242
2181.48113892,0.04623516
2183.40994629,0.04636341
2185.33875366,0.04633690
2187.26756104,0.04612824
2189.19636841,0.04623765
2191.12517578,0.04619154
2193.05398315,0.04614720
2194.98279053,0.04597000
2196.91159790,0.04581355
2198.84040527,0.04593655
2200.76921265,0.04600880
2202.69802002,0.04590366
2204.62682739,0.04587380
2206.55563477,0.04582067
2208.48444214,0.04559615
2210.41324951,0.04559179
2212.34205688,0.04553785
2214.27086426,0.04556102
2216.19967163,0.04562173
2218.12847900,0.04539379
2220.05728638,0.04523502
2221.98609375,0.04520497
2223.91490112,0.04513104
2225.84370850,0.04502815
2227.77251587,0.04510476
2229.70132324,0.04502452
2231.63013062,0.04496026
2233.55893799,0.04499392
2235.48774536,0.04482500
2237.41655273,0.04476814
2239.34536011,0.04477747
2241.27416748,0.04471637
2243.20297485,0.04450656
2245.13178223,0.04445563
2247.06058960,0.04449583
2248.98939697,0.04440842
2250.91820435,0.04427963
2252.84701172,0.04423728
2254.77581909,0.04429667
2256.70462646,0.04407782
2258.63343384,0.04404372
2260.56224121,0.04406014
2262.49104858,0.04395028
2264.41985596,0.04393871
2266.34866333,0.04390031
2268.27747070,0.04388772
2270.20627808,0.04375312
2272.13508545,0.04367740
2274.06389282,0.04357944
2275.99270020,0.04357085
2277.92150757,0.04351625
2279.85031494,0.04360860
2281.77912231,0.04368555
2283.70792969,0.04332127
2285.63673706,0.04332927
2287.56554443,0.04320610
2289.49435181,0.04316580
2291.42315918,0.04314187
2293.35196655,0.04295029
2295.28077393,0.04297493
2297.20958130,0.04268940
2299.13838867,0.04267313
2301.06719604,0.04247666
2302.99600342,0.04221618
2304.92481079,0.04198535
2306.85361816,0.04170290
2308.78242554,0.04165903
2310.71123291,0.04117011
2312.64004028,0.04094376
2314.56884766,0.04058262
2316.49765503,0.04011381
2318.42646240,0.03973097
2320.35526978,0.03914879
2322.28407715,0.03878290
2324.21288452,0.03820965
2326.14169189,0.03794788
2328.07049927,0.03755090
2329.99930664,0.03691178
2331.92811401,0.03669284
2333.85692139,0.03665397
2335.78572876,0.03658760
2337.71453613,0.03646730
2339.64334351,0.03653812
2341.57215088,0.03656445
2343.50095825,0.03698723
2345.42976562,0.03758109
2347.35857300,0.03885012
2349.28738037,0.04014053
2351.21618774,0.03895483
2353.14499512,0.03710529
2355.07380249,0.03602307
2357.00260986,0.03508127
2358.93141724,0.03437807
2360.86022461,0.03396850
2362.78903198,0.03397926
2364.71783936,0.03417991
2366.64664673,0.03447063
2368.57545410,0.03505132
2370.50426147,0.03589015
2372.43306885,0.03658982
2374.36187622,0.03749664
2376.29068359,0.03848913
2378.21949097,0.03926292
2380.14829834,0.03989447
2382.07710571,0.04011477
2384.00591309,0.04041032
2385.93472046,0.04060197
2387.86352783,0.04058978
2389.79233521,0.04062108
2391.72114258,0.04057298
2393.64994995,0.04039380
2395.57875732,0.04025510
2397.50756470,0.04036920
2399.43637207,0.04029412
2401.36517944,0.04022420
2403.29398682,0.04011101
2405.22279419,0.04002300
2407.15160156,0.04007587
2409.08040894,0.03999491
2411.00921631,0.04002706
2412.93802368,0.03992734
2414.86683105,0.03986228
2416.79563843,0.03986521
2418.72444580,0.03991720
2420.65325317,0.03989251
2422.58206055,0.03967395
2424.51086792,0.03961416
2426.43967529,0.03949819
2428.36848267,0.03940404
2430.29729004,0.03931300
2432.22609741,0.03950126
2434.15490479,0.03952793
2436.08371216,0.03920671
2438.01251953,0.03934879
2439.94132690,0.03928648
2441.87013428,0.03910045
2443.79894165,0.03912813
2445.72774902,0.03908226
2447.65655640,0.03905185
2449.58536377,0.03893125
2451.51417114,0.03880329
2453.44297852,0.03885792
2455.37178589,0.03882295
2457.30059326,0.03870497
2459.22940063,0.03878151
2461.15820801,0.03865275
2463.08701538,0.03859993
2465.01582275,0.03855084
2466.94463013,0.03847068
2468.87343750,0.03856460
2470.80224487,0.03837257
2472.73105225,0.03838291
2474.65985962,0.03822468
2476.58866699,0.03811317
2478.51747437,0.03817580
2480.44628174,0.03791062
2482.37508911,0.03805943
2484.30389648,0.03803225
2486.23270386,0.03796062
2488.16151123,0.03802871
2490.09031860,0.03773316
2492.01912598,0.03776385
2493.94793335,0.03786483
2495.87674072,0.03765300
2497.80554810,0.03762868
2499.73435547,0.03770183
2501.66316284,0.03750297
2503.59197021,0.03743832
2505.52077759,0.03742120
2507.44958496,0.03729902
2509.37839233,0.03731698
2511.30719971,0.03724315
2513.23600708,0.03725875
2515.16481445,0.03731882
2517.09362183,0.03725126
2519.02242920,0.03719848
2520.95123657,0.03706446
2522.88004395,0.03699472
2524.80885132,0.03709733
2526.73765869,0.03698929
2528.66646606,0.03684470
2530.59527344,0.03686504
2532.52408081,0.03684754
2534.45288818,0.03685554
2536.38169556,0.03664451
2538.31050293,0.03657919
2540.23931030,0.03657862
2542.16811768,0.03646044
2544.09692505,0.03648108
2546.02573242,0.03636207
2547.95453979,0.03648312
2549.88334717,0.03634170
2551.81215454,0.03621694
2553.74096191,0.03639608
2555.66976929,0.03616856
2557.59857666,0.03615634
2559.52738403,0.03609302
2561.45619141,0.03598400
2563.38499878,0.03597483
2565.31380615,0.03590439
2567.24261353,0.03588018
2569.17142090,0.03578790
2571.10022827,0.03581828
2573.02903564,0.03569588
2574.95784302,0.03573063
2576.88665039,0.03568705
2578.81545776,0.03547416
2580.74426514,0.03554726
2582.67307251,0.03552438
2584.60187988,0.03553129
2586.53068726,0.03538952
2588.45949463,0.03527604
2590.38830200,0.03524023
2592.31710937,0.03518039
2594.24591675,0.03528384
2596.17472412,0.03509786
2598.10353149,0.03497359
2600.03233887,0.03497238
2601.96114624,0.03489755
2603.88995361,0.03492970
2605.81876099,0.03489187
2607.74756836,0.03489699
2609.67637573,0.03477176
2611.60518311,0.03456736
2613.53399048,0.03465094
2615.46279785,0.03464964
2617.39160522,0.03458712
2619.32041260,0.03449962
2621.24921997,0.03435496
2623.17802734,0.03445331
2625.10683472,0.03442452
2627.03564209,0.03433413
2628.96444946,0.03420886
2630.89325684,0.03417626
2632.82206421,0.03422135
2634.75087158,0.03403888
2636.67967895,0.03417066
2638.60848633,0.03402828
2640.53729370,0.03395454
2642.46610107,0.03401294
2644.39490845,0.03365832
2646.32371582,0.03384589
2648.25252319,0.03380974
2650.18133057,0.03365197
2652.11013794,0.03370393
2654.03894531,0.03353746
2655.96775269,0.03352132
2657.89656006,0.03340782
2659.82536743,0.03342002
2661.75417480,0.03340543
2663.68298218,0.03335838
2665.61178955,0.03330259
2667.54059692,0.03311116
2669.46940430,0.03314339
2671.39821167,0.03315319
2673.32701904,0.03310321
2675.25582642,0.03303490
2677.18463379,0.03301385
2679.11344116,0.03292438
2681.04224854,0.03283627
2682.97105591,0.03283977
2684.89986328,0.03279404
2686.82867065,0.03277666
2688.75747803,0.03262312
2690.68628540,0.03258091
2692.61509277,0.03251530
2694.54390015,0.03241599
2696.47270752,0.03244505
2698.40151489,0.03234294
2700.33032227,0.03230665
2702.25912964,0.03233340
2704.18793701,0.03222220
2706.11674438,0.03208682
2708.04555176,0.03212796
2709.97435913,0.03203253
2711.90316650,0.03203884
2713.83197388,0.03208019
2715.76078125,0.03191097
2717.68958862,0.03196527
2719.61839600,0.03174569
2721.54720337,0.03164667
2723.47601074,0.03170387
2725.40481812,0.03152342
2727.33362549,0.03155766
2729.26243286,0.03152239
2731.19124023,0.03148640
2733.12004761,0.03140617
2735.04885498,0.03135775
2736.97766235,0.03136162
2738.90646973,0.03121007
2740.83527710,0.03121971
2742.76408447,0.03116000
2744.69289185,0.03097346
2746.62169922,0.03096968
2748.55050659,0.03103068
2750.47931396,0.03093176
2752.40812134,0.03082305
2754.33692871,0.03078381
2756.26573608,0.03076374
2758.19454346,0.03068556
2760.12335083,0.03059267
2762.05215820,0.03048515
2763.98096558,0.03034976
2765.90977295,0.03044170
2767.83858032,0.03032187
2769.76738770,0.03027003
2771.69619507,0.03035654
2773.62500244,0.03021424
2775.55380981,0.03020135
2777.48261719,0.03004272
2779.41142456,0.03000585
2781.34023193,0.02994106
2783.26903931,0.02984752
2785.19784668,0.02984704
2787.12665405,0.02966704
2789.05546143,0.02971180
2790.98426880,0.02959922
2792.91307617,0.02962691
2794.84188354,0.02962911
2796.77069092,0.02935201
2798.69949829,0.02932857
2800.62830566,0.02932954
2802.55711304,0.02933322
2804.48592041,0.02912654
2806.41472778,0.02915260
2808.34353516,0.02914813
2810.27234253,0.02892205
2812.20114990,0.02899262
2814.12995728,0.02883038
2816.05876465,0.02876037
2817.98757202,0.02873763
2819.91637939,0.02865363
2821.84518677,0.02855259
2823.77399414,0.02835584
2825.70280151,0.02843375
2827.63160889,0.02834423
2829.56041626,0.02825457
2831.48922363,0.02818495
2833.41803101,0.02796239
2835.34683838,0.02796983
2837.27564575,0.02784479
2839.20445312,0.02759502
2841.13326050,0.02750793
2843.06206787,0.02738722
2844.99087524,0.02721849
2846.91968262,0.02710392
2848.84848999,0.02696328
2850.77729736,0.02682384
2852.70610474,0.02692261
2854.63491211,0.02711002
2856.56371948,0.02703255
2858.49252686,0.02695567
2860.42133423,0.02701754
2862.35014160,0.02702422
2864.27894897,0.02696527
2866.20775635,0.02688595
2868.13656372,0.02683168
2870.06537109,0.02673925
2871.99417847,0.02679744
2873.92298584,0.02670654
2875.85179321,0.02658724
2877.78060059,0.02665634
2879.70940796,0.02638585
2881.63821533,0.02639025
2883.56702270,0.02639608
2885.49583008,0.02625648
2887.42463745,0.02630065
2889.35344482,0.02602266
2891.28225220,0.02601063
2893.21105957,0.02592528
2895.13986694,0.02571609
2897.06867432,0.02578828
2898.99748169,0.02563006
2900.92628906,0.02553355
2902.85509644,0.02540288
2904.78390381,0.02530049
2906.71271118,0.02534304
2908.64151855,0.02516058
2910.57032593,0.02504104
2912.49913330,0.02494952
2914.42794067,0.02461910
2916.35674805,0.02450414
2918.28555542,0.02462438
2920.21436279,0.02460237
2922.14317017,0.02465985
2924.07197754,0.02472803
2926.00078491,0.02472441
2927.92959229,0.02477772
2929.85839966,0.02487989
2931.78720703,0.02488239
2933.71601440,0.02481790
2935.64482178,0.02494707
2937.57362915,0.02488958
2939.50243652,0.02477031
2941.43124390,0.02480485
2943.36005127,0.02474617
2945.28885864,0.02474078
2947.21766602,0.02470941
2949.14647339,0.02458234
2951.07528076,0.02452856
2953.00408813,0.02448945
2954.93289551,0.02430592
2956.86170288,0.02427982
2958.79051025,0.02425947
2960.71931763,0.02409062
2962.64812500,0.02407996
2964.57693237,0.02408509
2966.50573975,0.02409052
2968.43454712,0.02395592
2970.36335449,0.02399406
2972.29216187,0.02407735
2974.22096924,0.02391455
2976.14977661,0.02395049
2978.07858398,0.02390294
2980.00739136,0.02389473
2981.93619873,0.02385853
2983.86500610,0.02379835
2985.79381348,0.02382422
2987.72262085,0.02366059
2989.65142822,0.02364785
2991.58023560,0.02348075
2993.50904297,0.02335291
2995.43785034,0.02346397
2997.36665771,0.02340398
2999.29546509,0.02337642
3001.22427246,0.02323820
3003.15307983,0.02301115
3005.08188721,0.02296121
3007.01069458,0.02297499
3008.93950195,0.02286270
3010.86830933,0.02270250
3012.79711670,0.02264317
3014.72592407,0.02262283
3016.65473145,0.02255096
3018.58353882,0.02248738
3020.51234619,0.02242042
3022.44115356,0.02232455
3024.36996094,0.02226337
3026.29876831,0.02213474
3028.22757568,0.02209612
3030.15638306,0.02194496
3032.08519043,0.02186436
3034.01399780,0.02196698
3035.94280518,0.02176365
3037.87161255,0.02174682
3039.80041992,0.02165064
3041.72922729,0.02146769
3043.65803467,0.02147122
3045.58684204,0.02137465
3047.51564941,0.02139003
3049.44445679,0.02121743
3051.37326416,0.02114449
3053.30207153,0.02110285
3055.23087891,0.02089523
3057.15968628,0.02083337
3059.08849365,0.02077392
3061.01730103,0.02085761
3062.94610840,0.02073414
3064.87491577,0.02053147
3066.80372314,0.02056433
3068.73253052,0.02057985
3070.66133789,0.02040853
3072.59014526,0.02022600
3074.51895264,0.02030712
3076.44776001,0.02018151
3078.37656738,0.01999060
3080.30537476,0.01994396
3082.23418213,0.01995773
3084.16298950,0.01993632
3086.09179687,0.01971767
3088.02060425,0.01971690
3089.94941162,0.01973329
3091.87821899,0.01956085
3093.80702637,0.01935861
3095.73583374,0.01927384
3097.66464111,0.01932280
3099.59344849,0.01922570
3101.52225586,0.01907600
3103.45106323,0.01898055
3105.37987061,0.01895898
3107.30867798,0.01887200
3109.23748535,0.01874685
3111.16629272,0.01871447
3113.09510010,0.01860587
3115.02390747,0.01846122
3116.95271484,0.01841342
3118.88152222,0.01834150
3120.81032959,0.01814637
3122.73913696,0.01808044
3124.66794434,0.01803062
3126.59675171,0.01788314
3128.52555908,0.01784574
3130.45436645,0.01782637
3132.38317383,0.01772829
3134.31198120,0.01762668
3136.24078857,0.01761297
3138.16959595,0.01750909
3140.09840332,0.01737931
3142.02721069,0.01728935
3143.95601807,0.01717064
3145.88482544,0.01717158
3147.81363281,0.01714819
3149.74244019,0.01707599
3151.67124756,0.01691120
3153.60005493,0.01670814
3155.52886230,0.01668716
3157.45766968,0.01669658
3159.38647705,0.01667053
3161.31528442,0.01658185
3163.24409180,0.01641548
3165.17289917,0.01631942
3167.10170654,0.01625557
3169.03051392,0.01618665
3170.95932129,0.01619389
3172.88812866,0.01615915
3174.81693604,0.01606830
3176.74574341,0.01595521
3178.67455078,0.01590041
3180.60335815,0.01586692
3182.53216553,0.01572176
3184.46097290,0.01568128
3186.38978027,0.01563537
3188.31858765,0.01561300
3190.24739502,0.01553869
3192.17620239,0.01535501
3194.10500977,0.01540974
3196.03381714,0.01538290
3197.96262451,0.01526269
3199.89143188,0.01528435
3201.82023926,0.01529470
3203.74904663,0.01512572
3205.67785400,0.01510775
3207.60666138,0.01521765
3209.53546875,0.01504826
3211.46427612,0.01499377
3213.39308350,0.01485690
3215.32189087,0.01479564
3217.25069824,0.01490554
3219.17950562,0.01478652
3221.10831299,0.01479663
3223.03712036,0.01481866
3224.96592773,0.01476365
3226.89473511,0.01468451
3228.82354248,0.01475144
3230.75234985,0.01472721
3232.68115723,0.01463662
3234.60996460,0.01471983
3236.53877197,0.01458825
3238.46757935,0.01461534
3240.39638672,0.01459935
3242.32519409,0.01466756
3244.25400146,0.01467060
3246.18280884,0.01441651
3248.11161621,0.01458217
3250.04042358,0.01450535
3251.96923096,0.01452795
3253.89803833,0.01462027
3255.82684570,0.01444411
3257.75565308,0.01455100
3259.68446045,0.01452341
3261.61326782,0.01445868
3263.54207520,0.01445463
3265.47088257,0.01444458
3267.39968994,0.01441890
3269.32849731,0.01440682
3271.25730469,0.01442590
3273.18611206,0.01440129
3275.11491943,0.01439334
3277.04372681,0.01432271
3278.97253418,0.01439052
3280.90134155,0.01438302
3282.83014893,0.01444447
3284.75895630,0.01448664
3286.68776367,0.01437161
3288.61657104,0.01445913
3290.54537842,0.01437892
3292.47418579,0.01437240
3294.40299316,0.01437603
3296.33180054,0.01435067
3298.26060791,0.01447014
3300.18941528,0.01438785
3302.11822266,0.01434828
3304.04703003,0.01435938
3305.97583740,0.01436174
3307.90464478,0.01432381
3309.83345215,0.01427053
3311.76225952,0.01430792
3313.69106689,0.01434869
3315.61987427,0.01434509
3317.54868164,0.01431807
3319.47748901,0.01436980
3321.40629639,0.01429906
3323.33510376,0.01420138
3325.26391113,0.01425584
3327.19271851,0.01431488
3329.12152588,0.01430528
3331.05033325,0.01422364
3332.97914062,0.01417155
3334.90794800,0.01428523
3336.83675537,0.01425654
3338.76556274,0.01410971
3340.69437012,0.01430438
3342.62317749,0.01423742
3344.55198486,0.01412727
3346.48079224,0.01429196
3348.40959961,0.01419443
3350.33840698,0.01416411
3352.26721436,0.01421105
3354.19602173,0.01424606
3356.12482910,0.01414562
3358.05363647,0.01411158
3359.98244385,0.01423402
3361.91125122,0.01416773
3363.84005859,0.01420425
3365.76886597,0.01423481
3367.69767334,0.01418505
3369.62648071,0.01409442
3371.55528809,0.01412076
3373.48409546,0.01422202
3375.41290283,0.01420507
3377.34171020,0.01423634
3379.27051758,0.01423727
3381.19932495,0.01421026
3383.12813232,0.01416496
3385.05693970,0.01423199
3386.98574707,0.01419841
3388.91455444,0.01426167
3390.84336182,0.01428830
3392.77216919,0.01412748
3394.70097656,0.01432003
3396.62978394,0.01423423
3398.55859131,0.01418867
3400.48739868,0.01424270
3402.41620605,0.01428065
3404.34501343,0.01445991
3406.27382080,0.01426707
3408.20262817,0.01426632
3410.13143555,0.01430524
3412.06024292,0.01438697
3413.98905029,0.01441081
3415.91785767,0.01438872
3417.84666504,0.01449979
3419.77547241,0.01429556
3421.70427979,0.01435040
3423.63308716,0.01435660
3425.56189453,0.01438631
3427.49070190,0.01447312
3429.41950928,0.01436789
3431.34831665,0.01441380
3433.27712402,0.01438435
3435.20593140,0.01446527
3437.13473877,0.01441051
3439.06354614,0.01443016
3440.99235352,0.01443150
3442.92116089,0.01436571
3444.84996826,0.01454250
3446.77877563,0.01434659
3448.70758301,0.01439282
3450.63639038,0.01469543
3452.56519775,0.01461713
3454.49400513,0.01455548
3456.42281250,0.01464344
3458.35161987,0.01465845
3460.28042725,0.01463563
3462.20923462,0.01455183
3464.13804199,0.01456630
3466.06684937,0.01477242
3467.99565674,0.01472725
3469.92446411,0.01472330
3471.85327148,0.01469955
3473.78207886,0.01466507
3475.71088623,0.01471242
3477.63969360,0.01472817
3479.56850098,0.01482934
3481.49730835,0.01455833
3483.42611572,0.01464937
3485.35492310,0.01491769
3487.28373047,0.01473023
3489.21253784,0.01474521
3491.14134521,0.01490826
3493.07015259,0.01498764
3494.99895996,0.01491184
3496.92776733,0.01488981
3498.85657471,0.01494644
3500.78538208,0.01500450
3502.71418945,0.01469178
3504.64299683,0.01470293
3506.57180420,0.01519993
3508.50061157,0.01490020
3510.42941895,0.01480028
3512.35822632,0.01503960
3514.28703369,0.01511707
3516.21584106,0.01513572
3518.14464844,0.01502594
3520.07345581,0.01524060
3522.00226318,0.01514680
3523.93107056,0.01481156
3525.85987793,0.01482231
3527.78868530,0.01490946
3529.71749268,0.01490749
3531.64630005,0.01517730
3533.57510742,0.01539212
3535.50391479,0.01511559
3537.43272217,0.01511750
3539.36152954,0.01536981
3541.29033691,0.01534313
3543.21914429,0.01517450
3545.14795166,0.01486617
3547.07675903,0.01453487
3549.00556641,0.01520357
3550.93437378,0.01547893
3552.86318115,0.01489701
3554.79198853,0.01535462
3556.72079590,0.01550619
3558.64960327,0.01539701
3560.57841064,0.01525300
3562.50721802,0.01520914
3564.43602539,0.01542123
3566.36483276,0.01408968
3568.29364014,0.01367185
3570.22244751,0.01502655
3572.15125488,0.01554015
3574.08006226,0.01533481
3576.00886963,0.01542008
3577.93767700,0.01550574
3579.86648437,0.01544608
3581.79529175,0.01548093
3583.72409912,0.01561629
3585.65290649,0.01517756
3587.58171387,0.01365852
3589.51052124,0.01421893
3591.43932861,0.01572832
3593.36813599,0.01521761
3595.29694336,0.01492043
3597.22575073,0.01523514
3599.15455811,0.01545185
3601.08336548,0.01522543
3603.01217285,0.01544436
3604.94098022,0.01583750
3606.86978760,0.01516587
3608.79859497,0.01408223
3610.72740234,0.01445006
3612.65620972,0.01493367
3614.58501709,0.01429211
3616.51382446,0.01557007
3618.44263184,0.01426012
3620.37143921,0.01362726
3622.30024658,0.01578900
3624.22905395,0.01528390
3626.15786133,0.01624171
3628.08666870,0.01330229
3630.01547607,0.01192973
3631.94428345,0.01579166
3633.87309082,0.01520618
3635.80189819,0.01557959
3637.73070557,0.01589158
3639.65951294,0.01562453
3641.58832031,0.01586268
3643.51712769,0.01572857
3645.44593506,0.01580532
3647.37474243,0.01373335
3649.30354980,0.01257911
3651.23235718,0.01271539
3653.16116455,0.01575480
3655.08997192,0.01557423
3657.01877930,0.01350778
3658.94758667,0.01615700
3660.87639404,0.01569588
3662.80520142,0.01593799
3664.73400879,0.01589100
3666.66281616,0.01572173
3668.59162354,0.01521927
3670.52043091,0.01182418
3672.44923828,0.01497172
3674.37804565,0.01417135
3676.30685303,0.01134597
3678.23566040,0.01490866
3680.16446777,0.01524791
3682.09327515,0.01536224
3684.02208252,0.01591498
3685.95088989,0.01556510
3687.87969727,0.01380541
3689.80850464,0.01250347
3691.73731201,0.01444697
3693.66611938,0.01503397
3695.59492676,0.01551012
3697.52373413,0.01544165
3699.45254150,0.01534172
3701.38134888,0.01476926
3703.31015625,0.01415144
3705.23896362,0.01581920
3707.16777100,0.01488698
3709.09657837,0.01454483
3711.02538574,0.01343045
3712.95419312,0.01244209
3714.88300049,0.01515314
3716.81180786,0.01486812
3718.74061523,0.01491489
3720.66942261,0.01451228
3722.59822998,0.01393089
3724.52703735,0.01458626
3726.45584473,0.01330111
3728.38465210,0.01461458
3730.31345947,0.01452512
3732.24226685,0.01307762
3734.17107422,0.01261347
3736.09988159,0.01185898
3738.02868896,0.01285617
3739.95749634,0.01407489
3741.88630371,0.01472958
3743.81511108,0.01105701
3745.74391846,0.01028011
3747.67272583,0.01403476
3749.60153320,0.01170675
3751.53034058,0.01055313
3753.45914795,0.01257469
3755.38795532,0.01365403
3757.31676270,0.01441685
3759.24557007,0.01314289
3761.17437744,0.01353592
3763.10318481,0.01466013
3765.03199219,0.01356225
3766.96079956,0.01380733
3768.88960693,0.01360711
3770.81841431,0.01287013
3772.74722168,0.01419357
3774.67602905,0.01425168
3776.60483643,0.01419718
3778.53364380,0.01374169
3780.46245117,0.01300676
3782.39125854,0.01409994
3784.32006592,0.01370842
3786.24887329,0.01350586
3788.17768066,0.01402438
3790.10648804,0.01385808
3792.03529541,0.01377572
3793.96410278,0.01412121
3795.89291016,0.01304463
3797.82171753,0.01282611
3799.75052490,0.01371820
3801.67933228,0.01045093
3803.60813965,0.01241690
3805.53694702,0.01376263
3807.46575439,0.01082947
3809.39456177,0.01358634
3811.32336914,0.01334200
3813.25217651,0.01377846
3815.18098389,0.01233692
3817.10979126,0.01045750
3819.03859863,0.01380180
3820.96740601,0.01074879
3822.89621338,0.01133222
3824.82502075,0.01375342
3826.75382812,0.01213092
3828.68263550,0.01329989
3830.61144287,0.01275566
3832.54025024,0.01220782
3834.46905762,0.01253928
3836.39786499,0.01180168
3838.32667236,0.01049248
3840.25547974,0.01138971
3842.18428711,0.01249170
3844.11309448,0.01190204
3846.04190186,0.01300634
3847.97070923,0.01279528
3849.89951660,0.01279180
3851.82832397,0.01137407
3853.75713135,0.00803443
3855.68593872,0.00981009
3857.61474609,0.01280995
3859.54355347,0.01243754
3861.47236084,0.01224119
3863.40116821,0.01182814
3865.32997559,0.01088312
3867.25878296,0.01257778
3869.18759033,0.01125526
3871.11639770,0.01019341
3873.04520508,0.01247526
3874.97401245,0.01122458
3876.90281982,0.01246753
3878.83162720,0.01275332
3880.76043457,0.01055389
3882.68924194,0.01249888
3884.61804932,0.01147608
3886.54685669,0.01032684
3888.47566406,0.01249456
3890.40447144,0.01172318
3892.33327881,0.01082729
3894.26208618,0.01217724
3896.19089355,0.01243260
3898.11970093,0.01161078
3900.04850830,0.01087857
3901.97731567,0.01075648
3903.90612305,0.01064280
3905.83493042,0.01077254
3907.76373779,0.01211331
3909.69254517,0.01207106
3911.62135254,0.01182166
3913.55015991,0.01223876
3915.47896728,0.01163615
3917.40777466,0.01130335
3919.33658203,0.01122151
3921.26538940,0.01160204
3923.19419678,0.01169042
3925.12300415,0.01141704
3927.05181152,0.01170249
3928.98061890,0.01184134
3930.90942627,0.01147159
3932.83823364,0.01102622
3934.76704102,0.01154358
3936.69584839,0.01164515
3938.62465576,0.01157251
3940.55346313,0.01171452
3942.48227051,0.01107887
3944.41107788,0.01124557
3946.33988525,0.01156063
3948.26869263,0.01121250
3950.19750000,0.01121138
3952.12630737,0.01138838
3954.05511475,0.01146400
3955.98392212,0.01148059
3957.91272949,0.01132094
3959.84153687,0.01128257
3961.77034424,0.01124020
3963.69915161,0.01115195
3965.62795898,0.01132020
3967.55676636,0.01120300
3969.48557373,0.01123025
3971.41438110,0.01120119
3973.34318848,0.01107325
3975.27199585,0.01111608
3977.20080322,0.01100317
3979.12961060,0.01115419
3981.05841797,0.01103524
3982.98722534,0.01105202
3984.91603271,0.01104209
3986.84484009,0.01089386
3988.77364746,0.01103684
3990.70245483,0.01088336
3992.63126221,0.01099676
3994.56006958,0.01094165
3996.48887695,0.01086159
3998.41768433,0.01094312
4000.34649170,0.01081356
4002.27529907,0.01082657
4004.20410645,0.01076115
4006.13291382,0.01080226
4008.06172119,0.01074715
4009.99052856,0.01068416
4011.91933594,0.01061468
4013.84814331,0.01061353
4015.77695068,0.01070781
4017.70575806,0.01054956
4019.63456543,0.01057211
4021.56337280,0.01054754
4023.49218018,0.01049553
4025.42098755,0.01045152
4027.34979492,0.01047783
4029.27860229,0.01051457
4031.20740967,0.01033665
4033.13621704,0.01043627
4035.06502441,0.01047517
4036.99383179,0.01033837
4038.92263916,0.01031350
4040.85144653,0.01033995
4042.78025391,0.01032318
4044.70906128,0.01026457
4046.63786865,0.01023567
4048.56667603,0.01023926
4050.49548340,0.01019409
4052.42429077,0.01016603
4054.35309814,0.01021102
4056.28190552,0.01007162
4058.21071289,0.01014140
4060.13952026,0.01012494
4062.06832764,0.01000019
4063.99713501,0.01008854
4065.92594238,0.01001899
4067.85474976,0.01006405
4069.78355713,0.00993419
4071.71236450,0.00992922
4073.64117187,0.00996187
4075.56997925,0.00984642
4077.49878662,0.00998569
4079.42759399,0.00983386
4081.35640137,0.00976925
4083.28520874,0.00978373
4085.21401611,0.00976476
4087.14282349,0.00981291
4089.07163086,0.00976147
4091.00043823,0.00974965
4092.92924561,0.00968598
4094.85805298,0.00973206
4096.78686035,0.00972397
4098.71566772,0.00962557
4100.64447510,0.00948509
4102.57328247,0.00953506
4104.50208984,0.00963158
4106.43089722,0.00951402
4108.35970459,0.00962055
4110.28851196,0.00961565
4112.21731934,0.00946238
4114.14612671,0.00936286
4116.07493408,0.00938035
4118.00374145,0.00939710
4119.93254883,0.00935894
4121.86135620,0.00939371
4123.79016357,0.00933289
4125.71897095,0.00937855
4127.64777832,0.00932730
4129.57658569,0.00929635
4131.50539307,0.00930409
4133.43420044,0.00921928
4135.36300781,0.00918889
4137.29181519,0.00914682
4139.22062256,0.00927785
4141.14942993,0.00920486
4143.07823730,0.00910431
4145.00704468,0.00915995
4146.93585205,0.00911284
4148.86465942,0.00903900
4150.79346680,0.00898917
4152.72227417,0.00903421
4154.65108154,0.00897563
4156.57988892,0.00893015
4158.50869629,0.00890355
4160.43750366,0.00893092
4162.36631103,0.00891463
4164.29511841,0.00888803
4166.22392578,0.00890114
4168.15273315,0.00875909
4170.08154053,0.00883655
4172.01034790,0.00881504
4173.93915527,0.00878231
4175.86796265,0.00879847
4177.79677002,0.00877334
4179.72557739,0.00885029
4181.65438477,0.00869811
4183.58319214,0.00870045
4185.51199951,0.00867332
4187.44080688,0.00861365
4189.36961426,0.00858819
4191.29842163,0.00850669
4193.22722900,0.00860935
4195.15603638,0.00856878
4197.08484375,0.00854030
4199.01365112,0.00852037
4200.94245850,0.00851426
4202.87126587,0.00848973
4204.80007324,0.00847940
4206.72888062,0.00848557
4208.65768799,0.00834172
4210.58649536,0.00842682
4212.51530273,0.00837163
4214.44411011,0.00828575
4216.37291748,0.00841532
4218.30172485,0.00838483
4220.23053223,0.00830865
4222.15933960,0.00828175
4224.08814697,0.00830489
4226.01695435,0.00831952
4227.94576172,0.00824216
4229.87456909,0.00813298
4231.80337646,0.00824685
4233.73218384,0.00823517
4235.66099121,0.00810403
4237.58979858,0.00815082
4239.51860596,0.00811415
4241.44741333,0.00810422
4243.37622070,0.00800987
4245.30502808,0.00800904
4247.23383545,0.00806084
4249.16264282,0.00797014
4251.09145020,0.00799581
4253.02025757,0.00797320
4254.94906494,0.00792273
4256.87787231,0.00794340
4258.80667969,0.00795112
4260.73548706,0.00782945
4262.66429443,0.00785362
4264.59310181,0.00793432
4266.52190918,0.00780068
4268.45071655,0.00774596
4270.37952393,0.00774850
4272.30833130,0.00779039
4274.23713867,0.00781747
4276.16594604,0.00783462
4278.09475342,0.00775039
4280.02356079,0.00769017
4281.95236816,0.00775131
4283.88117554,0.00763126
4285.80998291,0.00757750
4287.73879028,0.00761884
4289.66759766,0.00764258
4291.59640503,0.00762019
4293.52521240,0.00760166
4295.45401978,0.00754487
4297.38282715,0.00748935
4299.31163452,0.00756370
4301.24044189,0.00753507
4303.16924927,0.00751842
4305.09805664,0.00747902
4307.02686401,0.00749842
4308.95567139,0.00746467
4310.88447876,0.00745752
4312.81328613,0.00751653
4314.74209351,0.00733430
4316.67090088,0.00741727
4318.59970825,0.00737954
4320.52851562,0.00727775
4322.45732300,0.00735418
4324.38613037,0.00730087
4326.31493774,0.00731595
4328.24374512,0.00726701
4330.17255249,0.00731732
4332.10135986,0.00721718
4334.03016724,0.00717760
4335.95897461,0.00725438
4337.88778198,0.00714748
4339.81658936,0.00715236
4341.74539673,0.00708648
4343.67420410,0.00716232
4345.60301147,0.00707224
4347.53181885,0.00700633
4349.46062622,0.00714971
4351.38943359,0.00699784
4353.31824097,0.00703429
4355.24704834,0.00708281
4357.17585571,0.00702931
4359.10466309,0.00700638
4361.03347046,0.00698729
4362.96227783,0.00700023
4364.89108520,0.00690105
4366.81989258,0.00692192
4368.74869995,0.00694871
4370.67750732,0.00686298
4372.60631470,0.00685221
4374.53512207,0.00686756
4376.46392944,0.00683831
4378.39273682,0.00689585
4380.32154419,0.00682170
4382.25035156,0.00666681
4384.17915894,0.00675307
4386.10796631,0.00674173
4388.03677368,0.00672427
4389.96558105,0.00675975
4391.89438843,0.00670670
4393.82319580,0.00670128
4395.75200317,0.00670432
4397.68081055,0.00671674
4399.60961792,0.00667370
4401.53842529,0.00659241
4403.46723267,0.00657216
4405.39604004,0.00662000
4407.32484741,0.00660475
4409.25365478,0.00650449
4411.18246216,0.00647574
4413.11126953,0.00652165
4415.04007690,0.00650238
4416.96888428,0.00645702
4418.89769165,0.00645086
4420.82649902,0.00642953
4422.75530640,0.00647317
4424.68411377,0.00639280
4426.61292114,0.00634970
4428.54172852,0.00639286
4430.47053589,0.00637766
4432.39934326,0.00644899
4434.32815063,0.00634201
4436.25695801,0.00634257
4438.18576538,0.00634897
4440.11457275,0.00625097
4442.04338013,0.00630831
4443.97218750,0.00622413
4445.90099487,0.00622861
4447.82980225,0.00620840
4449.75860962,0.00615644
4451.68741699,0.00620184
4453.61622437,0.00615830
4455.54503174,0.00614245
4457.47383911,0.00609559
4459.40264648,0.00611359
4461.33145386,0.00615527
4463.26026123,0.00615985
4465.18906860,0.00611247
4467.11787598,0.00603114
4469.04668335,0.00605786
4470.97549072,0.00604042
4472.90429810,0.00596290
4474.83310547,0.00591706
4476.76191284,0.00596406
4478.69072021,0.00602920
4480.61952759,0.00593844
4482.54833496,0.00584676
4484.47714233,0.00592683
4486.40594971,0.00589933
4488.33475708,0.00586092
4490.26356445,0.00593769
4492.19237183,0.00587989
4494.12117920,0.00583982
4496.04998657,0.00578086
4497.97879395,0.00579534
4499.90760132,0.00580650
4501.83640869,0.00577032
4503.76521606,0.00580802
4505.69402344,0.00575113
4507.62283081,0.00584893
4509.55163818,0.00576164
4511.48044556,0.00563888
4513.40925293,0.00573075
4515.33806030,0.00566969
4517.26686768,0.00570069
4519.19567505,0.00571004
4521.12448242,0.00572166
4523.05328979,0.00570893
4524.98209717,0.00566761
4526.91090454,0.00562864
4528.83971191,0.00550331
4530.76851929,0.00554477
4532.69732666,0.00550793
4534.62613403,0.00553758
4536.55494141,0.00561758
4538.48374878,0.00544958
4540.41255615,0.00544365
4542.34136353,0.00557411
4544.27017090,0.00550230
4546.19897827,0.00542016
4548.12778564,0.00545641
4550.05659302,0.00541050
4551.98540039,0.00540279
4553.91420776,0.00544570
4555.84301514,0.00545421
4557.77182251,0.00535893
4559.70062988,0.00526595
4561.62943726,0.00537014
4563.55824463,0.00537640
4565.48705200,0.00529688
4567.41585937,0.00526964
4569.34466675,0.00533844
4571.27347412,0.00532481
4573.20228149,0.00519594
4575.13108887,0.00522832
4577.05989624,0.00522785
4578.98870361,0.00519957
4580.91751099,0.00519005
4582.84631836,0.00514257
4584.77512573,0.00513270
4586.70393311,0.00519398
4588.63274048,0.00518390
4590.56154785,0.00515589
4592.49035522,0.00518340
4594.41916260,0.00512778
4596.34796997,0.00519237
4598.27677734,0.00509840
4600.20558472,0.00504500
4602.13439209,0.00518071
4604.06319946,0.00505902
4605.99200684,0.00499566
4607.92081421,0.00494735
4609.84962158,0.00495866
4611.77842895,0.00501794
4613.70723633,0.00501365
4615.63604370,0.00498414
4617.56485107,0.00487758
4619.49365845,0.00495359
4621.42246582,0.00496973
4623.35127319,0.00492566
4625.28008057,0.00490961
4627.20888794,0.00487451
4629.13769531,0.00486429
4631.06650269,0.00483452
4632.99531006,0.00486709
4634.92411743,0.00482710
4636.85292480,0.00488550
4638.78173218,0.00488799
4640.71053955,0.00474704
4642.63934692,0.00476595
4644.56815430,0.00481005
4646.49696167,0.00481449
4648.42576904,0.00479907
4650.35457642,0.00479364
4652.28338379,0.00473404
4654.21219116,0.00471793
4656.14099853,0.00470864
4658.06980591,0.00466609
4659.99861328,0.00468493
4661.92742065,0.00467559
4663.85622803,0.00474271
4665.78503540,0.00471862
4667.71384277,0.00466551
4669.64265015,0.00467559
4671.57145752,0.00460539
4673.50026489,0.00456187
4675.42907227,0.00454419
4677.35787964,0.00457685
4679.28668701,0.00460882
4681.21549438,0.00460887
4683.14430176,0.00454347
4685.07310913,0.00452402
4687.00191650,0.00456929
4688.93072388,0.00454091
4690.85953125,0.00453822
4692.78833862,0.00446963
4694.71714600,0.00444322
4696.64595337,0.00450142
4698.57476074,0.00445913
4700.50356812,0.00439305
4702.43237549,0.00438531
4704.36118286,0.00442842
4706.28999023,0.00448841
4708.21879761,0.00449855
4710.14760498,0.00441979
4712.07641235,0.00438069
4714.00521973,0.00438622
4715.93402710,0.00443595
4717.86283447,0.00445849
4719.79164185,0.00433029
4721.72044922,0.00426592
4723.64925659,0.00433802
4725.57806396,0.00431778
4727.50687134,0.00420556
4729.43567871,0.00428133
4731.36448608,0.00432920
4733.29329346,0.00421523
4735.22210083,0.00419914
4737.15090820,0.00425645
4739.07971558,0.00427034
4741.00852295,0.00417595
4742.93733032,0.00414836
4744.86613770,0.00420110
4746.79494507,0.00424214
4748.72375244,0.00420818
4750.65255981,0.00417371
4752.58136719,0.00419150
4754.51017456,0.00409547
4756.43898193,0.00413573
4758.36778931,0.00414324
4760.29659668,0.00409332
4762.22540405,0.00416086
4764.15421143,0.00409880
4766.08301880,0.00404708
4768.01182617,0.00403784
4769.94063354,0.00409218
4771.86944092,0.00406789
4773.79824829,0.00395694
4775.72705566,0.00397259
4777.65586304,0.00397204
4779.58467041,0.00397765
4781.51347778,0.00398415
4783.44228516,0.00399883
4785.37109253,0.00400267
4787.29989990,0.00396205
4789.22870728,0.00396405
4791.15751465,0.00399431
4793.08632202,0.00391246
4795.01512939,0.00385421
4796.94393677,0.00393550
4798.87274414,0.00388457
4800.80155151,0.00387993
4802.73035889,0.00388521
4804.65916626,0.00384293
4806.58797363,0.00381118
4808.51678101,0.00369415
4810.44558838,0.00382967
4812.37439575,0.00390143
4814.30320312,0.00378470
4816.23201050,0.00381953
4818.16081787,0.00381992
4820.08962524,0.00375892
4822.01843262,0.00373797
4823.94723999,0.00374587
4825.87604736,0.00377586
4827.80485474,0.00379427
4829.73366211,0.00373591
4831.66246948,0.00377053
4833.59127686,0.00378220
4835.52008423,0.00371722
4837.44889160,0.00378579
4839.37769897,0.00372064
4841.30650635,0.00362169
4843.23531372,0.00366120
4845.16412109,0.00366627
4847.09292847,0.00360823
4849.02173584,0.00360196
4850.95054321,0.00364603
4852.87935059,0.00361156
4854.80815796,0.00363042
4856.73696533,0.00369850
4858.66577270,0.00365629
4860.59458008,0.00354707
4862.52338745,0.00356281
4864.45219482,0.00356671
4866.38100220,0.00344032
4868.30980957,0.00343322
4870.23861694,0.00350152
4872.16742432,0.00355315
4874.09623169,0.00355882
4876.02503906,0.00353793
4877.95384644,0.00351251
4879.88265381,0.00349463
4881.81146118,0.00346538
4883.74026855,0.00341129
4885.66907593,0.00341346
4887.59788330,0.00337990
4889.52669067,0.00342592
4891.45549805,0.00341727
4893.38430542,0.00333641
4895.31311279,0.00342313
4897.24192017,0.00345721
4899.17072754,0.00342829
4901.09953491,0.00336273
4903.02834228,0.00333118
4904.95714966,0.00337368
4906.88595703,0.00337754
4908.81476440,0.00336257
4910.74357178,0.00337690
4912.67237915,0.00338092
4914.60118652,0.00329706
4916.52999390,0.00329484
4918.45880127,0.00331713
4920.38760864,0.00333686
4922.31641602,0.00336688
4924.24522339,0.00325701
4926.17403076,0.00319903
4928.10283813,0.00330506
4930.03164551,0.00329437
4931.96045288,0.00320508
4933.88926025,0.00329014
4935.81806763,0.00320978
4937.74687500,0.00317276
4939.67568237,0.00321071
4941.60448975,0.00309117
4943.53329712,0.00320917
4945.46210449,0.00316637
4947.39091187,0.00310945
4949.31971924,0.00322867
4951.24852661,0.00318339
4953.17733398,0.00313081
4955.10614136,0.00308676
4957.03494873,0.00312232
4958.96375610,0.00303116
4960.89256348,0.00298329
4962.82137085,0.00307528
4964.75017822,0.00308569
4966.67898560,0.00308808
4968.60779297,0.00300789
4970.53660034,0.00308553
4972.46540771,0.00307688
4974.39421509,0.00297308
4976.32302246,0.00307281
4978.25182983,0.00302572
4980.18063721,0.00301061
4982.10944458,0.00307297
4984.03825195,0.00299169
4985.96705933,0.00299527
4987.89586670,0.00296738
4989.82467407,0.00292035
4991.75348145,0.00304237
4993.68228882,0.00297809
4995.61109619,0.00292807
4997.53990356,0.00291172
4999.46871094,0.00280642
5001.39751831,0.00295811
5003.32632568,0.00290198
5005.25513306,0.00282419
5007.18394043,0.00292135
5009.11274780,0.00287209
5011.04155518,0.00294240
5012.97036255,0.00296087
5014.89916992,0.00289453
5016.82797729,0.00284785
5018.75678467,0.00284984
5020.68559204,0.00289156
5022.61439941,0.00282314
5024.54320679,0.00277750
5026.47201416,0.00279639
5028.40082153,0.00282648
5030.32962891,0.00280119
5032.25843628,0.00278714
5034.18724365,0.00280676
5036.11605103,0.00279781
5038.04485840,0.00280232
5039.97366577,0.00278673
5041.90247314,0.00273108
5043.83128052,0.00271696
5045.76008789,0.00270253
5047.68889526,0.00267090
5049.61770264,0.00273818
5051.54651001,0.00269930
5053.47531738,0.00270140
5055.40412476,0.00270633
5057.33293213,0.00262437
5059.26173950,0.00275317
5061.19054687,0.00269602
5063.11935425,0.00264390
5065.04816162,0.00270922
5066.97696899,0.00265714
5068.90577637,0.00267538
5070.83458374,0.00265127
5072.76339111,0.00264083
5074.69219849,0.00263284
5076.62100586,0.00268967
5078.54981323,0.00263768
5080.47862061,0.00253496
5082.40742798,0.00259511
5084.33623535,0.00255280
5086.26504272,0.00263520
5088.19385010,0.00263267
5090.12265747,0.00253111
5092.05146484,0.00258013
5093.98027222,0.00254729
5095.90907959,0.00254392
5097.83788696,0.00256608
5099.76669434,0.00253100
5101.69550171,0.00246185
5103.62430908,0.00246817
5105.55311645,0.00248903
5107.48192383,0.00248104
5109.41073120,0.00252766
5111.33953857,0.00251481
5113.26834595,0.00247370
5115.19715332,0.00243679
5117.12596069,0.00246664
5119.05476807,0.00249382
5120.98357544,0.00244565
5122.91238281,0.00241230
5124.84119019,0.00247399
5126.76999756,0.00253053
5128.69880493,0.00242808
5130.62761230,0.00241121
5132.55641968,0.00240995
5134.48522705,0.00237832
5136.41403442,0.00238748
5138.34284180,0.00234003
5140.27164917,0.00239501
5142.20045654,0.00238556
5144.12926392,0.00232044
5146.05807129,0.00236776
5147.98687866,0.00237415
5149.91568603,0.00235607
5151.84449341,0.00230681
5153.77330078,0.00229934
5155.70210815,0.00237585
5157.63091553,0.00232394
5159.55972290,0.00228411
5161.48853027,0.00236947
5163.41733765,0.00236612
5165.34614502,0.00236145
5167.27495239,0.00238198
5169.20375977,0.00231167
5171.13256714,0.00226601
5173.06137451,0.00230743
5174.99018188,0.00227549
5176.91898926,0.00222239
5178.84779663,0.00228102
5180.77660400,0.00226284
5182.70541138,0.00223662
5184.63421875,0.00223619
5186.56302612,0.00219617
5188.49183350,0.00220650
5190.42064087,0.00223447
5192.34944824,0.00224029
5194.27825562,0.00220914
5196.20706299,0.00220878
5198.13587036,0.00219221
5200.06467773,0.00224368
5201.99348511,0.00221829
5203.92229248,0.00215094
5205.85109985,0.00219836
5207.77990723,0.00205545
5209.70871460,0.00214150
5211.63752197,0.00221250
5213.56632935,0.00210757
5215.49513672,0.00219777
5217.42394409,0.00206759
5219.35275146,0.00208130
5221.28155884,0.00222605
5223.21036621,0.00214562
5225.13917358,0.00203520
5227.06798096,0.00205720
5228.99678833,0.00215439
5230.92559570,0.00211086
5232.85440308,0.00211969
5234.78321045,0.00204969
5236.71201782,0.00208472
5238.64082520,0.00216275
5240.56963257,0.00198706
5242.49843994,0.00200519
5244.42724731,0.00204887
5246.35605469,0.00202648
5248.28486206,0.00197536
5250.21366943,0.00196795
5252.14247681,0.00207646
5254.07128418,0.00201106
5256.00009155,0.00203509
5257.92889893,0.00207757
5259.85770630,0.00189895
5261.78651367,0.00191296
5263.71532104,0.00201930
5265.64412842,0.00195324
5267.57293579,0.00200639
5269.50174316,0.00196946
5271.43055054,0.00191403
5273.35935791,0.00202236
5275.28816528,0.00192022
5277.21697266,0.00192975
5279.14578003,0.00196438
5281.07458740,0.00196870
5283.00339478,0.00203098
5284.93220215,0.00190615
5286.86100952,0.00192642
5288.78981689,0.00190457
5290.71862427,0.00187471
5292.64743164,0.00192522
5294.57623901,0.00191187
5296.50504639,0.00198950
5298.43385376,0.00194006
5300.36266113,0.00193040
5302.29146851,0.00194658
5304.22027588,0.00193989
5306.14908325,0.00194743
5308.07789062,0.00184671
5310.00669800,0.00190345
5311.93550537,0.00186865
5313.86431274,0.00182635
5315.79312012,0.00193827
5317.72192749,0.00188098
5319.65073486,0.00185547
5321.57954224,0.00181560
5323.50834961,0.00182968
5325.43715698,0.00193942
5327.36596436,0.00180226
5329.29477173,0.00173517
5331.22357910,0.00183990
5333.15238647,0.00183445
5335.08119385,0.00179879
5337.01000122,0.00177214
5338.93880859,0.00164866
5340.86761597,0.00163989
5342.79642334,0.00175727
5344.72523071,0.00163690
5346.65403809,0.00167951
5348.58284546,0.00184075
5350.51165283,0.00178261
5352.44046020,0.00177014
5354.36926758,0.00169128
5356.29807495,0.00176590
5358.22688232,0.00176450
5360.15568970,0.00163418
5362.08449707,0.00172899
5364.01330444,0.00165069
5365.94211182,0.00167775
5367.87091919,0.00173567
5369.79972656,0.00169683
5371.72853394,0.00174340
5373.65734131,0.00168478
5375.58614868,0.00171507
5377.51495605,0.00170833
5379.44376343,0.00170718
5381.37257080,0.00175517
5383.30137817,0.00171468
5385.23018555,0.00162845
5387.15899292,0.00160423
5389.08780029,0.00169540
5391.01660767,0.00165204
5392.94541504,0.00164854
5394.87422241,0.00160646
5396.80302978,0.00159771
5398.73183716,0.00171397
5400.66064453,0.00169448
5402.58945190,0.00170561
5404.51825928,0.00163495
5406.44706665,0.00166127
5408.37587402,0.00165978
5410.30468140,0.00154584
5412.23348877,0.00159068
5414.16229614,0.00155901
5416.09110352,0.00157128
5418.01991089,0.00158807
5419.94871826,0.00161475
5421.87752563,0.00158176
5423.80633301,0.00154602
5425.73514038,0.00161060
5427.66394775,0.00150255
5429.59275513,0.00151814
5431.52156250,0.00154389
5433.45036987,0.00153620
5435.37917725,0.00150702
5437.30798462,0.00146266
5439.23679199,0.00159793
5441.16559936,0.00150152
5443.09440674,0.00143918
5445.02321411,0.00146525
5446.95202148,0.00142538
5448.88082886,0.00152302
5450.80963623,0.00153631
5452.73844360,0.00147930
5454.66725098,0.00145931
5456.59605835,0.00153314
5458.52486572,0.00151987
5460.45367310,0.00146183
5462.38248047,0.00149144
5464.31128784,0.00145153
5466.24009521,0.00147013
5468.16890259,0.00147172
5470.09770996,0.00143278
5472.02651733,0.00144819
5473.95532471,0.00149196
5475.88413208,0.00148561
5477.81293945,0.00142999
5479.74174683,0.00146047
5481.67055420,0.00148965
5483.59936157,0.00146647
5485.52816895,0.00142603
5487.45697632,0.00140565
5489.38578369,0.00136286
5491.31459106,0.00141258
5493.24339844,0.00144435
5495.17220581,0.00135546
5497.10101318,0.00147396
5499.02982056,0.00145214
5500.95862793,0.00134392
5502.88743530,0.00142832
5504.81624268,0.00142362
5506.74505005,0.00139638
5508.67385742,0.00138872
5510.60266479,0.00142332
5512.53147217,0.00139812
5514.46027954,0.00138549
5516.38908691,0.00141230
5518.31789429,0.00133194
5520.24670166,0.00136608
5522.17550903,0.00143891
5524.10431641,0.00145685
5526.03312378,0.00138535
5527.96193115,0.00130844
5529.89073853,0.00135038
5531.81954590,0.00134477
5533.74835327,0.00133473
5535.67716064,0.00134004
5537.60596802,0.00131119
5539.53477539,0.00132809
5541.46358276,0.00140468
5543.39239014,0.00137034
5545.32119751,0.00129471
5547.25000488,0.00129715
5549.17881226,0.00131129
5551.10761963,0.00130346
5553.03642700,0.00122501
5554.96523437,0.00129169
5556.89404175,0.00133514
5558.82284912,0.00127651
5560.75165649,0.00132847
5562.68046387,0.00128374
5564.60927124,0.00125419
5566.53807861,0.00132786
5568.46688599,0.00135663
5570.39569336,0.00130897
5572.32450073,0.00126998
5574.25330811,0.00121906
5576.18211548,0.00120818
5578.11092285,0.00129445
5580.03973022,0.00125194
5581.96853760,0.00125072
5583.89734497,0.00124358
5585.82615234,0.00120783
5587.75495972,0.00126438
5589.68376709,0.00121068
5591.61257446,0.00118321
5593.54138184,0.00122811
5595.47018921,0.00126579
5597.39899658,0.00120912
5599.32780395,0.00118005
5601.25661133,0.00126055
5603.18541870,0.00127698
5605.11422607,0.00122233
5607.04303345,0.00118660
5608.97184082,0.00125162
5610.90064819,0.00118003
5612.82945557,0.00116536
5614.75826294,0.00122351
5616.68707031,0.00118227
5618.61587769,0.00120643
5620.54468506,0.00116319
5622.47349243,0.00122815
5624.40229980,0.00121484
5626.33110718,0.00119024
5628.25991455,0.00122279
5630.18872192,0.00110665
5632.11752930,0.00118290
5634.04633667,0.00115053
5635.97514404,0.00111625
5637.90395142,0.00114603
5639.83275879,0.00105434
5641.76156616,0.00112052
5643.69037353,0.00113395
5645.61918091,0.00111089
5647.54798828,0.00119105
5649.47679565,0.00119544
5651.40560303,0.00108814
5653.33441040,0.00120007
5655.26321777,0.00124018
5657.19202515,0.00109778
5659.12083252,0.00117856
5661.04963989,0.00108519
5662.97844727,0.00108777
5664.90725464,0.00116850
5666.83606201,0.00105404
5668.76486938,0.00111571
5670.69367676,0.00111369
5672.62248413,0.00109605
5674.55129150,0.00108322
5676.48009888,0.00103523
5678.40890625,0.00105671
5680.33771362,0.00106392
5682.26652100,0.00114709
5684.19532837,0.00114761
5686.12413574,0.00107251
5688.05294311,0.00104986
5689.98175049,0.00102607
5691.91055786,0.00105263
5693.83936523,0.00107184
5695.76817261,0.00105606
5697.69697998,0.00103881
5699.62578735,0.00096647
5701.55459473,0.00097652
5703.48340210,0.00099775
5705.41220947,0.00095637
5707.34101685,0.00105714
5709.26982422,0.00106422
5711.19863159,0.00100257
5713.12743896,0.00102858
5715.05624634,0.00105882
5716.98505371,0.00105582
5718.91386108,0.00097333
5720.84266846,0.00100130
5722.77147583,0.00095434
5724.70028320,0.00090830
5726.62909058,0.00104648
5728.55789795,0.00107809
5730.48670532,0.00102347
5732.41551270,0.00097034
5734.34432007,0.00101233
5736.27312744,0.00102153
5738.20193481,0.00096793
5740.13074219,0.00097501
5742.05954956,0.00100126
5743.98835693,0.00098995
5745.91716431,0.00092958
5747.84597168,0.00101399
5749.77477905,0.00101349
5751.70358643,0.00092110
5753.63239380,0.00095686
5755.56120117,0.00094396
5757.49000854,0.00090310
5759.41881592,0.00093308
5761.34762329,0.00099095
5763.27643066,0.00096427
5765.20523804,0.00095629
5767.13404541,0.00090426
5769.06285278,0.00091275
5770.99166016,0.00100653
5772.92046753,0.00089946
5774.84927490,0.00095846
5776.77808228,0.00101344
5778.70688965,0.00089684
5780.63569702,0.00090187
5782.56450439,0.00088572
5784.49331177,0.00092424
5786.42211914,0.00098030
5788.35092651,0.00095511
5790.27973389,0.00093379
5792.20854126,0.00094894
5794.13734863,0.00092425
5796.06615601,0.00085633
5797.99496338,0.00086851
5799.92377075,0.00084385
5801.85257812,0.00081321
5803.78138550,0.00088394
5805.71019287,0.00091637
5807.63900024,0.00084860
5809.56780762,0.00085465
5811.49661499,0.00089943
5813.42542236,0.00085884
5815.35422974,0.00085451
5817.28303711,0.00083562
5819.21184448,0.00082989
5821.14065186,0.00085876
5823.06945923,0.00087020
5824.99826660,0.00090973
5826.92707397,0.00086245
5828.85588135,0.00082087
5830.78468872,0.00086163
5832.71349609,0.00082880
5834.64230347,0.00076018
5836.57111084,0.00075886
5838.49991821,0.00081717
5840.42872559,0.00084846
5842.35753296,0.00078981
5844.28634033,0.00078705
5846.21514770,0.00086028
5848.14395508,0.00085254
5850.07276245,0.00084696
5852.00156982,0.00084433
5853.93037720,0.00080348
5855.85918457,0.00078170
5857.78799194,0.00074557
5859.71679932,0.00075302
5861.64560669,0.00079355
5863.57441406,0.00079888
5865.50322144,0.00081565
5867.43202881,0.00082837
5869.36083618,0.00082767
5871.28964355,0.00086598
5873.21845093,0.00082790
5875.14725830,0.00073942
5877.07606567,0.00080043
5879.00487305,0.00085304
5880.93368042,0.00080372
5882.86248779,0.00075111
5884.79129517,0.00071976
5886.72010254,0.00077316
5888.64890991,0.00079571
5890.57771728,0.00075346
5892.50652466,0.00077880
5894.43533203,0.00080166
5896.36413940,0.00080127
5898.29294678,0.00080377
5900.22175415,0.00078316
5902.15056152,0.00076824
5904.07936890,0.00072268
5906.00817627,0.00068477
5907.93698364,0.00073642
5909.86579102,0.00081196
5911.79459839,0.00077402
5913.72340576,0.00071935
5915.65221313,0.00073128
5917.58102051,0.00068014
5919.50982788,0.00073760
5921.43863525,0.00078437
5923.36744263,0.00072640
5925.29625000,0.00075268
5927.22505737,0.00072464
5929.15386475,0.00075022
5931.08267212,0.00073955
5933.01147949,0.00072154
5934.94028686,0.00075131
5936.86909424,0.00065555
5938.79790161,0.00073804
5940.72670898,0.00077271
5942.65551636,0.00065845
5944.58432373,0.00068569
5946.51313110,0.00069865
5948.44193848,0.00069053
5950.37074585,0.00072749
5952.29955322,0.00068063
5954.22836060,0.00062174
5956.15716797,0.00069911
5958.08597534,0.00066511
5960.01478271,0.00065455
5961.94359009,0.00069751
5963.87239746,0.00067801
5965.80120483,0.00081224
5967.73001221,0.00071998
5969.65881958,0.00056410
5971.58762695,0.00059871
5973.51643433,0.00063539
5975.44524170,0.00072214
5977.37404907,0.00068520
5979.30285645,0.00065247
5981.23166382,0.00063273
5983.16047119,0.00061797
5985.08927856,0.00065996
5987.01808594,0.00062830
5988.94689331,0.00065338
5990.87570068,0.00065465
5992.80450806,0.00065475
5994.73331543,0.00067728
5996.66212280,0.00068939
5998.59093018,0.00069987
6000.51973755,0.00059810
