399.26312622,0.00035078
401.19193359,0.00093144
403.12074097,0.00075320
405.04954834,0.00130835
406.97835571,0.00149089
408.90716309,0.00079157
410.83597046,0.00082369
412.76477783,0.00133707
414.69358521,0.00155960
416.62239258,0.00110177
418.55119995,0.00053645
420.48000732,0.00135092
422.40881470,0.00179801
424.33762207,0.00101848
426.26642944,0.00092405
428.19523682,0.00134097
430.12404419,0.00129869
432.05285156,0.00095735
433.98165894,0.00123563
435.91046631,0.00122835
437.83927368,0.00087587
439.76808105,0.00123116
441.69688843,0.00115871
443.62569580,0.00102729
445.55450317,0.00118989
447.48331055,0.00073567
449.41211792,0.00077489
451.34092529,0.00108958
453.26973267,0.00040838
455.19854004,0.00083837
457.12734741,0.00136107
459.05615479,0.00053100
460.98496216,0.00085471
462.91376953,0.00079665
464.84257690,0.00036848
466.77138428,0.00066334
468.70019165,0.00042889
470.62899902,0.00062224
472.55780640,0.00056963
474.48661377,0.00048287
476.41542114,0.00075799
478.34422852,0.00051030
480.27303589,0.00034358
482.20184326,0.00016284
484.13065063,0.00060732
486.05945801,0.00069523
487.98826538,0.00007230
489.91707275,0.00028023
491.84588013,0.00027412
493.77468750,0.00040062
495.70349487,0.00041282
497.63230225,0.00000001
499.56110962,0.00020215
501.48991699,0.00021051
503.41872437,0.00007876
505.34753174,0.00028768
507.27633911,0.00037411
509.20514648,0.00019641
511.13395386,0.00022392
513.06276123,0.00010774
514.99156860,-0.00001872
516.92037598,0.00011369
518.84918335,0.00011400
520.77799072,0.00063373
522.70679810,0.00049598
524.63560547,0.00013362
526.56441284,0.00024759
528.49322021,-0.00005784
530.42202759,0.00025272
532.35083496,0.00040602
534.27964233,0.00039072
536.20844971,0.00007312
538.13725708,-0.00033579
540.06606445,0.00019467
541.99487183,0.00016962
543.92367920,0.00011376
545.85248657,0.00015942
547.78129395,0.00033059
549.71010132,0.00002579
551.63890869,-0.00010721
553.56771606,0.00017096
555.49652344,-0.00002181
557.42533081,0.00041263
559.35413818,0.00035463
561.28294556,0.00023252
563.21175293,0.00008757
565.14056030,-0.00022790
567.06936768,0.00041135
568.99817505,0.00014415
570.92698242,0.00000740
572.85578979,0.00056161
574.78459717,-0.00004033
576.71340454,-0.00016133
578.64221191,0.00021922
580.57101929,0.00017784
582.49982666,0.00022152
584.42863403,0.00022500
586.35744141,0.00022567
588.28624878,-0.00000702
590.21505615,0.00015902
592.14386353,0.00022652
594.07267090,0.00015346
596.00147827,0.00069052
597.93028564,-0.00005850
599.85909302,-0.00027999
601.78790039,0.00025418
603.71670776,-0.00007182
605.64551514,0.00024385
607.57432251,-0.00001392
609.50312988,-0.00016425
611.43193726,0.00025733
613.36074463,0.00017836
615.28955200,0.00012027
617.21835938,0.00014051
619.14716675,0.00025905
621.07597412,0.00027175
623.00478149,0.00001744
624.93358887,0.00004415
626.86239624,0.00038476
628.79120361,0.00021166
630.72001099,0.00016654
632.64881836,0.00097267
634.57762573,0.00101727
636.50643311,0.00091476
638.43524048,0.00102133
640.36404785,0.00064210
642.29285522,0.00118858
644.22166260,0.00115506
646.15046997,0.00095052
648.07927734,0.00171925
650.00808472,0.00161053
651.93689209,0.00162347
653.86569946,0.00195646
655.79450684,0.00165399
657.72331421,0.00162237
659.65212158,0.00205893
661.58092896,0.00175222
663.50973633,0.00185748
665.43854370,0.00209649
667.36735107,0.00163177
669.29615845,0.00242018
671.22496582,0.00245950
673.15377319,0.00233552
675.08258057,0.00265010
677.01138794,0.00225396
678.94019531,0.00273544
680.86900269,0.00266670
682.79781006,0.00265089
684.72661743,0.00254223
686.65542480,0.00220557
688.58423218,0.00263796
690.51303955,0.00267360
692.44184692,0.00289304
694.37065430,0.00291583
696.29946167,0.00344235
698.22826904,0.00392559
700.15707642,0.00398677
702.08588379,0.00415847
704.01469116,0.00343457
705.94349854,0.00320694
707.87230591,0.00278300
709.80111328,0.00214629
711.72992065,0.00181208
713.65872803,0.00106501
715.58753540,0.00043955
717.51634277,0.00017220
719.44515015,0.00040032
721.37395752,0.00017998
723.30276489,-0.00006590
725.23157227,0.00000565
727.16037964,0.00018267
729.08918701,0.00019436
731.01799438,-0.00002225
732.94680176,0.00020981
734.87560913,0.00020861
736.80441650,0.00024319
738.73322388,0.00018004
740.66203125,0.00023555
742.59083862,0.00039083
744.51964600,-0.00003014
746.44845337,0.00003298
748.37726074,0.00029849
750.30606812,0.00004284
752.23487549,0.00002961
754.16368286,0.00024258
756.09249023,0.00014593
758.02129761,0.00023576
759.95010498,0.00044737
761.87891235,0.00016801
763.80771973,-0.00002999
765.73652710,0.00014217
767.66533447,0.00028217
769.59414185,0.00029423
771.52294922,0.00026783
773.45175659,0.00048069
775.38056396,0.00032201
777.30937134,0.00022140
779.23817871,0.00048878
781.16698608,0.00026995
783.09579346,0.00032587
785.02460083,0.00067770
786.95340820,0.00044666
788.88221558,0.00028514
790.81102295,0.00058566
792.73983032,0.00060019
794.66863770,0.00039242
796.59744507,0.00050781
798.52625244,0.00079586
800.45505981,0.00066413
802.38386719,0.00043112
804.31267456,0.00074832
806.24148193,0.00068316
808.17028931,0.00054162
810.09909668,0.00072838
812.02790405,0.00045532
813.95671143,0.00037334
815.88551880,0.00037653
817.81432617,0.00019916
819.74313354,0.00015302
821.67194092,0.00015028
823.60074829,0.00025230
825.52955566,0.00026763
827.45836304,0.00038309
829.38717041,0.00054951
831.31597778,0.00063602
833.24478516,0.00068653
835.17359253,0.00088151
837.10239990,0.00097164
839.03120728,0.00075304
840.96001465,0.00103155
842.88882202,0.00092553
844.81762939,0.00071986
846.74643677,0.00095346
848.67524414,0.00058116
850.60405151,0.00058878
852.53285889,0.00064830
854.46166626,0.00063224
856.39047363,0.00081086
858.31928101,0.00025711
860.24808838,0.00029442
862.17689575,0.00056108
864.10570313,0.00025842
866.03451050,0.00040693
867.96331787,0.00049112
869.89212524,0.00021502
871.82093262,0.00024474
873.74973999,0.00052312
875.67854736,0.00036767
877.60735474,0.00017346
879.53616211,0.00031005
881.46496948,0.00035288
883.39377686,0.00047446
885.32258423,0.00033028
887.25139160,0.00018584
889.18019897,0.00022472
891.10900635,0.00026848
893.03781372,0.00052006
894.96662109,0.00039231
896.89542847,0.00022298
898.82423584,0.00047202
900.75304321,0.00063276
902.68185059,0.00070186
904.61065796,0.00061380
906.53946533,0.00038518
908.46827271,0.00023862
910.39708008,0.00020821
912.32588745,0.00072768
914.25469482,0.00069566
916.18350220,0.00030154
918.11230957,0.00098947
920.04111694,0.00087263
921.96992432,0.00064528
923.89873169,0.00090512
925.82753906,0.00076532
927.75634644,0.00106357
929.68515381,0.00057518
931.61396118,0.00051059
933.54276855,0.00124080
935.47157593,0.00119990
937.40038330,0.00130880
939.32919067,0.00131336
941.25799805,0.00128689
943.18680542,0.00147926
945.11561279,0.00146000
947.04442017,0.00139522
948.97322754,0.00145507
950.90203491,0.00137055
952.83084229,0.00128395
954.75964966,0.00141095
956.68845703,0.00129034
958.61726440,0.00130316
960.54607178,0.00126549
962.47487915,0.00119630
964.40368652,0.00137625
966.33249390,0.00134913
968.26130127,0.00134241
970.19010864,0.00140416
972.11891602,0.00162647
974.04772339,0.00175057
975.97653076,0.00163854
977.90533813,0.00168247
979.83414551,0.00179142
981.76295288,0.00190601
983.69176025,0.00227198
985.62056763,0.00266007
987.54937500,0.00287392
989.47818237,0.00324012
991.40698975,0.00338746
993.33579712,0.00378172
995.26460449,0.00414359
997.19341187,0.00420321
999.12221924,0.00470801
1001.05102661,0.00507415
1002.97983398,0.00556959
1004.90864136,0.00580798
1006.83744873,0.00629857
1008.76625610,0.00693313
1010.69506348,0.00684439
1012.62387085,0.00745784
1014.55267822,0.00776083
1016.48148560,0.00795211
1018.41029297,0.00854894
1020.33910034,0.00871769
1022.26790771,0.00911826
1024.19671509,0.00958513
1026.12552246,0.00996971
1028.05432983,0.01029878
1029.98313721,0.01084461
1031.91194458,0.01095018
1033.84075195,0.01090707
1035.76955933,0.01134171
1037.69836670,0.01139764
1039.62717407,0.01148249
1041.55598145,0.01130385
1043.48478882,0.01112385
1045.41359619,0.01109038
1047.34240356,0.01095798
1049.27121094,0.01090590
1051.20001831,0.01045090
1053.12882568,0.01028775
1055.05763306,0.01010390
1056.98644043,0.00985698
1058.91524780,0.00974751
1060.84405518,0.00921726
1062.77286255,0.00900598
1064.70166992,0.00879867
1066.63047729,0.00834590
1068.55928467,0.00820916
1070.48809204,0.00787250
1072.41689941,0.00731519
1074.34570679,0.00701326
1076.27451416,0.00673396
1078.20332153,0.00646550
1080.13212891,0.00608125
1082.06093628,0.00581627
1083.98974365,0.00589990
1085.91855103,0.00543210
1087.84735840,0.00503065
1089.77616577,0.00523502
1091.70497314,0.00493550
1093.63378052,0.00443805
1095.56258789,0.00459894
1097.49139526,0.00464879
1099.42020264,0.00421489
1101.34901001,0.00395008
1103.27781738,0.00394137
1105.20662476,0.00387077
1107.13543213,0.00359617
1109.06423950,0.00370888
1110.99304687,0.00367030
1112.92185425,0.00347615
1114.85066162,0.00377342
1116.77946899,0.00363592
1118.70827637,0.00361819
1120.63708374,0.00368670
1122.56589111,0.00368242
1124.49469849,0.00391937
1126.42350586,0.00377901
1128.35231323,0.00377811
1130.28112061,0.00379162
1132.20992798,0.00391328
1134.13873535,0.00422669
1136.06754272,0.00425486
1137.99635010,0.00435455
1139.92515747,0.00466782
1141.85396484,0.00492832
1143.78277222,0.00524062
1145.71157959,0.00581751
1147.64038696,0.00600405
1149.56919434,0.00624387
1151.49800171,0.00658031
1153.42680908,0.00670812
1155.35561646,0.00708643
1157.28442383,0.00734579
1159.21323120,0.00774615
1161.14203857,0.00801530
1163.07084595,0.00831997
1164.99965332,0.00868399
1166.92846069,0.00891396
1168.85726807,0.00938468
1170.78607544,0.00948812
1172.71488281,0.00997201
1174.64369019,0.01056989
1176.57249756,0.01082706
1178.50130493,0.01121820
1180.43011230,0.01144763
1182.35891968,0.01203257
1184.28772705,0.01275044
1186.21653442,0.01328946
1188.14534180,0.01372803
1190.07414917,0.01417708
1192.00295654,0.01491833
1193.93176392,0.01572229
1195.86057129,0.01628380
1197.78937866,0.01702698
1199.71818604,0.01800116
1201.64699341,0.01844471
1203.57580078,0.01924735
1205.50460815,0.02034139
1207.43341553,0.02089509
1209.36222290,0.02136937
1211.29103027,0.02202150
1213.21983765,0.02283014
1215.14864502,0.02320775
1217.07745239,0.02363428
1219.00625977,0.02417385
1220.93506714,0.02437761
1222.86387451,0.02462146
1224.79268188,0.02480358
1226.72148926,0.02514737
1228.65029663,0.02540212
1230.57910400,0.02537717
1232.50791138,0.02540888
1234.43671875,0.02553242
1236.36552612,0.02559504
1238.29433350,0.02545535
1240.22314087,0.02527665
1242.15194824,0.02517212
1244.08075562,0.02519223
1246.00956299,0.02519187
1247.93837036,0.02497899
1249.86717773,0.02461189
1251.79598511,0.02460047
1253.72479248,0.02440201
1255.65359985,0.02387094
1257.58240723,0.02378264
1259.51121460,0.02326562
1261.44002197,0.02281369
1263.36882935,0.02280496
1265.29763672,0.02240979
1267.22644409,0.02211021
1269.15525146,0.02189032
1271.08405884,0.02158144
1273.01286621,0.02119862
1274.94167358,0.02071027
1276.87048096,0.02025079
1278.79928833,0.01993153
1280.72809570,0.01960586
1282.65690308,0.01916706
1284.58571045,0.01887812
1286.51451782,0.01863276
1288.44332520,0.01831650
1290.37213257,0.01794316
1292.30093994,0.01777787
1294.22974731,0.01769116
1296.15855469,0.01753778
1298.08736206,0.01756186
1300.01616943,0.01759699
1301.94497681,0.01770708
1303.87378418,0.01779449
1305.80259155,0.01791252
1307.73139893,0.01818382
1309.66020630,0.01852794
1311.58901367,0.01888377
1313.51782104,0.01915087
1315.44662842,0.01952041
1317.37543579,0.01998046
1319.30424316,0.02060425
1321.23305054,0.02121744
1323.16185791,0.02179101
1325.09066528,0.02248293
1327.01947266,0.02304966
1328.94828003,0.02359354
1330.87708740,0.02437703
1332.80589478,0.02510024
1334.73470215,0.02533141
1336.66350952,0.02535732
1338.59231689,0.02481283
1340.52112427,0.02507918
1342.44993164,0.02671569
1344.37873901,0.02694574
1346.30754639,0.02669276
1348.23635376,0.02663313
1350.16516113,0.02645051
1352.09396851,0.02654798
1354.02277588,0.02596858
1355.95158325,0.02578500
1357.88039062,0.02568643
1359.80919800,0.02516326
1361.73800537,0.02388352
1363.66681274,0.02344445
1365.59562012,0.02507975
1367.52442749,0.02434940
1369.45323486,0.02397436
1371.38204224,0.02468057
1373.31084961,0.02307722
1375.23965698,0.02309898
1377.16846436,0.02397827
1379.09727173,0.02393357
1381.02607910,0.02377224
1382.95488647,0.02394069
1384.88369385,0.02399408
1386.81250122,0.02262586
1388.74130859,0.02293618
1390.67011597,0.02512381
1392.59892334,0.02446033
1394.52773071,0.02238293
1396.45653809,0.02371683
1398.38534546,0.02360176
1400.31415283,0.02346587
1402.24296021,0.02587116
1404.17176758,0.02398368
1406.10057495,0.02435841
1408.02938232,0.02547811
1409.95818970,0.02442309
1411.88699707,0.02515253
1413.81580444,0.02396593
1415.74461182,0.02461945
1417.67341919,0.02163148
1419.60222656,0.01894670
1421.53103394,0.02275052
1423.45984131,0.02193420
1425.38864868,0.02130161
1427.31745605,0.02168373
1429.24626343,0.01980586
1431.17507080,0.01927082
1433.10387817,0.01985314
1435.03268555,0.01792982
1436.96149292,0.01468802
1438.89030029,0.01731104
1440.81910767,0.01806067
1442.74791504,0.01659777
1444.67672241,0.01752087
1446.60552979,0.01581847
1448.53433716,0.01589333
1450.46314453,0.01669488
1452.39195190,0.01706131
1454.32075928,0.01770774
1456.24956665,0.01421650
1458.17837402,0.01439116
1460.10718140,0.02023166
1462.03598877,0.02167663
1463.96479614,0.02095969
1465.89360352,0.02204205
1467.82241089,0.02536164
1469.75121826,0.02722959
1471.68002563,0.02348478
1473.60883301,0.02456646
1475.53764038,0.02850631
1477.46644775,0.03094591
1479.39525513,0.03419548
1481.32406250,0.03430086
1483.25286987,0.03670845
1485.18167725,0.03777974
1487.11048462,0.03669894
1489.03929199,0.03608171
1490.96809937,0.03620062
1492.89690674,0.04318706
1494.82571411,0.04166260
1496.75452148,0.03672049
1498.68332886,0.04199097
1500.61213623,0.04346123
1502.54094360,0.04736632
1504.46975098,0.04404478
1506.39855835,0.02989267
1508.32736572,0.03767274
1510.25617310,0.04555772
1512.18498047,0.04401785
1514.11378784,0.04825227
1516.04259521,0.04253769
1517.97140259,0.04452313
1519.90020996,0.04287513
1521.82901733,0.03584795
1523.75782471,0.04563104
1525.68663208,0.04460952
1527.61543945,0.04453506
1529.54424683,0.05052833
1531.47305420,0.04786941
1533.40186157,0.04278672
1535.33066895,0.04602547
1537.25947632,0.05015348
1539.18828369,0.03352443
1541.11709106,0.03524365
1543.04589844,0.04375207
1544.97470581,0.04151209
1546.90351318,0.05112952
1548.83232056,0.04694835
1550.76112793,0.04844619
1552.68993530,0.04834267
1554.61874268,0.04287040
1556.54755005,0.04646280
1558.47635742,0.03035442
1560.40516479,0.03357837
1562.33397217,0.05130989
1564.26277954,0.04760939
1566.19158691,0.04932750
1568.12039429,0.04867404
1570.04920166,0.04184465
1571.97800903,0.05008030
1573.90681641,0.05065554
1575.83562378,0.03828137
1577.76443115,0.04453474
1579.69323853,0.05115569
1581.62204590,0.04872010
1583.55085327,0.05011823
1585.47966064,0.04916850
1587.40846802,0.04971016
1589.33727539,0.04903458
1591.26608276,0.04896170
1593.19489014,0.04906418
1595.12369751,0.04837342
1597.05250488,0.04895445
1598.98131226,0.04853110
1600.91011963,0.04895885
1602.83892700,0.04776426
1604.76773437,0.04879140
1606.69654175,0.04815825
1608.62534912,0.04805264
1610.55415649,0.04792643
1612.48296387,0.04827374
1614.41177124,0.04896098
1616.34057861,0.03858092
1618.26938599,0.04283606
1620.19819336,0.05106399
1622.12700073,0.04423279
1624.05580811,0.04482048
1625.98461548,0.04773179
1627.91342285,0.04742664
1629.84223022,0.04746289
1631.77103760,0.05148417
1633.69984497,0.04658909
1635.62865234,0.03716727
1637.55745972,0.04506305
1639.48626709,0.05076887
1641.41507446,0.04943273
1643.34388184,0.05116080
1645.27268921,0.04536418
1647.20149658,0.03873249
1649.13030396,0.05063807
1651.05911133,0.04779612
1652.98791870,0.02787127
1654.91672607,0.04085387
1656.84553345,0.05381344
1658.77434082,0.05134299
1660.70314819,0.05282461
1662.63195557,0.04735492
1664.56076294,0.05052012
1666.48957031,0.05517999
1668.41837769,0.04681794
1670.34718506,0.04518458
1672.27599243,0.05295422
1674.20479980,0.04819147
1676.13360718,0.04596197
1678.06241455,0.05454554
1679.99122192,0.05229191
1681.92002930,0.05126783
1683.84883667,0.04017394
1685.77764404,0.04005811
1687.70645142,0.05776745
1689.63525879,0.04897349
1691.56406616,0.05494048
1693.49287354,0.05614200
1695.42168091,0.03861394
1697.35048828,0.04969384
1699.27929565,0.04244075
1701.20810303,0.03725180
1703.13691040,0.05419335
1705.06571777,0.04887234
1706.99452515,0.04953212
1708.92333252,0.05484492
1710.85213989,0.05229093
1712.78094727,0.05324601
1714.70975464,0.04866018
1716.63856201,0.04280171
1718.56736938,0.04195745
1720.49617676,0.05159168
1722.42498413,0.05402530
1724.35379150,0.04938237
1726.28259888,0.05466855
1728.21140625,0.04984149
1730.14021362,0.05021443
1732.06902100,0.04874242
1733.99782837,0.03503287
1735.92663574,0.04587912
1737.85544312,0.05146722
1739.78425049,0.04470767
1741.71305786,0.04950489
1743.64186523,0.05004470
1745.57067261,0.05019026
1747.49947998,0.05045715
1749.42828735,0.04774658
1751.35709473,0.04537946
1753.28590210,0.05139809
1755.21470947,0.05431343
1757.14351685,0.04830921
1759.07232422,0.05411173
1761.00113159,0.05022539
1762.92993896,0.04815301
1764.85874634,0.05663586
1766.78755371,0.04967427
1768.71636108,0.05029669
1770.64516846,0.04979325
1772.57397583,0.04384314
1774.50278320,0.05008417
1776.43159058,0.05327370
1778.36039795,0.05261249
1780.28920532,0.05157675
1782.21801270,0.05222660
1784.14682007,0.05226022
1786.07562744,0.05086911
1788.00443481,0.05423327
1789.93324219,0.05242956
1791.86204956,0.04635377
1793.79085693,0.04873436
1795.71966431,0.05295941
1797.64847168,0.05224356
1799.57727905,0.05113992
1801.50608643,0.05001797
1803.43489380,0.05224521
1805.36370117,0.05352094
1807.29250854,0.05272848
1809.22131592,0.05300944
1811.15012329,0.05096322
1813.07893066,0.05310566
1815.00773804,0.05337919
1816.93654541,0.05249362
1818.86535278,0.05327042
1820.79416016,0.05291545
1822.72296753,0.05369633
1824.65177490,0.04937679
1826.58058228,0.05161244
1828.50938965,0.05162188
1830.43819702,0.04772270
1832.36700439,0.05309300
1834.29581177,0.05269710
1836.22461914,0.05262865
1838.15342651,0.05222574
1840.08223389,0.05281625
1842.01104126,0.05282428
1843.93984863,0.04549347
1845.86865601,0.04949202
1847.79746338,0.05260072
1849.72627075,0.05139438
1851.65507812,0.05336668
1853.58388550,0.05188469
1855.51269287,0.05255925
1857.44150024,0.05215285
1859.37030762,0.05186742
1861.29911499,0.05221383
1863.22792236,0.05150882
1865.15672974,0.05229457
1867.08553711,0.05003858
1869.01434448,0.04739344
1870.94315186,0.04971440
1872.87195923,0.05221765
1874.80076660,0.05125284
1876.72957397,0.05155567
1878.65838135,0.05123195
1880.58718872,0.05082654
1882.51599609,0.05156114
1884.44480347,0.05059589
1886.37361084,0.05137213
1888.30241821,0.04985654
1890.23122559,0.04888590
1892.16003296,0.05120065
1894.08884033,0.05011510
1896.01764771,0.04992083
1897.94645508,0.05068514
1899.87526245,0.05041251
1901.80406982,0.05053378
1903.73287720,0.05012196
1905.66168457,0.05041397
1907.59049194,0.04971136
1909.51929932,0.04919744
1911.44810669,0.04960471
1913.37691406,0.04976460
1915.30572144,0.05035755
1917.23452881,0.04771069
1919.16333618,0.04768059
1921.09214355,0.05004732
1923.02095093,0.04799600
1924.94975830,0.04908130
1926.87856567,0.04986078
1928.80737305,0.04889177
1930.73618042,0.04972721
1932.66498779,0.04886128
1934.59379517,0.04945804
1936.52260254,0.04918285
1938.45140991,0.04907329
1940.38021729,0.04915403
1942.30902466,0.04719437
1944.23783203,0.04830981
1946.16663940,0.04902591
1948.09544678,0.04873544
1950.02425415,0.04899973
1951.95306152,0.04876902
1953.88186890,0.04887575
1955.81067627,0.04866862
1957.73948364,0.04891796
1959.66829102,0.04883938
1961.59709839,0.04857009
1963.52590576,0.04859236
1965.45471313,0.04820255
1967.38352051,0.04776784
1969.31232788,0.04811421
1971.24113525,0.04853865
1973.16994263,0.04832380
1975.09875000,0.04848596
1977.02755737,0.04814636
1978.95636475,0.04807683
1980.88517212,0.04810670
1982.81397949,0.04792267
1984.74278687,0.04803510
1986.67159424,0.04754263
1988.60040161,0.04777385
1990.52920898,0.04711854
1992.45801636,0.04637042
1994.38682373,0.04735253
1996.31563110,0.04741798
1998.24443848,0.04717743
2000.17324585,0.04727994
2002.10205322,0.04715022
2004.03086060,0.04711357
2005.95966797,0.04699844
2007.88847534,0.04674331
2009.81728271,0.04656456
2011.74609009,0.04662555
2013.67489746,0.04666065
2015.60370483,0.04615661
2017.53251221,0.04572342
2019.46131958,0.04597037
2021.39012695,0.04603619
2023.31893433,0.04591547
2025.24774170,0.04576357
2027.17654907,0.04569114
2029.10535645,0.04559010
2031.03416382,0.04540002
2032.96297119,0.04547545
2034.89177856,0.04525038
2036.82058594,0.04520567
2038.74939331,0.04515069
2040.67820068,0.04482075
2042.60700806,0.04477751
2044.53581543,0.04475310
2046.46462280,0.04475325
2048.39343018,0.04469262
2050.32223755,0.04452424
2052.25104492,0.04418423
2054.17985229,0.04413712
2056.10865967,0.04417074
2058.03746704,0.04394985
2059.96627441,0.04395249
2061.89508179,0.04387247
2063.82388916,0.04368137
2065.75269653,0.04352998
2067.68150391,0.04362888
2069.61031128,0.04358087
2071.53911865,0.04341333
2073.46792603,0.04344580
2075.39673340,0.04328885
2077.32554077,0.04314896
2079.25434814,0.04306711
2081.18315552,0.04308544
2083.11196289,0.04293949
2085.04077026,0.04280827
2086.96957764,0.04274328
2088.89838501,0.04258548
2090.82719238,0.04252566
2092.75599976,0.04239850
2094.68480713,0.04244414
2096.61361450,0.04228124
2098.54242187,0.04225595
2100.47122925,0.04216898
2102.40003662,0.04192401
2104.32884399,0.04207846
2106.25765137,0.04188533
2108.18645874,0.04185271
2110.11526611,0.04179537
2112.04407349,0.04172800
2113.97288086,0.04172194
2115.90168823,0.04143740
2117.83049561,0.04154963
2119.75930298,0.04145781
2121.68811035,0.04134077
2123.61691772,0.04138334
2125.54572510,0.04133229
2127.47453247,0.04123785
2129.40333984,0.04108946
2131.33214722,0.04115811
2133.26095459,0.04115614
2135.18976196,0.04115182
2137.11856934,0.04105533
2139.04737671,0.04098375
2140.97618408,0.04100184
2142.90499146,0.04095183
2144.83379883,0.04085226
2146.76260620,0.04067521
2148.69141357,0.04072613
2150.62022095,0.04069720
2152.54902832,0.04068624
2154.47783569,0.04066118
2156.40664307,0.04047923
2158.33545044,0.04050747
2160.26425781,0.04047667
2162.19306519,0.04031367
2164.12187256,0.04031710
2166.05067993,0.04039348
2167.97948730,0.04029695
2169.90829468,0.04034223
2171.83710205,0.04032698
2173.76590942,0.04022796
2175.69471680,0.04022271
2177.62352417,0.04003726
2179.55233154,0.03998997
2181.48113892,0.03994866
2183.40994629,0.03993150
2185.33875366,0.03986827
2187.26756104,0.03978407
2189.19636841,0.03990090
2191.12517578,0.03984854
2193.05398315,0.03975792
2194.98279053,0.03964863
2196.91159790,0.03969924
2198.84040527,0.03979020
2200.76921265,0.03965272
2202.69802002,0.03952091
2204.62682739,0.03945262
2206.55563477,0.03951486
2208.48444214,0.03948318
2210.41324951,0.03941849
2212.34205688,0.03936850
2214.27086426,0.03931948
2216.19967163,0.03938873
2218.12847900,0.03929518
2220.05728638,0.03916675
2221.98609375,0.03931415
2223.91490112,0.03930109
2225.84370850,0.03909338
2227.77251587,0.03917985
2229.70132324,0.03914077
2231.63013062,0.03892821
2233.55893799,0.03881147
2235.48774536,0.03886116
2237.41655273,0.03899811
2239.34536011,0.03877456
2241.27416748,0.03858552
2243.20297485,0.03865029
2245.13178223,0.03865534
2247.06058960,0.03856154
2248.98939697,0.03849951
2250.91820435,0.03836758
2252.84701172,0.03830320
2254.77581909,0.03839707
2256.70462646,0.03829858
2258.63343384,0.03828812
2260.56224121,0.03822595
2262.49104858,0.03821756
2264.41985596,0.03828054
2266.34866333,0.03816960
2268.27747070,0.03813415
2270.20627808,0.03796924
2272.13508545,0.03791372
2274.06389282,0.03793751
2275.99270020,0.03799982
2277.92150757,0.03783085
2279.85031494,0.03763064
2281.77912231,0.03778204
2283.70792969,0.03764766
2285.63673706,0.03767097
2287.56554443,0.03764620
2289.49435181,0.03758813
2291.42315918,0.03761397
2293.35196655,0.03738634
2295.28077393,0.03734937
2297.20958130,0.03726988
2299.13838867,0.03721002
2301.06719604,0.03704440
2302.99600342,0.03690353
2304.92481079,0.03675593
2306.85361816,0.03652081
2308.78242554,0.03633762
2310.71123291,0.03587729
2312.64004028,0.03562766
2314.56884766,0.03532842
2316.49765503,0.03507566
2318.42646240,0.03475274
2320.35526978,0.03413841
2322.28407715,0.03374529
2324.21288452,0.03333534
2326.14169189,0.03311047
2328.07049927,0.03282970
2329.99930664,0.03246800
2331.92811401,0.03212330
2333.85692139,0.03199723
2335.78572876,0.03196899
2337.71453613,0.03180470
2339.64334351,0.03199613
2341.57215088,0.03201061
2343.50095825,0.03228126
2345.42976562,0.03290495
2347.35857300,0.03410151
2349.28738037,0.03515786
2351.21618774,0.03409617
2353.14499512,0.03254359
2355.07380249,0.03147098
2357.00260986,0.03055811
2358.93141724,0.02999734
2360.86022461,0.02977559
2362.78903198,0.02977215
2364.71783936,0.02978103
2366.64664673,0.03024298
2368.57545410,0.03074311
2370.50426147,0.03138620
2372.43306885,0.03231870
2374.36187622,0.03305559
2376.29068359,0.03370505
2378.21949097,0.03439884
2380.14829834,0.03494266
2382.07710571,0.03521112
2384.00591309,0.03547650
2385.93472046,0.03553736
2387.86352783,0.03568222
2389.79233521,0.03567551
2391.72114258,0.03555029
2393.64994995,0.03562278
2395.57875732,0.03545096
2397.50756470,0.03555546
2399.43637207,0.03548151
2401.36517944,0.03538212
2403.29398682,0.03543638
2405.22279419,0.03527377
2407.15160156,0.03526335
2409.08040894,0.03515232
2411.00921631,0.03522436
2412.93802368,0.03515730
2414.86683105,0.03511081
2416.79563843,0.03514034
2418.72444580,0.03489569
2420.65325317,0.03492238
2422.58206055,0.03485175
2424.51086792,0.03481962
2426.43967529,0.03487196
2428.36848267,0.03480744
2430.29729004,0.03473622
2432.22609741,0.03473470
2434.15490479,0.03475446
2436.08371216,0.03467828
2438.01251953,0.03467080
2439.94132690,0.03449535
2441.87013428,0.03455285
2443.79894165,0.03454445
2445.72774902,0.03434739
2447.65655640,0.03441330
2449.58536377,0.03428693
2451.51417114,0.03431820
2453.44297852,0.03434117
2455.37178589,0.03418660
2457.30059326,0.03418817
2459.22940063,0.03417861
2461.15820801,0.03406857
2463.08701538,0.03399006
2465.01582275,0.03408857
2466.94463013,0.03410295
2468.87343750,0.03399950
2470.80224487,0.03390732
2472.73105225,0.03397204
2474.65985962,0.03396109
2476.58866699,0.03377884
2478.51747437,0.03369313
2480.44628174,0.03370531
2482.37508911,0.03366512
2484.30389648,0.03350911
2486.23270386,0.03367800
2488.16151123,0.03363139
2490.09031860,0.03345557
2492.01912598,0.03354257
2493.94793335,0.03338896
2495.87674072,0.03335551
2497.80554810,0.03324414
2499.73435547,0.03325225
2501.66316284,0.03334190
2503.59197021,0.03323776
2505.52077759,0.03326594
2507.44958496,0.03306203
2509.37839233,0.03302090
2511.30719971,0.03308934
2513.23600708,0.03297883
2515.16481445,0.03295521
2517.09362183,0.03292792
2519.02242920,0.03289826
2520.95123657,0.03286883
2522.88004395,0.03283601
2524.80885132,0.03280097
2526.73765869,0.03278961
2528.66646606,0.03263912
2530.59527344,0.03267067
2532.52408081,0.03274420
2534.45288818,0.03258760
2536.38169556,0.03263927
2538.31050293,0.03256800
2540.23931030,0.03246627
2542.16811768,0.03247777
2544.09692505,0.03247711
2546.02573242,0.03246079
2547.95453979,0.03235723
2549.88334717,0.03226136
2551.81215454,0.03214970
2553.74096191,0.03227618
2555.66976929,0.03216296
2557.59857666,0.03196333
2559.52738403,0.03212231
2561.45619141,0.03201684
2563.38499878,0.03199450
2565.31380615,0.03202497
2567.24261353,0.03189520
2569.17142090,0.03192961
2571.10022827,0.03183453
2573.02903564,0.03178199
2574.95784302,0.03188626
2576.88665039,0.03176083
2578.81545776,0.03165995
2580.74426514,0.03165212
2582.67307251,0.03153558
2584.60187988,0.03150555
2586.53068726,0.03149595
2588.45949463,0.03146774
2590.38830200,0.03137331
2592.31710937,0.03132086
2594.24591675,0.03137152
2596.17472412,0.03129543
2598.10353149,0.03128228
2600.03233887,0.03122746
2601.96114624,0.03116568
2603.88995361,0.03111330
2605.81876099,0.03103437
2607.74756836,0.03101367
2609.67637573,0.03083989
2611.60518311,0.03094322
2613.53399048,0.03094392
2615.46279785,0.03069211
2617.39160522,0.03086051
2619.32041260,0.03081813
2621.24921997,0.03060862
2623.17802734,0.03066062
2625.10683472,0.03067981
2627.03564209,0.03063491
2628.96444946,0.03049081
2630.89325684,0.03050776
2632.82206421,0.03059373
2634.75087158,0.03042986
2636.67967895,0.03043635
2638.60848633,0.03042428
2640.53729370,0.03022476
2642.46610107,0.03021215
2644.39490845,0.03017042
2646.32371582,0.03011102
2648.25252319,0.03007517
2650.18133057,0.02999547
2652.11013794,0.02995467
2654.03894531,0.02993048
2655.96775269,0.02991736
2657.89656006,0.02983197
2659.82536743,0.02983760
2661.75417480,0.02977123
2663.68298218,0.02963205
2665.61178955,0.02965508
2667.54059692,0.02961364
2669.46940430,0.02953667
2671.39821167,0.02940652
2673.32701904,0.02933914
2675.25582642,0.02935084
2677.18463379,0.02933639
2679.11344116,0.02933795
2681.04224854,0.02928026
2682.97105591,0.02927907
2684.89986328,0.02921173
2686.82867065,0.02913699
2688.75747803,0.02906119
2690.68628540,0.02900213
2692.61509277,0.02904040
2694.54390015,0.02888015
2696.47270752,0.02886345
2698.40151489,0.02890340
2700.33032227,0.02879419
2702.25912964,0.02875098
2704.18793701,0.02858038
2706.11674438,0.02854535
2708.04555176,0.02859629
2709.97435913,0.02852959
2711.90316650,0.02848994
2713.83197388,0.02842765
2715.76078125,0.02847414
2717.68958862,0.02841944
2719.61839600,0.02826221
2721.54720337,0.02817634
2723.47601074,0.02805410
2725.40481812,0.02811592
2727.33362549,0.02808683
2729.26243286,0.02802940
2731.19124023,0.02806237
2733.12004761,0.02785299
2735.04885498,0.02790040
2736.97766235,0.02788582
2738.90646973,0.02767683
2740.83527710,0.02772185
2742.76408447,0.02766724
2744.69289185,0.02763529
2746.62169922,0.02746585
2748.55050659,0.02736111
2750.47931396,0.02748633
2752.40812134,0.02729338
2754.33692871,0.02718189
2756.26573608,0.02718622
2758.19454346,0.02714586
2760.12335083,0.02709917
2762.05215820,0.02697361
2763.98096558,0.02697617
2765.90977295,0.02691164
2767.83858032,0.02683131
2769.76738770,0.02684753
2771.69619507,0.02673998
2773.62500244,0.02668830
2775.55380981,0.02668924
2777.48261719,0.02654005
2779.41142456,0.02653029
2781.34023193,0.02651469
2783.26903931,0.02626849
2785.19784668,0.02631081
2787.12665405,0.02637665
2789.05546143,0.02616470
2790.98426880,0.02610475
2792.91307617,0.02603966
2794.84188354,0.02589312
2796.77069092,0.02591651
2798.69949829,0.02587926
2800.62830566,0.02575062
2802.55711304,0.02574528
2804.48592041,0.02563910
2806.41472778,0.02556173
2808.34353516,0.02555666
2810.27234253,0.02542008
2812.20114990,0.02539762
2814.12995728,0.02531192
2816.05876465,0.02518656
2817.98757202,0.02518541
2819.91637939,0.02510471
2821.84518677,0.02501332
2823.77399414,0.02489978
2825.70280151,0.02483434
2827.63160889,0.02483859
2829.56041626,0.02475226
2831.48922363,0.02458522
2833.41803101,0.02449633
2835.34683838,0.02446567
2837.27564575,0.02432168
2839.20445312,0.02420215
2841.13326050,0.02406561
2843.06206787,0.02391519
2844.99087524,0.02380272
2846.91968262,0.02367019
2848.84848999,0.02363136
2850.77729736,0.02348655
2852.70610474,0.02345660
2854.63491211,0.02361830
2856.56371948,0.02349875
2858.49252686,0.02337999
2860.42133423,0.02343655
2862.35014160,0.02346383
2864.27894897,0.02340227
2866.20775635,0.02322543
2868.13656372,0.02308322
2870.06537109,0.02306500
2871.99417847,0.02300393
2873.92298584,0.02283261
2875.85179321,0.02286190
2877.78060059,0.02291271
2879.70940796,0.02279670
2881.63821533,0.02275295
2883.56702270,0.02260839
2885.49583008,0.02251773
2887.42463745,0.02246781
2889.35344482,0.02235249
2891.28225220,0.02229813
2893.21105957,0.02206754
2895.13986694,0.02198352
2897.06867432,0.02197419
2898.99748169,0.02181245
2900.92628906,0.02181139
2902.85509644,0.02179993
2904.78390381,0.02164820
2906.71271118,0.02142367
2908.64151855,0.02139587
2910.57032593,0.02139833
2912.49913330,0.02115117
2914.42794067,0.02094697
2916.35674805,0.02088440
2918.28555542,0.02097335
2920.21436279,0.02090703
2922.14317017,0.02082103
2924.07197754,0.02098012
2926.00078491,0.02096128
2927.92959229,0.02084928
2929.85839966,0.02083660
2931.78720703,0.02082849
2933.71601440,0.02079118
2935.64482178,0.02072007
2937.57362915,0.02063561
2939.50243652,0.02068664
2941.43124390,0.02069223
2943.36005127,0.02051053
2945.28885864,0.02051231
2947.21766602,0.02040724
2949.14647339,0.02026215
2951.07528076,0.02030211
2953.00408813,0.02018129
2954.93289551,0.02007310
2956.86170288,0.01990161
2958.79051025,0.01974090
2960.71931763,0.01974275
2962.64812500,0.01969081
2964.57693237,0.01963992
2966.50573975,0.01956188
2968.43454712,0.01953100
2970.36335449,0.01957078
2972.29216187,0.01945757
2974.22096924,0.01935492
2976.14977661,0.01943189
2978.07858398,0.01932221
2980.00739136,0.01925676
2981.93619873,0.01924566
2983.86500610,0.01896809
2985.79381348,0.01901358
2987.72262085,0.01897188
2989.65142822,0.01880369
2991.58023560,0.01884158
2993.50904297,0.01862530
2995.43785034,0.01860008
2997.36665771,0.01849705
2999.29546509,0.01830873
3001.22427246,0.01835355
3003.15307983,0.01820960
3005.08188721,0.01812955
3007.01069458,0.01807987
3008.93950195,0.01796010
3010.86830933,0.01773738
3012.79711670,0.01770139
3014.72592407,0.01776859
3016.65473145,0.01751503
3018.58353882,0.01749105
3020.51234619,0.01739442
3022.44115356,0.01725783
3024.36996094,0.01727297
3026.29876831,0.01711258
3028.22757568,0.01706952
3030.15638306,0.01693977
3032.08519043,0.01686062
3034.01399780,0.01678734
3035.94280518,0.01661745
3037.87161255,0.01656719
3039.80041992,0.01649069
3041.72922729,0.01644725
3043.65803467,0.01625350
3045.58684204,0.01621620
3047.51564941,0.01616919
3049.44445679,0.01596045
3051.37326416,0.01600534
3053.30207153,0.01586166
3055.23087891,0.01573977
3057.15968628,0.01568748
3059.08849365,0.01557854
3061.01730103,0.01552460
3062.94610840,0.01534398
3064.87491577,0.01526822
3066.80372314,0.01522324
3068.73253052,0.01519217
3070.66133789,0.01508087
3072.59014526,0.01496550
3074.51895264,0.01499714
3076.44776001,0.01484416
3078.37656738,0.01469490
3080.30537476,0.01463697
3082.23418213,0.01459336
3084.16298950,0.01449927
3086.09179687,0.01437499
3088.02060425,0.01435985
3089.94941162,0.01435763
3091.87821899,0.01431116
3093.80702637,0.01415476
3095.73583374,0.01409914
3097.66464111,0.01407825
3099.59344849,0.01386764
3101.52225586,0.01373853
3103.45106323,0.01368124
3105.37987061,0.01356432
3107.30867798,0.01358765
3109.23748535,0.01354618
3111.16629272,0.01339158
3113.09510010,0.01343459
3115.02390747,0.01324335
3116.95271484,0.01307379
3118.88152222,0.01311741
3120.81032959,0.01300748
3122.73913696,0.01303219
3124.66794434,0.01291574
3126.59675171,0.01279012
3128.52555908,0.01282110
3130.45436645,0.01283104
3132.38317383,0.01274323
3134.31198120,0.01248682
3136.24078857,0.01256236
3138.16959595,0.01253557
3140.09840332,0.01237537
3142.02721069,0.01235087
3143.95601807,0.01214908
3145.88482544,0.01219763
3147.81363281,0.01225363
3149.74244019,0.01202789
3151.67124756,0.01197346
3153.60005493,0.01200681
3155.52886230,0.01185155
3157.45766968,0.01184101
3159.38647705,0.01185882
3161.31528442,0.01175503
3163.24409180,0.01172747
3165.17289917,0.01157868
3167.10170654,0.01166922
3169.03051392,0.01162050
3170.95932129,0.01137905
3172.88812866,0.01149678
3174.81693604,0.01150273
3176.74574341,0.01142021
3178.67455078,0.01126664
3180.60335815,0.01124215
3182.53216553,0.01125032
3184.46097290,0.01115303
3186.38978027,0.01119630
3188.31858765,0.01112925
3190.24739502,0.01118270
3192.17620239,0.01111083
3194.10500977,0.01101334
3196.03381714,0.01107422
3197.96262451,0.01097814
3199.89143188,0.01098497
3201.82023926,0.01095022
3203.74904663,0.01093889
3205.67785400,0.01093665
3207.60666138,0.01092814
3209.53546875,0.01088488
3211.46427612,0.01076427
3213.39308350,0.01095548
3215.32189087,0.01095116
3217.25069824,0.01079531
3219.17950562,0.01083456
3221.10831299,0.01073258
3223.03712036,0.01077268
3224.96592773,0.01085045
3226.89473511,0.01073460
3228.82354248,0.01079250
3230.75234985,0.01084200
3232.68115723,0.01079609
3234.60996460,0.01077422
3236.53877197,0.01066329
3238.46757935,0.01072349
3240.39638672,0.01076789
3242.32519409,0.01068218
3244.25400146,0.01071023
3246.18280884,0.01070920
3248.11161621,0.01067661
3250.04042358,0.01066264
3251.96923096,0.01075277
3253.89803833,0.01077736
3255.82684570,0.01073479
3257.75565308,0.01076691
3259.68446045,0.01076623
3261.61326782,0.01077249
3263.54207520,0.01074630
3265.47088257,0.01077642
3267.39968994,0.01073764
3269.32849731,0.01076283
3271.25730469,0.01083087
3273.18611206,0.01074230
3275.11491943,0.01087269
3277.04372681,0.01083162
3278.97253418,0.01069586
3280.90134155,0.01081973
3282.83014893,0.01084833
3284.75895630,0.01085808
3286.68776367,0.01086830
3288.61657104,0.01085228
3290.54537842,0.01082031
3292.47418579,0.01078759
3294.40299316,0.01086584
3296.33180054,0.01098315
3298.26060791,0.01094716
3300.18941528,0.01083064
3302.11822266,0.01086912
3304.04703003,0.01085149
3305.97583740,0.01081625
3307.90464478,0.01091940
3309.83345215,0.01090713
3311.76225952,0.01085298
3313.69106689,0.01085980
3315.61987427,0.01089671
3317.54868164,0.01093446
3319.47748901,0.01090283
3321.40629639,0.01092649
3323.33510376,0.01087608
3325.26391113,0.01087574
3327.19271851,0.01095069
3329.12152588,0.01084108
3331.05033325,0.01091420
3332.97914062,0.01094673
3334.90794800,0.01093998
3336.83675537,0.01105717
3338.76556274,0.01096168
3340.69437012,0.01089299
3342.62317749,0.01092347
3344.55198486,0.01105404
3346.48079224,0.01099520
3348.40959961,0.01095128
3350.33840698,0.01104769
3352.26721436,0.01100173
3354.19602173,0.01114866
3356.12482910,0.01107695
3358.05363647,0.01106374
3359.98244385,0.01111580
3361.91125122,0.01098111
3363.84005859,0.01114561
3365.76886597,0.01116115
3367.69767334,0.01106333
3369.62648071,0.01110518
3371.55528809,0.01120864
3373.48409546,0.01114090
3375.41290283,0.01112004
3377.34171020,0.01117339
3379.27051758,0.01108631
3381.19932495,0.01125641
3383.12813232,0.01124288
3385.05693970,0.01118443
3386.98574707,0.01123816
3388.91455444,0.01125859
3390.84336182,0.01123130
3392.77216919,0.01119014
3394.70097656,0.01133016
3396.62978394,0.01121828
3398.55859131,0.01128990
3400.48739868,0.01132652
3402.41620605,0.01130107
3404.34501343,0.01146707
3406.27382080,0.01149966
3408.20262817,0.01157079
3410.13143555,0.01141773
3412.06024292,0.01150685
3413.98905029,0.01146988
3415.91785767,0.01144623
3417.84666504,0.01164627
3419.77547241,0.01149597
3421.70427979,0.01154181
3423.63308716,0.01149951
3425.56189453,0.01162653
3427.49070190,0.01163582
3429.41950928,0.01163147
3431.34831665,0.01173736
3433.27712402,0.01153173
3435.20593140,0.01178548
3437.13473877,0.01174800
3439.06354614,0.01168497
3440.99235352,0.01172852
3442.92116089,0.01168391
3444.84996826,0.01180959
3446.77877563,0.01161577
3448.70758301,0.01174553
3450.63639038,0.01181738
3452.56519775,0.01182197
3454.49400513,0.01193557
3456.42281250,0.01191499
3458.35161987,0.01196925
3460.28042725,0.01188210
3462.20923462,0.01194013
3464.13804199,0.01198160
3466.06684937,0.01192400
3467.99565674,0.01186643
3469.92446411,0.01190607
3471.85327148,0.01198476
3473.78207886,0.01200532
3475.71088623,0.01204105
3477.63969360,0.01209256
3479.56850098,0.01219574
3481.49730835,0.01195696
3483.42611572,0.01204842
3485.35492310,0.01223518
3487.28373047,0.01208267
3489.21253784,0.01219632
3491.14134521,0.01224214
3493.07015259,0.01224689
3494.99895996,0.01225933
3496.92776733,0.01229490
3498.85657471,0.01231017
3500.78538208,0.01230465
3502.71418945,0.01209279
3504.64299683,0.01219930
3506.57180420,0.01257223
3508.50061157,0.01225286
3510.42941895,0.01236596
3512.35822632,0.01244047
3514.28703369,0.01240046
3516.21584106,0.01255670
3518.14464844,0.01240694
3520.07345581,0.01269542
3522.00226318,0.01245154
3523.93107056,0.01225135
3525.85987793,0.01244925
3527.78868530,0.01234536
3529.71749268,0.01250599
3531.64630005,0.01262049
3533.57510742,0.01280211
3535.50391479,0.01268114
3537.43272217,0.01253683
3539.36152954,0.01280897
3541.29033691,0.01281021
3543.21914429,0.01264318
3545.14795166,0.01230437
3547.07675903,0.01222033
3549.00556641,0.01272372
3550.93437378,0.01279529
3552.86318115,0.01263666
3554.79198853,0.01290461
3556.72079590,0.01294474
3558.64960327,0.01299391
3560.57841064,0.01282534
3562.50721802,0.01276932
3564.43602539,0.01293711
3566.36483276,0.01181115
3568.29364014,0.01147324
3570.22244751,0.01269177
3572.15125488,0.01307341
3574.08006226,0.01297712
3576.00886963,0.01304603
3577.93767700,0.01299218
3579.86648437,0.01308203
3581.79529175,0.01303747
3583.72409912,0.01311951
3585.65290649,0.01282240
3587.58171387,0.01147116
3589.51052124,0.01196643
3591.43932861,0.01336193
3593.36813599,0.01297103
3595.29694336,0.01260825
3597.22575073,0.01288138
3599.15455811,0.01312317
3601.08336548,0.01295158
3603.01217285,0.01308060
3604.94098022,0.01345947
3606.86978760,0.01289502
3608.79859497,0.01185619
3610.72740234,0.01238783
3612.65620972,0.01269446
3614.58501709,0.01207890
3616.51382446,0.01341109
3618.44263184,0.01211056
3620.37143921,0.01165259
3622.30024658,0.01366336
3624.22905395,0.01304864
3626.15786133,0.01386842
3628.08666870,0.01140797
3630.01547607,0.01011238
3631.94428345,0.01340763
3633.87309082,0.01295335
3635.80189819,0.01325152
3637.73070557,0.01365858
3639.65951294,0.01347718
3641.58832031,0.01359263
3643.51712769,0.01345266
3645.44593506,0.01365483
3647.37474243,0.01195072
3649.30354980,0.01080568
3651.23235718,0.01096226
3653.16116455,0.01353291
3655.08997192,0.01339075
3657.01877930,0.01177571
3658.94758667,0.01394933
3660.87639404,0.01357448
3662.80520142,0.01387464
3664.73400879,0.01381667
3666.66281616,0.01367389
3668.59162354,0.01324029
3670.52043091,0.01030270
3672.44923828,0.01308701
3674.37804565,0.01233358
3676.30685303,0.00973051
3678.23566040,0.01299574
3680.16446777,0.01332671
3682.09327515,0.01331444
3684.02208252,0.01380618
3685.95088989,0.01354182
3687.87969727,0.01213029
3689.80850464,0.01084279
3691.73731201,0.01254956
3693.66611938,0.01319600
3695.59492676,0.01351454
3697.52373413,0.01349775
3699.45254150,0.01342724
3701.38134888,0.01297113
3703.31015625,0.01240994
3705.23896362,0.01384104
3707.16777100,0.01309692
3709.09657837,0.01274030
3711.02538574,0.01181360
3712.95419312,0.01087995
3714.88300049,0.01314119
3716.81180786,0.01297454
3718.74061523,0.01300223
3720.66942261,0.01273037
3722.59822998,0.01226382
3724.52703735,0.01272863
3726.45584473,0.01168461
3728.38465210,0.01279174
3730.31345947,0.01260726
3732.24226685,0.01147625
3734.17107422,0.01109771
3736.09988159,0.01037974
3738.02868896,0.01122536
3739.95749634,0.01232302
3741.88630371,0.01300082
3743.81511108,0.00972982
3745.74391846,0.00888349
3747.67272583,0.01215142
3749.60153320,0.01026125
3751.53034058,0.00927020
3753.45914795,0.01097734
3755.38795532,0.01188649
3757.31676270,0.01249385
3759.24557007,0.01141739
3761.17437744,0.01179249
3763.10318481,0.01272628
3765.03199219,0.01170669
3766.96079956,0.01204057
3768.88960693,0.01193142
3770.81841431,0.01111997
3772.74722168,0.01227571
3774.67602905,0.01242121
3776.60483643,0.01239167
3778.53364380,0.01193171
3780.46245117,0.01133246
3782.39125854,0.01233679
3784.32006592,0.01195627
3786.24887329,0.01182418
3788.17768066,0.01213427
3790.10648804,0.01196289
3792.03529541,0.01196942
3793.96410278,0.01224323
3795.89291016,0.01132252
3797.82171753,0.01104565
3799.75052490,0.01186212
3801.67933228,0.00907101
3803.60813965,0.01083853
3805.53694702,0.01205769
3807.46575439,0.00943418
3809.39456177,0.01178785
3811.32336914,0.01150314
3813.25217651,0.01199983
3815.18098389,0.01071982
3817.10979126,0.00906880
3819.03859863,0.01215172
3820.96740601,0.00936527
3822.89621338,0.00978160
3824.82502075,0.01193206
3826.75382812,0.01059348
3828.68263550,0.01151752
3830.61144287,0.01093858
3832.54025024,0.01052949
3834.46905762,0.01075421
3836.39786499,0.01022686
3838.32667236,0.00912600
3840.25547974,0.00984726
3842.18428711,0.01084009
3844.11309448,0.01019436
3846.04190186,0.01117720
3847.97070923,0.01108907
3849.89951660,0.01111903
3851.82832397,0.00987452
3853.75713135,0.00697732
3855.68593872,0.00851722
3857.61474609,0.01100925
3859.54355347,0.01071525
3861.47236084,0.01057562
3863.40116821,0.01032795
3865.32997559,0.00947737
3867.25878296,0.01082113
3869.18759033,0.00980410
3871.11639770,0.00878214
3873.04520508,0.01087415
3874.97401245,0.00984136
3876.90281982,0.01064473
3878.83162720,0.01100155
3880.76043457,0.00902724
3882.68924194,0.01069890
3884.61804932,0.00997478
3886.54685669,0.00890224
3888.47566406,0.01080233
3890.40447144,0.01018484
3892.33327881,0.00938351
3894.26208618,0.01039552
3896.19089355,0.01071287
3898.11970093,0.01015887
3900.04850830,0.00936920
3901.97731567,0.00926861
3903.90612305,0.00916312
3905.83493042,0.00931804
3907.76373779,0.01055235
3909.69254517,0.01051860
3911.62135254,0.01029150
3913.55015991,0.01053057
3915.47896728,0.01013510
3917.40777466,0.00981748
3919.33658203,0.00966494
3921.26538940,0.01012466
3923.19419678,0.01004296
3925.12300415,0.00976779
3927.05181152,0.01007357
3928.98061890,0.01014384
3930.90942627,0.00988944
3932.83823364,0.00951438
3934.76704102,0.00999386
3936.69584839,0.01011934
3938.62465576,0.00997934
3940.55346313,0.01016265
3942.48227051,0.00969503
3944.41107788,0.00975201
3946.33988525,0.00996722
3948.26869263,0.00959722
3950.19750000,0.00957540
3952.12630737,0.00976486
3954.05511475,0.00979258
3955.98392212,0.00984829
3957.91272949,0.00972495
3959.84153687,0.00970672
3961.77034424,0.00977475
3963.69915161,0.00968574
3965.62795898,0.00980788
3967.55676636,0.00971021
3969.48557373,0.00965440
3971.41438110,0.00967967
3973.34318848,0.00963613
3975.27199585,0.00962928
3977.20080322,0.00953233
3979.12961060,0.00962360
3981.05841797,0.00955243
3982.98722534,0.00955313
3984.91603271,0.00955742
3986.84484009,0.00953308
3988.77364746,0.00954077
3990.70245483,0.00939068
3992.63126221,0.00943599
3994.56006958,0.00930514
3996.48887695,0.00931717
3998.41768433,0.00941452
4000.34649170,0.00935068
4002.27529907,0.00938798
4004.20410645,0.00931007
4006.13291382,0.00921045
4008.06172119,0.00920591
4009.99052856,0.00923007
4011.91933594,0.00917632
4013.84814331,0.00923330
4015.77695068,0.00913876
4017.70575806,0.00906787
4019.63456543,0.00907615
4021.56337280,0.00908162
4023.49218018,0.00915409
4025.42098755,0.00898928
4027.34979492,0.00914284
4029.27860229,0.00900583
4031.20740967,0.00889002
4033.13621704,0.00902161
4035.06502441,0.00884778
4036.99383179,0.00893675
4038.92263916,0.00886097
4040.85144653,0.00896333
4042.78025391,0.00888612
4044.70906128,0.00879500
4046.63786865,0.00895410
4048.56667603,0.00876609
4050.49548340,0.00880954
4052.42429077,0.00869167
4054.35309814,0.00876047
4056.28190552,0.00883808
4058.21071289,0.00875005
4060.13952026,0.00874021
4062.06832764,0.00858192
4063.99713501,0.00872877
4065.92594238,0.00873487
4067.85474976,0.00868797
4069.78355713,0.00857051
4071.71236450,0.00855203
4073.64117187,0.00859194
4075.56997925,0.00848621
4077.49878662,0.00854876
4079.42759399,0.00848404
4081.35640137,0.00857040
4083.28520874,0.00843566
4085.21401611,0.00839678
4087.14282349,0.00841985
4089.07163086,0.00832717
4091.00043823,0.00844759
4092.92924561,0.00824645
4094.85805298,0.00835414
4096.78686035,0.00832827
4098.71566772,0.00825808
4100.64447510,0.00834241
4102.57328247,0.00812317
4104.50208984,0.00817877
4106.43089722,0.00814178
4108.35970459,0.00817479
4110.28851196,0.00818088
4112.21731934,0.00811401
4114.14612671,0.00816595
4116.07493408,0.00812114
4118.00374145,0.00811371
4119.93254883,0.00803118
4121.86135620,0.00803632
4123.79016357,0.00799957
4125.71897095,0.00797748
4127.64777832,0.00794245
4129.57658569,0.00793519
4131.50539307,0.00799204
4133.43420044,0.00793546
4135.36300781,0.00797555
4137.29181519,0.00787280
4139.22062256,0.00783939
4141.14942993,0.00786255
4143.07823730,0.00782377
4145.00704468,0.00775065
4146.93585205,0.00775214
4148.86465942,0.00787037
4150.79346680,0.00770436
4152.72227417,0.00775917
4154.65108154,0.00777008
4156.57988892,0.00763292
4158.50869629,0.00768278
4160.43750366,0.00760630
4162.36631103,0.00763328
4164.29511841,0.00763515
4166.22392578,0.00758430
4168.15273315,0.00762234
4170.08154053,0.00765546
4172.01034790,0.00754920
4173.93915527,0.00747589
4175.86796265,0.00756443
4177.79677002,0.00751852
4179.72557739,0.00747990
4181.65438477,0.00750042
4183.58319214,0.00746267
4185.51199951,0.00737673
4187.44080688,0.00744972
4189.36961426,0.00748868
4191.29842163,0.00736981
4193.22722900,0.00737425
4195.15603638,0.00737074
4197.08484375,0.00737247
4199.01365112,0.00731487
4200.94245850,0.00727179
4202.87126587,0.00718210
4204.80007324,0.00715964
4206.72888062,0.00729687
4208.65768799,0.00723179
4210.58649536,0.00719973
4212.51530273,0.00714414
4214.44411011,0.00721730
4216.37291748,0.00726489
4218.30172485,0.00707946
4220.23053223,0.00715645
4222.15933960,0.00717394
4224.08814697,0.00710776
4226.01695435,0.00708497
4227.94576172,0.00699249
4229.87456909,0.00698250
4231.80337646,0.00701826
4233.73218384,0.00700738
4235.66099121,0.00702019
4237.58979858,0.00702662
4239.51860596,0.00696076
4241.44741333,0.00699416
4243.37622070,0.00693063
4245.30502808,0.00688575
4247.23383545,0.00693943
4249.16264282,0.00686404
4251.09145020,0.00686857
4253.02025757,0.00687462
4254.94906494,0.00683994
4256.87787231,0.00678413
4258.80667969,0.00677601
4260.73548706,0.00679079
4262.66429443,0.00671869
4264.59310181,0.00673712
4266.52190918,0.00674282
4268.45071655,0.00668070
4270.37952393,0.00664698
4272.30833130,0.00668232
4274.23713867,0.00668023
4276.16594604,0.00659632
4278.09475342,0.00659977
4280.02356079,0.00664926
4281.95236816,0.00656181
4283.88117554,0.00648513
4285.80998291,0.00655770
4287.73879028,0.00648257
4289.66759766,0.00646779
4291.59640503,0.00650326
4293.52521240,0.00642331
4295.45401978,0.00652981
4297.38282715,0.00648238
4299.31163452,0.00640706
4301.24044189,0.00646709
4303.16924927,0.00635644
4305.09805664,0.00640682
4307.02686401,0.00642196
4308.95567139,0.00629839
4310.88447876,0.00639467
4312.81328613,0.00635697
4314.74209351,0.00630581
4316.67090088,0.00635756
4318.59970825,0.00627306
4320.52851562,0.00631718
4322.45732300,0.00629531
4324.38613037,0.00626571
4326.31493774,0.00627635
4328.24374512,0.00617672
4330.17255249,0.00623036
4332.10135986,0.00614036
4334.03016724,0.00609765
4335.95897461,0.00618690
4337.88778198,0.00607899
4339.81658936,0.00610075
4341.74539673,0.00615013
4343.67420410,0.00607346
4345.60301147,0.00603891
4347.53181885,0.00602928
4349.46062622,0.00600099
4351.38943359,0.00600197
4353.31824097,0.00602910
4355.24704834,0.00603268
4357.17585571,0.00597999
4359.10466309,0.00594446
4361.03347046,0.00597800
4362.96227783,0.00596226
4364.89108520,0.00597038
4366.81989258,0.00594039
4368.74869995,0.00589777
4370.67750732,0.00588950
4372.60631470,0.00584349
4374.53512207,0.00588601
4376.46392944,0.00588573
4378.39273682,0.00585062
4380.32154419,0.00579105
4382.25035156,0.00572446
4384.17915894,0.00574575
4386.10796631,0.00575648
4388.03677368,0.00573818
4389.96558105,0.00569615
4391.89438843,0.00571944
4393.82319580,0.00573771
4395.75200317,0.00574558
4397.68081055,0.00568504
4399.60961792,0.00556091
4401.53842529,0.00561753
4403.46723267,0.00569445
4405.39604004,0.00564730
4407.32484741,0.00558884
4409.25365478,0.00556649
4411.18246216,0.00553890
4413.11126953,0.00558947
4415.04007690,0.00552174
4416.96888428,0.00540508
4418.89769165,0.00547117
4420.82649902,0.00548245
4422.75530640,0.00552733
4424.68411377,0.00547050
4426.61292114,0.00544990
4428.54172852,0.00550848
4430.47053589,0.00546397
4432.39934326,0.00549564
4434.32815063,0.00540609
4436.25695801,0.00539382
4438.18576538,0.00535765
4440.11457275,0.00534776
4442.04338013,0.00544860
4443.97218750,0.00529441
4445.90099487,0.00526406
4447.82980225,0.00534762
4449.75860962,0.00535436
4451.68741699,0.00528709
4453.61622437,0.00529097
4455.54503174,0.00538167
4457.47383911,0.00531851
4459.40264648,0.00520839
4461.33145386,0.00517804
4463.26026123,0.00525380
4465.18906860,0.00519269
4467.11787598,0.00520207
4469.04668335,0.00526646
4470.97549072,0.00515989
4472.90429810,0.00512420
4474.83310547,0.00514884
4476.76191284,0.00522530
4478.69072021,0.00512163
4480.61952759,0.00509002
4482.54833496,0.00519165
4484.47714233,0.00507239
4486.40594971,0.00496922
4488.33475708,0.00497234
4490.26356445,0.00508188
4492.19237183,0.00506382
4494.12117920,0.00499273
4496.04998657,0.00502940
4497.97879395,0.00499590
4499.90760132,0.00498897
4501.83640869,0.00500436
4503.76521606,0.00492206
4505.69402344,0.00485714
4507.62283081,0.00492599
4509.55163818,0.00488492
4511.48044556,0.00485520
4513.40925293,0.00489443
4515.33806030,0.00485843
4517.26686768,0.00483503
4519.19567505,0.00479239
4521.12448242,0.00481203
4523.05328979,0.00476799
4524.98209717,0.00471668
4526.91090454,0.00470330
4528.83971191,0.00473138
4530.76851929,0.00476452
4532.69732666,0.00470419
4534.62613403,0.00474845
4536.55494141,0.00467707
4538.48374878,0.00464099
4540.41255615,0.00466512
4542.34136353,0.00465457
4544.27017090,0.00470229
4546.19897827,0.00464615
4548.12778564,0.00466061
4550.05659302,0.00463383
4551.98540039,0.00467067
4553.91420776,0.00462647
4555.84301514,0.00448100
4557.77182251,0.00455351
4559.70062988,0.00454057
4561.62943726,0.00456161
4563.55824463,0.00456757
4565.48705200,0.00455985
4567.41585937,0.00455435
4569.34466675,0.00449259
4571.27347412,0.00450083
4573.20228149,0.00442381
4575.13108887,0.00446132
4577.05989624,0.00450769
4578.98870361,0.00447148
4580.91751099,0.00443012
4582.84631836,0.00437701
4584.77512573,0.00441899
4586.70393311,0.00442027
4588.63274048,0.00442800
4590.56154785,0.00440723
4592.49035522,0.00436905
4594.41916260,0.00435251
4596.34796997,0.00434038
4598.27677734,0.00432876
4600.20558472,0.00425545
4602.13439209,0.00426499
4604.06319946,0.00427864
4605.99200684,0.00428175
4607.92081421,0.00427658
4609.84962158,0.00427802
4611.77842895,0.00433997
4613.70723633,0.00426438
4615.63604370,0.00425421
4617.56485107,0.00430326
4619.49365845,0.00418462
4621.42246582,0.00413981
4623.35127319,0.00414684
4625.28008057,0.00413496
4627.20888794,0.00419348
4629.13769531,0.00416589
4631.06650269,0.00407722
4632.99531006,0.00409044
4634.92411743,0.00412748
4636.85292480,0.00408949
4638.78173218,0.00413512
4640.71053955,0.00414543
4642.63934692,0.00399981
4644.56815430,0.00404358
4646.49696167,0.00406829
4648.42576904,0.00398325
4650.35457642,0.00400203
4652.28338379,0.00402794
4654.21219116,0.00401116
4656.14099853,0.00394383
4658.06980591,0.00399451
4659.99861328,0.00398523
4661.92742065,0.00396592
4663.85622803,0.00398241
4665.78503540,0.00390490
4667.71384277,0.00394684
4669.64265015,0.00390047
4671.57145752,0.00388520
4673.50026489,0.00387765
4675.42907227,0.00390510
4677.35787964,0.00398198
4679.28668701,0.00383583
4681.21549438,0.00388434
4683.14430176,0.00389419
4685.07310913,0.00382615
4687.00191650,0.00388214
4688.93072388,0.00383416
4690.85953125,0.00379983
4692.78833862,0.00380832
4694.71714600,0.00382787
4696.64595337,0.00374614
4698.57476074,0.00373313
4700.50356812,0.00374585
4702.43237549,0.00377213
4704.36118286,0.00382372
4706.28999023,0.00374604
4708.21879761,0.00380415
4710.14760498,0.00372743
4712.07641235,0.00363637
4714.00521973,0.00371623
4715.93402710,0.00373780
4717.86283447,0.00370690
4719.79164185,0.00360998
4721.72044922,0.00369031
4723.64925659,0.00367853
4725.57806396,0.00361332
4727.50687134,0.00366416
4729.43567871,0.00354671
4731.36448608,0.00351933
4733.29329346,0.00358850
4735.22210083,0.00358648
4737.15090820,0.00355198
4739.07971558,0.00354557
4741.00852295,0.00354908
4742.93733032,0.00353051
4744.86613770,0.00355152
4746.79494507,0.00351880
4748.72375244,0.00354140
4750.65255981,0.00356375
4752.58136719,0.00342293
4754.51017456,0.00345351
4756.43898193,0.00349948
4758.36778931,0.00340987
4760.29659668,0.00352974
4762.22540405,0.00350157
4764.15421143,0.00338555
4766.08301880,0.00348258
4768.01182617,0.00347913
4769.94063354,0.00346078
4771.86944092,0.00346703
4773.79824829,0.00343994
4775.72705566,0.00340412
4777.65586304,0.00342769
4779.58467041,0.00342090
4781.51347778,0.00334617
4783.44228516,0.00335316
4785.37109253,0.00329845
4787.29989990,0.00331419
4789.22870728,0.00328381
4791.15751465,0.00325344
4793.08632202,0.00328920
4795.01512939,0.00323185
4796.94393677,0.00330384
4798.87274414,0.00325456
4800.80155151,0.00328506
4802.73035889,0.00335998
4804.65916626,0.00325400
4806.58797363,0.00323787
4808.51678101,0.00316863
4810.44558838,0.00316916
4812.37439575,0.00317255
4814.30320312,0.00319846
4816.23201050,0.00321070
4818.16081787,0.00318038
4820.08962524,0.00324258
4822.01843262,0.00315901
4823.94723999,0.00320326
4825.87604736,0.00319823
4827.80485474,0.00313472
4829.73366211,0.00326426
4831.66246948,0.00314942
4833.59127686,0.00302660
4835.52008423,0.00307896
4837.44889160,0.00307425
4839.37769897,0.00312591
4841.30650635,0.00315504
4843.23531372,0.00302869
4845.16412109,0.00303840
4847.09292847,0.00306979
4849.02173584,0.00295011
4850.95054321,0.00297874
4852.87935059,0.00306646
4854.80815796,0.00306525
4856.73696533,0.00300437
4858.66577270,0.00302880
4860.59458008,0.00304933
4862.52338745,0.00293589
4864.45219482,0.00293584
4866.38100220,0.00295854
4868.30980957,0.00291735
4870.23861694,0.00292535
4872.16742432,0.00295294
4874.09623169,0.00291102
4876.02503906,0.00291103
4877.95384644,0.00297253
4879.88265381,0.00295781
4881.81146118,0.00292001
4883.74026855,0.00286793
4885.66907593,0.00290600
4887.59788330,0.00288284
4889.52669067,0.00284958
4891.45549805,0.00292977
4893.38430542,0.00280571
4895.31311279,0.00274656
4897.24192017,0.00283941
4899.17072754,0.00284534
4901.09953491,0.00280588
4903.02834228,0.00279568
4904.95714966,0.00282327
4906.88595703,0.00273675
4908.81476440,0.00271508
4910.74357178,0.00286075
4912.67237915,0.00287205
4914.60118652,0.00270544
4916.52999390,0.00268578
4918.45880127,0.00278576
4920.38760864,0.00274121
4922.31641602,0.00270717
4924.24522339,0.00270443
4926.17403076,0.00270422
4928.10283813,0.00274212
4930.03164551,0.00273806
4931.96045288,0.00270915
4933.88926025,0.00266455
4935.81806763,0.00269332
4937.74687500,0.00267195
4939.67568237,0.00261263
4941.60448975,0.00266998
4943.53329712,0.00263460
4945.46210449,0.00258053
4947.39091187,0.00255665
4949.31971924,0.00258828
4951.24852661,0.00268619
4953.17733398,0.00261325
4955.10614136,0.00259896
4957.03494873,0.00260956
4958.96375610,0.00258508
4960.89256348,0.00263693
4962.82137085,0.00252627
4964.75017822,0.00247389
4966.67898560,0.00249693
4968.60779297,0.00249345
4970.53660034,0.00255651
4972.46540771,0.00255339
4974.39421509,0.00252067
4976.32302246,0.00251178
4978.25182983,0.00253345
4980.18063721,0.00244926
4982.10944458,0.00242558
4984.03825195,0.00250871
4985.96705933,0.00247691
4987.89586670,0.00246896
4989.82467407,0.00239507
4991.75348145,0.00242109
4993.68228882,0.00248124
4995.61109619,0.00239787
4997.53990356,0.00241477
4999.46871094,0.00240458
5001.39751831,0.00241691
5003.32632568,0.00240556
5005.25513306,0.00238165
5007.18394043,0.00239678
5009.11274780,0.00234177
5011.04155518,0.00240514
5012.97036255,0.00238481
5014.89916992,0.00231002
5016.82797729,0.00235688
5018.75678467,0.00235965
5020.68559204,0.00233603
5022.61439941,0.00229875
5024.54320679,0.00233788
5026.47201416,0.00236614
5028.40082153,0.00232180
5030.32962891,0.00231135
5032.25843628,0.00229560
5034.18724365,0.00236586
5036.11605103,0.00237770
5038.04485840,0.00226828
5039.97366577,0.00228818
5041.90247314,0.00232586
5043.83128052,0.00229683
5045.76008789,0.00234331
5047.68889526,0.00238273
5049.61770264,0.00227556
5051.54651001,0.00224356
5053.47531738,0.00228045
5055.40412476,0.00222834
5057.33293213,0.00230137
5059.26173950,0.00226028
5061.19054687,0.00212758
5063.11935425,0.00220964
5065.04816162,0.00222005
5066.97696899,0.00215437
5068.90577637,0.00215090
5070.83458374,0.00220212
5072.76339111,0.00220395
5074.69219849,0.00216536
5076.62100586,0.00216568
5078.54981323,0.00211020
5080.47862061,0.00207797
5082.40742798,0.00208976
5084.33623535,0.00215258
5086.26504272,0.00217339
5088.19385010,0.00216552
5090.12265747,0.00214694
5092.05146484,0.00208483
5093.98027222,0.00212276
5095.90907959,0.00208582
5097.83788696,0.00210443
5099.76669434,0.00210339
5101.69550171,0.00200805
5103.62430908,0.00207902
5105.55311645,0.00206867
5107.48192383,0.00206038
5109.41073120,0.00205410
5111.33953857,0.00202369
5113.26834595,0.00207840
5115.19715332,0.00204383
5117.12596069,0.00202472
5119.05476807,0.00205417
5120.98357544,0.00203046
5122.91238281,0.00202609
5124.84119019,0.00207372
5126.76999756,0.00199523
5128.69880493,0.00197324
5130.62761230,0.00203192
5132.55641968,0.00198233
5134.48522705,0.00202257
5136.41403442,0.00198663
5138.34284180,0.00194823
5140.27164917,0.00196941
5142.20045654,0.00193892
5144.12926392,0.00196652
5146.05807129,0.00194242
5147.98687866,0.00193703
5149.91568603,0.00194503
5151.84449341,0.00195460
5153.77330078,0.00193948
5155.70210815,0.00188456
5157.63091553,0.00186910
5159.55972290,0.00181599
5161.48853027,0.00181854
5163.41733765,0.00187473
5165.34614502,0.00189241
5167.27495239,0.00186005
5169.20375977,0.00188302
5171.13256714,0.00189645
5173.06137451,0.00184466
5174.99018188,0.00185452
5176.91898926,0.00178239
5178.84779663,0.00177278
5180.77660400,0.00184995
5182.70541138,0.00181626
5184.63421875,0.00181402
5186.56302612,0.00179783
5188.49183350,0.00177765
5190.42064087,0.00186821
5192.34944824,0.00183077
5194.27825562,0.00175998
5196.20706299,0.00181702
5198.13587036,0.00176364
5200.06467773,0.00177485
5201.99348511,0.00179474
5203.92229248,0.00176473
5205.85109985,0.00177041
5207.77990723,0.00167376
5209.70871460,0.00171405
5211.63752197,0.00172954
5213.56632935,0.00174724
5215.49513672,0.00178577
5217.42394409,0.00171789
5219.35275146,0.00177591
5221.28155884,0.00174600
5223.21036621,0.00174729
5225.13917358,0.00173637
5227.06798096,0.00169383
5228.99678833,0.00176885
5230.92559570,0.00174765
5232.85440308,0.00172643
5234.78321045,0.00165887
5236.71201782,0.00168976
5238.64082520,0.00174820
5240.56963257,0.00169162
5242.49843994,0.00168111
5244.42724731,0.00163044
5246.35605469,0.00166463
5248.28486206,0.00168013
5250.21366943,0.00162139
5252.14247681,0.00164968
5254.07128418,0.00163241
5256.00009155,0.00155283
5257.92889893,0.00161737
5259.85770630,0.00169843
5261.78651367,0.00167400
5263.71532104,0.00165385
5265.64412842,0.00159257
5267.57293579,0.00168460
5269.50174316,0.00165327
5271.43055054,0.00152766
5273.35935791,0.00161781
5275.28816528,0.00155951
5277.21697266,0.00160657
5279.14578003,0.00164632
5281.07458740,0.00158847
5283.00339478,0.00161783
5284.93220215,0.00151419
5286.86100952,0.00157001
5288.78981689,0.00163176
5290.71862427,0.00154219
5292.64743164,0.00152781
5294.57623901,0.00158860
5296.50504639,0.00159104
5298.43385376,0.00151254
5300.36266113,0.00161410
5302.29146851,0.00161427
5304.22027588,0.00154291
5306.14908325,0.00159767
5308.07789062,0.00152909
5310.00669800,0.00155549
5311.93550537,0.00155660
5313.86431274,0.00146463
5315.79312012,0.00150201
5317.72192749,0.00148148
5319.65073486,0.00150281
5321.57954224,0.00157783
5323.50834961,0.00157286
5325.43715698,0.00149434
5327.36596436,0.00138639
5329.29477173,0.00144777
5331.22357910,0.00147474
5333.15238647,0.00140157
5335.08119385,0.00147587
5337.01000122,0.00146783
5338.93880859,0.00135494
5340.86761597,0.00144797
5342.79642334,0.00147638
5344.72523071,0.00132813
5346.65403809,0.00138248
5348.58284546,0.00142198
5350.51165283,0.00138336
5352.44046020,0.00136876
5354.36926758,0.00129870
5356.29807495,0.00137826
5358.22688232,0.00143067
5360.15568970,0.00142793
5362.08449707,0.00141692
5364.01330444,0.00138459
5365.94211182,0.00137320
5367.87091919,0.00132461
5369.79972656,0.00143295
5371.72853394,0.00138072
5373.65734131,0.00127306
5375.58614868,0.00138397
5377.51495605,0.00138912
5379.44376343,0.00135593
5381.37257080,0.00136379
5383.30137817,0.00142045
5385.23018555,0.00136728
5387.15899292,0.00132324
5389.08780029,0.00135004
5391.01660767,0.00132237
5392.94541504,0.00135110
5394.87422241,0.00125000
5396.80302978,0.00125464
5398.73183716,0.00131538
5400.66064453,0.00130305
5402.58945190,0.00137100
5404.51825928,0.00132216
5406.44706665,0.00131829
5408.37587402,0.00130976
5410.30468140,0.00126802
5412.23348877,0.00126869
5414.16229614,0.00120798
5416.09110352,0.00123269
5418.01991089,0.00133818
5419.94871826,0.00130630
5421.87752563,0.00121204
5423.80633301,0.00128944
5425.73514038,0.00130900
5427.66394775,0.00125090
5429.59275513,0.00120359
5431.52156250,0.00122365
5433.45036987,0.00129193
5435.37917725,0.00118748
5437.30798462,0.00124854
5439.23679199,0.00128055
5441.16559936,0.00118171
5443.09440674,0.00120987
5445.02321411,0.00118956
5446.95202148,0.00121386
5448.88082886,0.00115299
5450.80963623,0.00115980
5452.73844360,0.00125429
5454.66725098,0.00118795
5456.59605835,0.00115115
5458.52486572,0.00114443
5460.45367310,0.00120073
5462.38248047,0.00116280
5464.31128784,0.00111169
5466.24009521,0.00120786
5468.16890259,0.00117735
5470.09770996,0.00114813
5472.02651733,0.00117615
5473.95532471,0.00116490
5475.88413208,0.00119096
5477.81293945,0.00113434
5479.74174683,0.00108512
5481.67055420,0.00123090
5483.59936157,0.00124530
5485.52816895,0.00114211
5487.45697632,0.00114169
5489.38578369,0.00109752
5491.31459106,0.00111468
5493.24339844,0.00113735
5495.17220581,0.00113648
5497.10101318,0.00116615
5499.02982056,0.00113367
5500.95862793,0.00115520
5502.88743530,0.00113524
5504.81624268,0.00110567
5506.74505005,0.00115375
5508.67385742,0.00112066
5510.60266479,0.00109571
5512.53147217,0.00114436
5514.46027954,0.00113646
5516.38908691,0.00111208
5518.31789429,0.00110633
5520.24670166,0.00105063
5522.17550903,0.00106364
5524.10431641,0.00111814
5526.03312378,0.00111500
5527.96193115,0.00107772
5529.89073853,0.00106675
5531.81954590,0.00107550
5533.74835327,0.00105682
5535.67716064,0.00112972
5537.60596802,0.00109062
5539.53477539,0.00103744
5541.46358276,0.00116109
5543.39239014,0.00116007
5545.32119751,0.00105914
5547.25000488,0.00099485
5549.17881226,0.00109845
5551.10761963,0.00106322
5553.03642700,0.00097414
5554.96523437,0.00113915
5556.89404175,0.00104833
5558.82284912,0.00099422
5560.75165649,0.00106440
5562.68046387,0.00102870
5564.60927124,0.00106143
5566.53807861,0.00099028
5568.46688599,0.00099829
5570.39569336,0.00098903
5572.32450073,0.00094192
5574.25330811,0.00104075
5576.18211548,0.00104253
5578.11092285,0.00099189
5580.03973022,0.00100614
5581.96853760,0.00103047
5583.89734497,0.00098328
5585.82615234,0.00103118
5587.75495972,0.00105034
5589.68376709,0.00096765
5591.61257446,0.00100872
5593.54138184,0.00096796
5595.47018921,0.00096328
5597.39899658,0.00098387
5599.32780395,0.00097892
5601.25661133,0.00104492
5603.18541870,0.00097668
5605.11422607,0.00096709
5607.04303345,0.00100653
5608.97184082,0.00098059
5610.90064819,0.00098046
5612.82945557,0.00098775
5614.75826294,0.00094786
5616.68707031,0.00088175
5618.61587769,0.00095737
5620.54468506,0.00095853
5622.47349243,0.00092110
5624.40229980,0.00092543
5626.33110718,0.00084350
5628.25991455,0.00090551
5630.18872192,0.00090248
5632.11752930,0.00089240
5634.04633667,0.00096939
5635.97514404,0.00088165
5637.90395142,0.00090396
5639.83275879,0.00093554
5641.76156616,0.00093761
5643.69037353,0.00093923
5645.61918091,0.00084710
5647.54798828,0.00094164
5649.47679565,0.00093252
5651.40560303,0.00089052
5653.33441040,0.00096321
5655.26321777,0.00084280
5657.19202515,0.00085872
5659.12083252,0.00092128
5661.04963989,0.00085130
5662.97844727,0.00086441
5664.90725464,0.00086206
5666.83606201,0.00083260
5668.76486938,0.00088520
5670.69367676,0.00089634
5672.62248413,0.00082468
5674.55129150,0.00092982
5676.48009888,0.00092922
5678.40890625,0.00078155
5680.33771362,0.00086133
5682.26652100,0.00086820
5684.19532837,0.00081665
5686.12413574,0.00084753
5688.05294311,0.00082416
5689.98175049,0.00081865
5691.91055786,0.00086903
5693.83936523,0.00086535
5695.76817261,0.00081183
5697.69697998,0.00083536
5699.62578735,0.00083308
5701.55459473,0.00085000
5703.48340210,0.00087668
5705.41220947,0.00083234
5707.34101685,0.00080170
5709.26982422,0.00076225
5711.19863159,0.00081279
5713.12743896,0.00083535
5715.05624634,0.00080342
5716.98505371,0.00082329
5718.91386108,0.00077088
5720.84266846,0.00075988
5722.77147583,0.00082512
5724.70028320,0.00078640
5726.62909058,0.00071673
5728.55789795,0.00075038
5730.48670532,0.00074112
5732.41551270,0.00074341
5734.34432007,0.00076857
5736.27312744,0.00071980
5738.20193481,0.00074627
5740.13074219,0.00072380
5742.05954956,0.00070225
5743.98835693,0.00076420
5745.91716431,0.00074951
5747.84597168,0.00072829
5749.77477905,0.00075883
5751.70358643,0.00078758
5753.63239380,0.00071810
5755.56120117,0.00069168
5757.49000854,0.00082803
5759.41881592,0.00080427
5761.34762329,0.00069344
5763.27643066,0.00081271
5765.20523804,0.00075357
5767.13404541,0.00063716
5769.06285278,0.00077924
5770.99166016,0.00076011
5772.92046753,0.00076088
5774.84927490,0.00074463
5776.77808228,0.00065735
5778.70688965,0.00073548
5780.63569702,0.00073634
5782.56450439,0.00071543
5784.49331177,0.00068445
5786.42211914,0.00072499
5788.35092651,0.00074546
5790.27973389,0.00066787
5792.20854126,0.00069526
5794.13734863,0.00069070
5796.06615601,0.00070720
5797.99496338,0.00067283
5799.92377075,0.00067436
5801.85257812,0.00071590
5803.78138550,0.00069430
5805.71019287,0.00074669
5807.63900024,0.00067072
5809.56780762,0.00066289
5811.49661499,0.00074091
5813.42542236,0.00070508
5815.35422974,0.00066603
5817.28303711,0.00064047
5819.21184448,0.00065838
5821.14065186,0.00064231
5823.06945923,0.00063232
5824.99826660,0.00062780
5826.92707397,0.00064786
5828.85588135,0.00066413
5830.78468872,0.00061385
5832.71349609,0.00061718
5834.64230347,0.00057692
5836.57111084,0.00057263
5838.49991821,0.00065650
5840.42872559,0.00067680
5842.35753296,0.00067041
5844.28634033,0.00064597
5846.21514770,0.00060898
5848.14395508,0.00062556
5850.07276245,0.00064282
5852.00156982,0.00066263
5853.93037720,0.00069209
5855.85918457,0.00063859
5857.78799194,0.00067355
5859.71679932,0.00071884
5861.64560669,0.00062785
5863.57441406,0.00062496
5865.50322144,0.00069347
5867.43202881,0.00069091
5869.36083618,0.00061562
5871.28964355,0.00061909
5873.21845093,0.00064109
5875.14725830,0.00062277
5877.07606567,0.00064642
5879.00487305,0.00062669
5880.93368042,0.00060706
5882.86248779,0.00059938
5884.79129517,0.00063088
5886.72010254,0.00063516
5888.64890991,0.00058970
5890.57771728,0.00056924
5892.50652466,0.00052494
5894.43533203,0.00059873
5896.36413940,0.00065182
5898.29294678,0.00055766
5900.22175415,0.00055070
5902.15056152,0.00062559
5904.07936890,0.00058435
5906.00817627,0.00053458
5907.93698364,0.00061157
5909.86579102,0.00063013
5911.79459839,0.00063135
5913.72340576,0.00062326
5915.65221313,0.00058481
5917.58102051,0.00055359
5919.50982788,0.00050105
5921.43863525,0.00054373
5923.36744263,0.00054410
5925.29625000,0.00052993
5927.22505737,0.00058695
5929.15386475,0.00058876
5931.08267212,0.00057674
5933.01147949,0.00057564
5934.94028686,0.00061142
5936.86909424,0.00055411
5938.79790161,0.00050549
5940.72670898,0.00057959
5942.65551636,0.00051779
5944.58432373,0.00049823
5946.51313110,0.00054805
5948.44193848,0.00053616
5950.37074585,0.00055469
5952.29955322,0.00045270
5954.22836060,0.00046506
5956.15716797,0.00057081
5958.08597534,0.00053061
5960.01478271,0.00057111
5961.94359009,0.00054538
5963.87239746,0.00053515
5965.80120483,0.00053730
5967.73001221,0.00048997
5969.65881958,0.00059866
5971.58762695,0.00053037
5973.51643433,0.00045537
5975.44524170,0.00050512
5977.37404907,0.00050910
5979.30285645,0.00055722
5981.23166382,0.00051586
5983.16047119,0.00048426
5985.08927856,0.00048735
5987.01808594,0.00052440
5988.94689331,0.00052096
5990.87570068,0.00042949
5992.80450806,0.00048108
5994.73331543,0.00051807
5996.66212280,0.00047723
5998.59093018,0.00046765
6000.51973755,0.00046782
