399.26312622,0.00040568
401.19193359,0.00089686
403.12074097,0.00075633
405.04954834,0.00069008
406.97835571,0.00096368
408.90716309,0.00103631
410.83597046,0.00087018
412.76477783,0.00106838
414.69358521,0.00107620
416.62239258,0.00081197
418.55119995,0.00082832
420.48000732,0.00047178
422.40881470,0.00053714
424.33762207,0.00131166
426.26642944,0.00158287
428.19523682,0.00125850
430.12404419,0.00140723
432.05285156,0.00138935
433.98165894,0.00106250
435.91046631,0.00085496
437.83927368,0.00063120
439.76808105,0.00124929
441.69688843,0.00139567
443.62569580,0.00088538
445.55450317,0.00101270
447.48331055,0.00125977
449.41211792,0.00101489
451.34092529,0.00091768
453.26973267,0.00103086
455.19854004,0.00057498
457.12734741,0.00065735
459.05615479,0.00073718
460.98496216,0.00082351
462.91376953,0.00084227
464.84257690,0.00049294
466.77138428,0.00091333
468.70019165,0.00058085
470.62899902,0.00067332
472.55780640,0.00062401
474.48661377,-0.00014276
476.41542114,0.00039668
478.34422852,0.00071154
480.27303589,0.00080849
482.20184326,0.00043007
484.13065063,0.00027764
486.05945801,0.00053090
487.98826538,0.00018311
489.91707275,0.00022172
491.84588013,0.00018066
493.77468750,0.00039988
495.70349487,0.00046423
497.63230225,0.00019598
499.56110962,0.00032776
501.48991699,0.00042451
503.41872437,0.00050427
505.34753174,0.00034631
507.27633911,0.00011326
509.20514648,0.00004846
511.13395386,0.00029888
513.06276123,0.00083857
514.99156860,0.00061472
516.92037598,-0.00007379
518.84918335,0.00030473
520.77799072,0.00042390
522.70679810,-0.00008136
524.63560547,0.00017204
526.56441284,0.00015496
528.49322021,0.00021725
530.42202759,0.00053539
532.35083496,0.00017143
534.27964233,-0.00021484
536.20844971,0.00005639
538.13725708,-0.00000458
540.06606445,0.00002179
541.99487183,0.00045002
543.92367920,0.00032603
545.85248657,0.00020657
547.78129395,0.00005754
549.71010132,-0.00000298
551.63890869,0.00008378
553.56771606,0.00006023
555.49652344,0.00006891
557.42533081,0.00007849
559.35413818,0.00010582
561.28294556,-0.00003403
563.21175293,-0.00011675
565.14056030,0.00005460
567.06936768,0.00004842
568.99817505,0.00027220
570.92698242,0.00057884
572.85578979,0.00027142
574.78459717,0.00019439
576.71340454,0.00028564
578.64221191,0.00010140
580.57101929,0.00013883
582.49982666,0.00018551
584.42863403,0.00058058
586.35744141,0.00070668
588.28624878,0.00008881
590.21505615,0.00008635
592.14386353,0.00020141
594.07267090,0.00015052
596.00147827,0.00002431
597.93028564,-0.00027557
599.85909302,0.00005283
601.78790039,0.00024112
603.71670776,0.00000502
605.64551514,0.00018751
607.57432251,0.00036871
609.50312988,0.00006603
611.43193726,0.00022432
613.36074463,0.00048825
615.28955200,-0.00007611
617.21835938,-0.00008605
619.14716675,0.00000599
621.07597412,0.00007233
623.00478149,0.00022209
624.93358887,-0.00022058
626.86239624,-0.00016649
628.79120361,-0.00026164
630.72001099,0.00016139
632.64881836,0.00072586
634.57762573,0.00037012
636.50643311,0.00085736
638.43524048,0.00099248
640.36404785,0.00084159
642.29285522,0.00114020
644.22166260,0.00111332
646.15046997,0.00123433
648.07927734,0.00135624
650.00808472,0.00165165
651.93689209,0.00146690
653.86569946,0.00131312
655.79450684,0.00186181
657.72331421,0.00168890
659.65212158,0.00157405
661.58092896,0.00200459
663.50973633,0.00191088
665.43854370,0.00159205
667.36735107,0.00178677
669.29615845,0.00203514
671.22496582,0.00212909
673.15377319,0.00223056
675.08258057,0.00217117
677.01138794,0.00247270
678.94019531,0.00264724
680.86900269,0.00250805
682.79781006,0.00255182
684.72661743,0.00224568
686.65542480,0.00215820
688.58423218,0.00255451
690.51303955,0.00274450
692.44184692,0.00270325
694.37065430,0.00277933
696.29946167,0.00328229
698.22826904,0.00363491
700.15707642,0.00392762
702.08588379,0.00410425
704.01469116,0.00361384
705.94349854,0.00332085
707.87230591,0.00264040
709.80111328,0.00184417
711.72992065,0.00180733
713.65872803,0.00096824
715.58753540,0.00032818
717.51634277,0.00053036
719.44515015,0.00033888
721.37395752,0.00029917
723.30276489,0.00022960
725.23157227,0.00021624
727.16037964,0.00042126
729.08918701,0.00027054
731.01799438,0.00019373
732.94680176,0.00015302
734.87560913,0.00018185
736.80441650,0.00030460
738.73322388,0.00019600
740.66203125,0.00025661
742.59083862,0.00038872
744.51964600,0.00027977
746.44845337,0.00035267
748.37726074,0.00022948
750.30606812,0.00003490
752.23487549,0.00033498
754.16368286,0.00027946
756.09249023,0.00014471
758.02129761,0.00005324
759.95010498,0.00012036
761.87891235,0.00048562
763.80771973,0.00028180
765.73652710,0.00021185
767.66533447,0.00034785
769.59414185,0.00034137
771.52294922,0.00014535
773.45175659,0.00010921
775.38056396,0.00025255
777.30937134,0.00028215
779.23817871,0.00051205
781.16698608,0.00028360
783.09579346,0.00022451
785.02460083,0.00051251
786.95340820,0.00045630
788.88221558,0.00034014
790.81102295,0.00040543
792.73983032,0.00044168
794.66863770,0.00029289
796.59744507,0.00049120
798.52625244,0.00043061
800.45505981,0.00049632
802.38386719,0.00085232
804.31267456,0.00036577
806.24148193,0.00027700
808.17028931,0.00067761
810.09909668,0.00038832
812.02790405,0.00017028
813.95671143,0.00035540
815.88551880,0.00017413
817.81432617,0.00020138
819.74313354,0.00053777
821.67194092,0.00035357
823.60074829,0.00025505
825.52955566,0.00024765
827.45836304,0.00034966
829.38717041,0.00046545
831.31597778,0.00042085
833.24478516,0.00078386
835.17359253,0.00097857
837.10239990,0.00087589
839.03120728,0.00073910
840.96001465,0.00075798
842.88882202,0.00080141
844.81762939,0.00081051
846.74643677,0.00082822
848.67524414,0.00056559
850.60405151,0.00065541
852.53285889,0.00077304
854.46166626,0.00053373
856.39047363,0.00041967
858.31928101,0.00045154
860.24808838,0.00048920
862.17689575,0.00043976
864.10570313,0.00029095
866.03451050,0.00015888
867.96331787,0.00032276
869.89212524,0.00043665
871.82093262,0.00045735
873.74973999,0.00037573
875.67854736,0.00018295
877.60735474,0.00026318
879.53616211,0.00019096
881.46496948,0.00023359
883.39377686,0.00040370
885.32258423,0.00027764
887.25139160,0.00046016
889.18019897,0.00044711
891.10900635,0.00030792
893.03781372,0.00050086
894.96662109,0.00042890
896.89542847,0.00052207
898.82423584,0.00049066
900.75304321,0.00030683
902.68185059,0.00047465
904.61065796,0.00034126
906.53946533,0.00031117
908.46827271,0.00046031
910.39708008,0.00031216
912.32588745,0.00029843
914.25469482,0.00054778
916.18350220,0.00047659
918.11230957,0.00042654
920.04111694,0.00092728
921.96992432,0.00071977
923.89873169,0.00055533
925.82753906,0.00105835
927.75634644,0.00101190
929.68515381,0.00117115
931.61396118,0.00129797
933.54276855,0.00108306
935.47157593,0.00092773
937.40038330,0.00104459
939.32919067,0.00166332
941.25799805,0.00148630
943.18680542,0.00125930
945.11561279,0.00151894
947.04442017,0.00131023
948.97322754,0.00134976
950.90203491,0.00145653
952.83084229,0.00142935
954.75964966,0.00124056
956.68845703,0.00102212
958.61726440,0.00128297
960.54607178,0.00131537
962.47487915,0.00114898
964.40368652,0.00113636
966.33249390,0.00127628
968.26130127,0.00155329
970.19010864,0.00160072
972.11891602,0.00152796
974.04772339,0.00177691
975.97653076,0.00190797
977.90533813,0.00164703
979.83414551,0.00205482
981.76295288,0.00235354
983.69176025,0.00226789
985.62056763,0.00282088
987.54937500,0.00300873
989.47818237,0.00322189
991.40698975,0.00362379
993.33579712,0.00389766
995.26460449,0.00440566
997.19341187,0.00457291
999.12221924,0.00493341
1001.05102661,0.00533704
1002.97983398,0.00579058
1004.90864136,0.00634410
1006.83744873,0.00657041
1008.76625610,0.00698011
1010.69506348,0.00694187
1012.62387085,0.00720512
1014.55267822,0.00801125
1016.48148560,0.00821851
1018.41029297,0.00854480
1020.33910034,0.00890147
1022.26790771,0.00918328
1024.19671509,0.00974205
1026.12552246,0.01004458
1028.05432983,0.01027018
1029.98313721,0.01067789
1031.91194458,0.01093088
1033.84075195,0.01136016
1035.76955933,0.01158105
1037.69836670,0.01145491
1039.62717407,0.01168247
1041.55598145,0.01141750
1043.48478882,0.01136120
1045.41359619,0.01163748
1047.34240356,0.01122757
1049.27121094,0.01106338
1051.20001831,0.01073823
1053.12882568,0.01054468
1055.05763306,0.01058775
1056.98644043,0.01029581
1058.91524780,0.01008038
1060.84405518,0.00952208
1062.77286255,0.00936273
1064.70166992,0.00924978
1066.63047729,0.00873999
1068.55928467,0.00840697
1070.48809204,0.00778823
1072.41689941,0.00747721
1074.34570679,0.00727617
1076.27451416,0.00695738
1078.20332153,0.00678265
1080.13212891,0.00644419
1082.06093628,0.00611135
1083.98974365,0.00569621
1085.91855103,0.00555305
1087.84735840,0.00544189
1089.77616577,0.00503236
1091.70497314,0.00488726
1093.63378052,0.00472906
1095.56258789,0.00439677
1097.49139526,0.00429797
1099.42020264,0.00430726
1101.34901001,0.00420539
1103.27781738,0.00425020
1105.20662476,0.00415517
1107.13543213,0.00384530
1109.06423950,0.00386844
1110.99304687,0.00400290
1112.92185425,0.00382044
1114.85066162,0.00368058
1116.77946899,0.00398267
1118.70827637,0.00397242
1120.63708374,0.00379514
1122.56589111,0.00395969
1124.49469849,0.00387577
1126.42350586,0.00384474
1128.35231323,0.00394354
1130.28112061,0.00407663
1132.20992798,0.00436643
1134.13873535,0.00431958
1136.06754272,0.00421063
1137.99635010,0.00464086
1139.92515747,0.00509450
1141.85396484,0.00528154
1143.78277222,0.00562067
1145.71157959,0.00583938
1147.64038696,0.00615600
1149.56919434,0.00662800
1151.49800171,0.00686953
1153.42680908,0.00724822
1155.35561646,0.00753343
1157.28442383,0.00782872
1159.21323120,0.00815633
1161.14203857,0.00830256
1163.07084595,0.00866684
1164.99965332,0.00893752
1166.92846069,0.00923690
1168.85726807,0.00965997
1170.78607544,0.00994641
1172.71488281,0.01056748
1174.64369019,0.01104610
1176.57249756,0.01115615
1178.50130493,0.01164303
1180.43011230,0.01212074
1182.35891968,0.01256512
1184.28772705,0.01320495
1186.21653442,0.01361633
1188.14534180,0.01420556
1190.07414917,0.01498685
1192.00295654,0.01560082
1193.93176392,0.01634705
1195.86057129,0.01722365
1197.78937866,0.01786680
1199.71818604,0.01846566
1201.64699341,0.01929238
1203.57580078,0.02013175
1205.50460815,0.02105454
1207.43341553,0.02177498
1209.36222290,0.02243706
1211.29103027,0.02318860
1213.21983765,0.02368597
1215.14864502,0.02442212
1217.07745239,0.02494872
1219.00625977,0.02518172
1220.93506714,0.02558418
1222.86387451,0.02592116
1224.79268188,0.02620314
1226.72148926,0.02639108
1228.65029663,0.02654720
1230.57910400,0.02642459
1232.50791138,0.02656347
1234.43671875,0.02692589
1236.36552612,0.02674141
1238.29433350,0.02660114
1240.22314087,0.02675900
1242.15194824,0.02671482
1244.08075562,0.02614905
1246.00956299,0.02606254
1247.93837036,0.02609778
1249.86717773,0.02576200
1251.79598511,0.02593496
1253.72479248,0.02564673
1255.65359985,0.02518544
1257.58240723,0.02483769
1259.51121460,0.02419739
1261.44002197,0.02391267
1263.36882935,0.02383784
1265.29763672,0.02372559
1267.22644409,0.02330667
1269.15525146,0.02289343
1271.08405884,0.02257282
1273.01286621,0.02214191
1274.94167358,0.02179867
1276.87048096,0.02151423
1278.79928833,0.02097024
1280.72809570,0.02031286
1282.65690308,0.02017444
1284.58571045,0.01981995
1286.51451782,0.01953676
1288.44332520,0.01937253
1290.37213257,0.01885608
1292.30093994,0.01888278
1294.22974731,0.01881497
1296.15855469,0.01854815
1298.08736206,0.01847233
1300.01616943,0.01850169
1301.94497681,0.01857927
1303.87378418,0.01874952
1305.80259155,0.01917828
1307.73139893,0.01920970
1309.66020630,0.01934900
1311.58901367,0.01963696
1313.51782104,0.01991146
1315.44662842,0.02069057
1317.37543579,0.02120828
1319.30424316,0.02146509
1321.23305054,0.02220228
1323.16185791,0.02304837
1325.09066528,0.02360700
1327.01947266,0.02436086
1328.94828003,0.02490930
1330.87708740,0.02537101
1332.80589478,0.02612611
1334.73470215,0.02660526
1336.66350952,0.02679081
1338.59231689,0.02622060
1340.52112427,0.02666474
1342.44993164,0.02814258
1344.37873901,0.02803423
1346.30754639,0.02803860
1348.23635376,0.02822423
1350.16516113,0.02783019
1352.09396851,0.02778074
1354.02277588,0.02744064
1355.95158325,0.02733504
1357.88039062,0.02722479
1359.80919800,0.02671543
1361.73800537,0.02526553
1363.66681274,0.02466772
1365.59562012,0.02643682
1367.52442749,0.02589530
1369.45323486,0.02543871
1371.38204224,0.02604069
1373.31084961,0.02440609
1375.23965698,0.02471160
1377.16846436,0.02548978
1379.09727173,0.02516598
1381.02607910,0.02516947
1382.95488647,0.02524436
1384.88369385,0.02539805
1386.81250122,0.02403167
1388.74130859,0.02426700
1390.67011597,0.02650496
1392.59892334,0.02567551
1394.52773071,0.02361929
1396.45653809,0.02509375
1398.38534546,0.02503962
1400.31415283,0.02465265
1402.24296021,0.02733956
1404.17176758,0.02555943
1406.10057495,0.02551904
1408.02938232,0.02683537
1409.95818970,0.02561746
1411.88699707,0.02623866
1413.81580444,0.02520362
1415.74461182,0.02591331
1417.67341919,0.02284402
1419.60222656,0.02003791
1421.53103394,0.02412711
1423.45984131,0.02310689
1425.38864868,0.02252568
1427.31745605,0.02315430
1429.24626343,0.02095401
1431.17507080,0.02044250
1433.10387817,0.02109309
1435.03268555,0.01888546
1436.96149292,0.01561369
1438.89030029,0.01836348
1440.81910767,0.01883004
1442.74791504,0.01749760
1444.67672241,0.01854920
1446.60552979,0.01672667
1448.53433716,0.01716208
1450.46314453,0.01781114
1452.39195190,0.01802323
1454.32075928,0.01866946
1456.24956665,0.01477616
1458.17837402,0.01508995
1460.10718140,0.02141058
1462.03598877,0.02294438
1463.96479614,0.02221576
1465.89360352,0.02324397
1467.82241089,0.02668208
1469.75121826,0.02884556
1471.68002563,0.02484486
1473.60883301,0.02606031
1475.53764038,0.03012030
1477.46644775,0.03241801
1479.39525513,0.03629432
1481.32406250,0.03656365
1483.25286987,0.03903042
1485.18167725,0.04010773
1487.11048462,0.03879969
1489.03929199,0.03813255
1490.96809937,0.03815903
1492.89690674,0.04582496
1494.82571411,0.04428206
1496.75452148,0.03883992
1498.68332886,0.04462288
1500.61213623,0.04625691
1502.54094360,0.05006318
1504.46975098,0.04643108
1506.39855835,0.03175649
1508.32736572,0.04001788
1510.25617310,0.04834518
1512.18498047,0.04679421
1514.11378784,0.05121530
1516.04259521,0.04514325
1517.97140259,0.04728681
1519.90020996,0.04558461
1521.82901733,0.03807429
1523.75782471,0.04858212
1525.68663208,0.04740131
1527.61543945,0.04701512
1529.54424683,0.05339810
1531.47305420,0.05072513
1533.40186157,0.04564302
1535.33066895,0.04901719
1537.25947632,0.05314384
1539.18828369,0.03547408
1541.11709106,0.03731771
1543.04589844,0.04637292
1544.97470581,0.04386548
1546.90351318,0.05413282
1548.83232056,0.04979900
1550.76112793,0.05144095
1552.68993530,0.05131860
1554.61874268,0.04546785
1556.54755005,0.04944982
1558.47635742,0.03214789
1560.40516479,0.03537925
1562.33397217,0.05436995
1564.26277954,0.05049669
1566.19158691,0.05237393
1568.12039429,0.05182117
1570.04920166,0.04454775
1571.97800903,0.05310667
1573.90681641,0.05381151
1575.83562378,0.04071014
1577.76443115,0.04729289
1579.69323853,0.05438343
1581.62204590,0.05155722
1583.55085327,0.05304805
1585.47966064,0.05223743
1587.40846802,0.05276329
1589.33727539,0.05215582
1591.26608276,0.05211477
1593.19489014,0.05202921
1595.12369751,0.05128270
1597.05250488,0.05197877
1598.98131226,0.05142354
1600.91011963,0.05200978
1602.83892700,0.05086961
1604.76773437,0.05175266
1606.69654175,0.05102246
1608.62534912,0.05077880
1610.55415649,0.05064601
1612.48296387,0.05107280
1614.41177124,0.05182741
1616.34057861,0.04095432
1618.26938599,0.04515081
1620.19819336,0.05404294
1622.12700073,0.04695125
1624.05580811,0.04710515
1625.98461548,0.05020601
1627.91342285,0.04981532
1629.84223022,0.04986286
1631.77103760,0.05419938
1633.69984497,0.04911590
1635.62865234,0.03930637
1637.55745972,0.04721116
1639.48626709,0.05322714
1641.41507446,0.05204786
1643.34388184,0.05388414
1645.27268921,0.04771075
1647.20149658,0.04053004
1649.13030396,0.05326407
1651.05911133,0.05031942
1652.98791870,0.02945336
1654.91672607,0.04311813
1656.84553345,0.05646429
1658.77434082,0.05407154
1660.70314819,0.05568319
1662.63195557,0.04980467
1664.56076294,0.05330805
1666.48957031,0.05853876
1668.41837769,0.04960701
1670.34718506,0.04761507
1672.27599243,0.05599544
1674.20479980,0.05095817
1676.13360718,0.04858730
1678.06241455,0.05746066
1679.99122192,0.05514929
1681.92002930,0.05440668
1683.84883667,0.04235736
1685.77764404,0.04236208
1687.70645142,0.06126174
1689.63525879,0.05185281
1691.56406616,0.05846176
1693.49287354,0.05964008
1695.42168091,0.04091682
1697.35048828,0.05281445
1699.27929565,0.04517365
1701.20810303,0.03979186
1703.13691040,0.05778998
1705.06571777,0.05182201
1706.99452515,0.05260671
1708.92333252,0.05843294
1710.85213989,0.05564683
1712.78094727,0.05671639
1714.70975464,0.05172141
1716.63856201,0.04574750
1718.56736938,0.04484755
1720.49617676,0.05483431
1722.42498413,0.05773342
1724.35379150,0.05266182
1726.28259888,0.05833581
1728.21140625,0.05330020
1730.14021362,0.05349708
1732.06902100,0.05206845
1733.99782837,0.03735845
1735.92663574,0.04883356
1737.85544312,0.05485632
1739.78425049,0.04770504
1741.71305786,0.05278848
1743.64186523,0.05332264
1745.57067261,0.05359939
1747.49947998,0.05380413
1749.42828735,0.05088600
1751.35709473,0.04836708
1753.28590210,0.05481384
1755.21470947,0.05802279
1757.14351685,0.05172080
1759.07232422,0.05801147
1761.00113159,0.05364085
1762.92993896,0.05130857
1764.85874634,0.06047266
1766.78755371,0.05303208
1768.71636108,0.05367938
1770.64516846,0.05319101
1772.57397583,0.04679313
1774.50278320,0.05357455
1776.43159058,0.05709700
1778.36039795,0.05619136
1780.28920532,0.05514327
1782.21801270,0.05574019
1784.14682007,0.05575231
1786.07562744,0.05445854
1788.00443481,0.05781875
1789.93324219,0.05589685
1791.86204956,0.04944728
1793.79085693,0.05209851
1795.71966431,0.05670572
1797.64847168,0.05585267
1799.57727905,0.05473877
1801.50608643,0.05320257
1803.43489380,0.05570687
1805.36370117,0.05730035
1807.29250854,0.05600601
1809.22131592,0.05635688
1811.15012329,0.05425885
1813.07893066,0.05640928
1815.00773804,0.05686694
1816.93654541,0.05605478
1818.86535278,0.05674475
1820.79416016,0.05629926
1822.72296753,0.05743632
1824.65177490,0.05269399
1826.58058228,0.05484664
1828.50938965,0.05508120
1830.43819702,0.05081777
1832.36700439,0.05662778
1834.29581177,0.05620591
1836.22461914,0.05595626
1838.15342651,0.05582935
1840.08223389,0.05633740
1842.01104126,0.05628279
1843.93984863,0.04836535
1845.86865601,0.05249111
1847.79746338,0.05614151
1849.72627075,0.05461190
1851.65507812,0.05669879
1853.58388550,0.05524622
1855.51269287,0.05600704
1857.44150024,0.05572482
1859.37030762,0.05503741
1861.29911499,0.05551260
1863.22792236,0.05482993
1865.15672974,0.05555658
1867.08553711,0.05329832
1869.01434448,0.05041151
1870.94315186,0.05300511
1872.87195923,0.05552074
1874.80076660,0.05440555
1876.72957397,0.05494421
1878.65838135,0.05465455
1880.58718872,0.05422858
1882.51599609,0.05478021
1884.44480347,0.05374610
1886.37361084,0.05488368
1888.30241821,0.05320921
1890.23122559,0.05185321
1892.16003296,0.05441831
1894.08884033,0.05346118
1896.01764771,0.05300914
1897.94645508,0.05373219
1899.87526245,0.05359357
1901.80406982,0.05366310
1903.73287720,0.05321617
1905.66168457,0.05356335
1907.59049194,0.05287815
1909.51929932,0.05253908
1911.44810669,0.05285243
1913.37691406,0.05292276
1915.30572144,0.05342261
1917.23452881,0.05065287
1919.16333618,0.05093774
1921.09214355,0.05304661
1923.02095093,0.05095010
1924.94975830,0.05227198
1926.87856567,0.05286836
1928.80737305,0.05216847
1930.73618042,0.05295850
1932.66498779,0.05193752
1934.59379517,0.05248907
1936.52260254,0.05219264
1938.45140991,0.05228729
1940.38021729,0.05213571
1942.30902466,0.05014091
1944.23783203,0.05128962
1946.16663940,0.05192266
1948.09544678,0.05184526
1950.02425415,0.05216058
1951.95306152,0.05187834
1953.88186890,0.05206568
1955.81067627,0.05177382
1957.73948364,0.05175541
1959.66829102,0.05167514
1961.59709839,0.05156479
1963.52590576,0.05183742
1965.45471313,0.05140300
1967.38352051,0.05073706
1969.31232788,0.05125824
1971.24113525,0.05163327
1973.16994263,0.05120663
1975.09875000,0.05142619
1977.02755737,0.05131256
1978.95636475,0.05115073
1980.88517212,0.05098285
1982.81397949,0.05093354
1984.74278687,0.05105215
1986.67159424,0.05059948
1988.60040161,0.05076738
1990.52920898,0.05012996
1992.45801636,0.04950299
1994.38682373,0.05043776
1996.31563110,0.05051080
1998.24443848,0.05010985
2000.17324585,0.05023269
2002.10205322,0.05012503
2004.03086060,0.05007537
2005.95966797,0.04999132
2007.88847534,0.04980591
2009.81728271,0.04976736
2011.74609009,0.04956979
2013.67489746,0.04972859
2015.60370483,0.04917844
2017.53251221,0.04854651
2019.46131958,0.04914892
2021.39012695,0.04901624
2023.31893433,0.04889391
2025.24774170,0.04889559
2027.17654907,0.04862637
2029.10535645,0.04872428
2031.03416382,0.04853214
2032.96297119,0.04845845
2034.89177856,0.04821932
2036.82058594,0.04808761
2038.74939331,0.04811457
2040.67820068,0.04781898
2042.60700806,0.04771414
2044.53581543,0.04764795
2046.46462280,0.04759251
2048.39343018,0.04753252
2050.32223755,0.04743204
2052.25104492,0.04736491
2054.17985229,0.04731707
2056.10865967,0.04715977
2058.03746704,0.04700456
2059.96627441,0.04689936
2061.89508179,0.04679901
2063.82388916,0.04655968
2065.75269653,0.04636072
2067.68150391,0.04663488
2069.61031128,0.04654936
2071.53911865,0.04640191
2073.46792603,0.04632384
2075.39673340,0.04609550
2077.32554077,0.04612707
2079.25434814,0.04601144
2081.18315552,0.04598746
2083.11196289,0.04578076
2085.04077026,0.04571255
2086.96957764,0.04585015
2088.89838501,0.04561304
2090.82719238,0.04546437
2092.75599976,0.04543328
2094.68480713,0.04536629
2096.61361450,0.04523009
2098.54242187,0.04529344
2100.47122925,0.04511048
2102.40003662,0.04506703
2104.32884399,0.04511096
2106.25765137,0.04479458
2108.18645874,0.04491623
2110.11526611,0.04482463
2112.04407349,0.04472212
2113.97288086,0.04451749
2115.90168823,0.04431329
2117.83049561,0.04446932
2119.75930298,0.04438154
2121.68811035,0.04444071
2123.61691772,0.04431580
2125.54572510,0.04432309
2127.47453247,0.04419839
2129.40333984,0.04398098
2131.33214722,0.04410093
2133.26095459,0.04391610
2135.18976196,0.04390266
2137.11856934,0.04382375
2139.04737671,0.04377047
2140.97618408,0.04378117
2142.90499146,0.04374849
2144.83379883,0.04373201
2146.76260620,0.04358720
2148.69141357,0.04366539
2150.62022095,0.04354410
2152.54902832,0.04340789
2154.47783569,0.04337655
2156.40664307,0.04339623
2158.33545044,0.04336862
2160.26425781,0.04329098
2162.19306519,0.04326888
2164.12187256,0.04310981
2166.05067993,0.04319021
2167.97948730,0.04307418
2169.90829468,0.04303798
2171.83710205,0.04301900
2173.76590942,0.04290246
2175.69471680,0.04301560
2177.62352417,0.04279274
2179.55233154,0.04279852
2181.48113892,0.04269893
2183.40994629,0.04260544
2185.33875366,0.04277309
2187.26756104,0.04260123
2189.19636841,0.04250031
2191.12517578,0.04240325
2193.05398315,0.04243501
2194.98279053,0.04239034
2196.91159790,0.04230847
2198.84040527,0.04237880
2200.76921265,0.04225903
2202.69802002,0.04222813
2204.62682739,0.04215079
2206.55563477,0.04213953
2208.48444214,0.04223860
2210.41324951,0.04203724
2212.34205688,0.04188842
2214.27086426,0.04186762
2216.19967163,0.04169250
2218.12847900,0.04175127
2220.05728638,0.04191371
2221.98609375,0.04179429
2223.91490112,0.04157146
2225.84370850,0.04151691
2227.77251587,0.04165993
2229.70132324,0.04151430
2231.63013062,0.04141834
2233.55893799,0.04141476
2235.48774536,0.04127193
2237.41655273,0.04132728
2239.34536011,0.04124232
2241.27416748,0.04112348
2243.20297485,0.04109542
2245.13178223,0.04104280
2247.06058960,0.04093901
2248.98939697,0.04083505
2250.91820435,0.04086024
2252.84701172,0.04087160
2254.77581909,0.04078958
2256.70462646,0.04074914
2258.63343384,0.04085028
2260.56224121,0.04063004
2262.49104858,0.04049513
2264.41985596,0.04051194
2266.34866333,0.04044424
2268.27747070,0.04051208
2270.20627808,0.04032665
2272.13508545,0.04032976
2274.06389282,0.04025501
2275.99270020,0.04019359
2277.92150757,0.04025290
2279.85031494,0.03999679
2281.77912231,0.04001657
2283.70792969,0.03998113
2285.63673706,0.04002236
2287.56554443,0.03995430
2289.49435181,0.03974605
2291.42315918,0.03979570
2293.35196655,0.03966536
2295.28077393,0.03958403
2297.20958130,0.03939090
2299.13838867,0.03927103
2301.06719604,0.03914860
2302.99600342,0.03887376
2304.92481079,0.03877129
2306.85361816,0.03853743
2308.78242554,0.03826898
2310.71123291,0.03799670
2312.64004028,0.03776690
2314.56884766,0.03748268
2316.49765503,0.03700306
2318.42646240,0.03654104
2320.35526978,0.03619561
2322.28407715,0.03573965
2324.21288452,0.03522851
2326.14169189,0.03497408
2328.07049927,0.03462774
2329.99930664,0.03419606
2331.92811401,0.03389988
2333.85692139,0.03378665
2335.78572876,0.03357518
2337.71453613,0.03348367
2339.64334351,0.03361724
2341.57215088,0.03368412
2343.50095825,0.03418494
2345.42976562,0.03467266
2347.35857300,0.03583482
2349.28738037,0.03694947
2351.21618774,0.03600071
2353.14499512,0.03447269
2355.07380249,0.03311185
2357.00260986,0.03216896
2358.93141724,0.03168936
2360.86022461,0.03119371
2362.78903198,0.03115460
2364.71783936,0.03138729
2366.64664673,0.03179584
2368.57545410,0.03218015
2370.50426147,0.03282485
2372.43306885,0.03389903
2374.36187622,0.03465670
2376.29068359,0.03533724
2378.21949097,0.03613101
2380.14829834,0.03667859
2382.07710571,0.03710974
2384.00591309,0.03729724
2385.93472046,0.03727619
2387.86352783,0.03750367
2389.79233521,0.03749014
2391.72114258,0.03728244
2393.64994995,0.03728744
2395.57875732,0.03731513
2397.50756470,0.03731102
2399.43637207,0.03715715
2401.36517944,0.03711370
2403.29398682,0.03706250
2405.22279419,0.03694966
2407.15160156,0.03687224
2409.08040894,0.03680518
2411.00921631,0.03691261
2412.93802368,0.03680706
2414.86683105,0.03665298
2416.79563843,0.03671764
2418.72444580,0.03667510
2420.65325317,0.03652383
2422.58206055,0.03654232
2424.51086792,0.03649174
2426.43967529,0.03631935
2428.36848267,0.03636239
2430.29729004,0.03638794
2432.22609741,0.03638242
2434.15490479,0.03629415
2436.08371216,0.03628464
2438.01251953,0.03627596
2439.94132690,0.03611046
2441.87013428,0.03614295
2443.79894165,0.03602631
2445.72774902,0.03589673
2447.65655640,0.03590041
2449.58536377,0.03589342
2451.51417114,0.03587223
2453.44297852,0.03573991
2455.37178589,0.03572039
2457.30059326,0.03575761
2459.22940063,0.03563806
2461.15820801,0.03543950
2463.08701538,0.03548770
2465.01582275,0.03554819
2466.94463013,0.03550069
2468.87343750,0.03541980
2470.80224487,0.03534845
2472.73105225,0.03529471
2474.65985962,0.03518555
2476.58866699,0.03533717
2478.51747437,0.03516805
2480.44628174,0.03510805
2482.37508911,0.03516636
2484.30389648,0.03489660
2486.23270386,0.03504953
2488.16151123,0.03488962
2490.09031860,0.03478524
2492.01912598,0.03480472
2493.94793335,0.03465962
2495.87674072,0.03482433
2497.80554810,0.03477553
2499.73435547,0.03477972
2501.66316284,0.03470013
2503.59197021,0.03463439
2505.52077759,0.03459419
2507.44958496,0.03446193
2509.37839233,0.03438267
2511.30719971,0.03424526
2513.23600708,0.03438487
2515.16481445,0.03422849
2517.09362183,0.03411709
2519.02242920,0.03420883
2520.95123657,0.03415073
2522.88004395,0.03407856
2524.80885132,0.03397601
2526.73765869,0.03410849
2528.66646606,0.03386039
2530.59527344,0.03374962
2532.52408081,0.03383916
2534.45288818,0.03374039
2536.38169556,0.03385309
2538.31050293,0.03363013
2540.23931030,0.03358124
2542.16811768,0.03372380
2544.09692505,0.03359323
2546.02573242,0.03349309
2547.95453979,0.03352997
2549.88334717,0.03349479
2551.81215454,0.03333179
2553.74096191,0.03341735
2555.66976929,0.03332577
2557.59857666,0.03319578
2559.52738403,0.03324242
2561.45619141,0.03313987
2563.38499878,0.03307878
2565.31380615,0.03307386
2567.24261353,0.03301885
2569.17142090,0.03287936
2571.10022827,0.03296909
2573.02903564,0.03302271
2574.95784302,0.03288535
2576.88665039,0.03282901
2578.81545776,0.03264561
2580.74426514,0.03264140
2582.67307251,0.03269243
2584.60187988,0.03254281
2586.53068726,0.03254192
2588.45949463,0.03253905
2590.38830200,0.03242233
2592.31710937,0.03231685
2594.24591675,0.03226751
2596.17472412,0.03232186
2598.10353149,0.03223415
2600.03233887,0.03215873
2601.96114624,0.03214179
2603.88995361,0.03202529
2605.81876099,0.03213060
2607.74756836,0.03203847
2609.67637573,0.03193715
2611.60518311,0.03199588
2613.53399048,0.03184425
2615.46279785,0.03191208
2617.39160522,0.03189024
2619.32041260,0.03180225
2621.24921997,0.03174559
2623.17802734,0.03166928
2625.10683472,0.03173310
2627.03564209,0.03166286
2628.96444946,0.03156720
2630.89325684,0.03142543
2632.82206421,0.03145414
2634.75087158,0.03136032
2636.67967895,0.03125404
2638.60848633,0.03136837
2640.53729370,0.03117355
2642.46610107,0.03114491
2644.39490845,0.03106846
2646.32371582,0.03108066
2648.25252319,0.03113707
2650.18133057,0.03093739
2652.11013794,0.03102952
2654.03894531,0.03094901
2655.96775269,0.03089951
2657.89656006,0.03080937
2659.82536743,0.03071757
2661.75417480,0.03081869
2663.68298218,0.03063868
2665.61178955,0.03062779
2667.54059692,0.03054157
2669.46940430,0.03053160
2671.39821167,0.03054882
2673.32701904,0.03032776
2675.25582642,0.03035029
2677.18463379,0.03022493
2679.11344116,0.03032003
2681.04224854,0.03044814
2682.97105591,0.03017692
2684.89986328,0.03012443
2686.82867065,0.03015414
2688.75747803,0.03014949
2690.68628540,0.03003549
2692.61509277,0.02995431
2694.54390015,0.02993460
2696.47270752,0.02975504
2698.40151489,0.02971924
2700.33032227,0.02969654
2702.25912964,0.02971634
2704.18793701,0.02972102
2706.11674438,0.02954266
2708.04555176,0.02955459
2709.97435913,0.02948712
2711.90316650,0.02941542
2713.83197388,0.02950130
2715.76078125,0.02935587
2717.68958862,0.02932030
2719.61839600,0.02933886
2721.54720337,0.02918284
2723.47601074,0.02910663
2725.40481812,0.02906860
2727.33362549,0.02909357
2729.26243286,0.02903289
2731.19124023,0.02885990
2733.12004761,0.02879211
2735.04885498,0.02877509
2736.97766235,0.02877734
2738.90646973,0.02868163
2740.83527710,0.02858257
2742.76408447,0.02862173
2744.69289185,0.02862107
2746.62169922,0.02855564
2748.55050659,0.02848933
2750.47931396,0.02845075
2752.40812134,0.02835586
2754.33692871,0.02828250
2756.26573608,0.02825043
2758.19454346,0.02811773
2760.12335083,0.02810578
2762.05215820,0.02806604
2763.98096558,0.02798393
2765.90977295,0.02797998
2767.83858032,0.02785502
2769.76738770,0.02784061
2771.69619507,0.02779526
2773.62500244,0.02773400
2775.55380981,0.02770935
2777.48261719,0.02756780
2779.41142456,0.02758723
2781.34023193,0.02748019
2783.26903931,0.02735879
2785.19784668,0.02732884
2787.12665405,0.02724759
2789.05546143,0.02730542
2790.98426880,0.02718013
2792.91307617,0.02706195
2794.84188354,0.02708209
2796.77069092,0.02711009
2798.69949829,0.02708524
2800.62830566,0.02688103
2802.55711304,0.02677814
2804.48592041,0.02670647
2806.41472778,0.02670920
2808.34353516,0.02668536
2810.27234253,0.02653768
2812.20114990,0.02651053
2814.12995728,0.02649615
2816.05876465,0.02648183
2817.98757202,0.02633588
2819.91637939,0.02624283
2821.84518677,0.02619534
2823.77399414,0.02603766
2825.70280151,0.02604774
2827.63160889,0.02601774
2829.56041626,0.02595953
2831.48922363,0.02581196
2833.41803101,0.02563442
2835.34683838,0.02567238
2837.27564575,0.02557850
2839.20445312,0.02544317
2841.13326050,0.02535073
2843.06206787,0.02520064
2844.99087524,0.02501495
2846.91968262,0.02483482
2848.84848999,0.02473940
2850.77729736,0.02462071
2852.70610474,0.02469134
2854.63491211,0.02480645
2856.56371948,0.02472466
2858.49252686,0.02473526
2860.42133423,0.02471642
2862.35014160,0.02464734
2864.27894897,0.02463818
2866.20775635,0.02462255
2868.13656372,0.02460460
2870.06537109,0.02448763
2871.99417847,0.02444631
2873.92298584,0.02444747
2875.85179321,0.02428864
2877.78060059,0.02422535
2879.70940796,0.02419234
2881.63821533,0.02408905
2883.56702270,0.02406459
2885.49583008,0.02396082
2887.42463745,0.02381160
2889.35344482,0.02372516
2891.28225220,0.02367462
2893.21105957,0.02368066
2895.13986694,0.02350639
2897.06867432,0.02335163
2898.99748169,0.02342100
2900.92628906,0.02325432
2902.85509644,0.02310915
2904.78390381,0.02313611
2906.71271118,0.02299002
2908.64151855,0.02294774
2910.57032593,0.02282995
2912.49913330,0.02258313
2914.42794067,0.02256685
2916.35674805,0.02252777
2918.28555542,0.02248260
2920.21436279,0.02245549
2922.14317017,0.02241770
2924.07197754,0.02254447
2926.00078491,0.02253596
2927.92959229,0.02244374
2929.85839966,0.02252417
2931.78720703,0.02252959
2933.71601440,0.02248252
2935.64482178,0.02248686
2937.57362915,0.02242183
2939.50243652,0.02241375
2941.43124390,0.02243092
2943.36005127,0.02228565
2945.28885864,0.02222980
2947.21766602,0.02225666
2949.14647339,0.02214493
2951.07528076,0.02208079
2953.00408813,0.02193038
2954.93289551,0.02169263
2956.86170288,0.02169104
2958.79051025,0.02168270
2960.71931763,0.02158869
2962.64812500,0.02155877
2964.57693237,0.02146799
2966.50573975,0.02140630
2968.43454712,0.02147565
2970.36335449,0.02141257
2972.29216187,0.02129760
2974.22096924,0.02138347
2976.14977661,0.02131642
2978.07858398,0.02122393
2980.00739136,0.02122460
2981.93619873,0.02108724
2983.86500610,0.02114970
2985.79381348,0.02105758
2987.72262085,0.02082046
2989.65142822,0.02084247
2991.58023560,0.02071982
2993.50904297,0.02059514
2995.43785034,0.02053648
2997.36665771,0.02053404
2999.29546509,0.02052946
3001.22427246,0.02034013
3003.15307983,0.02028403
3005.08188721,0.02022838
3007.01069458,0.02012699
3008.93950195,0.02004446
3010.86830933,0.01991301
3012.79711670,0.01978698
3014.72592407,0.01965956
3016.65473145,0.01967745
3018.58353882,0.01957451
3020.51234619,0.01938888
3022.44115356,0.01936218
3024.36996094,0.01925148
3026.29876831,0.01913442
3028.22757568,0.01909222
3030.15638306,0.01899497
3032.08519043,0.01886605
3034.01399780,0.01885410
3035.94280518,0.01874432
3037.87161255,0.01853551
3039.80041992,0.01854793
3041.72922729,0.01851337
3043.65803467,0.01841819
3045.58684204,0.01833737
3047.51564941,0.01817922
3049.44445679,0.01807655
3051.37326416,0.01799927
3053.30207153,0.01795851
3055.23087891,0.01784815
3057.15968628,0.01771578
3059.08849365,0.01770199
3061.01730103,0.01760207
3062.94610840,0.01747584
3064.87491577,0.01738876
3066.80372314,0.01728874
3068.73253052,0.01726091
3070.66133789,0.01715928
3072.59014526,0.01700037
3074.51895264,0.01697614
3076.44776001,0.01687444
3078.37656738,0.01669182
3080.30537476,0.01664116
3082.23418213,0.01658831
3084.16298950,0.01653462
3086.09179687,0.01652689
3088.02060425,0.01645411
3089.94941162,0.01635578
3091.87821899,0.01622964
3093.80702637,0.01607805
3095.73583374,0.01601236
3097.66464111,0.01598509
3099.59344849,0.01590322
3101.52225586,0.01572903
3103.45106323,0.01556555
3105.37987061,0.01557433
3107.30867798,0.01555057
3109.23748535,0.01546022
3111.16629272,0.01542766
3113.09510010,0.01530919
3115.02390747,0.01519605
3116.95271484,0.01506868
3118.88152222,0.01498970
3120.81032959,0.01506023
3122.73913696,0.01491939
3124.66794434,0.01475524
3126.59675171,0.01470312
3128.52555908,0.01460544
3130.45436645,0.01460868
3132.38317383,0.01446669
3134.31198120,0.01430566
3136.24078857,0.01427742
3138.16959595,0.01418799
3140.09840332,0.01416675
3142.02721069,0.01399390
3143.95601807,0.01389993
3145.88482544,0.01399594
3147.81363281,0.01379933
3149.74244019,0.01370185
3151.67124756,0.01376360
3153.60005493,0.01364796
3155.52886230,0.01357667
3157.45766968,0.01353066
3159.38647705,0.01339413
3161.31528442,0.01338015
3163.24409180,0.01341146
3165.17289917,0.01324062
3167.10170654,0.01315292
3169.03051392,0.01318948
3170.95932129,0.01309892
3172.88812866,0.01298794
3174.81693604,0.01292159
3176.74574341,0.01290179
3178.67455078,0.01291114
3180.60335815,0.01284412
3182.53216553,0.01275370
3184.46097290,0.01273854
3186.38978027,0.01267728
3188.31858765,0.01263270
3190.24739502,0.01261527
3192.17620239,0.01249797
3194.10500977,0.01248074
3196.03381714,0.01253467
3197.96262451,0.01247801
3199.89143188,0.01238931
3201.82023926,0.01244944
3203.74904663,0.01240787
3205.67785400,0.01224630
3207.60666138,0.01226878
3209.53546875,0.01221719
3211.46427612,0.01223409
3213.39308350,0.01220868
3215.32189087,0.01215250
3217.25069824,0.01225712
3219.17950562,0.01212510
3221.10831299,0.01218175
3223.03712036,0.01221051
3224.96592773,0.01210498
3226.89473511,0.01217121
3228.82354248,0.01203347
3230.75234985,0.01210128
3232.68115723,0.01209843
3234.60996460,0.01194591
3236.53877197,0.01201214
3238.46757935,0.01191984
3240.39638672,0.01200751
3242.32519409,0.01212221
3244.25400146,0.01201763
3246.18280884,0.01201468
3248.11161621,0.01199590
3250.04042358,0.01207133
3251.96923096,0.01211420
3253.89803833,0.01197431
3255.82684570,0.01201071
3257.75565308,0.01206910
3259.68446045,0.01199730
3261.61326782,0.01206441
3263.54207520,0.01209712
3265.47088257,0.01202070
3267.39968994,0.01201934
3269.32849731,0.01200989
3271.25730469,0.01207226
3273.18611206,0.01207360
3275.11491943,0.01200513
3277.04372681,0.01211409
3278.97253418,0.01207408
3280.90134155,0.01207406
3282.83014893,0.01215875
3284.75895630,0.01206102
3286.68776367,0.01210990
3288.61657104,0.01212608
3290.54537842,0.01213179
3292.47418579,0.01205443
3294.40299316,0.01202640
3296.33180054,0.01218778
3298.26060791,0.01194377
3300.18941528,0.01198967
3302.11822266,0.01214143
3304.04703003,0.01200888
3305.97583740,0.01214759
3307.90464478,0.01208301
3309.83345215,0.01209251
3311.76225952,0.01213807
3313.69106689,0.01202731
3315.61987427,0.01211515
3317.54868164,0.01210459
3319.47748901,0.01214576
3321.40629639,0.01217852
3323.33510376,0.01204176
3325.26391113,0.01204651
3327.19271851,0.01209592
3329.12152588,0.01203528
3331.05033325,0.01206215
3332.97914062,0.01212564
3334.90794800,0.01213041
3336.83675537,0.01209073
3338.76556274,0.01205687
3340.69437012,0.01214619
3342.62317749,0.01207202
3344.55198486,0.01200566
3346.48079224,0.01206566
3348.40959961,0.01208356
3350.33840698,0.01214857
3352.26721436,0.01218747
3354.19602173,0.01218109
3356.12482910,0.01212490
3358.05363647,0.01220595
3359.98244385,0.01214182
3361.91125122,0.01209193
3363.84005859,0.01222605
3365.76886597,0.01217675
3367.69767334,0.01224981
3369.62648071,0.01223563
3371.55528809,0.01227655
3373.48409546,0.01231681
3375.41290283,0.01225794
3377.34171020,0.01231422
3379.27051758,0.01227239
3381.19932495,0.01242914
3383.12813232,0.01235302
3385.05693970,0.01228688
3386.98574707,0.01245205
3388.91455444,0.01239992
3390.84336182,0.01238496
3392.77216919,0.01231735
3394.70097656,0.01233747
3396.62978394,0.01237534
3398.55859131,0.01242057
3400.48739868,0.01239756
3402.41620605,0.01232503
3404.34501343,0.01243690
3406.27382080,0.01245423
3408.20262817,0.01248991
3410.13143555,0.01254740
3412.06024292,0.01259531
3413.98905029,0.01255305
3415.91785767,0.01256676
3417.84666504,0.01264751
3419.77547241,0.01257410
3421.70427979,0.01252592
3423.63308716,0.01260213
3425.56189453,0.01274760
3427.49070190,0.01266293
3429.41950928,0.01274122
3431.34831665,0.01277717
3433.27712402,0.01271467
3435.20593140,0.01279004
3437.13473877,0.01269389
3439.06354614,0.01284299
3440.99235352,0.01279123
3442.92116089,0.01277884
3444.84996826,0.01280641
3446.77877563,0.01260960
3448.70758301,0.01275707
3450.63639038,0.01284041
3452.56519775,0.01294153
3454.49400513,0.01294203
3456.42281250,0.01291630
3458.35161987,0.01298014
3460.28042725,0.01301997
3462.20923462,0.01296997
3464.13804199,0.01290864
3466.06684937,0.01309659
3467.99565674,0.01301696
3469.92446411,0.01313102
3471.85327148,0.01319938
3473.78207886,0.01311956
3475.71088623,0.01307910
3477.63969360,0.01298148
3479.56850098,0.01315048
3481.49730835,0.01296172
3483.42611572,0.01310949
3485.35492310,0.01322716
3487.28373047,0.01315845
3489.21253784,0.01326912
3491.14134521,0.01319672
3493.07015259,0.01345138
3494.99895996,0.01325305
3496.92776733,0.01328011
3498.85657471,0.01348597
3500.78538208,0.01333322
3502.71418945,0.01315233
3504.64299683,0.01302637
3506.57180420,0.01355464
3508.50061157,0.01341034
3510.42941895,0.01332380
3512.35822632,0.01359701
3514.28703369,0.01348494
3516.21584106,0.01369767
3518.14464844,0.01358809
3520.07345581,0.01362431
3522.00226318,0.01358174
3523.93107056,0.01333031
3525.85987793,0.01341246
3527.78868530,0.01338132
3529.71749268,0.01350056
3531.64630005,0.01370974
3533.57510742,0.01384156
3535.50391479,0.01369950
3537.43272217,0.01363329
3539.36152954,0.01388529
3541.29033691,0.01383443
3543.21914429,0.01373593
3545.14795166,0.01343142
3547.07675903,0.01315529
3549.00556641,0.01380298
3550.93437378,0.01383621
3552.86318115,0.01349490
3554.79198853,0.01398213
3556.72079590,0.01392959
3558.64960327,0.01392215
3560.57841064,0.01381189
3562.50721802,0.01368832
3564.43602539,0.01387275
3566.36483276,0.01274996
3568.29364014,0.01239610
3570.22244751,0.01357212
3572.15125488,0.01412987
3574.08006226,0.01410294
3576.00886963,0.01414180
3577.93767700,0.01409369
3579.86648437,0.01405925
3581.79529175,0.01409132
3583.72409912,0.01410182
3585.65290649,0.01370673
3587.58171387,0.01235553
3589.51052124,0.01283219
3591.43932861,0.01432625
3593.36813599,0.01376170
3595.29694336,0.01343624
3597.22575073,0.01392309
3599.15455811,0.01399960
3601.08336548,0.01382670
3603.01217285,0.01406013
3604.94098022,0.01435388
3606.86978760,0.01380857
3608.79859497,0.01275974
3610.72740234,0.01323749
3612.65620972,0.01364009
3614.58501709,0.01300019
3616.51382446,0.01423494
3618.44263184,0.01289638
3620.37143921,0.01241787
3622.30024658,0.01444428
3624.22905395,0.01394321
3626.15786133,0.01484955
3628.08666870,0.01221220
3630.01547607,0.01085924
3631.94428345,0.01426744
3633.87309082,0.01397722
3635.80189819,0.01432052
3637.73070557,0.01458677
3639.65951294,0.01445493
3641.58832031,0.01451938
3643.51712769,0.01436128
3645.44593506,0.01453803
3647.37474243,0.01275231
3649.30354980,0.01160776
3651.23235718,0.01154692
3653.16116455,0.01433733
3655.08997192,0.01429112
3657.01877930,0.01240499
3658.94758667,0.01478755
3660.87639404,0.01444424
3662.80520142,0.01469927
3664.73400879,0.01474902
3666.66281616,0.01456195
3668.59162354,0.01402946
3670.52043091,0.01102888
3672.44923828,0.01391472
3674.37804565,0.01306249
3676.30685303,0.01033897
3678.23566040,0.01377825
3680.16446777,0.01416725
3682.09327515,0.01415656
3684.02208252,0.01472700
3685.95088989,0.01441962
3687.87969727,0.01282148
3689.80850464,0.01146741
3691.73731201,0.01324885
3693.66611938,0.01392433
3695.59492676,0.01430102
3697.52373413,0.01427448
3699.45254150,0.01414646
3701.38134888,0.01367198
3703.31015625,0.01310423
3705.23896362,0.01459670
3707.16777100,0.01384173
3709.09657837,0.01342730
3711.02538574,0.01237718
3712.95419312,0.01152233
3714.88300049,0.01399488
3716.81180786,0.01372594
3718.74061523,0.01377189
3720.66942261,0.01339846
3722.59822998,0.01283775
3724.52703735,0.01344921
3726.45584473,0.01224453
3728.38465210,0.01348555
3730.31345947,0.01342703
3732.24226685,0.01200622
3734.17107422,0.01163514
3736.09988159,0.01093890
3738.02868896,0.01169255
3739.95749634,0.01304010
3741.88630371,0.01375933
3743.81511108,0.01010389
3745.74391846,0.00943595
3747.67272583,0.01297746
3749.60153320,0.01084079
3751.53034058,0.00971024
3753.45914795,0.01155527
3755.38795532,0.01263737
3757.31676270,0.01301726
3759.24557007,0.01185129
3761.17437744,0.01248454
3763.10318481,0.01344289
3765.03199219,0.01242756
3766.96079956,0.01270708
3768.88960693,0.01253142
3770.81841431,0.01175229
3772.74722168,0.01294952
3774.67602905,0.01307676
3776.60483643,0.01297756
3778.53364380,0.01264157
3780.46245117,0.01210213
3782.39125854,0.01300454
3784.32006592,0.01259619
3786.24887329,0.01246980
3788.17768066,0.01288776
3790.10648804,0.01283020
3792.03529541,0.01270893
3793.96410278,0.01291930
3795.89291016,0.01204414
3797.82171753,0.01180039
3799.75052490,0.01260964
3801.67933228,0.00954519
3803.60813965,0.01140935
3805.53694702,0.01276580
3807.46575439,0.00992363
3809.39456177,0.01248846
3811.32336914,0.01228403
3813.25217651,0.01260396
3815.18098389,0.01127380
3817.10979126,0.00961036
3819.03859863,0.01268495
3820.96740601,0.00980564
3822.89621338,0.01039206
3824.82502075,0.01260916
3826.75382812,0.01120286
3828.68263550,0.01226859
3830.61144287,0.01155948
3832.54025024,0.01105869
3834.46905762,0.01141953
3836.39786499,0.01077610
3838.32667236,0.00962439
3840.25547974,0.01051122
3842.18428711,0.01144868
3844.11309448,0.01075779
3846.04190186,0.01186207
3847.97070923,0.01178399
3849.89951660,0.01174201
3851.82832397,0.01034943
3853.75713135,0.00736555
3855.68593872,0.00901412
3857.61474609,0.01163088
3859.54355347,0.01137912
3861.47236084,0.01122164
3863.40116821,0.01090162
3865.32997559,0.00997046
3867.25878296,0.01130610
3869.18759033,0.01034263
3871.11639770,0.00936038
3873.04520508,0.01143436
3874.97401245,0.01038502
3876.90281982,0.01126155
3878.83162720,0.01160567
3880.76043457,0.00952770
3882.68924194,0.01132857
3884.61804932,0.01058853
3886.54685669,0.00938470
3888.47566406,0.01139989
3890.40447144,0.01064961
3892.33327881,0.00985281
3894.26208618,0.01106918
3896.19089355,0.01127426
3898.11970093,0.01067717
3900.04850830,0.00992792
3901.97731567,0.00978862
3903.90612305,0.00964863
3905.83493042,0.00989224
3907.76373779,0.01112028
3909.69254517,0.01101709
3911.62135254,0.01087968
3913.55015991,0.01109481
3915.47896728,0.01068710
3917.40777466,0.01036358
3919.33658203,0.01016510
3921.26538940,0.01061877
3923.19419678,0.01059655
3925.12300415,0.01032929
3927.05181152,0.01056045
3928.98061890,0.01074045
3930.90942627,0.01041842
3932.83823364,0.00998698
3934.76704102,0.01055580
3936.69584839,0.01072158
3938.62465576,0.01063026
3940.55346313,0.01066126
3942.48227051,0.01017050
3944.41107788,0.01026246
3946.33988525,0.01054280
3948.26869263,0.01021247
3950.19750000,0.01013038
3952.12630737,0.01039370
3954.05511475,0.01032643
3955.98392212,0.01044299
3957.91272949,0.01038476
3959.84153687,0.01024224
3961.77034424,0.01021021
3963.69915161,0.01005766
3965.62795898,0.01038176
3967.55676636,0.01024141
3969.48557373,0.01007663
3971.41438110,0.01017483
3973.34318848,0.01007481
3975.27199585,0.01006930
3977.20080322,0.00999605
3979.12961060,0.01014275
3981.05841797,0.01014541
3982.98722534,0.01013329
3984.91603271,0.01005302
3986.84484009,0.01004094
3988.77364746,0.01003531
3990.70245483,0.00981483
3992.63126221,0.00996834
3994.56006958,0.00992479
3996.48887695,0.00993036
3998.41768433,0.00992291
4000.34649170,0.00984306
4002.27529907,0.00983494
4004.20410645,0.00975424
4006.13291382,0.00986531
4008.06172119,0.00971713
4009.99052856,0.00965649
4011.91933594,0.00964510
4013.84814331,0.00963807
4015.77695068,0.00961171
4017.70575806,0.00956558
4019.63456543,0.00963918
4021.56337280,0.00952908
4023.49218018,0.00958397
4025.42098755,0.00951692
4027.34979492,0.00952365
4029.27860229,0.00945734
4031.20740967,0.00941817
4033.13621704,0.00955712
4035.06502441,0.00935769
4036.99383179,0.00941945
4038.92263916,0.00939565
4040.85144653,0.00937998
4042.78025391,0.00936732
4044.70906128,0.00927055
4046.63786865,0.00931057
4048.56667603,0.00925197
4050.49548340,0.00936492
4052.42429077,0.00924747
4054.35309814,0.00918754
4056.28190552,0.00915647
4058.21071289,0.00906927
4060.13952026,0.00916062
4062.06832764,0.00910187
4063.99713501,0.00906149
4065.92594238,0.00901801
4067.85474976,0.00901666
4069.78355713,0.00899092
4071.71236450,0.00906614
4073.64117187,0.00897570
4075.56997925,0.00892783
4077.49878662,0.00899442
4079.42759399,0.00886519
4081.35640137,0.00901343
4083.28520874,0.00884790
4085.21401611,0.00883814
4087.14282349,0.00891400
4089.07163086,0.00874322
4091.00043823,0.00880988
4092.92924561,0.00870476
4094.85805298,0.00875392
4096.78686035,0.00872508
4098.71566772,0.00873320
4100.64447510,0.00873785
4102.57328247,0.00865612
4104.50208984,0.00867840
4106.43089722,0.00857368
4108.35970459,0.00866657
4110.28851196,0.00851256
4112.21731934,0.00846916
4114.14612671,0.00855709
4116.07493408,0.00856741
4118.00374145,0.00860455
4119.93254883,0.00843044
4121.86135620,0.00852819
4123.79016357,0.00849145
4125.71897095,0.00845088
4127.64777832,0.00842345
4129.57658569,0.00834748
4131.50539307,0.00838235
4133.43420044,0.00821695
4135.36300781,0.00833061
4137.29181519,0.00837610
4139.22062256,0.00828924
4141.14942993,0.00825079
4143.07823730,0.00814713
4145.00704468,0.00820607
4146.93585205,0.00828543
4148.86465942,0.00822186
4150.79346680,0.00809871
4152.72227417,0.00819701
4154.65108154,0.00817140
4156.57988892,0.00808289
4158.50869629,0.00807098
4160.43750366,0.00800583
4162.36631103,0.00805927
4164.29511841,0.00799569
4166.22392578,0.00796804
4168.15273315,0.00800012
4170.08154053,0.00800646
4172.01034790,0.00795122
4173.93915527,0.00787016
4175.86796265,0.00794277
4177.79677002,0.00790442
4179.72557739,0.00788665
4181.65438477,0.00790491
4183.58319214,0.00782095
4185.51199951,0.00781133
4187.44080688,0.00773661
4189.36961426,0.00770959
4191.29842163,0.00785174
4193.22722900,0.00774727
4195.15603638,0.00762234
4197.08484375,0.00767676
4199.01365112,0.00768845
4200.94245850,0.00770083
4202.87126587,0.00757407
4204.80007324,0.00756307
4206.72888062,0.00755335
4208.65768799,0.00747580
4210.58649536,0.00758591
4212.51530273,0.00755426
4214.44411011,0.00748591
4216.37291748,0.00750002
4218.30172485,0.00756849
4220.23053223,0.00750327
4222.15933960,0.00740268
4224.08814697,0.00737516
4226.01695435,0.00730476
4227.94576172,0.00736458
4229.87456909,0.00731020
4231.80337646,0.00736814
4233.73218384,0.00741611
4235.66099121,0.00729482
4237.58979858,0.00729152
4239.51860596,0.00726550
4241.44741333,0.00729199
4243.37622070,0.00720999
4245.30502808,0.00717643
4247.23383545,0.00724113
4249.16264282,0.00726072
4251.09145020,0.00724056
4253.02025757,0.00715620
4254.94906494,0.00714276
4256.87787231,0.00708432
4258.80667969,0.00710599
4260.73548706,0.00706379
4262.66429443,0.00700303
4264.59310181,0.00700014
4266.52190918,0.00692884
4268.45071655,0.00698508
4270.37952393,0.00701745
4272.30833130,0.00699823
4274.23713867,0.00694788
4276.16594604,0.00699275
4278.09475342,0.00697828
4280.02356079,0.00688120
4281.95236816,0.00689627
4283.88117554,0.00687096
4285.80998291,0.00686394
4287.73879028,0.00672211
4289.66759766,0.00672964
4291.59640503,0.00684471
4293.52521240,0.00682829
4295.45401978,0.00685636
4297.38282715,0.00677964
4299.31163452,0.00678551
4301.24044189,0.00676792
4303.16924927,0.00664190
4305.09805664,0.00667991
4307.02686401,0.00679421
4308.95567139,0.00669770
4310.88447876,0.00660197
4312.81328613,0.00660859
4314.74209351,0.00650393
4316.67090088,0.00661659
4318.59970825,0.00665766
4320.52851562,0.00653922
4322.45732300,0.00652043
4324.38613037,0.00649507
4326.31493774,0.00658559
4328.24374512,0.00655752
4330.17255249,0.00642796
4332.10135986,0.00645615
4334.03016724,0.00651344
4335.95897461,0.00650216
4337.88778198,0.00649185
4339.81658936,0.00638527
4341.74539673,0.00634854
4343.67420410,0.00639401
4345.60301147,0.00628986
4347.53181885,0.00634825
4349.46062622,0.00637987
4351.38943359,0.00630658
4353.31824097,0.00631620
4355.24704834,0.00633274
4357.17585571,0.00623507
4359.10466309,0.00614444
4361.03347046,0.00626479
4362.96227783,0.00616131
4364.89108520,0.00610393
4366.81989258,0.00615166
4368.74869995,0.00607813
4370.67750732,0.00608779
4372.60631470,0.00610977
4374.53512207,0.00617403
4376.46392944,0.00609594
4378.39273682,0.00608041
4380.32154419,0.00604924
4382.25035156,0.00601960
4384.17915894,0.00608163
4386.10796631,0.00597384
4388.03677368,0.00600213
4389.96558105,0.00597210
4391.89438843,0.00594273
4393.82319580,0.00597622
4395.75200317,0.00597789
4397.68081055,0.00596619
4399.60961792,0.00591643
4401.53842529,0.00592050
4403.46723267,0.00581119
4405.39604004,0.00583685
4407.32484741,0.00580391
4409.25365478,0.00581082
4411.18246216,0.00581554
4413.11126953,0.00569950
4415.04007690,0.00582724
4416.96888428,0.00574567
4418.89769165,0.00575265
4420.82649902,0.00574836
4422.75530640,0.00568702
4424.68411377,0.00577627
4426.61292114,0.00566829
4428.54172852,0.00570708
4430.47053589,0.00571262
4432.39934326,0.00571590
4434.32815063,0.00570311
4436.25695801,0.00564447
4438.18576538,0.00564464
4440.11457275,0.00556253
4442.04338013,0.00564704
4443.97218750,0.00558691
4445.90099487,0.00551927
4447.82980225,0.00555482
4449.75860962,0.00546477
4451.68741699,0.00543557
4453.61622437,0.00542696
4455.54503174,0.00542193
4457.47383911,0.00541121
4459.40264648,0.00546998
4461.33145386,0.00549206
4463.26026123,0.00543580
4465.18906860,0.00541396
4467.11787598,0.00538294
4469.04668335,0.00534148
4470.97549072,0.00533072
4472.90429810,0.00534831
4474.83310547,0.00533364
4476.76191284,0.00534171
4478.69072021,0.00531348
4480.61952759,0.00528194
4482.54833496,0.00524570
4484.47714233,0.00527695
4486.40594971,0.00531112
4488.33475708,0.00520919
4490.26356445,0.00525243
4492.19237183,0.00523244
4494.12117920,0.00514729
4496.04998657,0.00517539
4497.97879395,0.00519903
4499.90760132,0.00515307
4501.83640869,0.00510709
4503.76521606,0.00517729
4505.69402344,0.00509834
4507.62283081,0.00505329
4509.55163818,0.00512448
4511.48044556,0.00510980
4513.40925293,0.00504689
4515.33806030,0.00505589
4517.26686768,0.00511482
4519.19567505,0.00500906
4521.12448242,0.00501928
4523.05328979,0.00500598
4524.98209717,0.00491938
4526.91090454,0.00497242
4528.83971191,0.00500849
4530.76851929,0.00499964
4532.69732666,0.00493506
4534.62613403,0.00497102
4536.55494141,0.00488758
4538.48374878,0.00486476
4540.41255615,0.00496586
4542.34136353,0.00486835
4544.27017090,0.00488789
4546.19897827,0.00486198
4548.12778564,0.00480362
4550.05659302,0.00480332
4551.98540039,0.00480661
4553.91420776,0.00488441
4555.84301514,0.00477409
4557.77182251,0.00468943
4559.70062988,0.00475752
4561.62943726,0.00472544
4563.55824463,0.00474867
4565.48705200,0.00484198
4567.41585937,0.00475522
4569.34466675,0.00466491
4571.27347412,0.00467282
4573.20228149,0.00469404
4575.13108887,0.00467749
4577.05989624,0.00461772
4578.98870361,0.00461957
4580.91751099,0.00458680
4582.84631836,0.00459404
4584.77512573,0.00455825
4586.70393311,0.00454423
4588.63274048,0.00461680
4590.56154785,0.00452688
4592.49035522,0.00449934
4594.41916260,0.00452489
4596.34796997,0.00455325
4598.27677734,0.00451593
4600.20558472,0.00441977
4602.13439209,0.00444964
4604.06319946,0.00446520
4605.99200684,0.00445877
4607.92081421,0.00442619
4609.84962158,0.00440575
4611.77842895,0.00441181
4613.70723633,0.00445596
4615.63604370,0.00434009
4617.56485107,0.00425112
4619.49365845,0.00440812
4621.42246582,0.00435129
4623.35127319,0.00436696
4625.28008057,0.00436509
4627.20888794,0.00428404
4629.13769531,0.00437048
4631.06650269,0.00426282
4632.99531006,0.00423940
4634.92411743,0.00433125
4636.85292480,0.00429400
4638.78173218,0.00418543
4640.71053955,0.00416616
4642.63934692,0.00423502
4644.56815430,0.00422685
4646.49696167,0.00423702
4648.42576904,0.00423908
4650.35457642,0.00426613
4652.28338379,0.00420998
4654.21219116,0.00419075
4656.14099853,0.00422826
4658.06980591,0.00409146
4659.99861328,0.00409080
4661.92742065,0.00411170
4663.85622803,0.00411984
4665.78503540,0.00417378
4667.71384277,0.00404553
4669.64265015,0.00406454
4671.57145752,0.00415703
4673.50026489,0.00402295
4675.42907227,0.00401259
4677.35787964,0.00408149
4679.28668701,0.00402594
4681.21549438,0.00401647
4683.14430176,0.00402180
4685.07310913,0.00399621
4687.00191650,0.00397441
4688.93072388,0.00400926
4690.85953125,0.00394327
4692.78833862,0.00386936
4694.71714600,0.00394272
4696.64595337,0.00387411
4698.57476074,0.00388536
4700.50356812,0.00391543
4702.43237549,0.00384657
4704.36118286,0.00387877
4706.28999023,0.00386227
4708.21879761,0.00385339
4710.14760498,0.00385522
4712.07641235,0.00389452
4714.00521973,0.00384760
4715.93402710,0.00379700
4717.86283447,0.00386287
4719.79164185,0.00375572
4721.72044922,0.00378598
4723.64925659,0.00386754
4725.57806396,0.00372929
4727.50687134,0.00376413
4729.43567871,0.00382217
4731.36448608,0.00368768
4733.29329346,0.00371340
4735.22210083,0.00373558
4737.15090820,0.00366315
4739.07971558,0.00371246
4741.00852295,0.00369279
4742.93733032,0.00379379
4744.86613770,0.00378891
4746.79494507,0.00362733
4748.72375244,0.00365339
4750.65255981,0.00357996
4752.58136719,0.00367161
4754.51017456,0.00370633
4756.43898193,0.00356072
4758.36778931,0.00365043
4760.29659668,0.00359440
4762.22540405,0.00356585
4764.15421143,0.00361857
4766.08301880,0.00348118
4768.01182617,0.00352538
4769.94063354,0.00363358
4771.86944092,0.00354561
4773.79824829,0.00350077
4775.72705566,0.00351065
4777.65586304,0.00351946
4779.58467041,0.00354359
4781.51347778,0.00353048
4783.44228516,0.00349105
4785.37109253,0.00342240
4787.29989990,0.00342443
4789.22870728,0.00344644
4791.15751465,0.00344354
4793.08632202,0.00341042
4795.01512939,0.00332484
4796.94393677,0.00336607
4798.87274414,0.00340593
4800.80155151,0.00342215
4802.73035889,0.00345280
4804.65916626,0.00341034
4806.58797363,0.00343087
4808.51678101,0.00341250
4810.44558838,0.00332445
4812.37439575,0.00333411
4814.30320312,0.00335960
4816.23201050,0.00332118
4818.16081787,0.00332284
4820.08962524,0.00331114
4822.01843262,0.00325269
4823.94723999,0.00326274
4825.87604736,0.00325038
4827.80485474,0.00322274
4829.73366211,0.00327244
4831.66246948,0.00326920
4833.59127686,0.00322353
4835.52008423,0.00325362
4837.44889160,0.00324332
4839.37769897,0.00319245
4841.30650635,0.00315803
4843.23531372,0.00317502
4845.16412109,0.00321345
4847.09292847,0.00314039
4849.02173584,0.00316014
4850.95054321,0.00319820
4852.87935059,0.00318562
4854.80815796,0.00318628
4856.73696533,0.00307615
4858.66577270,0.00308301
4860.59458008,0.00310384
4862.52338745,0.00303899
4864.45219482,0.00305969
4866.38100220,0.00306675
4868.30980957,0.00302426
4870.23861694,0.00303857
4872.16742432,0.00307028
4874.09623169,0.00306022
4876.02503906,0.00308235
4877.95384644,0.00302554
4879.88265381,0.00301563
4881.81146118,0.00302304
4883.74026855,0.00299608
4885.66907593,0.00303075
4887.59788330,0.00293413
4889.52669067,0.00295958
4891.45549805,0.00299435
4893.38430542,0.00293361
4895.31311279,0.00295471
4897.24192017,0.00295641
4899.17072754,0.00297132
4901.09953491,0.00290688
4903.02834228,0.00290067
4904.95714966,0.00289163
4906.88595703,0.00286444
4908.81476440,0.00290008
4910.74357178,0.00287320
4912.67237915,0.00288331
4914.60118652,0.00286515
4916.52999390,0.00286373
4918.45880127,0.00282309
4920.38760864,0.00282045
4922.31641602,0.00287902
4924.24522339,0.00283736
4926.17403076,0.00285630
4928.10283813,0.00284466
4930.03164551,0.00279215
4931.96045288,0.00275692
4933.88926025,0.00278697
4935.81806763,0.00282332
4937.74687500,0.00280465
4939.67568237,0.00283468
4941.60448975,0.00279036
4943.53329712,0.00271525
4945.46210449,0.00271725
4947.39091187,0.00276281
4949.31971924,0.00273083
4951.24852661,0.00271010
4953.17733398,0.00275359
4955.10614136,0.00275269
4957.03494873,0.00271024
4958.96375610,0.00268350
4960.89256348,0.00273732
4962.82137085,0.00265559
4964.75017822,0.00264554
4966.67898560,0.00269673
4968.60779297,0.00266601
4970.53660034,0.00270764
4972.46540771,0.00258507
4974.39421509,0.00257111
4976.32302246,0.00265723
4978.25182983,0.00264400
4980.18063721,0.00262338
4982.10944458,0.00258139
4984.03825195,0.00258083
4985.96705933,0.00251952
4987.89586670,0.00254863
4989.82467407,0.00258879
4991.75348145,0.00255147
4993.68228882,0.00253859
4995.61109619,0.00254566
4997.53990356,0.00253325
4999.46871094,0.00249904
5001.39751831,0.00255196
5003.32632568,0.00250326
5005.25513306,0.00252123
5007.18394043,0.00251787
5009.11274780,0.00245114
5011.04155518,0.00251258
5012.97036255,0.00247975
5014.89916992,0.00250257
5016.82797729,0.00245581
5018.75678467,0.00245988
5020.68559204,0.00249456
5022.61439941,0.00239347
5024.54320679,0.00244099
5026.47201416,0.00242763
5028.40082153,0.00241249
5030.32962891,0.00239837
5032.25843628,0.00237567
5034.18724365,0.00242133
5036.11605103,0.00240306
5038.04485840,0.00237918
5039.97366577,0.00234791
5041.90247314,0.00236062
5043.83128052,0.00238627
5045.76008789,0.00242348
5047.68889526,0.00239267
5049.61770264,0.00236588
5051.54651001,0.00237467
5053.47531738,0.00232080
5055.40412476,0.00232027
5057.33293213,0.00225441
5059.26173950,0.00227540
5061.19054687,0.00232825
5063.11935425,0.00231423
5065.04816162,0.00229514
5066.97696899,0.00221464
5068.90577637,0.00227840
5070.83458374,0.00229941
5072.76339111,0.00226840
5074.69219849,0.00227734
5076.62100586,0.00223949
5078.54981323,0.00220753
5080.47862061,0.00221573
5082.40742798,0.00224110
5084.33623535,0.00217781
5086.26504272,0.00222759
5088.19385010,0.00221784
5090.12265747,0.00215997
5092.05146484,0.00227487
5093.98027222,0.00221303
5095.90907959,0.00215987
5097.83788696,0.00223684
5099.76669434,0.00221146
5101.69550171,0.00216117
5103.62430908,0.00214581
5105.55311645,0.00213365
5107.48192383,0.00221749
5109.41073120,0.00229775
5111.33953857,0.00218189
5113.26834595,0.00215426
5115.19715332,0.00217608
5117.12596069,0.00210991
5119.05476807,0.00214060
5120.98357544,0.00212321
5122.91238281,0.00201771
5124.84119019,0.00202605
5126.76999756,0.00215695
5128.69880493,0.00218710
5130.62761230,0.00211466
5132.55641968,0.00209429
5134.48522705,0.00211082
5136.41403442,0.00212894
5138.34284180,0.00205367
5140.27164917,0.00200762
5142.20045654,0.00204101
5144.12926392,0.00198971
5146.05807129,0.00199241
5147.98687866,0.00203942
5149.91568603,0.00203932
5151.84449341,0.00201698
5153.77330078,0.00199225
5155.70210815,0.00204888
5157.63091553,0.00199852
5159.55972290,0.00199455
5161.48853027,0.00207831
5163.41733765,0.00194015
5165.34614502,0.00194858
5167.27495239,0.00198977
5169.20375977,0.00191237
5171.13256714,0.00198496
5173.06137451,0.00194171
5174.99018188,0.00188843
5176.91898926,0.00192911
5178.84779663,0.00192017
5180.77660400,0.00191723
5182.70541138,0.00189163
5184.63421875,0.00189440
5186.56302612,0.00191722
5188.49183350,0.00190575
5190.42064087,0.00189578
5192.34944824,0.00194185
5194.27825562,0.00194590
5196.20706299,0.00185456
5198.13587036,0.00184914
5200.06467773,0.00188795
5201.99348511,0.00188060
5203.92229248,0.00188154
5205.85109985,0.00185057
5207.77990723,0.00182839
5209.70871460,0.00183921
5211.63752197,0.00179306
5213.56632935,0.00181923
5215.49513672,0.00188962
5217.42394409,0.00184040
5219.35275146,0.00180065
5221.28155884,0.00183659
5223.21036621,0.00187333
5225.13917358,0.00176323
5227.06798096,0.00171667
5228.99678833,0.00187955
5230.92559570,0.00183063
5232.85440308,0.00172222
5234.78321045,0.00177669
5236.71201782,0.00171242
5238.64082520,0.00166553
5240.56963257,0.00176454
5242.49843994,0.00176702
5244.42724731,0.00171644
5246.35605469,0.00170337
5248.28486206,0.00168088
5250.21366943,0.00173327
5252.14247681,0.00169895
5254.07128418,0.00163234
5256.00009155,0.00170491
5257.92889893,0.00166396
5259.85770630,0.00165501
5261.78651367,0.00174666
5263.71532104,0.00167734
5265.64412842,0.00159719
5267.57293579,0.00164404
5269.50174316,0.00168161
5271.43055054,0.00162031
5273.35935791,0.00164286
5275.28816528,0.00169039
5277.21697266,0.00159583
5279.14578003,0.00166903
5281.07458740,0.00175635
5283.00339478,0.00160302
5284.93220215,0.00154238
5286.86100952,0.00160012
5288.78981689,0.00166865
5290.71862427,0.00168889
5292.64743164,0.00161268
5294.57623901,0.00160089
5296.50504639,0.00158144
5298.43385376,0.00155516
5300.36266113,0.00164162
5302.29146851,0.00162019
5304.22027588,0.00157139
5306.14908325,0.00164528
5308.07789062,0.00158069
5310.00669800,0.00154426
5311.93550537,0.00162548
5313.86431274,0.00158097
5315.79312012,0.00156538
5317.72192749,0.00158170
5319.65073486,0.00159014
5321.57954224,0.00159946
5323.50834961,0.00156315
5325.43715698,0.00159846
5327.36596436,0.00156072
5329.29477173,0.00150278
5331.22357910,0.00156518
5333.15238647,0.00154279
5335.08119385,0.00149670
5337.01000122,0.00146662
5338.93880859,0.00142931
5340.86761597,0.00154212
5342.79642334,0.00152661
5344.72523071,0.00136595
5346.65403809,0.00147842
5348.58284546,0.00154262
5350.51165283,0.00139638
5352.44046020,0.00139317
5354.36926758,0.00146686
5356.29807495,0.00144437
5358.22688232,0.00142731
5360.15568970,0.00148338
5362.08449707,0.00146992
5364.01330444,0.00143152
5365.94211182,0.00140723
5367.87091919,0.00141615
5369.79972656,0.00145055
5371.72853394,0.00140515
5373.65734131,0.00142174
5375.58614868,0.00140823
5377.51495605,0.00135009
5379.44376343,0.00138430
5381.37257080,0.00144098
5383.30137817,0.00141391
5385.23018555,0.00131475
5387.15899292,0.00136364
5389.08780029,0.00142748
5391.01660767,0.00141873
5392.94541504,0.00138967
5394.87422241,0.00137290
5396.80302978,0.00139480
5398.73183716,0.00136135
5400.66064453,0.00143443
5402.58945190,0.00143640
5404.51825928,0.00136496
5406.44706665,0.00142058
5408.37587402,0.00138814
5410.30468140,0.00131830
5412.23348877,0.00131659
5414.16229614,0.00134519
5416.09110352,0.00134956
5418.01991089,0.00133151
5419.94871826,0.00128607
5421.87752563,0.00130943
5423.80633301,0.00138842
5425.73514038,0.00139720
5427.66394775,0.00136644
5429.59275513,0.00125817
5431.52156250,0.00130560
5433.45036987,0.00131695
5435.37917725,0.00123582
5437.30798462,0.00134540
5439.23679199,0.00128544
5441.16559936,0.00121496
5443.09440674,0.00126537
5445.02321411,0.00127073
5446.95202148,0.00128220
5448.88082886,0.00121822
5450.80963623,0.00121788
5452.73844360,0.00130904
5454.66725098,0.00129733
5456.59605835,0.00123905
5458.52486572,0.00126212
5460.45367310,0.00122029
5462.38248047,0.00123778
5464.31128784,0.00127450
5466.24009521,0.00114573
5468.16890259,0.00119249
5470.09770996,0.00129103
5472.02651733,0.00129638
5473.95532471,0.00122060
5475.88413208,0.00110921
5477.81293945,0.00118306
5479.74174683,0.00121011
5481.67055420,0.00116637
5483.59936157,0.00118588
5485.52816895,0.00123399
5487.45697632,0.00122396
5489.38578369,0.00115606
5491.31459106,0.00119064
5493.24339844,0.00119209
5495.17220581,0.00114732
5497.10101318,0.00114633
5499.02982056,0.00111139
5500.95862793,0.00111559
5502.88743530,0.00115690
5504.81624268,0.00116847
5506.74505005,0.00116444
5508.67385742,0.00115502
5510.60266479,0.00119069
5512.53147217,0.00114506
5514.46027954,0.00109061
5516.38908691,0.00115101
5518.31789429,0.00113079
5520.24670166,0.00116801
5522.17550903,0.00114101
5524.10431641,0.00107426
5526.03312378,0.00114836
5527.96193115,0.00105678
5529.89073853,0.00106944
5531.81954590,0.00117587
5533.74835327,0.00113131
5535.67716064,0.00108253
5537.60596802,0.00109846
5539.53477539,0.00113193
5541.46358276,0.00107644
5543.39239014,0.00111689
5545.32119751,0.00107376
5547.25000488,0.00101853
5549.17881226,0.00108178
5551.10761963,0.00104647
5553.03642700,0.00111328
5554.96523437,0.00109988
5556.89404175,0.00105767
5558.82284912,0.00107878
5560.75165649,0.00104200
5562.68046387,0.00107534
5564.60927124,0.00109888
5566.53807861,0.00109308
5568.46688599,0.00099668
5570.39569336,0.00101730
5572.32450073,0.00109361
5574.25330811,0.00102801
5576.18211548,0.00103026
5578.11092285,0.00101242
5580.03973022,0.00103437
5581.96853760,0.00104782
5583.89734497,0.00101264
5585.82615234,0.00106926
5587.75495972,0.00109198
5589.68376709,0.00103589
5591.61257446,0.00097197
5593.54138184,0.00100490
5595.47018921,0.00102613
5597.39899658,0.00100212
5599.32780395,0.00104738
5601.25661133,0.00103666
5603.18541870,0.00095714
5605.11422607,0.00098350
5607.04303345,0.00101025
5608.97184082,0.00095656
5610.90064819,0.00101977
5612.82945557,0.00101529
5614.75826294,0.00094372
5616.68707031,0.00100847
5618.61587769,0.00099638
5620.54468506,0.00092452
5622.47349243,0.00095178
5624.40229980,0.00102422
5626.33110718,0.00098107
5628.25991455,0.00092838
5630.18872192,0.00099709
5632.11752930,0.00100492
5634.04633667,0.00094702
5635.97514404,0.00091472
5637.90395142,0.00095438
5639.83275879,0.00098132
5641.76156616,0.00095801
5643.69037353,0.00096570
5645.61918091,0.00094226
5647.54798828,0.00094889
5649.47679565,0.00095021
5651.40560303,0.00088768
5653.33441040,0.00092402
5655.26321777,0.00097623
5657.19202515,0.00092108
5659.12083252,0.00092966
5661.04963989,0.00097633
5662.97844727,0.00093050
5664.90725464,0.00093239
5666.83606201,0.00091534
5668.76486938,0.00087382
5670.69367676,0.00095073
5672.62248413,0.00092713
5674.55129150,0.00085373
5676.48009888,0.00089465
5678.40890625,0.00089634
5680.33771362,0.00088871
5682.26652100,0.00091160
5684.19532837,0.00090870
5686.12413574,0.00088558
5688.05294311,0.00090146
5689.98175049,0.00092378
5691.91055786,0.00082345
5693.83936523,0.00083438
5695.76817261,0.00092273
5697.69697998,0.00084611
5699.62578735,0.00086365
5701.55459473,0.00088244
5703.48340210,0.00082276
5705.41220947,0.00083167
5707.34101685,0.00082020
5709.26982422,0.00085862
5711.19863159,0.00086671
5713.12743896,0.00088518
5715.05624634,0.00089252
5716.98505371,0.00081716
5718.91386108,0.00086270
5720.84266846,0.00080019
5722.77147583,0.00078813
5724.70028320,0.00085527
5726.62909058,0.00075338
5728.55789795,0.00085242
5730.48670532,0.00086414
5732.41551270,0.00073464
5734.34432007,0.00079824
5736.27312744,0.00079747
5738.20193481,0.00077446
5740.13074219,0.00079562
5742.05954956,0.00081694
5743.98835693,0.00078440
5745.91716431,0.00079028
5747.84597168,0.00086809
5749.77477905,0.00077938
5751.70358643,0.00078132
5753.63239380,0.00083172
5755.56120117,0.00077268
5757.49000854,0.00080929
5759.41881592,0.00080222
5761.34762329,0.00077656
5763.27643066,0.00076888
5765.20523804,0.00076734
5767.13404541,0.00076979
5769.06285278,0.00072159
5770.99166016,0.00076067
5772.92046753,0.00074535
5774.84927490,0.00073562
5776.77808228,0.00080356
5778.70688965,0.00076011
5780.63569702,0.00075447
5782.56450439,0.00075420
5784.49331177,0.00071284
5786.42211914,0.00071844
5788.35092651,0.00073611
5790.27973389,0.00072805
5792.20854126,0.00071494
5794.13734863,0.00075251
5796.06615601,0.00072599
5797.99496338,0.00071129
5799.92377075,0.00074271
5801.85257812,0.00070997
5803.78138550,0.00070380
5805.71019287,0.00073828
5807.63900024,0.00075225
5809.56780762,0.00072187
5811.49661499,0.00072222
5813.42542236,0.00068355
5815.35422974,0.00066212
5817.28303711,0.00070504
5819.21184448,0.00070349
5821.14065186,0.00076650
5823.06945923,0.00073537
5824.99826660,0.00069760
5826.92707397,0.00070249
5828.85588135,0.00067811
5830.78468872,0.00074354
5832.71349609,0.00067166
5834.64230347,0.00064830
5836.57111084,0.00070665
5838.49991821,0.00066661
5840.42872559,0.00063975
5842.35753296,0.00065612
5844.28634033,0.00069535
5846.21514770,0.00069954
5848.14395508,0.00072909
5850.07276245,0.00064030
5852.00156982,0.00063782
5853.93037720,0.00073312
5855.85918457,0.00072934
5857.78799194,0.00074671
5859.71679932,0.00065055
5861.64560669,0.00064681
5863.57441406,0.00060761
5865.50322144,0.00062538
5867.43202881,0.00067170
5869.36083618,0.00056328
5871.28964355,0.00068256
5873.21845093,0.00065209
5875.14725830,0.00067087
5877.07606567,0.00069274
5879.00487305,0.00061068
5880.93368042,0.00066239
5882.86248779,0.00053198
5884.79129517,0.00062997
5886.72010254,0.00064402
5888.64890991,0.00054966
5890.57771728,0.00063191
5892.50652466,0.00063996
5894.43533203,0.00065741
5896.36413940,0.00055039
5898.29294678,0.00057489
5900.22175415,0.00058844
5902.15056152,0.00062292
5904.07936890,0.00064979
5906.00817627,0.00054774
5907.93698364,0.00063594
5909.86579102,0.00060783
5911.79459839,0.00066537
5913.72340576,0.00064241
5915.65221313,0.00052738
5917.58102051,0.00056049
5919.50982788,0.00055407
5921.43863525,0.00058156
5923.36744263,0.00046849
5925.29625000,0.00059287
5927.22505737,0.00064146
5929.15386475,0.00054210
5931.08267212,0.00064766
5933.01147949,0.00057991
5934.94028686,0.00060273
5936.86909424,0.00051528
5938.79790161,0.00047704
5940.72670898,0.00062195
5942.65551636,0.00056240
5944.58432373,0.00054013
5946.51313110,0.00055948
5948.44193848,0.00059799
5950.37074585,0.00058196
5952.29955322,0.00057889
5954.22836060,0.00055485
5956.15716797,0.00049469
5958.08597534,0.00056069
5960.01478271,0.00062038
5961.94359009,0.00062782
5963.87239746,0.00053405
5965.80120483,0.00053027
5967.73001221,0.00052422
5969.65881958,0.00052927
5971.58762695,0.00059394
5973.51643433,0.00050292
5975.44524170,0.00055378
5977.37404907,0.00052470
5979.30285645,0.00044167
5981.23166382,0.00054779
5983.16047119,0.00053553
5985.08927856,0.00052050
5987.01808594,0.00056561
5988.94689331,0.00053801
5990.87570068,0.00048803
5992.80450806,0.00050494
5994.73331543,0.00046773
5996.66212280,0.00045756
5998.59093018,0.00056706
6000.51973755,0.00053903
