399.26312622,0.00026564
401.19193359,0.00101568
403.12074097,0.00099428
405.04954834,0.00112252
406.97835571,0.00131895
408.90716309,0.00089071
410.83597046,0.00132562
412.76477783,0.00147022
414.69358521,0.00103855
416.62239258,0.00137130
418.55119995,0.00079496
420.48000732,0.00098227
422.40881470,0.00165413
424.33762207,0.00100793
426.26642944,0.00129192
428.19523682,0.00140305
430.12404419,0.00090039
432.05285156,0.00126556
433.98165894,0.00150609
435.91046631,0.00087889
437.83927368,0.00079506
439.76808105,0.00134596
441.69688843,0.00092315
443.62569580,0.00097911
445.55450317,0.00124368
447.48331055,0.00084778
449.41211792,0.00112964
451.34092529,0.00110566
453.26973267,0.00097649
455.19854004,0.00099861
457.12734741,0.00046458
459.05615479,0.00033857
460.98496216,0.00074549
462.91376953,0.00098463
464.84257690,0.00056442
466.77138428,0.00032934
468.70019165,0.00070056
470.62899902,0.00061123
472.55780640,0.00077201
474.48661377,0.00108140
476.41542114,0.00052177
478.34422852,0.00015063
480.27303589,0.00034919
482.20184326,0.00054812
484.13065063,0.00024549
486.05945801,-0.00017681
487.98826538,0.00014516
489.91707275,0.00035232
491.84588013,0.00036051
493.77468750,0.00030641
495.70349487,-0.00004707
497.63230225,0.00018393
499.56110962,0.00041131
501.48991699,0.00030457
503.41872437,0.00032708
505.34753174,0.00025000
507.27633911,0.00030648
509.20514648,0.00015242
511.13395386,0.00018972
513.06276123,0.00007426
514.99156860,-0.00022278
516.92037598,0.00057758
518.84918335,0.00039553
520.77799072,0.00002556
522.70679810,0.00042018
524.63560547,-0.00017553
526.56441284,0.00020505
528.49322021,0.00058944
530.42202759,-0.00024587
532.35083496,-0.00028737
534.27964233,0.00034772
536.20844971,-0.00023690
538.13725708,-0.00006723
540.06606445,0.00012990
541.99487183,0.00028897
543.92367920,0.00048619
545.85248657,0.00007886
547.78129395,0.00031843
549.71010132,0.00027521
551.63890869,-0.00017465
553.56771606,0.00035822
555.49652344,0.00038643
557.42533081,-0.00018311
559.35413818,0.00017344
561.28294556,0.00036922
563.21175293,0.00020224
565.14056030,0.00006403
567.06936768,0.00009258
568.99817505,0.00025752
570.92698242,0.00026832
572.85578979,0.00068949
574.78459717,0.00033696
576.71340454,0.00008811
578.64221191,0.00025342
580.57101929,0.00009793
582.49982666,0.00037928
584.42863403,-0.00007080
586.35744141,-0.00010891
588.28624878,0.00025507
590.21505615,0.00033701
592.14386353,0.00043516
594.07267090,0.00027099
596.00147827,0.00043240
597.93028564,-0.00001957
599.85909302,-0.00035113
601.78790039,0.00016166
603.71670776,0.00025732
605.64551514,0.00002910
607.57432251,-0.00007893
609.50312988,-0.00012356
611.43193726,-0.00002259
613.36074463,0.00017196
615.28955200,0.00019885
617.21835938,-0.00014411
619.14716675,0.00007107
621.07597412,0.00015923
623.00478149,0.00009837
624.93358887,0.00016596
626.86239624,-0.00003291
628.79120361,-0.00018392
630.72001099,0.00020781
632.64881836,0.00062772
634.57762573,0.00076013
636.50643311,0.00100040
638.43524048,0.00082623
640.36404785,0.00084441
642.29285522,0.00129331
644.22166260,0.00112826
646.15046997,0.00117264
648.07927734,0.00140686
650.00808472,0.00125722
651.93689209,0.00153103
653.86569946,0.00166804
655.79450684,0.00160876
657.72331421,0.00200926
659.65212158,0.00190574
661.58092896,0.00162705
663.50973633,0.00195981
665.43854370,0.00232029
667.36735107,0.00231132
669.29615845,0.00205219
671.22496582,0.00242013
673.15377319,0.00267215
675.08258057,0.00246785
677.01138794,0.00284187
678.94019531,0.00269538
680.86900269,0.00238999
682.79781006,0.00242978
684.72661743,0.00224107
686.65542480,0.00251488
688.58423218,0.00269355
690.51303955,0.00261192
692.44184692,0.00272706
694.37065430,0.00282472
696.29946167,0.00309950
698.22826904,0.00366168
700.15707642,0.00399671
702.08588379,0.00395114
704.01469116,0.00384583
705.94349854,0.00337200
707.87230591,0.00286407
709.80111328,0.00207896
711.72992065,0.00135065
713.65872803,0.00131304
715.58753540,0.00065830
717.51634277,0.00030259
719.44515015,0.00047750
721.37395752,0.00025181
723.30276489,0.00020767
725.23157227,0.00010068
727.16037964,0.00021977
729.08918701,0.00034643
731.01799438,0.00009853
732.94680176,0.00008895
734.87560913,0.00015848
736.80441650,0.00003963
738.73322388,0.00006085
740.66203125,-0.00003406
742.59083862,0.00006128
744.51964600,0.00042545
746.44845337,0.00021449
748.37726074,0.00029588
750.30606812,0.00060925
752.23487549,0.00018362
754.16368286,0.00014169
756.09249023,0.00024642
758.02129761,0.00014709
759.95010498,0.00041218
761.87891235,0.00017452
763.80771973,-0.00001820
765.73652710,0.00025181
767.66533447,0.00052132
769.59414185,0.00037681
771.52294922,0.00003048
773.45175659,0.00011183
775.38056396,0.00017280
777.30937134,0.00032353
779.23817871,0.00010258
781.16698608,0.00009707
783.09579346,0.00035645
785.02460083,0.00038424
786.95340820,0.00044228
788.88221558,0.00028947
790.81102295,0.00052480
792.73983032,0.00038688
794.66863770,0.00008784
796.59744507,0.00046970
798.52625244,0.00057571
800.45505981,0.00044089
802.38386719,0.00049540
804.31267456,0.00050666
806.24148193,0.00042004
808.17028931,0.00038416
810.09909668,0.00050251
812.02790405,0.00061492
813.95671143,0.00042822
815.88551880,0.00040034
817.81432617,0.00036505
819.74313354,0.00030385
821.67194092,0.00041247
823.60074829,0.00034562
825.52955566,0.00046087
827.45836304,0.00037269
829.38717041,0.00039043
831.31597778,0.00062607
833.24478516,0.00084781
835.17359253,0.00114104
837.10239990,0.00093639
839.03120728,0.00102363
840.96001465,0.00111202
842.88882202,0.00080975
844.81762939,0.00058911
846.74643677,0.00067445
848.67524414,0.00083093
850.60405151,0.00071227
852.53285889,0.00085447
854.46166626,0.00050832
856.39047363,0.00056179
858.31928101,0.00054670
860.24808838,-0.00002795
862.17689575,0.00046875
864.10570313,0.00032648
866.03451050,0.00020823
867.96331787,0.00034907
869.89212524,0.00022507
871.82093262,0.00064332
873.74973999,0.00026180
875.67854736,0.00032322
877.60735474,0.00063333
879.53616211,0.00021123
881.46496948,0.00044417
883.39377686,0.00061602
885.32258423,0.00038860
887.25139160,0.00024293
889.18019897,0.00042992
891.10900635,0.00056244
893.03781372,0.00032537
894.96662109,0.00032279
896.89542847,0.00030682
898.82423584,0.00033778
900.75304321,0.00043289
902.68185059,0.00018075
904.61065796,0.00027645
906.53946533,0.00061657
908.46827271,0.00047006
910.39708008,0.00054616
912.32588745,0.00045367
914.25469482,0.00021969
916.18350220,0.00056280
918.11230957,0.00060636
920.04111694,0.00070177
921.96992432,0.00065242
923.89873169,0.00057187
925.82753906,0.00109993
927.75634644,0.00119435
929.68515381,0.00088676
931.61396118,0.00088498
933.54276855,0.00119167
935.47157593,0.00101697
937.40038330,0.00088373
939.32919067,0.00111441
941.25799805,0.00117995
943.18680542,0.00144722
945.11561279,0.00140635
947.04442017,0.00132049
948.97322754,0.00147961
950.90203491,0.00130132
952.83084229,0.00107930
954.75964966,0.00117265
956.68845703,0.00131849
958.61726440,0.00131566
960.54607178,0.00135879
962.47487915,0.00136439
964.40368652,0.00129388
966.33249390,0.00124160
968.26130127,0.00120859
970.19010864,0.00114682
972.11891602,0.00141548
974.04772339,0.00159258
975.97653076,0.00147251
977.90533813,0.00192407
979.83414551,0.00204110
981.76295288,0.00188632
983.69176025,0.00233443
985.62056763,0.00263518
987.54937500,0.00280045
989.47818237,0.00329306
991.40698975,0.00345462
993.33579712,0.00331572
995.26460449,0.00385541
997.19341187,0.00427586
999.12221924,0.00454778
1001.05102661,0.00490740
1002.97983398,0.00502042
1004.90864136,0.00565367
1006.83744873,0.00607571
1008.76625610,0.00632729
1010.69506348,0.00673391
1012.62387085,0.00692370
1014.55267822,0.00737336
1016.48148560,0.00781260
1018.41029297,0.00823752
1020.33910034,0.00865184
1022.26790771,0.00892087
1024.19671509,0.00927203
1026.12552246,0.00969915
1028.05432983,0.01005506
1029.98313721,0.01025819
1031.91194458,0.01034132
1033.84075195,0.01051425
1035.76955933,0.01086134
1037.69836670,0.01108082
1039.62717407,0.01109936
1041.55598145,0.01084490
1043.48478882,0.01085309
1045.41359619,0.01069663
1047.34240356,0.01030419
1049.27121094,0.01054036
1051.20001831,0.01016850
1053.12882568,0.00980642
1055.05763306,0.00978566
1056.98644043,0.00931804
1058.91524780,0.00922121
1060.84405518,0.00918568
1062.77286255,0.00902672
1064.70166992,0.00855165
1066.63047729,0.00817762
1068.55928467,0.00797542
1070.48809204,0.00745697
1072.41689941,0.00723951
1074.34570679,0.00695037
1076.27451416,0.00667100
1078.20332153,0.00632220
1080.13212891,0.00593139
1082.06093628,0.00582199
1083.98974365,0.00536024
1085.91855103,0.00502771
1087.84735840,0.00495106
1089.77616577,0.00473800
1091.70497314,0.00455949
1093.63378052,0.00446488
1095.56258789,0.00427652
1097.49139526,0.00397114
1099.42020264,0.00394342
1101.34901001,0.00398655
1103.27781738,0.00374422
1105.20662476,0.00358872
1107.13543213,0.00368152
1109.06423950,0.00360522
1110.99304687,0.00350539
1112.92185425,0.00355578
1114.85066162,0.00358421
1116.77946899,0.00358476
1118.70827637,0.00354907
1120.63708374,0.00371634
1122.56589111,0.00371215
1124.49469849,0.00358555
1126.42350586,0.00370378
1128.35231323,0.00364498
1130.28112061,0.00377373
1132.20992798,0.00398886
1134.13873535,0.00398542
1136.06754272,0.00420454
1137.99635010,0.00436381
1139.92515747,0.00453284
1141.85396484,0.00490724
1143.78277222,0.00510206
1145.71157959,0.00538025
1147.64038696,0.00579268
1149.56919434,0.00603632
1151.49800171,0.00632694
1153.42680908,0.00665679
1155.35561646,0.00696917
1157.28442383,0.00727046
1159.21323120,0.00745956
1161.14203857,0.00782045
1163.07084595,0.00819234
1164.99965332,0.00839931
1166.92846069,0.00875019
1168.85726807,0.00912552
1170.78607544,0.00953472
1172.71488281,0.00972955
1174.64369019,0.00996391
1176.57249756,0.01049319
1178.50130493,0.01072210
1180.43011230,0.01120950
1182.35891968,0.01167575
1184.28772705,0.01211927
1186.21653442,0.01274655
1188.14534180,0.01304038
1190.07414917,0.01387754
1192.00295654,0.01450105
1193.93176392,0.01514788
1195.86057129,0.01603445
1197.78937866,0.01634755
1199.71818604,0.01719971
1201.64699341,0.01788338
1203.57580078,0.01865464
1205.50460815,0.01957110
1207.43341553,0.02011593
1209.36222290,0.02094752
1211.29103027,0.02131992
1213.21983765,0.02192724
1215.14864502,0.02254121
1217.07745239,0.02279359
1219.00625977,0.02333523
1220.93506714,0.02368284
1222.86387451,0.02394003
1224.79268188,0.02415931
1226.72148926,0.02449578
1228.65029663,0.02453456
1230.57910400,0.02457262
1232.50791138,0.02480310
1234.43671875,0.02462160
1236.36552612,0.02462396
1238.29433350,0.02449941
1240.22314087,0.02442398
1242.15194824,0.02459706
1244.08075562,0.02440497
1246.00956299,0.02421043
1247.93837036,0.02404912
1249.86717773,0.02368965
1251.79598511,0.02359984
1253.72479248,0.02365013
1255.65359985,0.02331005
1257.58240723,0.02301554
1259.51121460,0.02240041
1261.44002197,0.02191406
1263.36882935,0.02202658
1265.29763672,0.02158804
1267.22644409,0.02117874
1269.15525146,0.02112229
1271.08405884,0.02082600
1273.01286621,0.02025622
1274.94167358,0.01985029
1276.87048096,0.01954611
1278.79928833,0.01916721
1280.72809570,0.01893916
1282.65690308,0.01829335
1284.58571045,0.01801381
1286.51451782,0.01788661
1288.44332520,0.01742911
1290.37213257,0.01736687
1292.30093994,0.01707589
1294.22974731,0.01700218
1296.15855469,0.01702486
1298.08736206,0.01686958
1300.01616943,0.01703336
1301.94497681,0.01713391
1303.87378418,0.01712598
1305.80259155,0.01719547
1307.73139893,0.01757677
1309.66020630,0.01788266
1311.58901367,0.01808205
1313.51782104,0.01843665
1315.44662842,0.01890485
1317.37543579,0.01929808
1319.30424316,0.01968383
1321.23305054,0.02045445
1323.16185791,0.02105509
1325.09066528,0.02166316
1327.01947266,0.02225053
1328.94828003,0.02275950
1330.87708740,0.02329692
1332.80589478,0.02367381
1334.73470215,0.02442414
1336.66350952,0.02448919
1338.59231689,0.02399017
1340.52112427,0.02450843
1342.44993164,0.02554524
1344.37873901,0.02584663
1346.30754639,0.02570104
1348.23635376,0.02553782
1350.16516113,0.02534966
1352.09396851,0.02549472
1354.02277588,0.02499755
1355.95158325,0.02464229
1357.88039062,0.02476122
1359.80919800,0.02432286
1361.73800537,0.02316608
1363.66681274,0.02265448
1365.59562012,0.02401972
1367.52442749,0.02339539
1369.45323486,0.02299982
1371.38204224,0.02363155
1373.31084961,0.02187930
1375.23965698,0.02216065
1377.16846436,0.02315969
1379.09727173,0.02305593
1381.02607910,0.02300997
1382.95488647,0.02301641
1384.88369385,0.02299419
1386.81250122,0.02154965
1388.74130859,0.02214367
1390.67011597,0.02423681
1392.59892334,0.02342027
1394.52773071,0.02156491
1396.45653809,0.02278713
1398.38534546,0.02289915
1400.31415283,0.02242924
1402.24296021,0.02479244
1404.17176758,0.02307666
1406.10057495,0.02297640
1408.02938232,0.02445364
1409.95818970,0.02337991
1411.88699707,0.02406705
1413.81580444,0.02308130
1415.74461182,0.02334414
1417.67341919,0.02066704
1419.60222656,0.01823629
1421.53103394,0.02175758
1423.45984131,0.02081206
1425.38864868,0.02028397
1427.31745605,0.02106173
1429.24626343,0.01921911
1431.17507080,0.01850798
1433.10387817,0.01904925
1435.03268555,0.01707797
1436.96149292,0.01418293
1438.89030029,0.01673958
1440.81910767,0.01700910
1442.74791504,0.01582977
1444.67672241,0.01679706
1446.60552979,0.01512397
1448.53433716,0.01551106
1450.46314453,0.01595962
1452.39195190,0.01633277
1454.32075928,0.01685292
1456.24956665,0.01324757
1458.17837402,0.01388719
1460.10718140,0.01914173
1462.03598877,0.02051795
1463.96479614,0.02027693
1465.89360352,0.02090391
1467.82241089,0.02420425
1469.75121826,0.02590178
1471.68002563,0.02223679
1473.60883301,0.02381288
1475.53764038,0.02723431
1477.46644775,0.02942359
1479.39525513,0.03286114
1481.32406250,0.03290433
1483.25286987,0.03511689
1485.18167725,0.03600409
1487.11048462,0.03498547
1489.03929199,0.03434216
1490.96809937,0.03444994
1492.89690674,0.04131788
1494.82571411,0.03976743
1496.75452148,0.03498353
1498.68332886,0.04020753
1500.61213623,0.04158018
1502.54094360,0.04498171
1504.46975098,0.04175531
1506.39855835,0.02837409
1508.32736572,0.03584907
1510.25617310,0.04341119
1512.18498047,0.04200225
1514.11378784,0.04607463
1516.04259521,0.04034202
1517.97140259,0.04224378
1519.90020996,0.04087064
1521.82901733,0.03413465
1523.75782471,0.04361612
1525.68663208,0.04253903
1527.61543945,0.04234789
1529.54424683,0.04808059
1531.47305420,0.04545477
1533.40186157,0.04085670
1535.33066895,0.04398094
1537.25947632,0.04762466
1539.18828369,0.03196999
1541.11709106,0.03383277
1543.04589844,0.04161197
1544.97470581,0.03955992
1546.90351318,0.04887111
1548.83232056,0.04445682
1550.76112793,0.04603950
1552.68993530,0.04604854
1554.61874268,0.04076341
1556.54755005,0.04436190
1558.47635742,0.02883132
1560.40516479,0.03199504
1562.33397217,0.04880822
1564.26277954,0.04525217
1566.19158691,0.04707423
1568.12039429,0.04625796
1570.04920166,0.04003970
1571.97800903,0.04769881
1573.90681641,0.04796365
1575.83562378,0.03657450
1577.76443115,0.04243123
1579.69323853,0.04865764
1581.62204590,0.04629652
1583.55085327,0.04758209
1585.47966064,0.04682580
1587.40846802,0.04730664
1589.33727539,0.04672316
1591.26608276,0.04681714
1593.19489014,0.04680236
1595.12369751,0.04593176
1597.05250488,0.04683302
1598.98131226,0.04648907
1600.91011963,0.04654865
1602.83892700,0.04552437
1604.76773437,0.04657608
1606.69654175,0.04592943
1608.62534912,0.04569612
1610.55415649,0.04571247
1612.48296387,0.04608973
1614.41177124,0.04667137
1616.34057861,0.03708182
1618.26938599,0.04082029
1620.19819336,0.04872263
1622.12700073,0.04243038
1624.05580811,0.04260619
1625.98461548,0.04553106
1627.91342285,0.04510514
1629.84223022,0.04497388
1631.77103760,0.04895545
1633.69984497,0.04438777
1635.62865234,0.03554880
1637.55745972,0.04269343
1639.48626709,0.04796875
1641.41507446,0.04684463
1643.34388184,0.04848036
1645.27268921,0.04303316
1647.20149658,0.03672272
1649.13030396,0.04790881
1651.05911133,0.04515049
1652.98791870,0.02651075
1654.91672607,0.03867167
1656.84553345,0.05055385
1658.77434082,0.04840529
1660.70314819,0.04975133
1662.63195557,0.04443154
1664.56076294,0.04761622
1666.48957031,0.05185165
1668.41837769,0.04371126
1670.34718506,0.04237581
1672.27599243,0.04965751
1674.20479980,0.04499938
1676.13360718,0.04317996
1678.06241455,0.05088495
1679.99122192,0.04846702
1681.92002930,0.04783008
1683.84883667,0.03723312
1685.77764404,0.03720134
1687.70645142,0.05370827
1689.63525879,0.04528571
1691.56406616,0.05103940
1693.49287354,0.05193836
1695.42168091,0.03589733
1697.35048828,0.04623558
1699.27929565,0.03913946
1701.20810303,0.03473736
1703.13691040,0.05029817
1705.06571777,0.04508528
1706.99452515,0.04590651
1708.92333252,0.05073252
1710.85213989,0.04833487
1712.78094727,0.04937435
1714.70975464,0.04507257
1716.63856201,0.03962623
1718.56736938,0.03900487
1720.49617676,0.04779659
1722.42498413,0.04999136
1724.35379150,0.04577331
1726.28259888,0.05053866
1728.21140625,0.04606833
1730.14021362,0.04657762
1732.06902100,0.04522710
1733.99782837,0.03248872
1735.92663574,0.04277113
1737.85544312,0.04786202
1739.78425049,0.04158242
1741.71305786,0.04630131
1743.64186523,0.04643495
1745.57067261,0.04655463
1747.49947998,0.04709219
1749.42828735,0.04436623
1751.35709473,0.04227090
1753.28590210,0.04805957
1755.21470947,0.05050204
1757.14351685,0.04499476
1759.07232422,0.05061118
1761.00113159,0.04674158
1762.92993896,0.04501586
1764.85874634,0.05308912
1766.78755371,0.04649534
1768.71636108,0.04723931
1770.64516846,0.04665834
1772.57397583,0.04113820
1774.50278320,0.04697859
1776.43159058,0.04991670
1778.36039795,0.04936723
1780.28920532,0.04828245
1782.21801270,0.04899674
1784.14682007,0.04901982
1786.07562744,0.04780595
1788.00443481,0.05105550
1789.93324219,0.04907293
1791.86204956,0.04329583
1793.79085693,0.04578122
1795.71966431,0.04998067
1797.64847168,0.04913331
1799.57727905,0.04818999
1801.50608643,0.04717846
1803.43489380,0.04893482
1805.36370117,0.05037168
1807.29250854,0.04949110
1809.22131592,0.04961219
1811.15012329,0.04796449
1813.07893066,0.04983474
1815.00773804,0.05034139
1816.93654541,0.04953698
1818.86535278,0.05000275
1820.79416016,0.04985831
1822.72296753,0.05053975
1824.65177490,0.04649992
1826.58058228,0.04872212
1828.50938965,0.04877976
1830.43819702,0.04509961
1832.36700439,0.05001795
1834.29581177,0.04961435
1836.22461914,0.04944367
1838.15342651,0.04927675
1840.08223389,0.04976820
1842.01104126,0.04964773
1843.93984863,0.04310153
1845.86865601,0.04656521
1847.79746338,0.04947910
1849.72627075,0.04843710
1851.65507812,0.05001698
1853.58388550,0.04895966
1855.51269287,0.04958327
1857.44150024,0.04889581
1859.37030762,0.04867770
1861.29911499,0.04920264
1863.22792236,0.04855646
1865.15672974,0.04910715
1867.08553711,0.04703122
1869.01434448,0.04469912
1870.94315186,0.04703225
1872.87195923,0.04916339
1874.80076660,0.04810343
1876.72957397,0.04855334
1878.65838135,0.04821299
1880.58718872,0.04795814
1882.51599609,0.04855385
1884.44480347,0.04749297
1886.37361084,0.04842155
1888.30241821,0.04694675
1890.23122559,0.04586827
1892.16003296,0.04811130
1894.08884033,0.04723507
1896.01764771,0.04692148
1897.94645508,0.04759666
1899.87526245,0.04743089
1901.80406982,0.04733257
1903.73287720,0.04699003
1905.66168457,0.04736928
1907.59049194,0.04666734
1909.51929932,0.04644483
1911.44810669,0.04681265
1913.37691406,0.04678741
1915.30572144,0.04727400
1917.23452881,0.04477816
1919.16333618,0.04491093
1921.09214355,0.04690538
1923.02095093,0.04510294
1924.94975830,0.04628878
1926.87856567,0.04664766
1928.80737305,0.04599977
1930.73618042,0.04680666
1932.66498779,0.04582864
1934.59379517,0.04661451
1936.52260254,0.04631636
1938.45140991,0.04625824
1940.38021729,0.04629724
1942.30902466,0.04432591
1944.23783203,0.04526854
1946.16663940,0.04594524
1948.09544678,0.04580548
1950.02425415,0.04610864
1951.95306152,0.04585151
1953.88186890,0.04568808
1955.81067627,0.04553168
1957.73948364,0.04577532
1959.66829102,0.04553147
1961.59709839,0.04543883
1963.52590576,0.04571445
1965.45471313,0.04533666
1967.38352051,0.04467153
1969.31232788,0.04528785
1971.24113525,0.04577943
1973.16994263,0.04521244
1975.09875000,0.04534400
1977.02755737,0.04503766
1978.95636475,0.04514870
1980.88517212,0.04502913
1982.81397949,0.04470483
1984.74278687,0.04506468
1986.67159424,0.04447531
1988.60040161,0.04453192
1990.52920898,0.04405465
1992.45801636,0.04348321
1994.38682373,0.04428339
1996.31563110,0.04443497
1998.24443848,0.04425997
2000.17324585,0.04413257
2002.10205322,0.04407974
2004.03086060,0.04392161
2005.95966797,0.04374991
2007.88847534,0.04368798
2009.81728271,0.04350270
2011.74609009,0.04329797
2013.67489746,0.04318519
2015.60370483,0.04293299
2017.53251221,0.04248818
2019.46131958,0.04286727
2021.39012695,0.04298117
2023.31893433,0.04265521
2025.24774170,0.04270618
2027.17654907,0.04257517
2029.10535645,0.04249795
2031.03416382,0.04222747
2032.96297119,0.04216208
2034.89177856,0.04217643
2036.82058594,0.04200122
2038.74939331,0.04201639
2040.67820068,0.04172551
2042.60700806,0.04156008
2044.53581543,0.04164938
2046.46462280,0.04158118
2048.39343018,0.04139264
2050.32223755,0.04122267
2052.25104492,0.04124034
2054.17985229,0.04116761
2056.10865967,0.04098962
2058.03746704,0.04089271
2059.96627441,0.04081804
2061.89508179,0.04082171
2063.82388916,0.04056423
2065.75269653,0.04042859
2067.68150391,0.04065742
2069.61031128,0.04040414
2071.53911865,0.04025535
2073.46792603,0.04025889
2075.39673340,0.04010944
2077.32554077,0.04000286
2079.25434814,0.03987061
2081.18315552,0.03993218
2083.11196289,0.03970515
2085.04077026,0.03971548
2086.96957764,0.03969345
2088.89838501,0.03947242
2090.82719238,0.03954393
2092.75599976,0.03921577
2094.68480713,0.03930708
2096.61361450,0.03930762
2098.54242187,0.03899211
2100.47122925,0.03899121
2102.40003662,0.03882036
2104.32884399,0.03893571
2106.25765137,0.03893216
2108.18645874,0.03877661
2110.11526611,0.03865594
2112.04407349,0.03857815
2113.97288086,0.03871442
2115.90168823,0.03852833
2117.83049561,0.03846438
2119.75930298,0.03852692
2121.68811035,0.03840317
2123.61691772,0.03838133
2125.54572510,0.03819330
2127.47453247,0.03813654
2129.40333984,0.03831492
2131.33214722,0.03812834
2133.26095459,0.03802764
2135.18976196,0.03794314
2137.11856934,0.03775845
2139.04737671,0.03791412
2140.97618408,0.03785457
2142.90499146,0.03774677
2144.83379883,0.03776342
2146.76260620,0.03771396
2148.69141357,0.03764944
2150.62022095,0.03759902
2152.54902832,0.03759173
2154.47783569,0.03747668
2156.40664307,0.03750691
2158.33545044,0.03740525
2160.26425781,0.03739010
2162.19306519,0.03746953
2164.12187256,0.03732490
2166.05067993,0.03729099
2167.97948730,0.03714884
2169.90829468,0.03717034
2171.83710205,0.03714993
2173.76590942,0.03706351
2175.69471680,0.03705231
2177.62352417,0.03696363
2179.55233154,0.03706311
2181.48113892,0.03706396
2183.40994629,0.03704333
2185.33875366,0.03688453
2187.26756104,0.03685246
2189.19636841,0.03691252
2191.12517578,0.03672337
2193.05398315,0.03676966
2194.98279053,0.03683923
2196.91159790,0.03674769
2198.84040527,0.03654063
2200.76921265,0.03663408
2202.69802002,0.03680452
2204.62682739,0.03668717
2206.55563477,0.03654432
2208.48444214,0.03641287
2210.41324951,0.03648164
2212.34205688,0.03640487
2214.27086426,0.03640769
2216.19967163,0.03634206
2218.12847900,0.03619278
2220.05728638,0.03642449
2221.98609375,0.03629168
2223.91490112,0.03614857
2225.84370850,0.03625073
2227.77251587,0.03613742
2229.70132324,0.03602426
2231.63013062,0.03600200
2233.55893799,0.03605494
2235.48774536,0.03605078
2237.41655273,0.03586636
2239.34536011,0.03583001
2241.27416748,0.03582561
2243.20297485,0.03571270
2245.13178223,0.03581343
2247.06058960,0.03557207
2248.98939697,0.03553456
2250.91820435,0.03582409
2252.84701172,0.03554400
2254.77581909,0.03545160
2256.70462646,0.03543532
2258.63343384,0.03537601
2260.56224121,0.03552489
2262.49104858,0.03546932
2264.41985596,0.03524064
2266.34866333,0.03518964
2268.27747070,0.03535900
2270.20627808,0.03531311
2272.13508545,0.03522486
2274.06389282,0.03511529
2275.99270020,0.03504001
2277.92150757,0.03509525
2279.85031494,0.03515044
2281.77912231,0.03508645
2283.70792969,0.03492213
2285.63673706,0.03508613
2287.56554443,0.03496788
2289.49435181,0.03474460
2291.42315918,0.03480563
2293.35196655,0.03471936
2295.28077393,0.03457768
2297.20958130,0.03437690
2299.13838867,0.03433733
2301.06719604,0.03426858
2302.99600342,0.03413220
2304.92481079,0.03396003
2306.85361816,0.03380043
2308.78242554,0.03368351
2310.71123291,0.03331488
2312.64004028,0.03308832
2314.56884766,0.03289954
2316.49765503,0.03256736
2318.42646240,0.03208807
2320.35526978,0.03168166
2322.28407715,0.03143886
2324.21288452,0.03100236
2326.14169189,0.03067003
2328.07049927,0.03047447
2329.99930664,0.03005961
2331.92811401,0.02965901
2333.85692139,0.02972195
2335.78572876,0.02954859
2337.71453613,0.02948134
2339.64334351,0.02971464
2341.57215088,0.02965659
2343.50095825,0.03019347
2345.42976562,0.03065483
2347.35857300,0.03157780
2349.28738037,0.03258748
2351.21618774,0.03152961
2353.14499512,0.03015952
2355.07380249,0.02920441
2357.00260986,0.02829444
2358.93141724,0.02791356
2360.86022461,0.02764946
2362.78903198,0.02753599
2364.71783936,0.02768595
2366.64664673,0.02795743
2368.57545410,0.02852742
2370.50426147,0.02927768
2372.43306885,0.02988681
2374.36187622,0.03070876
2376.29068359,0.03144126
2378.21949097,0.03195255
2380.14829834,0.03246500
2382.07710571,0.03275487
2384.00591309,0.03299568
2385.93472046,0.03302687
2387.86352783,0.03307123
2389.79233521,0.03308460
2391.72114258,0.03296625
2393.64994995,0.03297849
2395.57875732,0.03296989
2397.50756470,0.03291544
2399.43637207,0.03270853
2401.36517944,0.03279808
2403.29398682,0.03291017
2405.22279419,0.03272865
2407.15160156,0.03282474
2409.08040894,0.03277169
2411.00921631,0.03250287
2412.93802368,0.03259495
2414.86683105,0.03271942
2416.79563843,0.03255784
2418.72444580,0.03249042
2420.65325317,0.03249417
2422.58206055,0.03249354
2424.51086792,0.03238007
2426.43967529,0.03223912
2428.36848267,0.03228171
2430.29729004,0.03219617
2432.22609741,0.03220109
2434.15490479,0.03224704
2436.08371216,0.03229208
2438.01251953,0.03224130
2439.94132690,0.03201113
2441.87013428,0.03202004
2443.79894165,0.03207092
2445.72774902,0.03206738
2447.65655640,0.03192536
2449.58536377,0.03192940
2451.51417114,0.03188929
2453.44297852,0.03169357
2455.37178589,0.03181683
2457.30059326,0.03170780
2459.22940063,0.03167902
2461.15820801,0.03173881
2463.08701538,0.03160849
2465.01582275,0.03159717
2466.94463013,0.03149834
2468.87343750,0.03157384
2470.80224487,0.03164064
2472.73105225,0.03150330
2474.65985962,0.03149498
2476.58866699,0.03144561
2478.51747437,0.03130432
2480.44628174,0.03133193
2482.37508911,0.03134985
2484.30389648,0.03123311
2486.23270386,0.03117402
2488.16151123,0.03117113
2490.09031860,0.03117035
2492.01912598,0.03106418
2493.94793335,0.03104959
2495.87674072,0.03107423
2497.80554810,0.03094498
2499.73435547,0.03089297
2501.66316284,0.03100619
2503.59197021,0.03095152
2505.52077759,0.03076781
2507.44958496,0.03081613
2509.37839233,0.03075041
2511.30719971,0.03078705
2513.23600708,0.03072467
2515.16481445,0.03055696
2517.09362183,0.03062195
2519.02242920,0.03047898
2520.95123657,0.03060660
2522.88004395,0.03049311
2524.80885132,0.03044441
2526.73765869,0.03059447
2528.66646606,0.03026160
2530.59527344,0.03037243
2532.52408081,0.03036109
2534.45288818,0.03027035
2536.38169556,0.03025233
2538.31050293,0.03017445
2540.23931030,0.03026606
2542.16811768,0.03010510
2544.09692505,0.03020319
2546.02573242,0.03014985
2547.95453979,0.03001216
2549.88334717,0.03000517
2551.81215454,0.02985102
2553.74096191,0.02984011
2555.66976929,0.02989430
2557.59857666,0.02996610
2559.52738403,0.02981647
2561.45619141,0.02981731
2563.38499878,0.02971150
2565.31380615,0.02963833
2567.24261353,0.02979176
2569.17142090,0.02956453
2571.10022827,0.02949138
2573.02903564,0.02941871
2574.95784302,0.02943242
2576.88665039,0.02950232
2578.81545776,0.02948222
2580.74426514,0.02939190
2582.67307251,0.02912738
2584.60187988,0.02927950
2586.53068726,0.02925932
2588.45949463,0.02915579
2590.38830200,0.02914968
2592.31710937,0.02905058
2594.24591675,0.02906903
2596.17472412,0.02887702
2598.10353149,0.02890669
2600.03233887,0.02893010
2601.96114624,0.02883106
2603.88995361,0.02893089
2605.81876099,0.02887559
2607.74756836,0.02870817
2609.67637573,0.02861102
2611.60518311,0.02862070
2613.53399048,0.02859946
2615.46279785,0.02858251
2617.39160522,0.02852737
2619.32041260,0.02842518
2621.24921997,0.02834378
2623.17802734,0.02830739
2625.10683472,0.02830677
2627.03564209,0.02826040
2628.96444946,0.02831840
2630.89325684,0.02827777
2632.82206421,0.02819467
2634.75087158,0.02816045
2636.67967895,0.02805486
2638.60848633,0.02800271
2640.53729370,0.02801583
2642.46610107,0.02800727
2644.39490845,0.02787114
2646.32371582,0.02781389
2648.25252319,0.02772905
2650.18133057,0.02772745
2652.11013794,0.02779074
2654.03894531,0.02759291
2655.96775269,0.02757639
2657.89656006,0.02759835
2659.82536743,0.02753837
2661.75417480,0.02747465
2663.68298218,0.02735111
2665.61178955,0.02738110
2667.54059692,0.02735836
2669.46940430,0.02728770
2671.39821167,0.02726829
2673.32701904,0.02721444
2675.25582642,0.02710909
2677.18463379,0.02709026
2679.11344116,0.02705113
2681.04224854,0.02689039
2682.97105591,0.02698134
2684.89986328,0.02694808
2686.82867065,0.02677204
2688.75747803,0.02681108
2690.68628540,0.02672953
2692.61509277,0.02671202
2694.54390015,0.02663306
2696.47270752,0.02648870
2698.40151489,0.02657297
2700.33032227,0.02649469
2702.25912964,0.02645018
2704.18793701,0.02635863
2706.11674438,0.02618763
2708.04555176,0.02626211
2709.97435913,0.02621526
2711.90316650,0.02623220
2713.83197388,0.02621321
2715.76078125,0.02603473
2717.68958862,0.02596249
2719.61839600,0.02589044
2721.54720337,0.02597006
2723.47601074,0.02596138
2725.40481812,0.02582014
2727.33362549,0.02573195
2729.26243286,0.02568818
2731.19124023,0.02567014
2733.12004761,0.02560336
2735.04885498,0.02568478
2736.97766235,0.02561498
2738.90646973,0.02541057
2740.83527710,0.02537690
2742.76408447,0.02532098
2744.69289185,0.02525374
2746.62169922,0.02523157
2748.55050659,0.02519752
2750.47931396,0.02514078
2752.40812134,0.02514749
2754.33692871,0.02504545
2756.26573608,0.02490394
2758.19454346,0.02495617
2760.12335083,0.02494429
2762.05215820,0.02470995
2763.98096558,0.02455368
2765.90977295,0.02463303
2767.83858032,0.02453347
2769.76738770,0.02438221
2771.69619507,0.02436650
2773.62500244,0.02432970
2775.55380981,0.02430765
2777.48261719,0.02426628
2779.41142456,0.02425668
2781.34023193,0.02411642
2783.26903931,0.02401240
2785.19784668,0.02394838
2787.12665405,0.02385247
2789.05546143,0.02392866
2790.98426880,0.02385692
2792.91307617,0.02375967
2794.84188354,0.02367366
2796.77069092,0.02353276
2798.69949829,0.02346730
2800.62830566,0.02337494
2802.55711304,0.02335541
2804.48592041,0.02335584
2806.41472778,0.02335367
2808.34353516,0.02325555
2810.27234253,0.02304360
2812.20114990,0.02298883
2814.12995728,0.02294734
2816.05876465,0.02279792
2817.98757202,0.02281372
2819.91637939,0.02282402
2821.84518677,0.02268966
2823.77399414,0.02264073
2825.70280151,0.02253119
2827.63160889,0.02241752
2829.56041626,0.02227369
2831.48922363,0.02216981
2833.41803101,0.02219389
2835.34683838,0.02211094
2837.27564575,0.02205939
2839.20445312,0.02184431
2841.13326050,0.02167781
2843.06206787,0.02168484
2844.99087524,0.02149871
2846.91968262,0.02136040
2848.84848999,0.02129990
2850.77729736,0.02125644
2852.70610474,0.02125497
2854.63491211,0.02128961
2856.56371948,0.02124226
2858.49252686,0.02119461
2860.42133423,0.02111951
2862.35014160,0.02091330
2864.27894897,0.02094242
2866.20775635,0.02091593
2868.13656372,0.02082986
2870.06537109,0.02083143
2871.99417847,0.02070595
2873.92298584,0.02063361
2875.85179321,0.02052708
2877.78060059,0.02043859
2879.70940796,0.02044410
2881.63821533,0.02036894
2883.56702270,0.02019322
2885.49583008,0.02009994
2887.42463745,0.02004001
2889.35344482,0.01991827
2891.28225220,0.01990195
2893.21105957,0.01983903
2895.13986694,0.01971010
2897.06867432,0.01958513
2898.99748169,0.01947830
2900.92628906,0.01940515
2902.85509644,0.01934571
2904.78390381,0.01927748
2906.71271118,0.01920449
2908.64151855,0.01917630
2910.57032593,0.01899011
2912.49913330,0.01891233
2914.42794067,0.01886154
2916.35674805,0.01862689
2918.28555542,0.01859385
2920.21436279,0.01859854
2922.14317017,0.01858959
2924.07197754,0.01858072
2926.00078491,0.01855465
2927.92959229,0.01856415
2929.85839966,0.01854881
2931.78720703,0.01852740
2933.71601440,0.01848974
2935.64482178,0.01845469
2937.57362915,0.01826851
2939.50243652,0.01822611
2941.43124390,0.01830711
2943.36005127,0.01816327
2945.28885864,0.01805164
2947.21766602,0.01797270
2949.14647339,0.01793005
2951.07528076,0.01782358
2953.00408813,0.01765554
2954.93289551,0.01768393
2956.86170288,0.01760840
2958.79051025,0.01745216
2960.71931763,0.01745412
2962.64812500,0.01730026
2964.57693237,0.01715607
2966.50573975,0.01716914
2968.43454712,0.01712177
2970.36335449,0.01714645
2972.29216187,0.01699467
2974.22096924,0.01688017
2976.14977661,0.01696541
2978.07858398,0.01689781
2980.00739136,0.01685532
2981.93619873,0.01670956
2983.86500610,0.01661920
2985.79381348,0.01657854
2987.72262085,0.01645589
2989.65142822,0.01645921
2991.58023560,0.01632108
2993.50904297,0.01615231
2995.43785034,0.01616603
2997.36665771,0.01622833
2999.29546509,0.01611087
3001.22427246,0.01600368
3003.15307983,0.01585771
3005.08188721,0.01567016
3007.01069458,0.01571454
3008.93950195,0.01546548
3010.86830933,0.01537186
3012.79711670,0.01545368
3014.72592407,0.01527946
3016.65473145,0.01525798
3018.58353882,0.01516666
3020.51234619,0.01515043
3022.44115356,0.01504617
3024.36996094,0.01490253
3026.29876831,0.01494180
3028.22757568,0.01476389
3030.15638306,0.01464378
3032.08519043,0.01452994
3034.01399780,0.01447423
3035.94280518,0.01448379
3037.87161255,0.01433678
3039.80041992,0.01431488
3041.72922729,0.01423451
3043.65803467,0.01410485
3045.58684204,0.01406877
3047.51564941,0.01390073
3049.44445679,0.01379284
3051.37326416,0.01382027
3053.30207153,0.01373226
3055.23087891,0.01359166
3057.15968628,0.01348573
3059.08849365,0.01349493
3061.01730103,0.01351995
3062.94610840,0.01337075
3064.87491577,0.01321354
3066.80372314,0.01313693
3068.73253052,0.01312242
3070.66133789,0.01303638
3072.59014526,0.01295828
3074.51895264,0.01286762
3076.44776001,0.01273614
3078.37656738,0.01276052
3080.30537476,0.01263399
3082.23418213,0.01255820
3084.16298950,0.01256677
3086.09179687,0.01248924
3088.02060425,0.01248159
3089.94941162,0.01236209
3091.87821899,0.01236920
3093.80702637,0.01227290
3095.73583374,0.01212626
3097.66464111,0.01220216
3099.59344849,0.01203801
3101.52225586,0.01193498
3103.45106323,0.01196308
3105.37987061,0.01188789
3107.30867798,0.01179376
3109.23748535,0.01171442
3111.16629272,0.01163487
3113.09510010,0.01151088
3115.02390747,0.01151574
3116.95271484,0.01145565
3118.88152222,0.01141386
3120.81032959,0.01140371
3122.73913696,0.01119534
3124.66794434,0.01122639
3126.59675171,0.01118750
3128.52555908,0.01103236
3130.45436645,0.01110495
3132.38317383,0.01096927
3134.31198120,0.01083209
3136.24078857,0.01084282
3138.16959595,0.01089121
3140.09840332,0.01088741
3142.02721069,0.01080734
3143.95601807,0.01080611
3145.88482544,0.01062182
3147.81363281,0.01059777
3149.74244019,0.01061072
3151.67124756,0.01042169
3153.60005493,0.01041027
3155.52886230,0.01041036
3157.45766968,0.01038206
3159.38647705,0.01013971
3161.31528442,0.01015469
3163.24409180,0.01033074
3165.17289917,0.01022314
3167.10170654,0.01031613
3169.03051392,0.01025647
3170.95932129,0.01021696
3172.88812866,0.01012229
3174.81693604,0.01004585
3176.74574341,0.01015748
3178.67455078,0.00998494
3180.60335815,0.01002933
3182.53216553,0.00996070
3184.46097290,0.00986131
3186.38978027,0.00992506
3188.31858765,0.00993176
3190.24739502,0.00996947
3192.17620239,0.00981427
3194.10500977,0.00985543
3196.03381714,0.00974920
3197.96262451,0.00969277
3199.89143188,0.00974613
3201.82023926,0.00962577
3203.74904663,0.00975911
3205.67785400,0.00974565
3207.60666138,0.00976027
3209.53546875,0.00968517
3211.46427612,0.00964823
3213.39308350,0.00973006
3215.32189087,0.00961863
3217.25069824,0.00967550
3219.17950562,0.00966768
3221.10831299,0.00971413
3223.03712036,0.00965232
3224.96592773,0.00969016
3226.89473511,0.00978492
3228.82354248,0.00960928
3230.75234985,0.00965844
3232.68115723,0.00961167
3234.60996460,0.00972911
3236.53877197,0.00977259
3238.46757935,0.00960566
3240.39638672,0.00961866
3242.32519409,0.00955664
3244.25400146,0.00959890
3246.18280884,0.00957133
3248.11161621,0.00963828
3250.04042358,0.00964729
3251.96923096,0.00966229
3253.89803833,0.00973271
3255.82684570,0.00954349
3257.75565308,0.00964413
3259.68446045,0.00959745
3261.61326782,0.00955786
3263.54207520,0.00970792
3265.47088257,0.00967673
3267.39968994,0.00973326
3269.32849731,0.00960484
3271.25730469,0.00960978
3273.18611206,0.00973872
3275.11491943,0.00963949
3277.04372681,0.00963940
3278.97253418,0.00970149
3280.90134155,0.00967285
3282.83014893,0.00966588
3284.75895630,0.00977044
3286.68776367,0.00978776
3288.61657104,0.00975976
3290.54537842,0.00972851
3292.47418579,0.00969963
3294.40299316,0.00977233
3296.33180054,0.00974354
3298.26060791,0.00968982
3300.18941528,0.00969781
3302.11822266,0.00972744
3304.04703003,0.00980345
3305.97583740,0.00980850
3307.90464478,0.00978028
3309.83345215,0.00970357
3311.76225952,0.00971209
3313.69106689,0.00988625
3315.61987427,0.00984776
3317.54868164,0.00979432
3319.47748901,0.00983042
3321.40629639,0.00980070
3323.33510376,0.00988009
3325.26391113,0.00985652
3327.19271851,0.00985046
3329.12152588,0.00988705
3331.05033325,0.00983571
3332.97914062,0.00994797
3334.90794800,0.00994542
3336.83675537,0.00976972
3338.76556274,0.00981747
3340.69437012,0.00995972
3342.62317749,0.00985963
3344.55198486,0.00984183
3346.48079224,0.01001975
3348.40959961,0.00996871
3350.33840698,0.00983770
3352.26721436,0.00988377
3354.19602173,0.00989157
3356.12482910,0.00990621
3358.05363647,0.01000625
3359.98244385,0.00988236
3361.91125122,0.00995298
3363.84005859,0.01003171
3365.76886597,0.00991017
3367.69767334,0.01005951
3369.62648071,0.00997469
3371.55528809,0.00999921
3373.48409546,0.01006346
3375.41290283,0.00997021
3377.34171020,0.01004201
3379.27051758,0.01005351
3381.19932495,0.01018942
3383.12813232,0.00998127
3385.05693970,0.01002832
3386.98574707,0.01024526
3388.91455444,0.01002925
3390.84336182,0.01013315
3392.77216919,0.01010707
3394.70097656,0.01013190
3396.62978394,0.01018899
3398.55859131,0.01019478
3400.48739868,0.01029320
3402.41620605,0.01019599
3404.34501343,0.01031318
3406.27382080,0.01030214
3408.20262817,0.01029817
3410.13143555,0.01035337
3412.06024292,0.01027617
3413.98905029,0.01034523
3415.91785767,0.01043770
3417.84666504,0.01051180
3419.77547241,0.01036285
3421.70427979,0.01029201
3423.63308716,0.01043691
3425.56189453,0.01051835
3427.49070190,0.01052027
3429.41950928,0.01055051
3431.34831665,0.01057833
3433.27712402,0.01052384
3435.20593140,0.01055868
3437.13473877,0.01057797
3439.06354614,0.01058552
3440.99235352,0.01047450
3442.92116089,0.01046116
3444.84996826,0.01054013
3446.77877563,0.01045241
3448.70758301,0.01057016
3450.63639038,0.01066777
3452.56519775,0.01069127
3454.49400513,0.01067125
3456.42281250,0.01066208
3458.35161987,0.01079676
3460.28042725,0.01077521
3462.20923462,0.01066730
3464.13804199,0.01070764
3466.06684937,0.01076201
3467.99565674,0.01072680
3469.92446411,0.01090029
3471.85327148,0.01089276
3473.78207886,0.01078890
3475.71088623,0.01083857
3477.63969360,0.01082139
3479.56850098,0.01092778
3481.49730835,0.01080499
3483.42611572,0.01086211
3485.35492310,0.01099917
3487.28373047,0.01082438
3489.21253784,0.01087650
3491.14134521,0.01100796
3493.07015259,0.01108483
3494.99895996,0.01103721
3496.92776733,0.01096992
3498.85657471,0.01099097
3500.78538208,0.01103489
3502.71418945,0.01084346
3504.64299683,0.01092356
3506.57180420,0.01129260
3508.50061157,0.01105163
3510.42941895,0.01109709
3512.35822632,0.01127300
3514.28703369,0.01119993
3516.21584106,0.01120887
3518.14464844,0.01112777
3520.07345581,0.01126852
3522.00226318,0.01117543
3523.93107056,0.01102743
3525.85987793,0.01105919
3527.78868530,0.01109488
3529.71749268,0.01126515
3531.64630005,0.01136071
3533.57510742,0.01136637
3535.50391479,0.01128208
3537.43272217,0.01128383
3539.36152954,0.01138325
3541.29033691,0.01154109
3543.21914429,0.01156389
3545.14795166,0.01118715
3547.07675903,0.01091342
3549.00556641,0.01137341
3550.93437378,0.01155449
3552.86318115,0.01119075
3554.79198853,0.01154653
3556.72079590,0.01168038
3558.64960327,0.01153689
3560.57841064,0.01149257
3562.50721802,0.01146833
3564.43602539,0.01160326
3566.36483276,0.01061749
3568.29364014,0.01030394
3570.22244751,0.01148802
3572.15125488,0.01182107
3574.08006226,0.01164124
3576.00886963,0.01170338
3577.93767700,0.01170828
3579.86648437,0.01173671
3581.79529175,0.01168105
3583.72409912,0.01177364
3585.65290649,0.01144807
3587.58171387,0.01033466
3589.51052124,0.01086209
3591.43932861,0.01199907
3593.36813599,0.01150858
3595.29694336,0.01124618
3597.22575073,0.01162738
3599.15455811,0.01171645
3601.08336548,0.01156701
3603.01217285,0.01175523
3604.94098022,0.01193695
3606.86978760,0.01160138
3608.79859497,0.01079469
3610.72740234,0.01098021
3612.65620972,0.01137109
3614.58501709,0.01097992
3616.51382446,0.01196634
3618.44263184,0.01090191
3620.37143921,0.01048300
3622.30024658,0.01212049
3624.22905395,0.01173442
3626.15786133,0.01248322
3628.08666870,0.01028298
3630.01547607,0.00918901
3631.94428345,0.01208350
3633.87309082,0.01178131
3635.80189819,0.01207155
3637.73070557,0.01235664
3639.65951294,0.01221204
3641.58832031,0.01227003
3643.51712769,0.01214719
3645.44593506,0.01239217
3647.37474243,0.01084424
3649.30354980,0.00978963
3651.23235718,0.00993975
3653.16116455,0.01227381
3655.08997192,0.01212246
3657.01877930,0.01063590
3658.94758667,0.01265753
3660.87639404,0.01235346
3662.80520142,0.01257185
3664.73400879,0.01260257
3666.66281616,0.01256471
3668.59162354,0.01208665
3670.52043091,0.00946034
3672.44923828,0.01196719
3674.37804565,0.01123881
3676.30685303,0.00903691
3678.23566040,0.01191732
3680.16446777,0.01220760
3682.09327515,0.01231530
3684.02208252,0.01271741
3685.95088989,0.01254613
3687.87969727,0.01115150
3689.80850464,0.00999832
3691.73731201,0.01168998
3693.66611938,0.01214908
3695.59492676,0.01249927
3697.52373413,0.01253779
3699.45254150,0.01242413
3701.38134888,0.01199796
3703.31015625,0.01149719
3705.23896362,0.01282454
3707.16777100,0.01213074
3709.09657837,0.01182455
3711.02538574,0.01094779
3712.95419312,0.01015810
3714.88300049,0.01227161
3716.81180786,0.01221711
3718.74061523,0.01232216
3720.66942261,0.01185125
3722.59822998,0.01140089
3724.52703735,0.01188739
3726.45584473,0.01094526
3728.38465210,0.01209005
3730.31345947,0.01196167
3732.24226685,0.01083127
3734.17107422,0.01038104
3736.09988159,0.00969211
3738.02868896,0.01044818
3739.95749634,0.01160554
3741.88630371,0.01221886
3743.81511108,0.00907504
3745.74391846,0.00839335
3747.67272583,0.01143453
3749.60153320,0.00967126
3751.53034058,0.00862108
3753.45914795,0.01030777
3755.38795532,0.01129767
3757.31676270,0.01165575
3759.24557007,0.01073385
3761.17437744,0.01111660
3763.10318481,0.01198644
3765.03199219,0.01115099
3766.96079956,0.01129711
3768.88960693,0.01120030
3770.81841431,0.01064039
3772.74722168,0.01166910
3774.67602905,0.01170365
3776.60483643,0.01173154
3778.53364380,0.01132755
3780.46245117,0.01077175
3782.39125854,0.01169976
3784.32006592,0.01137155
3786.24887329,0.01125278
3788.17768066,0.01148692
3790.10648804,0.01146596
3792.03529541,0.01139647
3793.96410278,0.01153910
3795.89291016,0.01077931
3797.82171753,0.01045988
3799.75052490,0.01125570
3801.67933228,0.00860565
3803.60813965,0.01016626
3805.53694702,0.01135630
3807.46575439,0.00888427
3809.39456177,0.01119563
3811.32336914,0.01102650
3813.25217651,0.01139874
3815.18098389,0.01016877
3817.10979126,0.00864869
3819.03859863,0.01143464
3820.96740601,0.00882300
3822.89621338,0.00936197
3824.82502075,0.01130794
3826.75382812,0.00995226
3828.68263550,0.01093633
3830.61144287,0.01047549
3832.54025024,0.01003557
3834.46905762,0.01023178
3836.39786499,0.00969648
3838.32667236,0.00861223
3840.25547974,0.00934148
3842.18428711,0.01027901
3844.11309448,0.00968691
3846.04190186,0.01064875
3847.97070923,0.01056231
3849.89951660,0.01056695
3851.82832397,0.00943122
3853.75713135,0.00671419
3855.68593872,0.00807887
3857.61474609,0.01055009
3859.54355347,0.01026867
3861.47236084,0.00997655
3863.40116821,0.00981205
3865.32997559,0.00900359
3867.25878296,0.01026017
3869.18759033,0.00932918
3871.11639770,0.00838177
3873.04520508,0.01032780
3874.97401245,0.00927431
3876.90281982,0.01017133
3878.83162720,0.01048599
3880.76043457,0.00854354
3882.68924194,0.01026263
3884.61804932,0.00952090
3886.54685669,0.00843597
3888.47566406,0.01025371
3890.40447144,0.00961063
3892.33327881,0.00885225
3894.26208618,0.00990816
3896.19089355,0.01019626
3898.11970093,0.00958026
3900.04850830,0.00890775
3901.97731567,0.00887761
3903.90612305,0.00874912
3905.83493042,0.00877622
3907.76373779,0.00983110
3909.69254517,0.00993826
3911.62135254,0.00982535
3913.55015991,0.00999882
3915.47896728,0.00958008
3917.40777466,0.00929569
3919.33658203,0.00915452
3921.26538940,0.00955441
3923.19419678,0.00959740
3925.12300415,0.00935858
3927.05181152,0.00952860
3928.98061890,0.00961172
3930.90942627,0.00939306
3932.83823364,0.00894679
3934.76704102,0.00934011
3936.69584839,0.00959298
3938.62465576,0.00945986
3940.55346313,0.00951691
3942.48227051,0.00915108
3944.41107788,0.00923028
3946.33988525,0.00946151
3948.26869263,0.00916457
3950.19750000,0.00910443
3952.12630737,0.00932106
3954.05511475,0.00934893
3955.98392212,0.00931381
3957.91272949,0.00925281
3959.84153687,0.00923538
3961.77034424,0.00915669
3963.69915161,0.00914788
3965.62795898,0.00931322
3967.55676636,0.00915854
3969.48557373,0.00914210
3971.41438110,0.00912753
3973.34318848,0.00908909
3975.27199585,0.00912909
3977.20080322,0.00900420
3979.12961060,0.00905302
3981.05841797,0.00905456
3982.98722534,0.00909831
3984.91603271,0.00904124
3986.84484009,0.00905214
3988.77364746,0.00901463
3990.70245483,0.00887377
3992.63126221,0.00892919
3994.56006958,0.00884804
3996.48887695,0.00898077
3998.41768433,0.00887704
4000.34649170,0.00885797
4002.27529907,0.00888638
4004.20410645,0.00873702
4006.13291382,0.00885208
4008.06172119,0.00868581
4009.99052856,0.00881429
4011.91933594,0.00875180
4013.84814331,0.00861325
4015.77695068,0.00873283
4017.70575806,0.00860777
4019.63456543,0.00867798
4021.56337280,0.00857553
4023.49218018,0.00859754
4025.42098755,0.00855354
4027.34979492,0.00846995
4029.27860229,0.00858750
4031.20740967,0.00853520
4033.13621704,0.00856221
4035.06502441,0.00851143
4036.99383179,0.00855199
4038.92263916,0.00850362
4040.85144653,0.00848643
4042.78025391,0.00847935
4044.70906128,0.00830445
4046.63786865,0.00838682
4048.56667603,0.00838609
4050.49548340,0.00829343
4052.42429077,0.00831744
4054.35309814,0.00834192
4056.28190552,0.00819760
4058.21071289,0.00820548
4060.13952026,0.00820369
4062.06832764,0.00814925
4063.99713501,0.00825369
4065.92594238,0.00803307
4067.85474976,0.00808127
4069.78355713,0.00817768
4071.71236450,0.00804454
4073.64117187,0.00811093
4075.56997925,0.00809758
4077.49878662,0.00804091
4079.42759399,0.00803280
4081.35640137,0.00810646
4083.28520874,0.00802498
4085.21401611,0.00800254
4087.14282349,0.00801847
4089.07163086,0.00789295
4091.00043823,0.00791755
4092.92924561,0.00793999
4094.85805298,0.00791071
4096.78686035,0.00786388
4098.71566772,0.00789881
4100.64447510,0.00782324
4102.57328247,0.00778208
4104.50208984,0.00784089
4106.43089722,0.00782247
4108.35970459,0.00785856
4110.28851196,0.00775405
4112.21731934,0.00769315
4114.14612671,0.00770206
4116.07493408,0.00773720
4118.00374145,0.00765925
4119.93254883,0.00767089
4121.86135620,0.00771760
4123.79016357,0.00751344
4125.71897095,0.00764376
4127.64777832,0.00760449
4129.57658569,0.00753770
4131.50539307,0.00759715
4133.43420044,0.00743560
4135.36300781,0.00746637
4137.29181519,0.00743003
4139.22062256,0.00749170
4141.14942993,0.00752126
4143.07823730,0.00740478
4145.00704468,0.00742935
4146.93585205,0.00742956
4148.86465942,0.00740287
4150.79346680,0.00738448
4152.72227417,0.00733231
4154.65108154,0.00729438
4156.57988892,0.00734704
4158.50869629,0.00725773
4160.43750366,0.00730944
4162.36631103,0.00727075
4164.29511841,0.00713538
4166.22392578,0.00724087
4168.15273315,0.00713187
4170.08154053,0.00722209
4172.01034790,0.00721267
4173.93915527,0.00708969
4175.86796265,0.00714920
4177.79677002,0.00711833
4179.72557739,0.00717702
4181.65438477,0.00706542
4183.58319214,0.00707061
4185.51199951,0.00703071
4187.44080688,0.00697185
4189.36961426,0.00706320
4191.29842163,0.00692270
4193.22722900,0.00698626
4195.15603638,0.00701686
4197.08484375,0.00696102
4199.01365112,0.00698145
4200.94245850,0.00685747
4202.87126587,0.00685786
4204.80007324,0.00686110
4206.72888062,0.00673184
4208.65768799,0.00685084
4210.58649536,0.00690052
4212.51530273,0.00676094
4214.44411011,0.00689587
4216.37291748,0.00682654
4218.30172485,0.00678865
4220.23053223,0.00686896
4222.15933960,0.00674338
4224.08814697,0.00684086
4226.01695435,0.00679036
4227.94576172,0.00667436
4229.87456909,0.00666064
4231.80337646,0.00660833
4233.73218384,0.00662305
4235.66099121,0.00663081
4237.58979858,0.00663193
4239.51860596,0.00656598
4241.44741333,0.00660098
4243.37622070,0.00656878
4245.30502808,0.00649676
4247.23383545,0.00649058
4249.16264282,0.00645716
4251.09145020,0.00653485
4253.02025757,0.00649895
4254.94906494,0.00646816
4256.87787231,0.00647314
4258.80667969,0.00638110
4260.73548706,0.00630720
4262.66429443,0.00634309
4264.59310181,0.00649029
4266.52190918,0.00639883
4268.45071655,0.00627707
4270.37952393,0.00641173
4272.30833130,0.00639114
4274.23713867,0.00626933
4276.16594604,0.00629612
4278.09475342,0.00627084
4280.02356079,0.00622069
4281.95236816,0.00624113
4283.88117554,0.00627319
4285.80998291,0.00620338
4287.73879028,0.00617015
4289.66759766,0.00622956
4291.59640503,0.00613266
4293.52521240,0.00610606
4295.45401978,0.00609877
4297.38282715,0.00611604
4299.31163452,0.00611824
4301.24044189,0.00604043
4303.16924927,0.00610722
4305.09805664,0.00598559
4307.02686401,0.00599064
4308.95567139,0.00606298
4310.88447876,0.00600661
4312.81328613,0.00604359
4314.74209351,0.00597592
4316.67090088,0.00602271
4318.59970825,0.00596988
4320.52851562,0.00591817
4322.45732300,0.00600322
4324.38613037,0.00596014
4326.31493774,0.00589558
4328.24374512,0.00580050
4330.17255249,0.00578485
4332.10135986,0.00588887
4334.03016724,0.00591687
4335.95897461,0.00574471
4337.88778198,0.00585875
4339.81658936,0.00592510
4341.74539673,0.00575877
4343.67420410,0.00584514
4345.60301147,0.00573605
4347.53181885,0.00576555
4349.46062622,0.00578133
4351.38943359,0.00561440
4353.31824097,0.00566521
4355.24704834,0.00561839
4357.17585571,0.00562977
4359.10466309,0.00563751
4361.03347046,0.00558440
4362.96227783,0.00559889
4364.89108520,0.00565468
4366.81989258,0.00563711
4368.74869995,0.00556737
4370.67750732,0.00555347
4372.60631470,0.00551129
4374.53512207,0.00550753
4376.46392944,0.00547850
4378.39273682,0.00553485
4380.32154419,0.00552857
4382.25035156,0.00550307
4384.17915894,0.00546858
4386.10796631,0.00540218
4388.03677368,0.00550075
4389.96558105,0.00542459
4391.89438843,0.00545908
4393.82319580,0.00541089
4395.75200317,0.00529473
4397.68081055,0.00535548
4399.60961792,0.00529092
4401.53842529,0.00536165
4403.46723267,0.00537270
4405.39604004,0.00534892
4407.32484741,0.00525999
4409.25365478,0.00526489
4411.18246216,0.00531788
4413.11126953,0.00520318
4415.04007690,0.00527570
4416.96888428,0.00520083
4418.89769165,0.00523757
4420.82649902,0.00526722
4422.75530640,0.00517657
4424.68411377,0.00518769
4426.61292114,0.00509939
4428.54172852,0.00515067
4430.47053589,0.00511143
4432.39934326,0.00514606
4434.32815063,0.00510623
4436.25695801,0.00494505
4438.18576538,0.00505036
4440.11457275,0.00510171
4442.04338013,0.00509986
4443.97218750,0.00505781
4445.90099487,0.00508400
4447.82980225,0.00504262
4449.75860962,0.00499764
4451.68741699,0.00507690
4453.61622437,0.00498976
4455.54503174,0.00494734
4457.47383911,0.00494567
4459.40264648,0.00494125
4461.33145386,0.00492795
4463.26026123,0.00486004
4465.18906860,0.00486258
4467.11787598,0.00489208
4469.04668335,0.00483697
4470.97549072,0.00480302
4472.90429810,0.00482923
4474.83310547,0.00480144
4476.76191284,0.00485489
4478.69072021,0.00487451
4480.61952759,0.00482197
4482.54833496,0.00475778
4484.47714233,0.00472061
4486.40594971,0.00477773
4488.33475708,0.00475666
4490.26356445,0.00472088
4492.19237183,0.00472495
4494.12117920,0.00473783
4496.04998657,0.00471102
4497.97879395,0.00468128
4499.90760132,0.00467210
4501.83640869,0.00465719
4503.76521606,0.00458191
4505.69402344,0.00458445
4507.62283081,0.00470489
4509.55163818,0.00461207
4511.48044556,0.00462510
4513.40925293,0.00458602
4515.33806030,0.00455696
4517.26686768,0.00466774
4519.19567505,0.00453751
4521.12448242,0.00460097
4523.05328979,0.00455044
4524.98209717,0.00446764
4526.91090454,0.00452799
4528.83971191,0.00450874
4530.76851929,0.00449459
4532.69732666,0.00440544
4534.62613403,0.00450523
4536.55494141,0.00444084
4538.48374878,0.00446606
4540.41255615,0.00450177
4542.34136353,0.00434489
4544.27017090,0.00445548
4546.19897827,0.00434720
4548.12778564,0.00428386
4550.05659302,0.00437786
4551.98540039,0.00438726
4553.91420776,0.00429936
4555.84301514,0.00428370
4557.77182251,0.00433937
4559.70062988,0.00424446
4561.62943726,0.00438436
4563.55824463,0.00435331
4565.48705200,0.00424538
4567.41585937,0.00421886
4569.34466675,0.00415161
4571.27347412,0.00418356
4573.20228149,0.00412529
4575.13108887,0.00425246
4577.05989624,0.00423041
4578.98870361,0.00415232
4580.91751099,0.00415225
4582.84631836,0.00413373
4584.77512573,0.00424696
4586.70393311,0.00408527
4588.63274048,0.00405043
4590.56154785,0.00413582
4592.49035522,0.00403881
4594.41916260,0.00406840
4596.34796997,0.00414818
4598.27677734,0.00408112
4600.20558472,0.00404336
4602.13439209,0.00408202
4604.06319946,0.00404153
4605.99200684,0.00403058
4607.92081421,0.00394236
4609.84962158,0.00399851
4611.77842895,0.00410280
4613.70723633,0.00401086
4615.63604370,0.00396234
4617.56485107,0.00395775
4619.49365845,0.00399224
4621.42246582,0.00391837
4623.35127319,0.00387173
4625.28008057,0.00385818
4627.20888794,0.00394335
4629.13769531,0.00396395
4631.06650269,0.00386272
4632.99531006,0.00394234
4634.92411743,0.00384030
4636.85292480,0.00389535
4638.78173218,0.00387696
4640.71053955,0.00373754
4642.63934692,0.00381182
4644.56815430,0.00375312
4646.49696167,0.00382694
4648.42576904,0.00378493
4650.35457642,0.00378101
4652.28338379,0.00382834
4654.21219116,0.00380074
4656.14099853,0.00379877
4658.06980591,0.00368698
4659.99861328,0.00378879
4661.92742065,0.00370697
4663.85622803,0.00368080
4665.78503540,0.00371710
4667.71384277,0.00360602
4669.64265015,0.00370498
4671.57145752,0.00368268
4673.50026489,0.00367975
4675.42907227,0.00360504
4677.35787964,0.00361003
4679.28668701,0.00371424
4681.21549438,0.00360717
4683.14430176,0.00358299
4685.07310913,0.00356083
4687.00191650,0.00360462
4688.93072388,0.00360411
4690.85953125,0.00352319
4692.78833862,0.00354220
4694.71714600,0.00354514
4696.64595337,0.00353496
4698.57476074,0.00353736
4700.50356812,0.00351747
4702.43237549,0.00349063
4704.36118286,0.00351201
4706.28999023,0.00348173
4708.21879761,0.00349647
4710.14760498,0.00345692
4712.07641235,0.00340793
4714.00521973,0.00345275
4715.93402710,0.00340343
4717.86283447,0.00348574
4719.79164185,0.00346303
4721.72044922,0.00335520
4723.64925659,0.00341219
4725.57806396,0.00341465
4727.50687134,0.00341455
4729.43567871,0.00338762
4731.36448608,0.00332599
4733.29329346,0.00333218
4735.22210083,0.00340582
4737.15090820,0.00336863
4739.07971558,0.00328978
4741.00852295,0.00329390
4742.93733032,0.00334673
4744.86613770,0.00339452
4746.79494507,0.00328780
4748.72375244,0.00326782
4750.65255981,0.00328870
4752.58136719,0.00327099
4754.51017456,0.00326516
4756.43898193,0.00322000
4758.36778931,0.00326239
4760.29659668,0.00321045
4762.22540405,0.00319986
4764.15421143,0.00322609
4766.08301880,0.00312049
4768.01182617,0.00318115
4769.94063354,0.00328217
4771.86944092,0.00321591
4773.79824829,0.00318158
4775.72705566,0.00318119
4777.65586304,0.00311922
4779.58467041,0.00315385
4781.51347778,0.00316036
4783.44228516,0.00312215
4785.37109253,0.00313830
4787.29989990,0.00309154
4789.22870728,0.00309386
4791.15751465,0.00310936
4793.08632202,0.00313183
4795.01512939,0.00313152
4796.94393677,0.00306954
4798.87274414,0.00305464
4800.80155151,0.00304502
4802.73035889,0.00304831
4804.65916626,0.00299825
4806.58797363,0.00296854
4808.51678101,0.00300256
4810.44558838,0.00300036
4812.37439575,0.00301335
4814.30320312,0.00299057
4816.23201050,0.00295230
4818.16081787,0.00296232
4820.08962524,0.00294381
4822.01843262,0.00298039
4823.94723999,0.00304915
4825.87604736,0.00295490
4827.80485474,0.00290480
4829.73366211,0.00292277
4831.66246948,0.00291972
4833.59127686,0.00295085
4835.52008423,0.00293482
4837.44889160,0.00297534
4839.37769897,0.00288531
4841.30650635,0.00278349
4843.23531372,0.00284779
4845.16412109,0.00284384
4847.09292847,0.00284182
4849.02173584,0.00278382
4850.95054321,0.00282741
4852.87935059,0.00287167
4854.80815796,0.00283317
4856.73696533,0.00286764
4858.66577270,0.00279148
4860.59458008,0.00282576
4862.52338745,0.00275637
4864.45219482,0.00268609
4866.38100220,0.00282202
4868.30980957,0.00270483
4870.23861694,0.00270585
4872.16742432,0.00278900
4874.09623169,0.00272008
4876.02503906,0.00276112
4877.95384644,0.00279359
4879.88265381,0.00276237
4881.81146118,0.00272162
4883.74026855,0.00270864
4885.66907593,0.00263106
4887.59788330,0.00260596
4889.52669067,0.00266980
4891.45549805,0.00265715
4893.38430542,0.00267223
4895.31311279,0.00259941
4897.24192017,0.00260875
4899.17072754,0.00271951
4901.09953491,0.00264694
4903.02834228,0.00260972
4904.95714966,0.00261687
4906.88595703,0.00263036
4908.81476440,0.00260473
4910.74357178,0.00253788
4912.67237915,0.00262639
4914.60118652,0.00261120
4916.52999390,0.00247845
4918.45880127,0.00253812
4920.38760864,0.00261504
4922.31641602,0.00255176
4924.24522339,0.00250422
4926.17403076,0.00253878
4928.10283813,0.00254710
4930.03164551,0.00245602
4931.96045288,0.00246077
4933.88926025,0.00247398
4935.81806763,0.00239954
4937.74687500,0.00250328
4939.67568237,0.00251027
4941.60448975,0.00250291
4943.53329712,0.00253160
4945.46210449,0.00237379
4947.39091187,0.00243169
4949.31971924,0.00245278
4951.24852661,0.00246387
4953.17733398,0.00252070
4955.10614136,0.00239684
4957.03494873,0.00244111
4958.96375610,0.00244122
4960.89256348,0.00250500
4962.82137085,0.00249783
4964.75017822,0.00235636
4966.67898560,0.00246015
4968.60779297,0.00236222
4970.53660034,0.00234594
4972.46540771,0.00239336
4974.39421509,0.00230630
4976.32302246,0.00239338
4978.25182983,0.00232501
4980.18063721,0.00228142
4982.10944458,0.00228681
4984.03825195,0.00227732
4985.96705933,0.00234662
4987.89586670,0.00229684
4989.82467407,0.00232386
4991.75348145,0.00226969
4993.68228882,0.00222318
4995.61109619,0.00229578
4997.53990356,0.00225403
4999.46871094,0.00230691
5001.39751831,0.00223689
5003.32632568,0.00220689
5005.25513306,0.00232765
5007.18394043,0.00221660
5009.11274780,0.00224619
5011.04155518,0.00228629
5012.97036255,0.00218168
5014.89916992,0.00220336
5016.82797729,0.00221349
5018.75678467,0.00225092
5020.68559204,0.00224881
5022.61439941,0.00217048
5024.54320679,0.00217343
5026.47201416,0.00221252
5028.40082153,0.00216298
5030.32962891,0.00209251
5032.25843628,0.00210139
5034.18724365,0.00210473
5036.11605103,0.00209472
5038.04485840,0.00208881
5039.97366577,0.00217015
5041.90247314,0.00211638
5043.83128052,0.00201073
5045.76008789,0.00214851
5047.68889526,0.00212110
5049.61770264,0.00207405
5051.54651001,0.00208197
5053.47531738,0.00203049
5055.40412476,0.00212937
5057.33293213,0.00209134
5059.26173950,0.00203096
5061.19054687,0.00209314
5063.11935425,0.00201813
5065.04816162,0.00196609
5066.97696899,0.00204582
5068.90577637,0.00201070
5070.83458374,0.00201273
5072.76339111,0.00208905
5074.69219849,0.00198889
5076.62100586,0.00198615
5078.54981323,0.00198679
5080.47862061,0.00194560
5082.40742798,0.00199813
5084.33623535,0.00193962
5086.26504272,0.00190435
5088.19385010,0.00194980
5090.12265747,0.00197490
5092.05146484,0.00193260
5093.98027222,0.00196677
5095.90907959,0.00192962
5097.83788696,0.00186215
5099.76669434,0.00197932
5101.69550171,0.00187945
5103.62430908,0.00190901
5105.55311645,0.00197569
5107.48192383,0.00185615
5109.41073120,0.00192039
5111.33953857,0.00182315
5113.26834595,0.00185499
5115.19715332,0.00198714
5117.12596069,0.00186960
5119.05476807,0.00185448
5120.98357544,0.00188658
5122.91238281,0.00187270
5124.84119019,0.00182594
5126.76999756,0.00184228
5128.69880493,0.00188479
5130.62761230,0.00186538
5132.55641968,0.00186691
5134.48522705,0.00181913
5136.41403442,0.00177170
5138.34284180,0.00179634
5140.27164917,0.00183360
5142.20045654,0.00176130
5144.12926392,0.00171635
5146.05807129,0.00178234
5147.98687866,0.00180265
5149.91568603,0.00185735
5151.84449341,0.00184897
5153.77330078,0.00178978
5155.70210815,0.00181428
5157.63091553,0.00176930
5159.55972290,0.00174102
5161.48853027,0.00174990
5163.41733765,0.00170139
5165.34614502,0.00173011
5167.27495239,0.00170573
5169.20375977,0.00160769
5171.13256714,0.00167259
5173.06137451,0.00172015
5174.99018188,0.00169810
5176.91898926,0.00173982
5178.84779663,0.00170771
5180.77660400,0.00167916
5182.70541138,0.00176310
5184.63421875,0.00172658
5186.56302612,0.00162425
5188.49183350,0.00166855
5190.42064087,0.00166722
5192.34944824,0.00164848
5194.27825562,0.00167435
5196.20706299,0.00162349
5198.13587036,0.00163309
5200.06467773,0.00167011
5201.99348511,0.00168557
5203.92229248,0.00166536
5205.85109985,0.00157857
5207.77990723,0.00157448
5209.70871460,0.00161331
5211.63752197,0.00158958
5213.56632935,0.00157485
5215.49513672,0.00163383
5217.42394409,0.00166013
5219.35275146,0.00162686
5221.28155884,0.00164396
5223.21036621,0.00168168
5225.13917358,0.00156006
5227.06798096,0.00149240
5228.99678833,0.00163320
5230.92559570,0.00154840
5232.85440308,0.00152971
5234.78321045,0.00162630
5236.71201782,0.00152894
5238.64082520,0.00154658
5240.56963257,0.00149364
5242.49843994,0.00149350
5244.42724731,0.00155511
5246.35605469,0.00155034
5248.28486206,0.00153752
5250.21366943,0.00141181
5252.14247681,0.00161459
5254.07128418,0.00158296
5256.00009155,0.00137749
5257.92889893,0.00156559
5259.85770630,0.00148300
5261.78651367,0.00148558
5263.71532104,0.00153817
5265.64412842,0.00142017
5267.57293579,0.00146749
5269.50174316,0.00140746
5271.43055054,0.00142117
5273.35935791,0.00151618
5275.28816528,0.00149233
5277.21697266,0.00150429
5279.14578003,0.00154224
5281.07458740,0.00148912
5283.00339478,0.00146105
5284.93220215,0.00149448
5286.86100952,0.00145513
5288.78981689,0.00144079
5290.71862427,0.00138425
5292.64743164,0.00140666
5294.57623901,0.00145189
5296.50504639,0.00135296
5298.43385376,0.00140336
5300.36266113,0.00144486
5302.29146851,0.00138026
5304.22027588,0.00136782
5306.14908325,0.00138127
5308.07789062,0.00138002
5310.00669800,0.00136132
5311.93550537,0.00138880
5313.86431274,0.00141788
5315.79312012,0.00138495
5317.72192749,0.00138437
5319.65073486,0.00142723
5321.57954224,0.00134471
5323.50834961,0.00133473
5325.43715698,0.00139434
5327.36596436,0.00131568
5329.29477173,0.00131047
5331.22357910,0.00140384
5333.15238647,0.00140365
5335.08119385,0.00129209
5337.01000122,0.00134506
5338.93880859,0.00134029
5340.86761597,0.00131894
5342.79642334,0.00142753
5344.72523071,0.00122631
5346.65403809,0.00124066
5348.58284546,0.00138728
5350.51165283,0.00135764
5352.44046020,0.00135484
5354.36926758,0.00121190
5356.29807495,0.00125559
5358.22688232,0.00129943
5360.15568970,0.00134614
5362.08449707,0.00139796
5364.01330444,0.00129159
5365.94211182,0.00134205
5367.87091919,0.00127148
5369.79972656,0.00124322
5371.72853394,0.00131514
5373.65734131,0.00132015
5375.58614868,0.00127317
5377.51495605,0.00118243
5379.44376343,0.00128060
5381.37257080,0.00128737
5383.30137817,0.00127458
5385.23018555,0.00125887
5387.15899292,0.00118190
5389.08780029,0.00122937
5391.01660767,0.00125525
5392.94541504,0.00126592
5394.87422241,0.00117375
5396.80302978,0.00122618
5398.73183716,0.00126865
5400.66064453,0.00114281
5402.58945190,0.00121755
5404.51825928,0.00121060
5406.44706665,0.00124090
5408.37587402,0.00125133
5410.30468140,0.00117084
5412.23348877,0.00122473
5414.16229614,0.00115059
5416.09110352,0.00119809
5418.01991089,0.00121083
5419.94871826,0.00112108
5421.87752563,0.00122586
5423.80633301,0.00115095
5425.73514038,0.00114618
5427.66394775,0.00123024
5429.59275513,0.00110274
5431.52156250,0.00111155
5433.45036987,0.00113257
5435.37917725,0.00109065
5437.30798462,0.00120455
5439.23679199,0.00121481
5441.16559936,0.00109033
5443.09440674,0.00112737
5445.02321411,0.00118326
5446.95202148,0.00114287
5448.88082886,0.00109917
5450.80963623,0.00104859
5452.73844360,0.00112468
5454.66725098,0.00116679
5456.59605835,0.00109584
5458.52486572,0.00110862
5460.45367310,0.00111865
5462.38248047,0.00111701
5464.31128784,0.00108697
5466.24009521,0.00110196
5468.16890259,0.00111661
5470.09770996,0.00105988
5472.02651733,0.00111062
5473.95532471,0.00106642
5475.88413208,0.00102682
5477.81293945,0.00110371
5479.74174683,0.00107957
5481.67055420,0.00106884
5483.59936157,0.00104139
5485.52816895,0.00104619
5487.45697632,0.00109698
5489.38578369,0.00104218
5491.31459106,0.00101198
5493.24339844,0.00102592
5495.17220581,0.00104782
5497.10101318,0.00108660
5499.02982056,0.00107931
5500.95862793,0.00106816
5502.88743530,0.00108642
5504.81624268,0.00107320
5506.74505005,0.00101299
5508.67385742,0.00099723
5510.60266479,0.00105020
5512.53147217,0.00100815
5514.46027954,0.00092757
5516.38908691,0.00100612
5518.31789429,0.00104216
5520.24670166,0.00098009
5522.17550903,0.00103263
5524.10431641,0.00103583
5526.03312378,0.00094631
5527.96193115,0.00097088
5529.89073853,0.00097764
5531.81954590,0.00092926
5533.74835327,0.00098073
5535.67716064,0.00100199
5537.60596802,0.00097791
5539.53477539,0.00099679
5541.46358276,0.00097033
5543.39239014,0.00095015
5545.32119751,0.00094033
5547.25000488,0.00091982
5549.17881226,0.00097269
5551.10761963,0.00097793
5553.03642700,0.00091979
5554.96523437,0.00093756
5556.89404175,0.00097305
5558.82284912,0.00096616
5560.75165649,0.00094534
5562.68046387,0.00092363
5564.60927124,0.00093009
5566.53807861,0.00097020
5568.46688599,0.00095449
5570.39569336,0.00093370
5572.32450073,0.00100512
5574.25330811,0.00097268
5576.18211548,0.00086502
5578.11092285,0.00089963
5580.03973022,0.00093802
5581.96853760,0.00092921
5583.89734497,0.00095331
5585.82615234,0.00091028
5587.75495972,0.00090044
5589.68376709,0.00096927
5591.61257446,0.00090350
5593.54138184,0.00086039
5595.47018921,0.00090736
5597.39899658,0.00089113
5599.32780395,0.00088141
5601.25661133,0.00089188
5603.18541870,0.00092890
5605.11422607,0.00087475
5607.04303345,0.00080152
5608.97184082,0.00086425
5610.90064819,0.00086832
5612.82945557,0.00083289
5614.75826294,0.00086606
5616.68707031,0.00092944
5618.61587769,0.00088623
5620.54468506,0.00080476
5622.47349243,0.00080979
5624.40229980,0.00078210
5626.33110718,0.00079467
5628.25991455,0.00083984
5630.18872192,0.00084674
5632.11752930,0.00082726
5634.04633667,0.00081386
5635.97514404,0.00085909
5637.90395142,0.00086479
5639.83275879,0.00078128
5641.76156616,0.00074579
5643.69037353,0.00084441
5645.61918091,0.00084658
5647.54798828,0.00079544
5649.47679565,0.00083484
5651.40560303,0.00084004
5653.33441040,0.00080469
5655.26321777,0.00078634
5657.19202515,0.00085301
5659.12083252,0.00083912
5661.04963989,0.00084435
5662.97844727,0.00088297
5664.90725464,0.00078732
5666.83606201,0.00081183
5668.76486938,0.00079846
5670.69367676,0.00075720
5672.62248413,0.00083119
5674.55129150,0.00082426
5676.48009888,0.00078796
5678.40890625,0.00080372
5680.33771362,0.00080646
5682.26652100,0.00075010
5684.19532837,0.00078066
5686.12413574,0.00080009
5688.05294311,0.00078470
5689.98175049,0.00078781
5691.91055786,0.00074337
5693.83936523,0.00078654
5695.76817261,0.00072211
5697.69697998,0.00069175
5699.62578735,0.00079738
5701.55459473,0.00073056
5703.48340210,0.00072674
5705.41220947,0.00076227
5707.34101685,0.00070299
5709.26982422,0.00073890
5711.19863159,0.00071380
5713.12743896,0.00063266
5715.05624634,0.00069188
5716.98505371,0.00071743
5718.91386108,0.00070977
5720.84266846,0.00072232
5722.77147583,0.00076833
5724.70028320,0.00084604
5726.62909058,0.00072908
5728.55789795,0.00064724
5730.48670532,0.00070428
5732.41551270,0.00071554
5734.34432007,0.00070270
5736.27312744,0.00068466
5738.20193481,0.00071060
5740.13074219,0.00068365
5742.05954956,0.00065881
5743.98835693,0.00067147
5745.91716431,0.00070571
5747.84597168,0.00073275
5749.77477905,0.00069860
5751.70358643,0.00074059
5753.63239380,0.00072633
5755.56120117,0.00065986
5757.49000854,0.00059178
5759.41881592,0.00061060
5761.34762329,0.00073345
5763.27643066,0.00067736
5765.20523804,0.00064561
5767.13404541,0.00064701
5769.06285278,0.00064466
5770.99166016,0.00068711
5772.92046753,0.00061459
5774.84927490,0.00064176
5776.77808228,0.00066272
5778.70688965,0.00066090
5780.63569702,0.00073957
5782.56450439,0.00067239
5784.49331177,0.00061644
5786.42211914,0.00061661
5788.35092651,0.00066302
5790.27973389,0.00068047
5792.20854126,0.00061357
5794.13734863,0.00066208
5796.06615601,0.00059868
5797.99496338,0.00058993
5799.92377075,0.00066864
5801.85257812,0.00058403
5803.78138550,0.00061756
5805.71019287,0.00060140
5807.63900024,0.00060007
5809.56780762,0.00066393
5811.49661499,0.00061169
5813.42542236,0.00063096
5815.35422974,0.00062902
5817.28303711,0.00062497
5819.21184448,0.00057916
5821.14065186,0.00058695
5823.06945923,0.00064545
5824.99826660,0.00055119
5826.92707397,0.00059201
5828.85588135,0.00064208
5830.78468872,0.00057585
5832.71349609,0.00056227
5834.64230347,0.00058741
5836.57111084,0.00063178
5838.49991821,0.00062233
5840.42872559,0.00054417
5842.35753296,0.00053494
5844.28634033,0.00058154
5846.21514770,0.00053907
5848.14395508,0.00057342
5850.07276245,0.00059930
5852.00156982,0.00056372
5853.93037720,0.00059750
5855.85918457,0.00057992
5857.78799194,0.00057342
5859.71679932,0.00058810
5861.64560669,0.00057884
5863.57441406,0.00052493
5865.50322144,0.00056480
5867.43202881,0.00061500
5869.36083618,0.00053183
5871.28964355,0.00048941
5873.21845093,0.00052101
5875.14725830,0.00061592
5877.07606567,0.00053365
5879.00487305,0.00050291
5880.93368042,0.00056617
5882.86248779,0.00051874
5884.79129517,0.00055888
5886.72010254,0.00054255
5888.64890991,0.00057809
5890.57771728,0.00053208
5892.50652466,0.00051694
5894.43533203,0.00060357
5896.36413940,0.00053489
5898.29294678,0.00054420
5900.22175415,0.00051956
5902.15056152,0.00054115
5904.07936890,0.00049626
5906.00817627,0.00049354
5907.93698364,0.00057381
5909.86579102,0.00048948
5911.79459839,0.00052534
5913.72340576,0.00049093
5915.65221313,0.00049628
5917.58102051,0.00048775
5919.50982788,0.00049168
5921.43863525,0.00052353
5923.36744263,0.00043702
5925.29625000,0.00059945
5927.22505737,0.00052818
5929.15386475,0.00044129
5931.08267212,0.00049726
5933.01147949,0.00039749
5934.94028686,0.00050003
5936.86909424,0.00051490
5938.79790161,0.00045500
5940.72670898,0.00049069
5942.65551636,0.00048405
5944.58432373,0.00044837
5946.51313110,0.00050491
5948.44193848,0.00050441
5950.37074585,0.00043744
5952.29955322,0.00054628
5954.22836060,0.00051914
5956.15716797,0.00045773
5958.08597534,0.00043847
5960.01478271,0.00042404
5961.94359009,0.00046260
5963.87239746,0.00042083
5965.80120483,0.00044731
5967.73001221,0.00043089
5969.65881958,0.00044978
5971.58762695,0.00048926
5973.51643433,0.00045448
5975.44524170,0.00048822
5977.37404907,0.00047661
5979.30285645,0.00041972
5981.23166382,0.00042234
5983.16047119,0.00051136
5985.08927856,0.00045224
5987.01808594,0.00037260
5988.94689331,0.00045398
5990.87570068,0.00046143
5992.80450806,0.00045466
5994.73331543,0.00048985
5996.66212280,0.00052792
5998.59093018,0.00050069
6000.51973755,0.00044212
