399.26312622,0.00046800
401.19193359,0.00045321
403.12074097,0.00071702
405.04954834,0.00077253
406.97835571,0.00071575
408.90716309,0.00100466
410.83597046,0.00059845
412.76477783,0.00050925
414.69358521,0.00057029
416.62239258,0.00035793
418.55119995,0.00049988
420.48000732,0.00052521
422.40881470,0.00059806
424.33762207,0.00056563
426.26642944,0.00089122
428.19523682,0.00085529
430.12404419,0.00037583
432.05285156,0.00078450
433.98165894,0.00118274
435.91046631,0.00088806
437.83927368,0.00052773
439.76808105,0.00042963
441.69688843,0.00050511
443.62569580,0.00074501
445.55450317,0.00075919
447.48331055,0.00072319
449.41211792,0.00052168
451.34092529,0.00052846
453.26973267,0.00099784
455.19854004,0.00050925
457.12734741,0.00006632
459.05615479,0.00028413
460.98496216,0.00036390
462.91376953,0.00043086
464.84257690,0.00032345
466.77138428,0.00035813
468.70019165,0.00032577
470.62899902,0.00013116
472.55780640,0.00032110
474.48661377,0.00012664
476.41542114,-0.00023645
478.34422852,-0.00002448
480.27303589,0.00006326
482.20184326,-0.00004318
484.13065063,-0.00030275
486.05945801,0.00001436
487.98826538,0.00049530
489.91707275,0.00018142
491.84588013,0.00043349
493.77468750,0.00061980
495.70349487,-0.00015077
497.63230225,-0.00036323
499.56110962,-0.00013917
501.48991699,0.00014597
503.41872437,0.00027932
505.34753174,-0.00015938
507.27633911,-0.00013260
509.20514648,0.00034526
511.13395386,0.00011551
513.06276123,0.00002696
514.99156860,0.00009862
516.92037598,0.00013658
518.84918335,0.00037704
520.77799072,0.00006237
522.70679810,-0.00011805
524.63560547,-0.00014713
526.56441284,-0.00003653
528.49322021,0.00016135
530.42202759,-0.00006076
532.35083496,0.00003063
534.27964233,-0.00001593
536.20844971,0.00005315
538.13725708,0.00056263
540.06606445,0.00022200
541.99487183,0.00012366
543.92367920,0.00028921
545.85248657,-0.00000713
547.78129395,0.00014522
549.71010132,-0.00011973
551.63890869,-0.00018696
553.56771606,0.00037423
555.49652344,0.00024828
557.42533081,-0.00016258
559.35413818,0.00013459
561.28294556,0.00024585
563.21175293,0.00002860
565.14056030,0.00028219
567.06936768,0.00024889
568.99817505,0.00011291
570.92698242,0.00010665
572.85578979,-0.00001654
574.78459717,0.00018800
576.71340454,0.00029739
578.64221191,0.00015693
580.57101929,0.00005983
582.49982666,-0.00003033
584.42863403,0.00021877
586.35744141,0.00038044
588.28624878,0.00026087
590.21505615,0.00019414
592.14386353,0.00018319
594.07267090,-0.00014127
596.00147827,-0.00044941
597.93028564,0.00008906
599.85909302,0.00019189
601.78790039,0.00009552
603.71670776,0.00015478
605.64551514,0.00011540
607.57432251,0.00020601
609.50312988,-0.00011782
611.43193726,0.00019628
613.36074463,0.00041336
615.28955200,0.00026559
617.21835938,0.00036568
619.14716675,0.00003601
621.07597412,0.00003738
623.00478149,0.00005976
624.93358887,0.00017094
626.86239624,0.00004614
628.79120361,-0.00020293
630.72001099,0.00019395
632.64881836,0.00030266
634.57762573,0.00050410
636.50643311,0.00019702
638.43524048,0.00020720
640.36404785,0.00065938
642.29285522,0.00041599
644.22166260,0.00080467
646.15046997,0.00093631
648.07927734,0.00061211
650.00808472,0.00076589
651.93689209,0.00088943
653.86569946,0.00101647
655.79450684,0.00088018
657.72331421,0.00102864
659.65212158,0.00124314
661.58092896,0.00104874
663.50973633,0.00113231
665.43854370,0.00118805
667.36735107,0.00123772
669.29615845,0.00142321
671.22496582,0.00133066
673.15377319,0.00145199
675.08258057,0.00180880
677.01138794,0.00161052
678.94019531,0.00146530
680.86900269,0.00177927
682.79781006,0.00201948
684.72661743,0.00172970
686.65542480,0.00126313
688.58423218,0.00163866
690.51303955,0.00183568
692.44184692,0.00162006
694.37065430,0.00186953
696.29946167,0.00223443
698.22826904,0.00260610
700.15707642,0.00257131
702.08588379,0.00251176
704.01469116,0.00255089
705.94349854,0.00229118
707.87230591,0.00178536
709.80111328,0.00117814
711.72992065,0.00109697
713.65872803,0.00060751
715.58753540,0.00007486
717.51634277,0.00012192
719.44515015,-0.00012137
721.37395752,0.00027380
723.30276489,0.00049933
725.23157227,0.00027533
727.16037964,0.00050689
729.08918701,0.00023932
731.01799438,0.00005568
732.94680176,0.00015078
734.87560913,0.00023665
736.80441650,0.00034032
738.73322388,0.00019031
740.66203125,-0.00004380
742.59083862,0.00003372
744.51964600,0.00021808
746.44845337,-0.00014452
748.37726074,0.00008544
750.30606812,0.00026998
752.23487549,-0.00003555
754.16368286,0.00028335
756.09249023,0.00049134
758.02129761,0.00045927
759.95010498,0.00023523
761.87891235,0.00019576
763.80771973,0.00020540
765.73652710,0.00005421
767.66533447,0.00033805
769.59414185,0.00031651
771.52294922,0.00023606
773.45175659,0.00009036
775.38056396,-0.00000682
777.30937134,0.00033865
779.23817871,0.00002829
781.16698608,-0.00010692
783.09579346,0.00005928
785.02460083,0.00008701
786.95340820,0.00032711
788.88221558,0.00023203
790.81102295,0.00030318
792.73983032,0.00027200
794.66863770,0.00011473
796.59744507,0.00017673
798.52625244,0.00027759
800.45505981,0.00046950
802.38386719,-0.00001726
804.31267456,0.00025484
806.24148193,0.00059964
808.17028931,-0.00019978
810.09909668,0.00016538
812.02790405,0.00033900
813.95671143,-0.00002177
815.88551880,0.00028286
817.81432617,0.00029896
819.74313354,0.00025845
821.67194092,0.00012046
823.60074829,0.00025891
825.52955566,0.00044105
827.45836304,0.00026774
829.38717041,0.00048351
831.31597778,0.00062426
833.24478516,0.00047753
835.17359253,0.00054113
837.10239990,0.00079459
839.03120728,0.00071065
840.96001465,0.00040838
842.88882202,0.00054129
844.81762939,0.00067714
846.74643677,0.00050887
848.67524414,0.00057344
850.60405151,0.00057357
852.53285889,0.00037402
854.46166626,0.00048868
856.39047363,0.00041867
858.31928101,0.00017800
860.24808838,0.00028992
862.17689575,0.00035647
864.10570313,0.00033590
866.03451050,0.00015935
867.96331787,0.00002641
869.89212524,0.00028932
871.82093262,0.00034686
873.74973999,0.00030942
875.67854736,0.00030758
877.60735474,0.00019769
879.53616211,0.00017801
881.46496948,0.00021223
883.39377686,0.00022007
885.32258423,0.00009905
887.25139160,0.00034341
889.18019897,0.00056921
891.10900635,0.00049883
893.03781372,0.00038272
894.96662109,0.00022140
896.89542847,0.00035621
898.82423584,0.00033694
900.75304321,0.00028792
902.68185059,0.00025212
904.61065796,-0.00001645
906.53946533,0.00017395
908.46827271,0.00052720
910.39708008,0.00047359
912.32588745,0.00053687
914.25469482,0.00050077
916.18350220,0.00022594
918.11230957,0.00053443
920.04111694,0.00100790
921.96992432,0.00094447
923.89873169,0.00055176
925.82753906,0.00040909
927.75634644,0.00067645
929.68515381,0.00074065
931.61396118,0.00062801
933.54276855,0.00076876
935.47157593,0.00085555
937.40038330,0.00088578
939.32919067,0.00101921
941.25799805,0.00084519
943.18680542,0.00093214
945.11561279,0.00110765
947.04442017,0.00081793
948.97322754,0.00105375
950.90203491,0.00133783
952.83084229,0.00105178
954.75964966,0.00106696
956.68845703,0.00124420
958.61726440,0.00105780
960.54607178,0.00097421
962.47487915,0.00094620
964.40368652,0.00085470
966.33249390,0.00102891
968.26130127,0.00111745
970.19010864,0.00115057
972.11891602,0.00120238
974.04772339,0.00131221
975.97653076,0.00138096
977.90533813,0.00142256
979.83414551,0.00165724
981.76295288,0.00184941
983.69176025,0.00211213
985.62056763,0.00189988
987.54937500,0.00217427
989.47818237,0.00283046
991.40698975,0.00256693
993.33579712,0.00289336
995.26460449,0.00338260
997.19341187,0.00373155
999.12221924,0.00402875
1001.05102661,0.00389049
1002.97983398,0.00419736
1004.90864136,0.00466476
1006.83744873,0.00508693
1008.76625610,0.00517098
1010.69506348,0.00560906
1012.62387085,0.00623228
1014.55267822,0.00626937
1016.48148560,0.00663500
1018.41029297,0.00704127
1020.33910034,0.00737162
1022.26790771,0.00749514
1024.19671509,0.00771903
1026.12552246,0.00811529
1028.05432983,0.00820560
1029.98313721,0.00841586
1031.91194458,0.00873081
1033.84075195,0.00914492
1035.76955933,0.00920130
1037.69836670,0.00937354
1039.62717407,0.00946486
1041.55598145,0.00919341
1043.48478882,0.00930764
1045.41359619,0.00902786
1047.34240356,0.00889012
1049.27121094,0.00886334
1051.20001831,0.00855404
1053.12882568,0.00842537
1055.05763306,0.00820708
1056.98644043,0.00815740
1058.91524780,0.00798876
1060.84405518,0.00777937
1062.77286255,0.00768408
1064.70166992,0.00745943
1066.63047729,0.00711565
1068.55928467,0.00673136
1070.48809204,0.00643281
1072.41689941,0.00600410
1074.34570679,0.00562758
1076.27451416,0.00539818
1078.20332153,0.00543718
1080.13212891,0.00524160
1082.06093628,0.00476736
1083.98974365,0.00459610
1085.91855103,0.00421793
1087.84735840,0.00417932
1089.77616577,0.00416084
1091.70497314,0.00371082
1093.63378052,0.00386618
1095.56258789,0.00380814
1097.49139526,0.00355907
1099.42020264,0.00373173
1101.34901001,0.00334467
1103.27781738,0.00316747
1105.20662476,0.00344796
1107.13543213,0.00332229
1109.06423950,0.00326288
1110.99304687,0.00310730
1112.92185425,0.00313312
1114.85066162,0.00320726
1116.77946899,0.00285025
1118.70827637,0.00299095
1120.63708374,0.00319163
1122.56589111,0.00310496
1124.49469849,0.00327488
1126.42350586,0.00331246
1128.35231323,0.00311449
1130.28112061,0.00325141
1132.20992798,0.00352638
1134.13873535,0.00360925
1136.06754272,0.00376270
1137.99635010,0.00381482
1139.92515747,0.00404970
1141.85396484,0.00445241
1143.78277222,0.00468323
1145.71157959,0.00481860
1147.64038696,0.00505595
1149.56919434,0.00559325
1151.49800171,0.00567953
1153.42680908,0.00576899
1155.35561646,0.00618499
1157.28442383,0.00638603
1159.21323120,0.00675216
1161.14203857,0.00705062
1163.07084595,0.00733207
1164.99965332,0.00755959
1166.92846069,0.00773683
1168.85726807,0.00817785
1170.78607544,0.00841282
1172.71488281,0.00840526
1174.64369019,0.00858747
1176.57249756,0.00917394
1178.50130493,0.00965890
1180.43011230,0.00993690
1182.35891968,0.01050728
1184.28772705,0.01082550
1186.21653442,0.01104518
1188.14534180,0.01188868
1190.07414917,0.01244166
1192.00295654,0.01282908
1193.93176392,0.01353803
1195.86057129,0.01407550
1197.78937866,0.01490846
1199.71818604,0.01554412
1201.64699341,0.01608310
1203.57580078,0.01688078
1205.50460815,0.01746440
1207.43341553,0.01812827
1209.36222290,0.01848092
1211.29103027,0.01905620
1213.21983765,0.01992744
1215.14864502,0.02037157
1217.07745239,0.02052915
1219.00625977,0.02095019
1220.93506714,0.02156411
1222.86387451,0.02141806
1224.79268188,0.02170698
1226.72148926,0.02211294
1228.65029663,0.02192724
1230.57910400,0.02213029
1232.50791138,0.02223850
1234.43671875,0.02237288
1236.36552612,0.02227058
1238.29433350,0.02218469
1240.22314087,0.02233443
1242.15194824,0.02225029
1244.08075562,0.02231418
1246.00956299,0.02220126
1247.93837036,0.02195229
1249.86717773,0.02180893
1251.79598511,0.02177259
1253.72479248,0.02143393
1255.65359985,0.02125755
1257.58240723,0.02131114
1259.51121460,0.02064602
1261.44002197,0.02036626
1263.36882935,0.02033367
1265.29763672,0.01991502
1267.22644409,0.01970245
1269.15525146,0.01951908
1271.08405884,0.01920029
1273.01286621,0.01884928
1274.94167358,0.01853157
1276.87048096,0.01814551
1278.79928833,0.01791199
1280.72809570,0.01762052
1282.65690308,0.01714910
1284.58571045,0.01688855
1286.51451782,0.01656598
1288.44332520,0.01613165
1290.37213257,0.01607840
1292.30093994,0.01615181
1294.22974731,0.01589808
1296.15855469,0.01586371
1298.08736206,0.01584093
1300.01616943,0.01573409
1301.94497681,0.01586621
1303.87378418,0.01599435
1305.80259155,0.01630627
1307.73139893,0.01653621
1309.66020630,0.01679392
1311.58901367,0.01705227
1313.51782104,0.01721902
1315.44662842,0.01767531
1317.37543579,0.01792723
1319.30424316,0.01836436
1321.23305054,0.01918331
1323.16185791,0.01957753
1325.09066528,0.02004242
1327.01947266,0.02089671
1328.94828003,0.02143108
1330.87708740,0.02188179
1332.80589478,0.02249481
1334.73470215,0.02311660
1336.66350952,0.02326591
1338.59231689,0.02257479
1340.52112427,0.02295058
1342.44993164,0.02417226
1344.37873901,0.02432954
1346.30754639,0.02422894
1348.23635376,0.02403267
1350.16516113,0.02403984
1352.09396851,0.02422077
1354.02277588,0.02366658
1355.95158325,0.02344931
1357.88039062,0.02344341
1359.80919800,0.02302334
1361.73800537,0.02187392
1363.66681274,0.02142062
1365.59562012,0.02286746
1367.52442749,0.02233033
1369.45323486,0.02181844
1371.38204224,0.02255205
1373.31084961,0.02108580
1375.23965698,0.02121744
1377.16846436,0.02217137
1379.09727173,0.02190905
1381.02607910,0.02195490
1382.95488647,0.02199756
1384.88369385,0.02213635
1386.81250122,0.02080432
1388.74130859,0.02088327
1390.67011597,0.02318952
1392.59892334,0.02246978
1394.52773071,0.02054288
1396.45653809,0.02165793
1398.38534546,0.02178635
1400.31415283,0.02167868
1402.24296021,0.02378905
1404.17176758,0.02225788
1406.10057495,0.02230751
1408.02938232,0.02370283
1409.95818970,0.02245680
1411.88699707,0.02294793
1413.81580444,0.02222300
1415.74461182,0.02250396
1417.67341919,0.02005503
1419.60222656,0.01744402
1421.53103394,0.02073186
1423.45984131,0.02010578
1425.38864868,0.01959059
1427.31745605,0.02002240
1429.24626343,0.01819301
1431.17507080,0.01799735
1433.10387817,0.01848257
1435.03268555,0.01688988
1436.96149292,0.01385804
1438.89030029,0.01593041
1440.81910767,0.01683638
1442.74791504,0.01527203
1444.67672241,0.01621169
1446.60552979,0.01478818
1448.53433716,0.01483574
1450.46314453,0.01565897
1452.39195190,0.01592642
1454.32075928,0.01659595
1456.24956665,0.01322926
1458.17837402,0.01338506
1460.10718140,0.01877721
1462.03598877,0.02017777
1463.96479614,0.01964832
1465.89360352,0.02037510
1467.82241089,0.02368970
1469.75121826,0.02564841
1471.68002563,0.02194454
1473.60883301,0.02311312
1475.53764038,0.02668691
1477.46644775,0.02888232
1479.39525513,0.03243050
1481.32406250,0.03247562
1483.25286987,0.03462968
1485.18167725,0.03588804
1487.11048462,0.03474741
1489.03929199,0.03417607
1490.96809937,0.03429544
1492.89690674,0.04106387
1494.82571411,0.03986959
1496.75452148,0.03496611
1498.68332886,0.04012252
1500.61213623,0.04164316
1502.54094360,0.04531909
1504.46975098,0.04243801
1506.39855835,0.02846254
1508.32736572,0.03566071
1510.25617310,0.04377654
1512.18498047,0.04228568
1514.11378784,0.04660331
1516.04259521,0.04102449
1517.97140259,0.04260142
1519.90020996,0.04155747
1521.82901733,0.03450420
1523.75782471,0.04390076
1525.68663208,0.04308819
1527.61543945,0.04257635
1529.54424683,0.04848905
1531.47305420,0.04617872
1533.40186157,0.04145226
1535.33066895,0.04427870
1537.25947632,0.04859577
1539.18828369,0.03245545
1541.11709106,0.03354037
1543.04589844,0.04232603
1544.97470581,0.03976088
1546.90351318,0.04948043
1548.83232056,0.04585369
1550.76112793,0.04691388
1552.68993530,0.04739806
1554.61874268,0.04172512
1556.54755005,0.04553615
1558.47635742,0.02983814
1560.40516479,0.03205609
1562.33397217,0.05008347
1564.26277954,0.04673768
1566.19158691,0.04820108
1568.12039429,0.04789189
1570.04920166,0.04094590
1571.97800903,0.04874105
1573.90681641,0.05009990
1575.83562378,0.03792329
1577.76443115,0.04353299
1579.69323853,0.05062405
1581.62204590,0.04818001
1583.55085327,0.04953696
1585.47966064,0.04872441
1587.40846802,0.04919408
1589.33727539,0.04879919
1591.26608276,0.04865678
1593.19489014,0.04883353
1595.12369751,0.04817481
1597.05250488,0.04887510
1598.98131226,0.04850124
1600.91011963,0.04875512
1602.83892700,0.04763531
1604.76773437,0.04864305
1606.69654175,0.04794225
1608.62534912,0.04775349
1610.55415649,0.04776564
1612.48296387,0.04794899
1614.41177124,0.04897524
1616.34057861,0.03866159
1618.26938599,0.04207783
1620.19819336,0.05084336
1622.12700073,0.04413436
1624.05580811,0.04416261
1625.98461548,0.04705603
1627.91342285,0.04670620
1629.84223022,0.04643481
1631.77103760,0.05017719
1633.69984497,0.04595667
1635.62865234,0.03612321
1637.55745972,0.04314058
1639.48626709,0.04913113
1641.41507446,0.04774462
1643.34388184,0.04945322
1645.27268921,0.04394759
1647.20149658,0.03696497
1649.13030396,0.04819004
1651.05911133,0.04622653
1652.98791870,0.02669793
1654.91672607,0.03839435
1656.84553345,0.05116835
1658.77434082,0.04882628
1660.70314819,0.05042828
1662.63195557,0.04503310
1664.56076294,0.04777462
1666.48957031,0.05257118
1668.41837769,0.04458681
1670.34718506,0.04274753
1672.27599243,0.05010740
1674.20479980,0.04568590
1676.13360718,0.04319280
1678.06241455,0.05143817
1679.99122192,0.04941500
1681.92002930,0.04844998
1683.84883667,0.03822329
1685.77764404,0.03737812
1687.70645142,0.05459801
1689.63525879,0.04665218
1691.56406616,0.05169254
1693.49287354,0.05361288
1695.42168091,0.03661621
1697.35048828,0.04691219
1699.27929565,0.04058162
1701.20810303,0.03495256
1703.13691040,0.05148667
1705.06571777,0.04669543
1706.99452515,0.04699611
1708.92333252,0.05237816
1710.85213989,0.04989311
1712.78094727,0.05086788
1714.70975464,0.04652242
1716.63856201,0.04109430
1718.56736938,0.03998106
1720.49617676,0.04898808
1722.42498413,0.05199328
1724.35379150,0.04722378
1726.28259888,0.05248465
1728.21140625,0.04798832
1730.14021362,0.04784662
1732.06902100,0.04721450
1733.99782837,0.03364820
1735.92663574,0.04353055
1737.85544312,0.04968824
1739.78425049,0.04314787
1741.71305786,0.04765118
1743.64186523,0.04814509
1745.57067261,0.04826257
1747.49947998,0.04890798
1749.42828735,0.04613868
1751.35709473,0.04351142
1753.28590210,0.04954742
1755.21470947,0.05254141
1757.14351685,0.04655557
1759.07232422,0.05249481
1761.00113159,0.04889838
1762.92993896,0.04640407
1764.85874634,0.05501653
1766.78755371,0.04850328
1768.71636108,0.04875186
1770.64516846,0.04859214
1772.57397583,0.04274175
1774.50278320,0.04868861
1776.43159058,0.05210935
1778.36039795,0.05137900
1780.28920532,0.05044515
1782.21801270,0.05103072
1784.14682007,0.05083576
1786.07562744,0.04968630
1788.00443481,0.05306375
1789.93324219,0.05131704
1791.86204956,0.04530086
1793.79085693,0.04755495
1795.71966431,0.05192498
1797.64847168,0.05119137
1799.57727905,0.05030074
1801.50608643,0.04919741
1803.43489380,0.05112091
1805.36370117,0.05270044
1807.29250854,0.05154065
1809.22131592,0.05175209
1811.15012329,0.05014351
1813.07893066,0.05208313
1815.00773804,0.05259001
1816.93654541,0.05159343
1818.86535278,0.05230403
1820.79416016,0.05210239
1822.72296753,0.05286866
1824.65177490,0.04863789
1826.58058228,0.05074555
1828.50938965,0.05107127
1830.43819702,0.04693390
1832.36700439,0.05215117
1834.29581177,0.05200695
1836.22461914,0.05190732
1838.15342651,0.05160315
1840.08223389,0.05189143
1842.01104126,0.05239416
1843.93984863,0.04504379
1845.86865601,0.04856734
1847.79746338,0.05201223
1849.72627075,0.05052313
1851.65507812,0.05273510
1853.58388550,0.05150940
1855.51269287,0.05209757
1857.44150024,0.05159367
1859.37030762,0.05109370
1861.29911499,0.05178319
1863.22792236,0.05095307
1865.15672974,0.05173086
1867.08553711,0.04977188
1869.01434448,0.04706790
1870.94315186,0.04943330
1872.87195923,0.05199114
1874.80076660,0.05094610
1876.72957397,0.05131144
1878.65838135,0.05119289
1880.58718872,0.05063825
1882.51599609,0.05137300
1884.44480347,0.05034699
1886.37361084,0.05116676
1888.30241821,0.04985882
1890.23122559,0.04853162
1892.16003296,0.05100795
1894.08884033,0.05010775
1896.01764771,0.04987673
1897.94645508,0.05069008
1899.87526245,0.05020785
1901.80406982,0.05047674
1903.73287720,0.05007618
1905.66168457,0.05043837
1907.59049194,0.04994923
1909.51929932,0.04936633
1911.44810669,0.04971872
1913.37691406,0.04981140
1915.30572144,0.05057265
1917.23452881,0.04798795
1919.16333618,0.04791108
1921.09214355,0.05034747
1923.02095093,0.04827213
1924.94975830,0.04938256
1926.87856567,0.05023254
1928.80737305,0.04939770
1930.73618042,0.05017985
1932.66498779,0.04931625
1934.59379517,0.04998871
1936.52260254,0.04954151
1938.45140991,0.04964045
1940.38021729,0.04984456
1942.30902466,0.04767502
1944.23783203,0.04883679
1946.16663940,0.04947688
1948.09544678,0.04927717
1950.02425415,0.04981981
1951.95306152,0.04940175
1953.88186890,0.04938759
1955.81067627,0.04923439
1957.73948364,0.04936225
1959.66829102,0.04938804
1961.59709839,0.04921976
1963.52590576,0.04929064
1965.45471313,0.04903261
1967.38352051,0.04837833
1969.31232788,0.04882114
1971.24113525,0.04942519
1973.16994263,0.04904316
1975.09875000,0.04937418
1977.02755737,0.04907729
1978.95636475,0.04904873
1980.88517212,0.04902960
1982.81397949,0.04874523
1984.74278687,0.04921757
1986.67159424,0.04858512
1988.60040161,0.04866978
1990.52920898,0.04832233
1992.45801636,0.04757480
1994.38682373,0.04846359
1996.31563110,0.04859545
1998.24443848,0.04841381
2000.17324585,0.04839892
2002.10205322,0.04820204
2004.03086060,0.04824202
2005.95966797,0.04820111
2007.88847534,0.04805173
2009.81728271,0.04798384
2011.74609009,0.04785091
2013.67489746,0.04785919
2015.60370483,0.04759174
2017.53251221,0.04697986
2019.46131958,0.04742764
2021.39012695,0.04759026
2023.31893433,0.04734857
2025.24774170,0.04747575
2027.17654907,0.04712848
2029.10535645,0.04710195
2031.03416382,0.04716288
2032.96297119,0.04694568
2034.89177856,0.04675405
2036.82058594,0.04679831
2038.74939331,0.04678582
2040.67820068,0.04656085
2042.60700806,0.04658478
2044.53581543,0.04649905
2046.46462280,0.04645737
2048.39343018,0.04636351
2050.32223755,0.04623219
2052.25104492,0.04616362
2054.17985229,0.04606611
2056.10865967,0.04611380
2058.03746704,0.04596353
2059.96627441,0.04585536
2061.89508179,0.04582390
2063.82388916,0.04551756
2065.75269653,0.04539307
2067.68150391,0.04563097
2069.61031128,0.04560908
2071.53911865,0.04556031
2073.46792603,0.04544088
2075.39673340,0.04519278
2077.32554077,0.04529928
2079.25434814,0.04515341
2081.18315552,0.04504899
2083.11196289,0.04507243
2085.04077026,0.04496039
2086.96957764,0.04483912
2088.89838501,0.04475412
2090.82719238,0.04479520
2092.75599976,0.04466830
2094.68480713,0.04467040
2096.61361450,0.04447356
2098.54242187,0.04451772
2100.47122925,0.04465096
2102.40003662,0.04430213
2104.32884399,0.04428939
2106.25765137,0.04417954
2108.18645874,0.04424571
2110.11526611,0.04428092
2112.04407349,0.04411417
2113.97288086,0.04407031
2115.90168823,0.04390282
2117.83049561,0.04395150
2119.75930298,0.04382568
2121.68811035,0.04381212
2123.61691772,0.04379334
2125.54572510,0.04372225
2127.47453247,0.04372288
2129.40333984,0.04348528
2131.33214722,0.04354426
2133.26095459,0.04353102
2135.18976196,0.04346440
2137.11856934,0.04337255
2139.04737671,0.04325831
2140.97618408,0.04339705
2142.90499146,0.04341478
2144.83379883,0.04326937
2146.76260620,0.04317624
2148.69141357,0.04319725
2150.62022095,0.04307561
2152.54902832,0.04314671
2154.47783569,0.04319987
2156.40664307,0.04309990
2158.33545044,0.04303314
2160.26425781,0.04284337
2162.19306519,0.04292517
2164.12187256,0.04283498
2166.05067993,0.04267987
2167.97948730,0.04277134
2169.90829468,0.04285416
2171.83710205,0.04276175
2173.76590942,0.04259618
2175.69471680,0.04272089
2177.62352417,0.04261954
2179.55233154,0.04252675
2181.48113892,0.04256200
2183.40994629,0.04248510
2185.33875366,0.04241921
2187.26756104,0.04229588
2189.19636841,0.04230792
2191.12517578,0.04221691
2193.05398315,0.04216582
2194.98279053,0.04227012
2196.91159790,0.04233062
2198.84040527,0.04225946
2200.76921265,0.04219841
2202.69802002,0.04221222
2204.62682739,0.04201934
2206.55563477,0.04204451
2208.48444214,0.04209650
2210.41324951,0.04200148
2212.34205688,0.04197886
2214.27086426,0.04191881
2216.19967163,0.04191839
2218.12847900,0.04175871
2220.05728638,0.04166802
2221.98609375,0.04174551
2223.91490112,0.04174656
2225.84370850,0.04168008
2227.77251587,0.04145655
2229.70132324,0.04133013
2231.63013062,0.04137324
2233.55893799,0.04129222
2235.48774536,0.04119017
2237.41655273,0.04128196
2239.34536011,0.04132739
2241.27416748,0.04121221
2243.20297485,0.04117195
2245.13178223,0.04106563
2247.06058960,0.04087921
2248.98939697,0.04099910
2250.91820435,0.04103515
2252.84701172,0.04082860
2254.77581909,0.04078752
2256.70462646,0.04073019
2258.63343384,0.04068729
2260.56224121,0.04068176
2262.49104858,0.04063591
2264.41985596,0.04058463
2266.34866333,0.04056282
2268.27747070,0.04044988
2270.20627808,0.04036190
2272.13508545,0.04049313
2274.06389282,0.04033239
2275.99270020,0.04028000
2277.92150757,0.04031839
2279.85031494,0.04024909
2281.77912231,0.04030120
2283.70792969,0.04005161
2285.63673706,0.03997096
2287.56554443,0.03996880
2289.49435181,0.03996719
2291.42315918,0.03993849
2293.35196655,0.03975359
2295.28077393,0.03970160
2297.20958130,0.03953768
2299.13838867,0.03963692
2301.06719604,0.03950151
2302.99600342,0.03918057
2304.92481079,0.03911887
2306.85361816,0.03882863
2308.78242554,0.03859722
2310.71123291,0.03832239
2312.64004028,0.03793369
2314.56884766,0.03754709
2316.49765503,0.03728411
2318.42646240,0.03691721
2320.35526978,0.03640835
2322.28407715,0.03597750
2324.21288452,0.03549305
2326.14169189,0.03521354
2328.07049927,0.03488131
2329.99930664,0.03446925
2331.92811401,0.03413926
2333.85692139,0.03404925
2335.78572876,0.03387874
2337.71453613,0.03376052
2339.64334351,0.03395674
2341.57215088,0.03386942
2343.50095825,0.03439488
2345.42976562,0.03510441
2347.35857300,0.03620444
2349.28738037,0.03734129
2351.21618774,0.03629522
2353.14499512,0.03469058
2355.07380249,0.03355057
2357.00260986,0.03265784
2358.93141724,0.03208160
2360.86022461,0.03159093
2362.78903198,0.03151823
2364.71783936,0.03180362
2366.64664673,0.03228609
2368.57545410,0.03274154
2370.50426147,0.03357523
2372.43306885,0.03432788
2374.36187622,0.03507452
2376.29068359,0.03602920
2378.21949097,0.03657836
2380.14829834,0.03724807
2382.07710571,0.03766035
2384.00591309,0.03777246
2385.93472046,0.03785636
2387.86352783,0.03799324
2389.79233521,0.03802028
2391.72114258,0.03782633
2393.64994995,0.03786339
2395.57875732,0.03772269
2397.50756470,0.03778385
2399.43637207,0.03780979
2401.36517944,0.03762374
2403.29398682,0.03766790
2405.22279419,0.03769912
2407.15160156,0.03766880
2409.08040894,0.03745108
2411.00921631,0.03749561
2412.93802368,0.03748080
2414.86683105,0.03738854
2416.79563843,0.03733741
2418.72444580,0.03716956
2420.65325317,0.03733196
2422.58206055,0.03730382
2424.51086792,0.03721800
2426.43967529,0.03719025
2428.36848267,0.03710768
2430.29729004,0.03703037
2432.22609741,0.03691779
2434.15490479,0.03699850
2436.08371216,0.03697476
2438.01251953,0.03691678
2439.94132690,0.03691305
2441.87013428,0.03687758
2443.79894165,0.03675924
2445.72774902,0.03677658
2447.65655640,0.03674407
2449.58536377,0.03658328
2451.51417114,0.03671920
2453.44297852,0.03658796
2455.37178589,0.03649884
2457.30059326,0.03656102
2459.22940063,0.03648754
2461.15820801,0.03646368
2463.08701538,0.03628748
2465.01582275,0.03624102
2466.94463013,0.03626810
2468.87343750,0.03626061
2470.80224487,0.03616601
2472.73105225,0.03612630
2474.65985962,0.03615159
2476.58866699,0.03599376
2478.51747437,0.03598312
2480.44628174,0.03598396
2482.37508911,0.03588362
2484.30389648,0.03588416
2486.23270386,0.03593120
2488.16151123,0.03576446
2490.09031860,0.03573814
2492.01912598,0.03583889
2493.94793335,0.03573372
2495.87674072,0.03577108
2497.80554810,0.03564484
2499.73435547,0.03562561
2501.66316284,0.03564408
2503.59197021,0.03540149
2505.52077759,0.03540891
2507.44958496,0.03542848
2509.37839233,0.03545085
2511.30719971,0.03540056
2513.23600708,0.03529245
2515.16481445,0.03534207
2517.09362183,0.03528609
2519.02242920,0.03515214
2520.95123657,0.03517402
2522.88004395,0.03520337
2524.80885132,0.03511303
2526.73765869,0.03504953
2528.66646606,0.03500268
2530.59527344,0.03502668
2532.52408081,0.03486342
2534.45288818,0.03483244
2536.38169556,0.03493679
2538.31050293,0.03479281
2540.23931030,0.03484840
2542.16811768,0.03469184
2544.09692505,0.03464348
2546.02573242,0.03478517
2547.95453979,0.03460845
2549.88334717,0.03460794
2551.81215454,0.03461024
2553.74096191,0.03450169
2555.66976929,0.03443451
2557.59857666,0.03447350
2559.52738403,0.03444058
2561.45619141,0.03437938
2563.38499878,0.03428820
2565.31380615,0.03414394
2567.24261353,0.03428385
2569.17142090,0.03420790
2571.10022827,0.03404709
2573.02903564,0.03399805
2574.95784302,0.03400528
2576.88665039,0.03407147
2578.81545776,0.03398462
2580.74426514,0.03401522
2582.67307251,0.03393064
2584.60187988,0.03380994
2586.53068726,0.03380885
2588.45949463,0.03383108
2590.38830200,0.03371388
2592.31710937,0.03362172
2594.24591675,0.03374702
2596.17472412,0.03351430
2598.10353149,0.03347063
2600.03233887,0.03359733
2601.96114624,0.03344963
2603.88995361,0.03337432
2605.81876099,0.03338449
2607.74756836,0.03343586
2609.67637573,0.03333477
2611.60518311,0.03336913
2613.53399048,0.03333299
2615.46279785,0.03316751
2617.39160522,0.03312204
2619.32041260,0.03303834
2621.24921997,0.03314435
2623.17802734,0.03304897
2625.10683472,0.03297220
2627.03564209,0.03306158
2628.96444946,0.03292394
2630.89325684,0.03291891
2632.82206421,0.03284947
2634.75087158,0.03275845
2636.67967895,0.03282529
2638.60848633,0.03278731
2640.53729370,0.03276886
2642.46610107,0.03261916
2644.39490845,0.03250304
2646.32371582,0.03254849
2648.25252319,0.03231902
2650.18133057,0.03238534
2652.11013794,0.03253586
2654.03894531,0.03225675
2655.96775269,0.03228434
2657.89656006,0.03233911
2659.82536743,0.03227894
2661.75417480,0.03227051
2663.68298218,0.03216144
2665.61178955,0.03213006
2667.54059692,0.03204247
2669.46940430,0.03195734
2671.39821167,0.03196662
2673.32701904,0.03198227
2675.25582642,0.03189215
2677.18463379,0.03187604
2679.11344116,0.03192618
2681.04224854,0.03184268
2682.97105591,0.03180984
2684.89986328,0.03175613
2686.82867065,0.03178257
2688.75747803,0.03169613
2690.68628540,0.03151848
2692.61509277,0.03154149
2694.54390015,0.03149841
2696.47270752,0.03147064
2698.40151489,0.03146129
2700.33032227,0.03141716
2702.25912964,0.03137109
2704.18793701,0.03137049
2706.11674438,0.03134644
2708.04555176,0.03124127
2709.97435913,0.03119949
2711.90316650,0.03113977
2713.83197388,0.03107239
2715.76078125,0.03104278
2717.68958862,0.03111321
2719.61839600,0.03099795
2721.54720337,0.03090476
2723.47601074,0.03093507
2725.40481812,0.03070325
2727.33362549,0.03078325
2729.26243286,0.03079477
2731.19124023,0.03062386
2733.12004761,0.03071762
2735.04885498,0.03066772
2736.97766235,0.03057794
2738.90646973,0.03043122
2740.83527710,0.03044842
2742.76408447,0.03047683
2744.69289185,0.03026836
2746.62169922,0.03032319
2748.55050659,0.03037095
2750.47931396,0.03031183
2752.40812134,0.03026339
2754.33692871,0.03019466
2756.26573608,0.03014845
2758.19454346,0.02997975
2760.12335083,0.02993291
2762.05215820,0.03000643
2763.98096558,0.02999081
2765.90977295,0.02991248
2767.83858032,0.02981343
2769.76738770,0.02982332
2771.69619507,0.02972849
2773.62500244,0.02965312
2775.55380981,0.02970327
2777.48261719,0.02957139
2779.41142456,0.02951701
2781.34023193,0.02941854
2783.26903931,0.02938148
2785.19784668,0.02951366
2787.12665405,0.02930111
2789.05546143,0.02921995
2790.98426880,0.02926519
2792.91307617,0.02906192
2794.84188354,0.02904617
2796.77069092,0.02908300
2798.69949829,0.02891773
2800.62830566,0.02888954
2802.55711304,0.02896864
2804.48592041,0.02886494
2806.41472778,0.02880233
2808.34353516,0.02877285
2810.27234253,0.02859559
2812.20114990,0.02847574
2814.12995728,0.02851537
2816.05876465,0.02848762
2817.98757202,0.02841105
2819.91637939,0.02835387
2821.84518677,0.02817455
2823.77399414,0.02819392
2825.70280151,0.02818943
2827.63160889,0.02803881
2829.56041626,0.02804760
2831.48922363,0.02792951
2833.41803101,0.02784267
2835.34683838,0.02785795
2837.27564575,0.02771271
2839.20445312,0.02750850
2841.13326050,0.02754237
2843.06206787,0.02744631
2844.99087524,0.02708544
2846.91968262,0.02691929
2848.84848999,0.02671932
2850.77729736,0.02668189
2852.70610474,0.02677407
2854.63491211,0.02686989
2856.56371948,0.02696021
2858.49252686,0.02689331
2860.42133423,0.02699833
2862.35014160,0.02696538
2864.27894897,0.02684316
2866.20775635,0.02672934
2868.13656372,0.02669784
2870.06537109,0.02669152
2871.99417847,0.02654569
2873.92298584,0.02670253
2875.85179321,0.02661373
2877.78060059,0.02649484
2879.70940796,0.02655298
2881.63821533,0.02643036
2883.56702270,0.02642977
2885.49583008,0.02631309
2887.42463745,0.02623620
2889.35344482,0.02617954
2891.28225220,0.02608876
2893.21105957,0.02608686
2895.13986694,0.02600229
2897.06867432,0.02591265
2898.99748169,0.02577494
2900.92628906,0.02563155
2902.85509644,0.02554928
2904.78390381,0.02554232
2906.71271118,0.02544893
2908.64151855,0.02531754
2910.57032593,0.02524992
2912.49913330,0.02505101
2914.42794067,0.02476721
2916.35674805,0.02468399
2918.28555542,0.02472811
2920.21436279,0.02464483
2922.14317017,0.02478602
2924.07197754,0.02490252
2926.00078491,0.02488679
2927.92959229,0.02501091
2929.85839966,0.02505252
2931.78720703,0.02509216
2933.71601440,0.02513089
2935.64482178,0.02522269
2937.57362915,0.02516783
2939.50243652,0.02516828
2941.43124390,0.02523214
2943.36005127,0.02510584
2945.28885864,0.02515147
2947.21766602,0.02503005
2949.14647339,0.02493410
2951.07528076,0.02488735
2953.00408813,0.02470963
2954.93289551,0.02474096
2956.86170288,0.02477041
2958.79051025,0.02470088
2960.71931763,0.02461169
2962.64812500,0.02455642
2964.57693237,0.02450843
2966.50573975,0.02457335
2968.43454712,0.02442050
2970.36335449,0.02443659
2972.29216187,0.02465048
2974.22096924,0.02440865
2976.14977661,0.02458352
2978.07858398,0.02466085
2980.00739136,0.02448663
2981.93619873,0.02452239
2983.86500610,0.02444043
2985.79381348,0.02449830
2987.72262085,0.02437160
2989.65142822,0.02437928
2991.58023560,0.02438531
2993.50904297,0.02424457
2995.43785034,0.02423956
2997.36665771,0.02409635
2999.29546509,0.02418027
3001.22427246,0.02425552
3003.15307983,0.02406703
3005.08188721,0.02391788
3007.01069458,0.02401342
3008.93950195,0.02393352
3010.86830933,0.02371088
3012.79711670,0.02369983
3014.72592407,0.02353237
3016.65473145,0.02354192
3018.58353882,0.02355628
3020.51234619,0.02347974
3022.44115356,0.02348925
3024.36996094,0.02334992
3026.29876831,0.02334792
3028.22757568,0.02335396
3030.15638306,0.02320567
3032.08519043,0.02307081
3034.01399780,0.02304594
3035.94280518,0.02302999
3037.87161255,0.02302565
3039.80041992,0.02297799
3041.72922729,0.02287247
3043.65803467,0.02283735
3045.58684204,0.02277302
3047.51564941,0.02274004
3049.44445679,0.02260417
3051.37326416,0.02254876
3053.30207153,0.02254123
3055.23087891,0.02239738
3057.15968628,0.02235735
3059.08849365,0.02232666
3061.01730103,0.02227779
3062.94610840,0.02221633
3064.87491577,0.02213667
3066.80372314,0.02202319
3068.73253052,0.02210853
3070.66133789,0.02208959
3072.59014526,0.02197496
3074.51895264,0.02202092
3076.44776001,0.02180903
3078.37656738,0.02181239
3080.30537476,0.02176156
3082.23418213,0.02168558
3084.16298950,0.02168979
3086.09179687,0.02148283
3088.02060425,0.02154109
3089.94941162,0.02143540
3091.87821899,0.02139748
3093.80702637,0.02131683
3095.73583374,0.02117527
3097.66464111,0.02119802
3099.59344849,0.02099197
3101.52225586,0.02099890
3103.45106323,0.02101526
3105.37987061,0.02104724
3107.30867798,0.02091079
3109.23748535,0.02074860
3111.16629272,0.02079623
3113.09510010,0.02068088
3115.02390747,0.02071578
3116.95271484,0.02053061
3118.88152222,0.02048678
3120.81032959,0.02057840
3122.73913696,0.02040290
3124.66794434,0.02033952
3126.59675171,0.02020669
3128.52555908,0.02014960
3130.45436645,0.02007298
3132.38317383,0.02004100
3134.31198120,0.02009276
3136.24078857,0.01997186
3138.16959595,0.01988345
3140.09840332,0.01981262
3142.02721069,0.01961657
3143.95601807,0.01955114
3145.88482544,0.01958521
3147.81363281,0.01945757
3149.74244019,0.01948608
3151.67124756,0.01933859
3153.60005493,0.01921372
3155.52886230,0.01928156
3157.45766968,0.01909215
3159.38647705,0.01910128
3161.31528442,0.01904458
3163.24409180,0.01894518
3165.17289917,0.01888671
3167.10170654,0.01873568
3169.03051392,0.01874532
3170.95932129,0.01872437
3172.88812866,0.01868636
3174.81693604,0.01855479
3176.74574341,0.01845947
3178.67455078,0.01842993
3180.60335815,0.01842868
3182.53216553,0.01840974
3184.46097290,0.01827508
3186.38978027,0.01824937
3188.31858765,0.01824819
3190.24739502,0.01818066
3192.17620239,0.01803186
3194.10500977,0.01801279
3196.03381714,0.01795230
3197.96262451,0.01782208
3199.89143188,0.01782805
3201.82023926,0.01782320
3203.74904663,0.01778461
3205.67785400,0.01760260
3207.60666138,0.01759000
3209.53546875,0.01754542
3211.46427612,0.01753771
3213.39308350,0.01761097
3215.32189087,0.01740955
3217.25069824,0.01742572
3219.17950562,0.01744389
3221.10831299,0.01738484
3223.03712036,0.01733380
3224.96592773,0.01736356
3226.89473511,0.01734347
3228.82354248,0.01715794
3230.75234985,0.01724308
3232.68115723,0.01718297
3234.60996460,0.01717205
3236.53877197,0.01720429
3238.46757935,0.01705770
3240.39638672,0.01707122
3242.32519409,0.01709084
3244.25400146,0.01704702
3246.18280884,0.01695905
3248.11161621,0.01700914
3250.04042358,0.01694817
3251.96923096,0.01685237
3253.89803833,0.01684756
3255.82684570,0.01685244
3257.75565308,0.01693942
3259.68446045,0.01680841
3261.61326782,0.01684282
3263.54207520,0.01686801
3265.47088257,0.01674826
3267.39968994,0.01685252
3269.32849731,0.01688724
3271.25730469,0.01681395
3273.18611206,0.01673201
3275.11491943,0.01667921
3277.04372681,0.01664135
3278.97253418,0.01670953
3280.90134155,0.01670049
3282.83014893,0.01660584
3284.75895630,0.01672527
3286.68776367,0.01673791
3288.61657104,0.01658732
3290.54537842,0.01659700
3292.47418579,0.01660855
3294.40299316,0.01651684
3296.33180054,0.01654808
3298.26060791,0.01651647
3300.18941528,0.01651453
3302.11822266,0.01653731
3304.04703003,0.01645774
3305.97583740,0.01648176
3307.90464478,0.01643753
3309.83345215,0.01637980
3311.76225952,0.01636416
3313.69106689,0.01650119
3315.61987427,0.01645936
3317.54868164,0.01629380
3319.47748901,0.01638013
3321.40629639,0.01631754
3323.33510376,0.01628469
3325.26391113,0.01619727
3327.19271851,0.01624962
3329.12152588,0.01628738
3331.05033325,0.01620603
3332.97914062,0.01633195
3334.90794800,0.01612423
3336.83675537,0.01612281
3338.76556274,0.01622454
3340.69437012,0.01617581
3342.62317749,0.01621530
3344.55198486,0.01610964
3346.48079224,0.01608305
3348.40959961,0.01606384
3350.33840698,0.01606655
3352.26721436,0.01602443
3354.19602173,0.01606076
3356.12482910,0.01605637
3358.05363647,0.01605498
3359.98244385,0.01610846
3361.91125122,0.01591900
3363.84005859,0.01598362
3365.76886597,0.01594989
3367.69767334,0.01586587
3369.62648071,0.01599567
3371.55528809,0.01592492
3373.48409546,0.01582303
3375.41290283,0.01587172
3377.34171020,0.01589584
3379.27051758,0.01583451
3381.19932495,0.01591626
3383.12813232,0.01579171
3385.05693970,0.01572146
3386.98574707,0.01580120
3388.91455444,0.01583237
3390.84336182,0.01581488
3392.77216919,0.01567437
3394.70097656,0.01580472
3396.62978394,0.01566301
3398.55859131,0.01564844
3400.48739868,0.01572157
3402.41620605,0.01555495
3404.34501343,0.01572882
3406.27382080,0.01574751
3408.20262817,0.01575714
3410.13143555,0.01574155
3412.06024292,0.01581184
3413.98905029,0.01576402
3415.91785767,0.01565386
3417.84666504,0.01576134
3419.77547241,0.01552469
3421.70427979,0.01557031
3423.63308716,0.01566103
3425.56189453,0.01562386
3427.49070190,0.01560747
3429.41950928,0.01568539
3431.34831665,0.01575000
3433.27712402,0.01558701
3435.20593140,0.01574535
3437.13473877,0.01561411
3439.06354614,0.01565508
3440.99235352,0.01564024
3442.92116089,0.01547773
3444.84996826,0.01573893
3446.77877563,0.01543113
3448.70758301,0.01547125
3450.63639038,0.01567353
3452.56519775,0.01560820
3454.49400513,0.01569419
3456.42281250,0.01550853
3458.35161987,0.01557938
3460.28042725,0.01560278
3462.20923462,0.01550245
3464.13804199,0.01562462
3466.06684937,0.01556069
3467.99565674,0.01552988
3469.92446411,0.01564727
3471.85327148,0.01563885
3473.78207886,0.01566756
3475.71088623,0.01561400
3477.63969360,0.01565386
3479.56850098,0.01572595
3481.49730835,0.01544263
3483.42611572,0.01553852
3485.35492310,0.01567560
3487.28373047,0.01554623
3489.21253784,0.01558823
3491.14134521,0.01571886
3493.07015259,0.01568874
3494.99895996,0.01559871
3496.92776733,0.01572081
3498.85657471,0.01565292
3500.78538208,0.01574128
3502.71418945,0.01541377
3504.64299683,0.01536345
3506.57180420,0.01601849
3508.50061157,0.01560438
3510.42941895,0.01551799
3512.35822632,0.01575102
3514.28703369,0.01575510
3516.21584106,0.01595185
3518.14464844,0.01576635
3520.07345581,0.01579473
3522.00226318,0.01569679
3523.93107056,0.01546711
3525.85987793,0.01550876
3527.78868530,0.01558969
3529.71749268,0.01560709
3531.64630005,0.01588722
3533.57510742,0.01613045
3535.50391479,0.01579853
3537.43272217,0.01575527
3539.36152954,0.01588992
3541.29033691,0.01591447
3543.21914429,0.01582265
3545.14795166,0.01538898
3547.07675903,0.01519291
3549.00556641,0.01584549
3550.93437378,0.01595566
3552.86318115,0.01539688
3554.79198853,0.01587387
3556.72079590,0.01604794
3558.64960327,0.01595570
3560.57841064,0.01582680
3562.50721802,0.01572615
3564.43602539,0.01592139
3566.36483276,0.01456399
3568.29364014,0.01414924
3570.22244751,0.01564219
3572.15125488,0.01615997
3574.08006226,0.01596092
3576.00886963,0.01597838
3577.93767700,0.01594658
3579.86648437,0.01597904
3581.79529175,0.01595999
3583.72409912,0.01604847
3585.65290649,0.01565993
3587.58171387,0.01398554
3589.51052124,0.01461270
3591.43932861,0.01624655
3593.36813599,0.01568452
3595.29694336,0.01537320
3597.22575073,0.01557967
3599.15455811,0.01590289
3601.08336548,0.01567616
3603.01217285,0.01576645
3604.94098022,0.01626356
3606.86978760,0.01554561
3608.79859497,0.01456919
3610.72740234,0.01492362
3612.65620972,0.01522005
3614.58501709,0.01467237
3616.51382446,0.01595915
3618.44263184,0.01462024
3620.37143921,0.01402085
3622.30024658,0.01625459
3624.22905395,0.01576191
3626.15786133,0.01668901
3628.08666870,0.01365142
3630.01547607,0.01212782
3631.94428345,0.01601663
3633.87309082,0.01546745
3635.80189819,0.01594037
3637.73070557,0.01624589
3639.65951294,0.01596019
3641.58832031,0.01617141
3643.51712769,0.01594300
3645.44593506,0.01625372
3647.37474243,0.01412314
3649.30354980,0.01281106
3651.23235718,0.01294259
3653.16116455,0.01591947
3655.08997192,0.01588017
3657.01877930,0.01375818
3658.94758667,0.01645804
3660.87639404,0.01610786
3662.80520142,0.01629695
3664.73400879,0.01625450
3666.66281616,0.01593938
3668.59162354,0.01543120
3670.52043091,0.01209061
3672.44923828,0.01532102
3674.37804565,0.01442832
3676.30685303,0.01136591
3678.23566040,0.01512541
3680.16446777,0.01557452
3682.09327515,0.01568966
3684.02208252,0.01625788
3685.95088989,0.01585786
3687.87969727,0.01409690
3689.80850464,0.01272922
3691.73731201,0.01477714
3693.66611938,0.01539120
3695.59492676,0.01586800
3697.52373413,0.01582959
3699.45254150,0.01569818
3701.38134888,0.01518420
3703.31015625,0.01440669
3705.23896362,0.01618252
3707.16777100,0.01533610
3709.09657837,0.01477552
3711.02538574,0.01378919
3712.95419312,0.01270855
3714.88300049,0.01535319
3716.81180786,0.01524737
3718.74061523,0.01525345
3720.66942261,0.01494554
3722.59822998,0.01437470
3724.52703735,0.01492725
3726.45584473,0.01370699
3728.38465210,0.01501719
3730.31345947,0.01485171
3732.24226685,0.01339697
3734.17107422,0.01304796
3736.09988159,0.01230148
3738.02868896,0.01313651
3739.95749634,0.01436423
3741.88630371,0.01517362
3743.81511108,0.01147912
3745.74391846,0.01052692
3747.67272583,0.01430891
3749.60153320,0.01208394
3751.53034058,0.01090647
3753.45914795,0.01293558
3755.38795532,0.01402321
3757.31676270,0.01477676
3759.24557007,0.01342652
3761.17437744,0.01393177
3763.10318481,0.01510155
3765.03199219,0.01383730
3766.96079956,0.01432139
3768.88960693,0.01409328
3770.81841431,0.01321699
3772.74722168,0.01466711
3774.67602905,0.01470168
3776.60483643,0.01473493
3778.53364380,0.01414760
3780.46245117,0.01342667
3782.39125854,0.01461288
3784.32006592,0.01419155
3786.24887329,0.01413693
3788.17768066,0.01453977
3790.10648804,0.01438412
3792.03529541,0.01425122
3793.96410278,0.01456909
3795.89291016,0.01357329
3797.82171753,0.01327818
3799.75052490,0.01420038
3801.67933228,0.01081667
3803.60813965,0.01296244
3805.53694702,0.01433889
3807.46575439,0.01130116
3809.39456177,0.01416422
3811.32336914,0.01382917
3813.25217651,0.01437880
3815.18098389,0.01279594
3817.10979126,0.01087670
3819.03859863,0.01427944
3820.96740601,0.01110134
3822.89621338,0.01182894
3824.82502075,0.01425974
3826.75382812,0.01279584
3828.68263550,0.01395062
3830.61144287,0.01321545
3832.54025024,0.01268084
3834.46905762,0.01294793
3836.39786499,0.01224969
3838.32667236,0.01102334
3840.25547974,0.01198608
3842.18428711,0.01301282
3844.11309448,0.01243105
3846.04190186,0.01360891
3847.97070923,0.01343515
3849.89951660,0.01344980
3851.82832397,0.01181250
3853.75713135,0.00842669
3855.68593872,0.01026253
3857.61474609,0.01337800
3859.54355347,0.01304820
3861.47236084,0.01286960
3863.40116821,0.01262191
3865.32997559,0.01150132
3867.25878296,0.01311936
3869.18759033,0.01178956
3871.11639770,0.01069136
3873.04520508,0.01320143
3874.97401245,0.01186540
3876.90281982,0.01302326
3878.83162720,0.01341859
3880.76043457,0.01104974
3882.68924194,0.01303368
3884.61804932,0.01216513
3886.54685669,0.01096532
3888.47566406,0.01321467
3890.40447144,0.01238691
3892.33327881,0.01143277
3894.26208618,0.01277460
3896.19089355,0.01304488
3898.11970093,0.01238167
3900.04850830,0.01151512
3901.97731567,0.01129061
3903.90612305,0.01121614
3905.83493042,0.01144182
3907.76373779,0.01275553
3909.69254517,0.01270603
3911.62135254,0.01266897
3913.55015991,0.01293143
3915.47896728,0.01234641
3917.40777466,0.01199780
3919.33658203,0.01190608
3921.26538940,0.01246238
3923.19419678,0.01227781
3925.12300415,0.01201230
3927.05181152,0.01235133
3928.98061890,0.01252252
3930.90942627,0.01218933
3932.83823364,0.01161071
3934.76704102,0.01233775
3936.69584839,0.01249552
3938.62465576,0.01231472
3940.55346313,0.01237055
3942.48227051,0.01181371
3944.41107788,0.01199943
3946.33988525,0.01217202
3948.26869263,0.01191473
3950.19750000,0.01187514
3952.12630737,0.01214841
3954.05511475,0.01224750
3955.98392212,0.01209117
3957.91272949,0.01202280
3959.84153687,0.01200156
3961.77034424,0.01194333
3963.69915161,0.01193465
3965.62795898,0.01217864
3967.55676636,0.01203314
3969.48557373,0.01196159
3971.41438110,0.01192894
3973.34318848,0.01188925
3975.27199585,0.01196668
3977.20080322,0.01181900
3979.12961060,0.01196848
3981.05841797,0.01180480
3982.98722534,0.01179384
3984.91603271,0.01189027
3986.84484009,0.01178382
3988.77364746,0.01171866
3990.70245483,0.01158196
3992.63126221,0.01174660
3994.56006958,0.01159367
3996.48887695,0.01167206
3998.41768433,0.01166284
4000.34649170,0.01150674
4002.27529907,0.01162973
4004.20410645,0.01153972
4006.13291382,0.01163886
4008.06172119,0.01145202
4009.99052856,0.01147376
4011.91933594,0.01148199
4013.84814331,0.01132984
4015.77695068,0.01149268
4017.70575806,0.01145039
4019.63456543,0.01142561
4021.56337280,0.01133797
4023.49218018,0.01137348
4025.42098755,0.01131232
4027.34979492,0.01130966
4029.27860229,0.01129687
4031.20740967,0.01123023
4033.13621704,0.01138324
4035.06502441,0.01115717
4036.99383179,0.01112217
4038.92263916,0.01113838
4040.85144653,0.01118663
4042.78025391,0.01113656
4044.70906128,0.01097899
4046.63786865,0.01111828
4048.56667603,0.01100713
4050.49548340,0.01111877
4052.42429077,0.01110888
4054.35309814,0.01102573
4056.28190552,0.01102641
4058.21071289,0.01089043
4060.13952026,0.01093691
4062.06832764,0.01083737
4063.99713501,0.01085566
4065.92594238,0.01080957
4067.85474976,0.01080606
4069.78355713,0.01084994
4071.71236450,0.01075634
4073.64117187,0.01081547
4075.56997925,0.01077773
4077.49878662,0.01075440
4079.42759399,0.01068258
4081.35640137,0.01064534
4083.28520874,0.01065459
4085.21401611,0.01066901
4087.14282349,0.01059936
4089.07163086,0.01045588
4091.00043823,0.01056227
4092.92924561,0.01053914
4094.85805298,0.01048130
4096.78686035,0.01048583
4098.71566772,0.01047005
4100.64447510,0.01048380
4102.57328247,0.01044073
4104.50208984,0.01041396
4106.43089722,0.01037357
4108.35970459,0.01036238
4110.28851196,0.01037063
4112.21731934,0.01038752
4114.14612671,0.01029641
4116.07493408,0.01024572
4118.00374145,0.01030887
4119.93254883,0.01023330
4121.86135620,0.01016262
4123.79016357,0.01022965
4125.71897095,0.01015739
4127.64777832,0.01007434
4129.57658569,0.01021649
4131.50539307,0.01011084
4133.43420044,0.01008542
4135.36300781,0.01010810
4137.29181519,0.00998959
4139.22062256,0.01006526
4141.14942993,0.01001605
4143.07823730,0.01002404
4145.00704468,0.00997128
4146.93585205,0.00994371
4148.86465942,0.00990427
4150.79346680,0.00985003
4152.72227417,0.00992230
4154.65108154,0.00975298
4156.57988892,0.00991302
4158.50869629,0.00988358
4160.43750366,0.00966869
4162.36631103,0.00978723
4164.29511841,0.00978182
4166.22392578,0.00978955
4168.15273315,0.00971708
4170.08154053,0.00970586
4172.01034790,0.00963130
4173.93915527,0.00958545
4175.86796265,0.00964048
4177.79677002,0.00958836
4179.72557739,0.00957036
4181.65438477,0.00951356
4183.58319214,0.00960121
4185.51199951,0.00955915
4187.44080688,0.00949611
4189.36961426,0.00951120
4191.29842163,0.00946049
4193.22722900,0.00943446
4195.15603638,0.00939324
4197.08484375,0.00949343
4199.01365112,0.00945991
4200.94245850,0.00937640
4202.87126587,0.00931623
4204.80007324,0.00935120
4206.72888062,0.00937099
4208.65768799,0.00924247
4210.58649536,0.00927512
4212.51530273,0.00925280
4214.44411011,0.00929352
4216.37291748,0.00925545
4218.30172485,0.00916883
4220.23053223,0.00918510
4222.15933960,0.00919643
4224.08814697,0.00918111
4226.01695435,0.00904375
4227.94576172,0.00911335
4229.87456909,0.00908160
4231.80337646,0.00904455
4233.73218384,0.00909638
4235.66099121,0.00904300
4237.58979858,0.00907440
4239.51860596,0.00904499
4241.44741333,0.00901778
4243.37622070,0.00891338
4245.30502808,0.00893207
4247.23383545,0.00887721
4249.16264282,0.00878198
4251.09145020,0.00890490
4253.02025757,0.00881887
4254.94906494,0.00877508
4256.87787231,0.00875976
4258.80667969,0.00873655
4260.73548706,0.00875827
4262.66429443,0.00877152
4264.59310181,0.00876735
4266.52190918,0.00871341
4268.45071655,0.00875453
4270.37952393,0.00871490
4272.30833130,0.00866177
4274.23713867,0.00864438
4276.16594604,0.00864663
4278.09475342,0.00859290
4280.02356079,0.00857038
4281.95236816,0.00857697
4283.88117554,0.00854686
4285.80998291,0.00860651
4287.73879028,0.00850765
4289.66759766,0.00852436
4291.59640503,0.00846103
4293.52521240,0.00839644
4295.45401978,0.00847989
4297.38282715,0.00836640
4299.31163452,0.00844481
4301.24044189,0.00839394
4303.16924927,0.00836265
4305.09805664,0.00838177
4307.02686401,0.00826262
4308.95567139,0.00835244
4310.88447876,0.00830060
4312.81328613,0.00828005
4314.74209351,0.00834935
4316.67090088,0.00823248
4318.59970825,0.00814302
4320.52851562,0.00821219
4322.45732300,0.00819071
4324.38613037,0.00820963
4326.31493774,0.00824370
4328.24374512,0.00809357
4330.17255249,0.00815554
4332.10135986,0.00813194
4334.03016724,0.00810848
4335.95897461,0.00816395
4337.88778198,0.00808412
4339.81658936,0.00812549
4341.74539673,0.00807482
4343.67420410,0.00804611
4345.60301147,0.00807263
4347.53181885,0.00801633
4349.46062622,0.00793471
4351.38943359,0.00793608
4353.31824097,0.00793696
4355.24704834,0.00786321
4357.17585571,0.00787466
4359.10466309,0.00785401
4361.03347046,0.00790135
4362.96227783,0.00788220
4364.89108520,0.00786496
4366.81989258,0.00787844
4368.74869995,0.00775983
4370.67750732,0.00774078
4372.60631470,0.00773737
4374.53512207,0.00778217
4376.46392944,0.00777518
4378.39273682,0.00775156
4380.32154419,0.00775916
4382.25035156,0.00769765
4384.17915894,0.00764433
4386.10796631,0.00763183
4388.03677368,0.00766954
4389.96558105,0.00759146
4391.89438843,0.00756427
4393.82319580,0.00757532
4395.75200317,0.00762123
4397.68081055,0.00755364
4399.60961792,0.00745477
4401.53842529,0.00758844
4403.46723267,0.00750803
4405.39604004,0.00744881
4407.32484741,0.00741215
4409.25365478,0.00744358
4411.18246216,0.00750757
4413.11126953,0.00736402
4415.04007690,0.00738351
4416.96888428,0.00735372
4418.89769165,0.00734363
4420.82649902,0.00730322
4422.75530640,0.00733043
4424.68411377,0.00739627
4426.61292114,0.00724273
4428.54172852,0.00727318
4430.47053589,0.00730670
4432.39934326,0.00734029
4434.32815063,0.00728367
4436.25695801,0.00716886
4438.18576538,0.00720094
4440.11457275,0.00718557
4442.04338013,0.00720477
4443.97218750,0.00722394
4445.90099487,0.00720877
4447.82980225,0.00713161
4449.75860962,0.00713036
4451.68741699,0.00711125
4453.61622437,0.00707636
4455.54503174,0.00704765
4457.47383911,0.00693845
4459.40264648,0.00701571
4461.33145386,0.00701490
4463.26026123,0.00699562
4465.18906860,0.00699378
4467.11787598,0.00692309
4469.04668335,0.00696036
4470.97549072,0.00699537
4472.90429810,0.00695864
4474.83310547,0.00684169
4476.76191284,0.00683281
4478.69072021,0.00682014
4480.61952759,0.00687269
4482.54833496,0.00687813
4484.47714233,0.00673435
4486.40594971,0.00679103
4488.33475708,0.00682513
4490.26356445,0.00679938
4492.19237183,0.00666859
4494.12117920,0.00661150
4496.04998657,0.00672181
4497.97879395,0.00673872
4499.90760132,0.00673593
4501.83640869,0.00665970
4503.76521606,0.00666174
4505.69402344,0.00670224
4507.62283081,0.00665968
4509.55163818,0.00660876
4511.48044556,0.00658440
4513.40925293,0.00655029
4515.33806030,0.00653959
4517.26686768,0.00663627
4519.19567505,0.00658512
4521.12448242,0.00652692
4523.05328979,0.00658331
4524.98209717,0.00657157
4526.91090454,0.00649395
4528.83971191,0.00642447
4530.76851929,0.00641722
4532.69732666,0.00641577
4534.62613403,0.00642377
4536.55494141,0.00648636
4538.48374878,0.00650832
4540.41255615,0.00642321
4542.34136353,0.00645394
4544.27017090,0.00640448
4546.19897827,0.00630677
4548.12778564,0.00630991
4550.05659302,0.00628565
4551.98540039,0.00637755
4553.91420776,0.00629546
4555.84301514,0.00626725
4557.77182251,0.00620667
4559.70062988,0.00614657
4561.62943726,0.00633234
4563.55824463,0.00619179
4565.48705200,0.00619911
4567.41585937,0.00621212
4569.34466675,0.00613413
4571.27347412,0.00618117
4573.20228149,0.00607406
4575.13108887,0.00620782
4577.05989624,0.00617250
4578.98870361,0.00601506
4580.91751099,0.00613097
4582.84631836,0.00614045
4584.77512573,0.00607477
4586.70393311,0.00607503
4588.63274048,0.00602154
4590.56154785,0.00600388
4592.49035522,0.00601569
4594.41916260,0.00592120
4596.34796997,0.00599361
4598.27677734,0.00594338
4600.20558472,0.00584888
4602.13439209,0.00591578
4604.06319946,0.00588393
4605.99200684,0.00593153
4607.92081421,0.00593667
4609.84962158,0.00589712
4611.77842895,0.00583247
4613.70723633,0.00588626
4615.63604370,0.00587033
4617.56485107,0.00578842
4619.49365845,0.00586993
4621.42246582,0.00572308
4623.35127319,0.00574498
4625.28008057,0.00579650
4627.20888794,0.00578666
4629.13769531,0.00582985
4631.06650269,0.00574413
4632.99531006,0.00573428
4634.92411743,0.00566148
4636.85292480,0.00572634
4638.78173218,0.00572381
4640.71053955,0.00574073
4642.63934692,0.00575550
4644.56815430,0.00560535
4646.49696167,0.00566802
4648.42576904,0.00560176
4650.35457642,0.00560632
4652.28338379,0.00559313
4654.21219116,0.00552618
4656.14099853,0.00557322
4658.06980591,0.00553006
4659.99861328,0.00555186
4661.92742065,0.00547863
4663.85622803,0.00549302
4665.78503540,0.00551412
4667.71384277,0.00549652
4669.64265015,0.00549557
4671.57145752,0.00537142
4673.50026489,0.00539678
4675.42907227,0.00546456
4677.35787964,0.00545082
4679.28668701,0.00537006
4681.21549438,0.00536453
4683.14430176,0.00539429
4685.07310913,0.00542772
4687.00191650,0.00542837
4688.93072388,0.00533594
4690.85953125,0.00537768
4692.78833862,0.00534908
4694.71714600,0.00533287
4696.64595337,0.00537555
4698.57476074,0.00534320
4700.50356812,0.00528948
4702.43237549,0.00525279
4704.36118286,0.00525449
4706.28999023,0.00521734
4708.21879761,0.00525559
4710.14760498,0.00521297
4712.07641235,0.00522358
4714.00521973,0.00526928
4715.93402710,0.00518206
4717.86283447,0.00518484
4719.79164185,0.00514505
4721.72044922,0.00513927
4723.64925659,0.00516021
4725.57806396,0.00512212
4727.50687134,0.00508227
4729.43567871,0.00510183
4731.36448608,0.00507430
4733.29329346,0.00502643
4735.22210083,0.00513921
4737.15090820,0.00509788
4739.07971558,0.00504176
4741.00852295,0.00504269
4742.93733032,0.00501382
4744.86613770,0.00500813
4746.79494507,0.00499892
4748.72375244,0.00501403
4750.65255981,0.00496840
4752.58136719,0.00505370
4754.51017456,0.00500511
4756.43898193,0.00491892
4758.36778931,0.00498906
4760.29659668,0.00494361
4762.22540405,0.00495139
4764.15421143,0.00489891
4766.08301880,0.00487299
4768.01182617,0.00487633
4769.94063354,0.00486724
4771.86944092,0.00492687
4773.79824829,0.00488104
4775.72705566,0.00480120
4777.65586304,0.00479177
4779.58467041,0.00485419
4781.51347778,0.00479592
4783.44228516,0.00479444
4785.37109253,0.00477250
4787.29989990,0.00468883
4789.22870728,0.00481457
4791.15751465,0.00476778
4793.08632202,0.00471490
4795.01512939,0.00473414
4796.94393677,0.00470184
4798.87274414,0.00474599
4800.80155151,0.00465953
4802.73035889,0.00462961
4804.65916626,0.00473054
4806.58797363,0.00472571
4808.51678101,0.00462913
4810.44558838,0.00458751
4812.37439575,0.00463301
4814.30320312,0.00463210
4816.23201050,0.00459408
4818.16081787,0.00462072
4820.08962524,0.00465113
4822.01843262,0.00461638
4823.94723999,0.00457122
4825.87604736,0.00455817
4827.80485474,0.00456664
4829.73366211,0.00455158
4831.66246948,0.00452404
4833.59127686,0.00450335
4835.52008423,0.00452640
4837.44889160,0.00448852
4839.37769897,0.00444432
4841.30650635,0.00449946
4843.23531372,0.00444485
4845.16412109,0.00444478
4847.09292847,0.00447631
4849.02173584,0.00446044
4850.95054321,0.00447750
4852.87935059,0.00441925
4854.80815796,0.00435797
4856.73696533,0.00430291
4858.66577270,0.00434171
4860.59458008,0.00433166
4862.52338745,0.00434517
4864.45219482,0.00438873
4866.38100220,0.00430075
4868.30980957,0.00435439
4870.23861694,0.00432753
4872.16742432,0.00433254
4874.09623169,0.00434044
4876.02503906,0.00423891
4877.95384644,0.00432572
4879.88265381,0.00433256
4881.81146118,0.00430950
4883.74026855,0.00426086
4885.66907593,0.00419965
4887.59788330,0.00423950
4889.52669067,0.00421872
4891.45549805,0.00418408
4893.38430542,0.00416481
4895.31311279,0.00420127
4897.24192017,0.00422348
4899.17072754,0.00419787
4901.09953491,0.00417188
4903.02834228,0.00416880
4904.95714966,0.00413541
4906.88595703,0.00412272
4908.81476440,0.00414718
4910.74357178,0.00405947
4912.67237915,0.00405937
4914.60118652,0.00407292
4916.52999390,0.00405393
4918.45880127,0.00403596
4920.38760864,0.00401158
4922.31641602,0.00410211
4924.24522339,0.00405117
4926.17403076,0.00399608
4928.10283813,0.00404032
4930.03164551,0.00399618
4931.96045288,0.00392932
4933.88926025,0.00395990
4935.81806763,0.00399992
4937.74687500,0.00392375
4939.67568237,0.00394862
4941.60448975,0.00392175
4943.53329712,0.00388741
4945.46210449,0.00395076
4947.39091187,0.00388497
4949.31971924,0.00390676
4951.24852661,0.00391128
4953.17733398,0.00389362
4955.10614136,0.00393056
4957.03494873,0.00381334
4958.96375610,0.00381383
4960.89256348,0.00388611
4962.82137085,0.00382285
4964.75017822,0.00381446
4966.67898560,0.00383769
4968.60779297,0.00385732
4970.53660034,0.00383796
4972.46540771,0.00377691
4974.39421509,0.00379219
4976.32302246,0.00380313
4978.25182983,0.00383678
4980.18063721,0.00383810
4982.10944458,0.00378022
4984.03825195,0.00378203
4985.96705933,0.00374160
4987.89586670,0.00373844
4989.82467407,0.00376677
4991.75348145,0.00374685
4993.68228882,0.00371922
4995.61109619,0.00364577
4997.53990356,0.00363983
4999.46871094,0.00367914
5001.39751831,0.00362250
5003.32632568,0.00360289
5005.25513306,0.00365275
5007.18394043,0.00363849
5009.11274780,0.00363705
5011.04155518,0.00360035
5012.97036255,0.00356379
5014.89916992,0.00355349
5016.82797729,0.00349364
5018.75678467,0.00356516
5020.68559204,0.00354406
5022.61439941,0.00350281
5024.54320679,0.00359491
5026.47201416,0.00356032
5028.40082153,0.00355801
5030.32962891,0.00360118
5032.25843628,0.00358408
5034.18724365,0.00349532
5036.11605103,0.00349589
5038.04485840,0.00353670
5039.97366577,0.00349606
5041.90247314,0.00352974
5043.83128052,0.00342731
5045.76008789,0.00341646
5047.68889526,0.00346360
5049.61770264,0.00337199
5051.54651001,0.00347364
5053.47531738,0.00347902
5055.40412476,0.00344955
5057.33293213,0.00351654
5059.26173950,0.00342692
5061.19054687,0.00336247
5063.11935425,0.00338255
5065.04816162,0.00338733
5066.97696899,0.00334495
5068.90577637,0.00334535
5070.83458374,0.00336789
5072.76339111,0.00335252
5074.69219849,0.00336678
5076.62100586,0.00331180
5078.54981323,0.00330172
5080.47862061,0.00335529
5082.40742798,0.00328982
5084.33623535,0.00324056
5086.26504272,0.00321924
5088.19385010,0.00321387
5090.12265747,0.00330549
5092.05146484,0.00333433
5093.98027222,0.00323743
5095.90907959,0.00319309
5097.83788696,0.00324071
5099.76669434,0.00325866
5101.69550171,0.00326805
5103.62430908,0.00324438
5105.55311645,0.00321463
5107.48192383,0.00323642
5109.41073120,0.00322154
5111.33953857,0.00325253
5113.26834595,0.00321034
5115.19715332,0.00315411
5117.12596069,0.00324904
5119.05476807,0.00317534
5120.98357544,0.00309070
5122.91238281,0.00313633
5124.84119019,0.00311522
5126.76999756,0.00311953
5128.69880493,0.00306369
5130.62761230,0.00307400
5132.55641968,0.00317260
5134.48522705,0.00307277
5136.41403442,0.00307952
5138.34284180,0.00312055
5140.27164917,0.00303455
5142.20045654,0.00308378
5144.12926392,0.00303707
5146.05807129,0.00300953
5147.98687866,0.00310440
5149.91568603,0.00303793
5151.84449341,0.00294145
5153.77330078,0.00296775
5155.70210815,0.00300908
5157.63091553,0.00295755
5159.55972290,0.00298597
5161.48853027,0.00300264
5163.41733765,0.00297367
5165.34614502,0.00301509
5167.27495239,0.00294195
5169.20375977,0.00287699
5171.13256714,0.00289407
5173.06137451,0.00292605
5174.99018188,0.00293064
5176.91898926,0.00294519
5178.84779663,0.00295492
5180.77660400,0.00293396
5182.70541138,0.00292205
5184.63421875,0.00283462
5186.56302612,0.00290879
5188.49183350,0.00294960
5190.42064087,0.00283812
5192.34944824,0.00286995
5194.27825562,0.00293677
5196.20706299,0.00288496
5198.13587036,0.00278708
5200.06467773,0.00287330
5201.99348511,0.00288142
5203.92229248,0.00281315
5205.85109985,0.00271839
5207.77990723,0.00268116
5209.70871460,0.00282725
5211.63752197,0.00277604
5213.56632935,0.00282914
5215.49513672,0.00282086
5217.42394409,0.00274595
5219.35275146,0.00275068
5221.28155884,0.00275336
5223.21036621,0.00289038
5225.13917358,0.00265812
5227.06798096,0.00264360
5228.99678833,0.00277237
5230.92559570,0.00268483
5232.85440308,0.00277129
5234.78321045,0.00276393
5236.71201782,0.00275681
5238.64082520,0.00265522
5240.56963257,0.00272972
5242.49843994,0.00268795
5244.42724731,0.00259044
5246.35605469,0.00277462
5248.28486206,0.00258372
5250.21366943,0.00260121
5252.14247681,0.00266404
5254.07128418,0.00263064
5256.00009155,0.00268204
5257.92889893,0.00258520
5259.85770630,0.00266180
5261.78651367,0.00259246
5263.71532104,0.00257276
5265.64412842,0.00260160
5267.57293579,0.00257092
5269.50174316,0.00260663
5271.43055054,0.00257280
5273.35935791,0.00263681
5275.28816528,0.00261703
5277.21697266,0.00262016
5279.14578003,0.00259826
5281.07458740,0.00261061
5283.00339478,0.00263159
5284.93220215,0.00253216
5286.86100952,0.00260186
5288.78981689,0.00248465
5290.71862427,0.00246479
5292.64743164,0.00259530
5294.57623901,0.00251273
5296.50504639,0.00258230
5298.43385376,0.00258667
5300.36266113,0.00245963
5302.29146851,0.00251435
5304.22027588,0.00256899
5306.14908325,0.00246909
5308.07789062,0.00244888
5310.00669800,0.00251097
5311.93550537,0.00248888
5313.86431274,0.00247880
5315.79312012,0.00248991
5317.72192749,0.00248228
5319.65073486,0.00246922
5321.57954224,0.00245023
5323.50834961,0.00245248
5325.43715698,0.00247078
5327.36596436,0.00241315
5329.29477173,0.00239322
5331.22357910,0.00240113
5333.15238647,0.00232218
5335.08119385,0.00235931
5337.01000122,0.00232738
5338.93880859,0.00227819
5340.86761597,0.00243125
5342.79642334,0.00235638
5344.72523071,0.00222952
5346.65403809,0.00235083
5348.58284546,0.00237591
5350.51165283,0.00234612
5352.44046020,0.00231789
5354.36926758,0.00227855
5356.29807495,0.00236303
5358.22688232,0.00238703
5360.15568970,0.00237905
5362.08449707,0.00232704
5364.01330444,0.00224175
5365.94211182,0.00230025
5367.87091919,0.00233083
5369.79972656,0.00234992
5371.72853394,0.00231874
5373.65734131,0.00226049
5375.58614868,0.00224250
5377.51495605,0.00219024
5379.44376343,0.00223040
5381.37257080,0.00227778
5383.30137817,0.00232131
5385.23018555,0.00226733
5387.15899292,0.00218476
5389.08780029,0.00225934
5391.01660767,0.00220983
5392.94541504,0.00215091
5394.87422241,0.00219114
5396.80302978,0.00221860
5398.73183716,0.00226097
5400.66064453,0.00222910
5402.58945190,0.00215826
5404.51825928,0.00211834
5406.44706665,0.00216448
5408.37587402,0.00217891
5410.30468140,0.00213348
5412.23348877,0.00220920
5414.16229614,0.00212940
5416.09110352,0.00205406
5418.01991089,0.00219642
5419.94871826,0.00218900
5421.87752563,0.00219380
5423.80633301,0.00215569
5425.73514038,0.00215810
5427.66394775,0.00219885
5429.59275513,0.00200716
5431.52156250,0.00211076
5433.45036987,0.00209583
5435.37917725,0.00195468
5437.30798462,0.00215327
5439.23679199,0.00210065
5441.16559936,0.00204944
5443.09440674,0.00206832
5445.02321411,0.00196784
5446.95202148,0.00200559
5448.88082886,0.00205550
5450.80963623,0.00207311
5452.73844360,0.00210588
5454.66725098,0.00205598
5456.59605835,0.00197590
5458.52486572,0.00206688
5460.45367310,0.00207275
5462.38248047,0.00197099
5464.31128784,0.00195788
5466.24009521,0.00200728
5468.16890259,0.00210914
5470.09770996,0.00204939
5472.02651733,0.00201732
5473.95532471,0.00199369
5475.88413208,0.00192567
5477.81293945,0.00199909
5479.74174683,0.00201943
5481.67055420,0.00200414
5483.59936157,0.00199085
5485.52816895,0.00199745
5487.45697632,0.00197077
5489.38578369,0.00197967
5491.31459106,0.00196570
5493.24339844,0.00187105
5495.17220581,0.00199670
5497.10101318,0.00196376
5499.02982056,0.00183466
5500.95862793,0.00194207
5502.88743530,0.00197094
5504.81624268,0.00192330
5506.74505005,0.00191666
5508.67385742,0.00196801
5510.60266479,0.00193195
5512.53147217,0.00190719
5514.46027954,0.00196142
5516.38908691,0.00187742
5518.31789429,0.00188727
5520.24670166,0.00191133
5522.17550903,0.00185190
5524.10431641,0.00190127
5526.03312378,0.00189333
5527.96193115,0.00191818
5529.89073853,0.00195037
5531.81954590,0.00188575
5533.74835327,0.00188252
5535.67716064,0.00188699
5537.60596802,0.00189096
5539.53477539,0.00182863
5541.46358276,0.00181942
5543.39239014,0.00184118
5545.32119751,0.00179264
5547.25000488,0.00183864
5549.17881226,0.00179617
5551.10761963,0.00185006
5553.03642700,0.00191035
5554.96523437,0.00175119
5556.89404175,0.00174053
5558.82284912,0.00181677
5560.75165649,0.00182813
5562.68046387,0.00180142
5564.60927124,0.00180930
5566.53807861,0.00174911
5568.46688599,0.00175401
5570.39569336,0.00179622
5572.32450073,0.00168709
5574.25330811,0.00176679
5576.18211548,0.00178231
5578.11092285,0.00174442
5580.03973022,0.00174750
5581.96853760,0.00170187
5583.89734497,0.00178734
5585.82615234,0.00178381
5587.75495972,0.00177010
5589.68376709,0.00171946
5591.61257446,0.00173261
5593.54138184,0.00177068
5595.47018921,0.00168820
5597.39899658,0.00175315
5599.32780395,0.00174498
5601.25661133,0.00173962
5603.18541870,0.00175747
5605.11422607,0.00170965
5607.04303345,0.00170498
5608.97184082,0.00170744
5610.90064819,0.00170921
5612.82945557,0.00168107
5614.75826294,0.00173218
5616.68707031,0.00165766
5618.61587769,0.00164173
5620.54468506,0.00172389
5622.47349243,0.00164406
5624.40229980,0.00172674
5626.33110718,0.00172065
5628.25991455,0.00163934
5630.18872192,0.00170700
5632.11752930,0.00164863
5634.04633667,0.00162484
5635.97514404,0.00165483
5637.90395142,0.00156661
5639.83275879,0.00155445
5641.76156616,0.00160832
5643.69037353,0.00163633
5645.61918091,0.00166244
5647.54798828,0.00159153
5649.47679565,0.00159955
5651.40560303,0.00162284
5653.33441040,0.00159454
5655.26321777,0.00161838
5657.19202515,0.00157331
5659.12083252,0.00160972
5661.04963989,0.00158882
5662.97844727,0.00154132
5664.90725464,0.00158803
5666.83606201,0.00155045
5668.76486938,0.00152759
5670.69367676,0.00156436
5672.62248413,0.00165583
5674.55129150,0.00154673
5676.48009888,0.00147538
5678.40890625,0.00162666
5680.33771362,0.00154730
5682.26652100,0.00149655
5684.19532837,0.00155660
5686.12413574,0.00149142
5688.05294311,0.00144904
5689.98175049,0.00150465
5691.91055786,0.00153423
5693.83936523,0.00150746
5695.76817261,0.00150192
5697.69697998,0.00147952
5699.62578735,0.00152822
5701.55459473,0.00154107
5703.48340210,0.00146661
5705.41220947,0.00148047
5707.34101685,0.00148260
5709.26982422,0.00149367
5711.19863159,0.00151211
5713.12743896,0.00149559
5715.05624634,0.00152745
5716.98505371,0.00148418
5718.91386108,0.00143772
5720.84266846,0.00148109
5722.77147583,0.00143016
5724.70028320,0.00140425
5726.62909058,0.00142312
5728.55789795,0.00142529
5730.48670532,0.00147653
5732.41551270,0.00142482
5734.34432007,0.00141543
5736.27312744,0.00142037
5738.20193481,0.00137077
5740.13074219,0.00142295
5742.05954956,0.00140261
5743.98835693,0.00143852
5745.91716431,0.00143992
5747.84597168,0.00134635
5749.77477905,0.00145570
5751.70358643,0.00150820
5753.63239380,0.00145106
5755.56120117,0.00138547
5757.49000854,0.00139925
5759.41881592,0.00148231
5761.34762329,0.00140051
5763.27643066,0.00138060
5765.20523804,0.00136363
5767.13404541,0.00131404
5769.06285278,0.00135064
5770.99166016,0.00132372
5772.92046753,0.00134928
5774.84927490,0.00132562
5776.77808228,0.00133305
5778.70688965,0.00136928
5780.63569702,0.00127726
5782.56450439,0.00128482
5784.49331177,0.00131519
5786.42211914,0.00134738
5788.35092651,0.00131630
5790.27973389,0.00131697
5792.20854126,0.00139037
5794.13734863,0.00132684
5796.06615601,0.00133595
5797.99496338,0.00129710
5799.92377075,0.00123365
5801.85257812,0.00125665
5803.78138550,0.00126284
5805.71019287,0.00131287
5807.63900024,0.00131726
5809.56780762,0.00129819
5811.49661499,0.00130899
5813.42542236,0.00133735
5815.35422974,0.00123700
5817.28303711,0.00122021
5819.21184448,0.00134792
5821.14065186,0.00128855
5823.06945923,0.00126584
5824.99826660,0.00127394
5826.92707397,0.00126388
5828.85588135,0.00129348
5830.78468872,0.00126587
5832.71349609,0.00123342
5834.64230347,0.00127727
5836.57111084,0.00131404
5838.49991821,0.00125900
5840.42872559,0.00126867
5842.35753296,0.00121568
5844.28634033,0.00122659
5846.21514770,0.00125431
5848.14395508,0.00118274
5850.07276245,0.00123327
5852.00156982,0.00116584
5853.93037720,0.00119711
5855.85918457,0.00124693
5857.78799194,0.00117695
5859.71679932,0.00121080
5861.64560669,0.00115838
5863.57441406,0.00114363
5865.50322144,0.00117616
5867.43202881,0.00115767
5869.36083618,0.00113718
5871.28964355,0.00124512
5873.21845093,0.00125327
5875.14725830,0.00109787
5877.07606567,0.00113703
5879.00487305,0.00122684
5880.93368042,0.00127888
5882.86248779,0.00115892
5884.79129517,0.00111628
5886.72010254,0.00117492
5888.64890991,0.00112684
5890.57771728,0.00120858
5892.50652466,0.00117668
5894.43533203,0.00117222
5896.36413940,0.00117891
5898.29294678,0.00112068
5900.22175415,0.00110759
5902.15056152,0.00103365
5904.07936890,0.00109490
5906.00817627,0.00111661
5907.93698364,0.00109107
5909.86579102,0.00107155
5911.79459839,0.00108763
5913.72340576,0.00113245
5915.65221313,0.00112207
5917.58102051,0.00117002
5919.50982788,0.00105023
5921.43863525,0.00101003
5923.36744263,0.00111525
5925.29625000,0.00106005
5927.22505737,0.00105955
5929.15386475,0.00117251
5931.08267212,0.00111263
5933.01147949,0.00099112
5934.94028686,0.00108144
5936.86909424,0.00105300
5938.79790161,0.00103617
5940.72670898,0.00110991
5942.65551636,0.00105492
5944.58432373,0.00101264
5946.51313110,0.00099163
5948.44193848,0.00110498
5950.37074585,0.00106340
5952.29955322,0.00099510
5954.22836060,0.00113352
5956.15716797,0.00107564
5958.08597534,0.00103365
5960.01478271,0.00106051
5961.94359009,0.00104009
5963.87239746,0.00102859
5965.80120483,0.00096887
5967.73001221,0.00098637
5969.65881958,0.00103735
5971.58762695,0.00102195
5973.51643433,0.00104760
5975.44524170,0.00102996
5977.37404907,0.00099356
5979.30285645,0.00108332
5981.23166382,0.00098361
5983.16047119,0.00090558
5985.08927856,0.00103315
5987.01808594,0.00098495
5988.94689331,0.00098177
5990.87570068,0.00102579
5992.80450806,0.00100473
5994.73331543,0.00102013
5996.66212280,0.00101004
5998.59093018,0.00099067
6000.51973755,0.00093760
