399.26312622,0.00023781
401.19193359,0.00027661
403.12074097,0.00011959
405.04954834,0.00037720
406.97835571,0.00012472
408.90716309,0.00004677
410.83597046,0.00033215
412.76477783,0.00021260
414.69358521,0.00024445
416.62239258,0.00008912
418.55119995,0.00001468
420.48000732,0.00024076
422.40881470,-0.00004394
424.33762207,-0.00019743
426.26642944,0.00011209
428.19523682,0.00018719
430.12404419,0.00020520
432.05285156,0.00036598
433.98165894,0.00013663
435.91046631,-0.00000696
437.83927368,0.00009183
439.76808105,0.00003481
441.69688843,0.00012653
443.62569580,0.00008961
445.55450317,0.00017401
447.48331055,0.00013680
449.41211792,0.00006373
451.34092529,0.00041013
453.26973267,0.00015755
455.19854004,0.00003169
457.12734741,0.00029396
459.05615479,0.00041500
460.98496216,0.00036257
462.91376953,0.00017572
464.84257690,0.00038114
466.77138428,0.00037176
468.70019165,0.00016914
470.62899902,0.00008143
472.55780640,0.00020028
474.48661377,0.00016467
476.41542114,0.00000711
478.34422852,0.00018398
480.27303589,0.00023075
482.20184326,0.00025750
484.13065063,0.00013282
486.05945801,0.00017530
487.98826538,0.00015115
489.91707275,-0.00003020
491.84588013,0.00006757
493.77468750,0.00022688
495.70349487,0.00040480
497.63230225,0.00007091
499.56110962,0.00008582
501.48991699,0.00022165
503.41872437,0.00013746
505.34753174,0.00023111
507.27633911,0.00005073
509.20514648,0.00031098
511.13395386,0.00018838
513.06276123,-0.00005480
514.99156860,0.00010143
516.92037598,0.00006951
518.84918335,0.00016986
520.77799072,0.00009961
522.70679810,0.00016096
524.63560547,0.00007894
526.56441284,0.00021184
528.49322021,0.00017685
530.42202759,-0.00006575
532.35083496,0.00034953
534.27964233,0.00017237
536.20844971,0.00012482
538.13725708,0.00012677
540.06606445,0.00012530
541.99487183,0.00015302
543.92367920,-0.00023224
545.85248657,0.00017635
547.78129395,-0.00001114
549.71010132,-0.00014775
551.63890869,0.00032203
553.56771606,0.00011919
555.49652344,0.00022342
557.42533081,0.00024745
559.35413818,0.00006340
561.28294556,0.00003880
563.21175293,0.00003321
565.14056030,-0.00004388
567.06936768,-0.00000736
568.99817505,0.00017063
570.92698242,0.00015881
572.85578979,0.00016431
574.78459717,0.00018537
576.71340454,0.00011314
578.64221191,-0.00010673
580.57101929,0.00005798
582.49982666,0.00014022
584.42863403,-0.00010779
586.35744141,0.00011041
588.28624878,0.00006927
590.21505615,0.00007793
592.14386353,0.00023804
594.07267090,0.00020962
596.00147827,0.00029951
597.93028564,0.00027757
599.85909302,0.00029142
601.78790039,0.00001518
603.71670776,0.00012041
605.64551514,0.00028236
607.57432251,0.00004936
609.50312988,0.00029014
611.43193726,0.00011247
613.36074463,0.00006460
615.28955200,0.00007538
617.21835938,-0.00015465
619.14716675,0.00011399
621.07597412,0.00007179
623.00478149,0.00017388
624.93358887,0.00031713
626.86239624,0.00013352
628.79120361,0.00019330
630.72001099,0.00021081
632.64881836,0.00014207
634.57762573,0.00012765
636.50643311,0.00029349
638.43524048,0.00039102
640.36404785,0.00006120
642.29285522,0.00013794
644.22166260,0.00011441
646.15046997,0.00015527
648.07927734,0.00034818
650.00808472,0.00006662
651.93689209,0.00038584
653.86569946,0.00025579
655.79450684,0.00005635
657.72331421,0.00046717
659.65212158,0.00018575
661.58092896,0.00017488
663.50973633,0.00024877
665.43854370,0.00017005
667.36735107,0.00027969
669.29615845,0.00021706
671.22496582,0.00033824
673.15377319,0.00055371
675.08258057,0.00048044
677.01138794,0.00027001
678.94019531,0.00028617
680.86900269,0.00013760
682.79781006,0.00023112
684.72661743,0.00055239
686.65542480,0.00038610
688.58423218,0.00014452
690.51303955,0.00018621
692.44184692,0.00064196
694.37065430,0.00044132
696.29946167,0.00016411
698.22826904,0.00052136
700.15707642,0.00041968
702.08588379,0.00050842
704.01469116,0.00043426
705.94349854,0.00020603
707.87230591,0.00037952
709.80111328,0.00033407
711.72992065,0.00022681
713.65872803,0.00010665
715.58753540,0.00029156
717.51634277,0.00030531
719.44515015,0.00020054
721.37395752,0.00031486
723.30276489,0.00000849
725.23157227,0.00022913
727.16037964,0.00037778
729.08918701,0.00004274
731.01799438,0.00033134
732.94680176,0.00023936
734.87560913,0.00002931
736.80441650,0.00023769
738.73322388,0.00022099
740.66203125,0.00023611
742.59083862,0.00016654
744.51964600,0.00021095
746.44845337,0.00026601
748.37726074,0.00000455
750.30606812,0.00007864
752.23487549,0.00033008
754.16368286,0.00014719
756.09249023,0.00004674
758.02129761,0.00028367
759.95010498,0.00019559
761.87891235,0.00010838
763.80771973,0.00017748
765.73652710,0.00023203
767.66533447,0.00037422
769.59414185,0.00029086
771.52294922,0.00028604
773.45175659,0.00028983
775.38056396,0.00023247
777.30937134,0.00017264
779.23817871,0.00012853
781.16698608,0.00029224
783.09579346,0.00013361
785.02460083,0.00010790
786.95340820,0.00035774
788.88221558,0.00020533
790.81102295,0.00018602
792.73983032,0.00031141
794.66863770,0.00014149
796.59744507,0.00013468
798.52625244,0.00027671
800.45505981,0.00033800
802.38386719,0.00029232
804.31267456,0.00009442
806.24148193,0.00023368
808.17028931,0.00022786
810.09909668,0.00018926
812.02790405,0.00044303
813.95671143,0.00017436
815.88551880,0.00014919
817.81432617,0.00025013
819.74313354,0.00010802
821.67194092,0.00017629
823.60074829,0.00015396
825.52955566,0.00034371
827.45836304,0.00038631
829.38717041,0.00031888
831.31597778,0.00032803
833.24478516,0.00015656
835.17359253,0.00027700
837.10239990,0.00036943
839.03120728,0.00033518
840.96001465,0.00041237
842.88882202,0.00037325
844.81762939,0.00031563
846.74643677,0.00045966
848.67524414,0.00033299
850.60405151,0.00021558
852.53285889,0.00038077
854.46166626,0.00018947
856.39047363,0.00045673
858.31928101,0.00047232
860.24808838,0.00017300
862.17689575,0.00044297
864.10570313,0.00019076
866.03451050,0.00033606
867.96331787,0.00036472
869.89212524,-0.00001061
871.82093262,0.00022861
873.74973999,0.00026554
875.67854736,0.00050188
877.60735474,0.00037448
879.53616211,0.00015233
881.46496948,0.00040123
883.39377686,0.00039297
885.32258423,0.00066160
887.25139160,0.00056829
889.18019897,0.00024429
891.10900635,0.00024044
893.03781372,0.00032470
894.96662109,0.00050453
896.89542847,0.00041626
898.82423584,0.00036662
900.75304321,0.00025192
902.68185059,0.00035016
904.61065796,0.00050081
906.53946533,0.00027964
908.46827271,0.00040104
910.39708008,0.00038083
912.32588745,0.00029741
914.25469482,0.00035881
916.18350220,0.00037439
918.11230957,0.00041422
920.04111694,0.00035343
921.96992432,0.00056614
923.89873169,0.00048319
925.82753906,0.00037244
927.75634644,0.00054397
929.68515381,0.00036982
931.61396118,0.00035165
933.54276855,0.00054503
935.47157593,0.00064052
937.40038330,0.00035231
939.32919067,0.00025566
941.25799805,0.00050689
943.18680542,0.00049442
945.11561279,0.00058687
947.04442017,0.00047521
948.97322754,0.00049398
950.90203491,0.00063477
952.83084229,0.00049048
954.75964966,0.00054893
956.68845703,0.00044971
958.61726440,0.00041946
960.54607178,0.00042017
962.47487915,0.00043579
964.40368652,0.00054930
966.33249390,0.00032675
968.26130127,0.00035847
970.19010864,0.00050224
972.11891602,0.00060929
974.04772339,0.00075934
975.97653076,0.00059277
977.90533813,0.00040460
979.83414551,0.00051521
981.76295288,0.00078916
983.69176025,0.00075749
985.62056763,0.00073532
987.54937500,0.00084123
989.47818237,0.00078911
991.40698975,0.00082762
993.33579712,0.00088555
995.26460449,0.00095592
997.19341187,0.00082020
999.12221924,0.00078374
1001.05102661,0.00105909
1002.97983398,0.00101618
1004.90864136,0.00106638
1006.83744873,0.00121205
1008.76625610,0.00115409
1010.69506348,0.00123499
1012.62387085,0.00136082
1014.55267822,0.00130281
1016.48148560,0.00115036
1018.41029297,0.00138037
1020.33910034,0.00151555
1022.26790771,0.00137714
1024.19671509,0.00159684
1026.12552246,0.00162263
1028.05432983,0.00159737
1029.98313721,0.00175705
1031.91194458,0.00165848
1033.84075195,0.00167225
1035.76955933,0.00179930
1037.69836670,0.00173709
1039.62717407,0.00164849
1041.55598145,0.00178467
1043.48478882,0.00187251
1045.41359619,0.00170347
1047.34240356,0.00164187
1049.27121094,0.00170923
1051.20001831,0.00170222
1053.12882568,0.00162571
1055.05763306,0.00179957
1056.98644043,0.00175175
1058.91524780,0.00132541
1060.84405518,0.00140039
1062.77286255,0.00149660
1064.70166992,0.00149197
1066.63047729,0.00166511
1068.55928467,0.00157759
1070.48809204,0.00148960
1072.41689941,0.00148433
1074.34570679,0.00140485
1076.27451416,0.00130895
1078.20332153,0.00129487
1080.13212891,0.00132496
1082.06093628,0.00127164
1083.98974365,0.00116333
1085.91855103,0.00116802
1087.84735840,0.00124016
1089.77616577,0.00111535
1091.70497314,0.00098105
1093.63378052,0.00092622
1095.56258789,0.00108194
1097.49139526,0.00121415
1099.42020264,0.00112083
1101.34901001,0.00103714
1103.27781738,0.00095590
1105.20662476,0.00115806
1107.13543213,0.00108567
1109.06423950,0.00094368
1110.99304687,0.00113654
1112.92185425,0.00100787
1114.85066162,0.00112389
1116.77946899,0.00122454
1118.70827637,0.00096462
1120.63708374,0.00099079
1122.56589111,0.00113707
1124.49469849,0.00121738
1126.42350586,0.00115601
1128.35231323,0.00101786
1130.28112061,0.00108442
1132.20992798,0.00111587
1134.13873535,0.00108673
1136.06754272,0.00128820
1137.99635010,0.00125947
1139.92515747,0.00122975
1141.85396484,0.00129927
1143.78277222,0.00113093
1145.71157959,0.00135333
1147.64038696,0.00135715
1149.56919434,0.00125508
1151.49800171,0.00159453
1153.42680908,0.00147033
1155.35561646,0.00152727
1157.28442383,0.00171560
1159.21323120,0.00156811
1161.14203857,0.00165347
1163.07084595,0.00151798
1164.99965332,0.00164678
1166.92846069,0.00194879
1168.85726807,0.00170615
1170.78607544,0.00180554
1172.71488281,0.00203376
1174.64369019,0.00202226
1176.57249756,0.00210773
1178.50130493,0.00211746
1180.43011230,0.00211206
1182.35891968,0.00219651
1184.28772705,0.00233267
1186.21653442,0.00229903
1188.14534180,0.00218688
1190.07414917,0.00237092
1192.00295654,0.00264614
1193.93176392,0.00264332
1195.86057129,0.00270910
1197.78937866,0.00302807
1199.71818604,0.00297202
1201.64699341,0.00290251
1203.57580078,0.00311880
1205.50460815,0.00325658
1207.43341553,0.00348239
1209.36222290,0.00358540
1211.29103027,0.00363989
1213.21983765,0.00368214
1215.14864502,0.00364502
1217.07745239,0.00379232
1219.00625977,0.00383132
1220.93506714,0.00380375
1222.86387451,0.00386923
1224.79268188,0.00391958
1226.72148926,0.00384747
1228.65029663,0.00386835
1230.57910400,0.00409322
1232.50791138,0.00405144
1234.43671875,0.00398090
1236.36552612,0.00398523
1238.29433350,0.00404097
1240.22314087,0.00404799
1242.15194824,0.00380143
1244.08075562,0.00390177
1246.00956299,0.00396728
1247.93837036,0.00393632
1249.86717773,0.00405719
1251.79598511,0.00390375
1253.72479248,0.00393707
1255.65359985,0.00393854
1257.58240723,0.00381663
1259.51121460,0.00384483
1261.44002197,0.00374865
1263.36882935,0.00371907
1265.29763672,0.00360988
1267.22644409,0.00360912
1269.15525146,0.00377440
1271.08405884,0.00364471
1273.01286621,0.00354625
1274.94167358,0.00357000
1276.87048096,0.00352480
1278.79928833,0.00343108
1280.72809570,0.00338309
1282.65690308,0.00335304
1284.58571045,0.00327720
1286.51451782,0.00325937
1288.44332520,0.00314391
1290.37213257,0.00312816
1292.30093994,0.00318388
1294.22974731,0.00308580
1296.15855469,0.00316890
1298.08736206,0.00314760
1300.01616943,0.00310844
1301.94497681,0.00331709
1303.87378418,0.00325325
1305.80259155,0.00314052
1307.73139893,0.00322960
1309.66020630,0.00330214
1311.58901367,0.00341254
1313.51782104,0.00348482
1315.44662842,0.00353706
1317.37543579,0.00359396
1319.30424316,0.00356936
1321.23305054,0.00361621
1323.16185791,0.00367278
1325.09066528,0.00382803
1327.01947266,0.00392492
1328.94828003,0.00381562
1330.87708740,0.00400845
1332.80589478,0.00401358
1334.73470215,0.00402287
1336.66350952,0.00429254
1338.59231689,0.00408455
1340.52112427,0.00425208
1342.44993164,0.00458858
1344.37873901,0.00437782
1346.30754639,0.00426641
1348.23635376,0.00429099
1350.16516113,0.00440596
1352.09396851,0.00439305
1354.02277588,0.00425313
1355.95158325,0.00423775
1357.88039062,0.00432321
1359.80919800,0.00432428
1361.73800537,0.00400767
1363.66681274,0.00408158
1365.59562012,0.00431551
1367.52442749,0.00407916
1369.45323486,0.00415802
1371.38204224,0.00419241
1373.31084961,0.00395908
1375.23965698,0.00404146
1377.16846436,0.00400216
1379.09727173,0.00393767
1381.02607910,0.00390738
1382.95488647,0.00409156
1384.88369385,0.00432408
1386.81250122,0.00376880
1388.74130859,0.00379481
1390.67011597,0.00436938
1392.59892334,0.00403991
1394.52773071,0.00388954
1396.45653809,0.00415497
1398.38534546,0.00394278
1400.31415283,0.00407146
1402.24296021,0.00449584
1404.17176758,0.00414917
1406.10057495,0.00415941
1408.02938232,0.00433895
1409.95818970,0.00404904
1411.88699707,0.00414595
1413.81580444,0.00412650
1415.74461182,0.00414156
1417.67341919,0.00371867
1419.60222656,0.00338332
1421.53103394,0.00383573
1423.45984131,0.00366410
1425.38864868,0.00377013
1427.31745605,0.00382817
1429.24626343,0.00348588
1431.17507080,0.00362689
1433.10387817,0.00356178
1435.03268555,0.00328245
1436.96149292,0.00299129
1438.89030029,0.00323367
1440.81910767,0.00343643
1442.74791504,0.00329370
1444.67672241,0.00332638
1446.60552979,0.00312890
1448.53433716,0.00320379
1450.46314453,0.00323083
1452.39195190,0.00332271
1454.32075928,0.00345545
1456.24956665,0.00286535
1458.17837402,0.00293259
1460.10718140,0.00354314
1462.03598877,0.00380107
1463.96479614,0.00404832
1465.89360352,0.00397908
1467.82241089,0.00429110
1469.75121826,0.00468610
1471.68002563,0.00416742
1473.60883301,0.00420497
1475.53764038,0.00466662
1477.46644775,0.00498453
1479.39525513,0.00546015
1481.32406250,0.00549962
1483.25286987,0.00583695
1485.18167725,0.00604433
1487.11048462,0.00574031
1489.03929199,0.00564821
1490.96809937,0.00577142
1492.89690674,0.00667328
1494.82571411,0.00659842
1496.75452148,0.00580436
1498.68332886,0.00652151
1500.61213623,0.00680575
1502.54094360,0.00713750
1504.46975098,0.00676755
1506.39855835,0.00493933
1508.32736572,0.00609893
1510.25617310,0.00716498
1512.18498047,0.00686410
1514.11378784,0.00741947
1516.04259521,0.00659087
1517.97140259,0.00694927
1519.90020996,0.00677635
1521.82901733,0.00591210
1523.75782471,0.00710498
1525.68663208,0.00704541
1527.61543945,0.00715124
1529.54424683,0.00749543
1531.47305420,0.00717450
1533.40186157,0.00677962
1535.33066895,0.00734955
1537.25947632,0.00775381
1539.18828369,0.00534974
1541.11709106,0.00580361
1543.04589844,0.00680728
1544.97470581,0.00645036
1546.90351318,0.00777772
1548.83232056,0.00716321
1550.76112793,0.00733473
1552.68993530,0.00738436
1554.61874268,0.00684947
1556.54755005,0.00719325
1558.47635742,0.00514342
1560.40516479,0.00559525
1562.33397217,0.00785954
1564.26277954,0.00744563
1566.19158691,0.00757936
1568.12039429,0.00756696
1570.04920166,0.00660723
1571.97800903,0.00775364
1573.90681641,0.00789206
1575.83562378,0.00620651
1577.76443115,0.00714879
1579.69323853,0.00787672
1581.62204590,0.00755334
1583.55085327,0.00778597
1585.47966064,0.00770527
1587.40846802,0.00786915
1589.33727539,0.00759789
1591.26608276,0.00766030
1593.19489014,0.00778668
1595.12369751,0.00754560
1597.05250488,0.00770087
1598.98131226,0.00769133
1600.91011963,0.00772643
1602.83892700,0.00768552
1604.76773437,0.00764437
1606.69654175,0.00758702
1608.62534912,0.00772920
1610.55415649,0.00760674
1612.48296387,0.00770201
1614.41177124,0.00773892
1616.34057861,0.00640574
1618.26938599,0.00700257
1620.19819336,0.00802506
1622.12700073,0.00715179
1624.05580811,0.00712918
1625.98461548,0.00751543
1627.91342285,0.00751754
1629.84223022,0.00747946
1631.77103760,0.00794114
1633.69984497,0.00741977
1635.62865234,0.00612535
1637.55745972,0.00707703
1639.48626709,0.00801518
1641.41507446,0.00764561
1643.34388184,0.00781103
1645.27268921,0.00705244
1647.20149658,0.00616800
1649.13030396,0.00778985
1651.05911133,0.00731778
1652.98791870,0.00479764
1654.91672607,0.00634625
1656.84553345,0.00800912
1658.77434082,0.00783892
1660.70314819,0.00799276
1662.63195557,0.00710415
1664.56076294,0.00744276
1666.48957031,0.00821658
1668.41837769,0.00698879
1670.34718506,0.00685670
1672.27599243,0.00774589
1674.20479980,0.00696373
1676.13360718,0.00700133
1678.06241455,0.00791463
1679.99122192,0.00755322
1681.92002930,0.00751250
1683.84883667,0.00608228
1685.77764404,0.00603692
1687.70645142,0.00816981
1689.63525879,0.00729854
1691.56406616,0.00793533
1693.49287354,0.00786358
1695.42168091,0.00585566
1697.35048828,0.00707997
1699.27929565,0.00611167
1701.20810303,0.00579412
1703.13691040,0.00776752
1705.06571777,0.00700011
1706.99452515,0.00710616
1708.92333252,0.00754128
1710.85213989,0.00742681
1712.78094727,0.00757726
1714.70975464,0.00688574
1716.63856201,0.00634365
1718.56736938,0.00618804
1720.49617676,0.00728116
1722.42498413,0.00757417
1724.35379150,0.00704676
1726.28259888,0.00765928
1728.21140625,0.00706681
1730.14021362,0.00716722
1732.06902100,0.00695840
1733.99782837,0.00531363
1735.92663574,0.00653956
1737.85544312,0.00723940
1739.78425049,0.00645421
1741.71305786,0.00696497
1743.64186523,0.00702307
1745.57067261,0.00703496
1747.49947998,0.00714418
1749.42828735,0.00672018
1751.35709473,0.00640300
1753.28590210,0.00721536
1755.21470947,0.00748280
1757.14351685,0.00680968
1759.07232422,0.00760918
1761.00113159,0.00709722
1762.92993896,0.00677948
1764.85874634,0.00787208
1766.78755371,0.00706849
1768.71636108,0.00701163
1770.64516846,0.00695026
1772.57397583,0.00627268
1774.50278320,0.00699907
1776.43159058,0.00738869
1778.36039795,0.00728612
1780.28920532,0.00721646
1782.21801270,0.00733874
1784.14682007,0.00736936
1786.07562744,0.00727591
1788.00443481,0.00751479
1789.93324219,0.00724385
1791.86204956,0.00659108
1793.79085693,0.00678054
1795.71966431,0.00738593
1797.64847168,0.00728564
1799.57727905,0.00705046
1801.50608643,0.00698531
1803.43489380,0.00711000
1805.36370117,0.00723202
1807.29250854,0.00728021
1809.22131592,0.00731156
1811.15012329,0.00712179
1813.07893066,0.00744260
1815.00773804,0.00742812
1816.93654541,0.00731042
1818.86535278,0.00735997
1820.79416016,0.00723488
1822.72296753,0.00730617
1824.65177490,0.00676797
1826.58058228,0.00716959
1828.50938965,0.00726327
1830.43819702,0.00671224
1832.36700439,0.00731503
1834.29581177,0.00709417
1836.22461914,0.00711622
1838.15342651,0.00719734
1840.08223389,0.00714941
1842.01104126,0.00724967
1843.93984863,0.00645250
1845.86865601,0.00690246
1847.79746338,0.00718323
1849.72627075,0.00695579
1851.65507812,0.00728384
1853.58388550,0.00702598
1855.51269287,0.00716726
1857.44150024,0.00711233
1859.37030762,0.00696152
1861.29911499,0.00705042
1863.22792236,0.00689910
1865.15672974,0.00711799
1867.08553711,0.00679632
1869.01434448,0.00643136
1870.94315186,0.00683618
1872.87195923,0.00706667
1874.80076660,0.00709158
1876.72957397,0.00709419
1878.65838135,0.00698782
1880.58718872,0.00698514
1882.51599609,0.00696036
1884.44480347,0.00683109
1886.37361084,0.00692420
1888.30241821,0.00680872
1890.23122559,0.00666979
1892.16003296,0.00687869
1894.08884033,0.00673458
1896.01764771,0.00666694
1897.94645508,0.00678984
1899.87526245,0.00673684
1901.80406982,0.00675077
1903.73287720,0.00675493
1905.66168457,0.00681634
1907.59049194,0.00669349
1909.51929932,0.00659526
1911.44810669,0.00665728
1913.37691406,0.00670921
1915.30572144,0.00671281
1917.23452881,0.00630880
1919.16333618,0.00641933
1921.09214355,0.00668870
1923.02095093,0.00646041
1924.94975830,0.00665650
1926.87856567,0.00669407
1928.80737305,0.00657434
1930.73618042,0.00663135
1932.66498779,0.00661335
1934.59379517,0.00668562
1936.52260254,0.00661474
1938.45140991,0.00666818
1940.38021729,0.00664806
1942.30902466,0.00632934
1944.23783203,0.00639241
1946.16663940,0.00655395
1948.09544678,0.00648416
1950.02425415,0.00653325
1951.95306152,0.00655959
1953.88186890,0.00655376
1955.81067627,0.00653211
1957.73948364,0.00644945
1959.66829102,0.00652557
1961.59709839,0.00644904
1963.52590576,0.00645999
1965.45471313,0.00652687
1967.38352051,0.00634924
1969.31232788,0.00644596
1971.24113525,0.00649640
1973.16994263,0.00648148
1975.09875000,0.00643273
1977.02755737,0.00636003
1978.95636475,0.00651592
1980.88517212,0.00645164
1982.81397949,0.00650632
1984.74278687,0.00650904
1986.67159424,0.00631741
1988.60040161,0.00637021
1990.52920898,0.00619546
1992.45801636,0.00613585
1994.38682373,0.00637108
1996.31563110,0.00619834
1998.24443848,0.00603772
2000.17324585,0.00628592
2002.10205322,0.00629526
2004.03086060,0.00619035
2005.95966797,0.00620640
2007.88847534,0.00612925
2009.81728271,0.00612305
2011.74609009,0.00614055
2013.67489746,0.00629330
2015.60370483,0.00621525
2017.53251221,0.00599290
2019.46131958,0.00608683
2021.39012695,0.00601796
2023.31893433,0.00612600
2025.24774170,0.00620961
2027.17654907,0.00600283
2029.10535645,0.00600170
2031.03416382,0.00597261
2032.96297119,0.00599677
2034.89177856,0.00604601
2036.82058594,0.00602704
2038.74939331,0.00591538
2040.67820068,0.00586353
2042.60700806,0.00598365
2044.53581543,0.00581897
2046.46462280,0.00577533
2048.39343018,0.00579939
2050.32223755,0.00572690
2052.25104492,0.00587478
2054.17985229,0.00581949
2056.10865967,0.00573826
2058.03746704,0.00579077
2059.96627441,0.00586419
2061.89508179,0.00578687
2063.82388916,0.00557098
2065.75269653,0.00564598
2067.68150391,0.00568009
2069.61031128,0.00573437
2071.53911865,0.00572406
2073.46792603,0.00557987
2075.39673340,0.00573375
2077.32554077,0.00566123
2079.25434814,0.00556795
2081.18315552,0.00566756
2083.11196289,0.00564546
2085.04077026,0.00569861
2086.96957764,0.00564312
2088.89838501,0.00560265
2090.82719238,0.00554633
2092.75599976,0.00543605
2094.68480713,0.00561819
2096.61361450,0.00566160
2098.54242187,0.00553650
2100.47122925,0.00554253
2102.40003662,0.00547578
2104.32884399,0.00547751
2106.25765137,0.00554951
2108.18645874,0.00547864
2110.11526611,0.00541191
2112.04407349,0.00544688
2113.97288086,0.00544557
2115.90168823,0.00533363
2117.83049561,0.00537471
2119.75930298,0.00540028
2121.68811035,0.00532986
2123.61691772,0.00544559
2125.54572510,0.00537160
2127.47453247,0.00534710
2129.40333984,0.00543259
2131.33214722,0.00532540
2133.26095459,0.00536026
2135.18976196,0.00533263
2137.11856934,0.00533067
2139.04737671,0.00535236
2140.97618408,0.00530097
2142.90499146,0.00532803
2144.83379883,0.00519195
2146.76260620,0.00518753
2148.69141357,0.00528056
2150.62022095,0.00526404
2152.54902832,0.00518259
2154.47783569,0.00506382
2156.40664307,0.00513416
2158.33545044,0.00518219
2160.26425781,0.00513771
2162.19306519,0.00511985
2164.12187256,0.00516715
2166.05067993,0.00516166
2167.97948730,0.00508547
2169.90829468,0.00509456
2171.83710205,0.00510507
2173.76590942,0.00519336
2175.69471680,0.00510371
2177.62352417,0.00503457
2179.55233154,0.00518361
2181.48113892,0.00507030
2183.40994629,0.00507503
2185.33875366,0.00511522
2187.26756104,0.00502103
2189.19636841,0.00510145
2191.12517578,0.00502002
2193.05398315,0.00497546
2194.98279053,0.00503284
2196.91159790,0.00496994
2198.84040527,0.00491921
2200.76921265,0.00486538
2202.69802002,0.00500776
2204.62682739,0.00500250
2206.55563477,0.00486314
2208.48444214,0.00500742
2210.41324951,0.00498467
2212.34205688,0.00498008
2214.27086426,0.00495299
2216.19967163,0.00484357
2218.12847900,0.00495332
2220.05728638,0.00483844
2221.98609375,0.00484200
2223.91490112,0.00489379
2225.84370850,0.00482243
2227.77251587,0.00495612
2229.70132324,0.00487805
2231.63013062,0.00484647
2233.55893799,0.00483958
2235.48774536,0.00479694
2237.41655273,0.00488250
2239.34536011,0.00485123
2241.27416748,0.00491776
2243.20297485,0.00482818
2245.13178223,0.00478154
2247.06058960,0.00485140
2248.98939697,0.00473331
2250.91820435,0.00480158
2252.84701172,0.00479327
2254.77581909,0.00477587
2256.70462646,0.00474987
2258.63343384,0.00462019
2260.56224121,0.00469745
2262.49104858,0.00463599
2264.41985596,0.00457272
2266.34866333,0.00458590
2268.27747070,0.00455378
2270.20627808,0.00458464
2272.13508545,0.00453181
2274.06389282,0.00458806
2275.99270020,0.00471826
2277.92150757,0.00467519
2279.85031494,0.00456543
2281.77912231,0.00456984
2283.70792969,0.00455388
2285.63673706,0.00446805
2287.56554443,0.00451637
2289.49435181,0.00457858
2291.42315918,0.00457649
2293.35196655,0.00449601
2295.28077393,0.00443225
2297.20958130,0.00437215
2299.13838867,0.00433623
2301.06719604,0.00443817
2302.99600342,0.00440655
2304.92481079,0.00442902
2306.85361816,0.00445531
2308.78242554,0.00432561
2310.71123291,0.00431343
2312.64004028,0.00429085
2314.56884766,0.00419085
2316.49765503,0.00404910
2318.42646240,0.00410086
2320.35526978,0.00419673
2322.28407715,0.00402855
2324.21288452,0.00398882
2326.14169189,0.00401343
2328.07049927,0.00385959
2329.99930664,0.00378806
2331.92811401,0.00387052
2333.85692139,0.00381370
2335.78572876,0.00376478
2337.71453613,0.00388389
2339.64334351,0.00382471
2341.57215088,0.00375638
2343.50095825,0.00387926
2345.42976562,0.00399376
2347.35857300,0.00406642
2349.28738037,0.00404905
2351.21618774,0.00392194
2353.14499512,0.00384868
2355.07380249,0.00376879
2357.00260986,0.00365894
2358.93141724,0.00360192
2360.86022461,0.00348500
2362.78903198,0.00352579
2364.71783936,0.00355970
2366.64664673,0.00343597
2368.57545410,0.00354271
2370.50426147,0.00365026
2372.43306885,0.00375274
2374.36187622,0.00394641
2376.29068359,0.00391635
2378.21949097,0.00392421
2380.14829834,0.00410819
2382.07710571,0.00409654
2384.00591309,0.00405008
2385.93472046,0.00407766
2387.86352783,0.00401061
2389.79233521,0.00403072
2391.72114258,0.00404575
2393.64994995,0.00412061
2395.57875732,0.00415844
2397.50756470,0.00397317
2399.43637207,0.00401034
2401.36517944,0.00403529
2403.29398682,0.00391950
2405.22279419,0.00401432
2407.15160156,0.00406849
2409.08040894,0.00395325
2411.00921631,0.00392277
2412.93802368,0.00398331
2414.86683105,0.00405328
2416.79563843,0.00406270
2418.72444580,0.00397077
2420.65325317,0.00397315
2422.58206055,0.00391186
2424.51086792,0.00391879
2426.43967529,0.00400868
2428.36848267,0.00387873
2430.29729004,0.00388819
2432.22609741,0.00394324
2434.15490479,0.00397386
2436.08371216,0.00389943
2438.01251953,0.00379045
2439.94132690,0.00391918
2441.87013428,0.00390299
2443.79894165,0.00387680
2445.72774902,0.00385089
2447.65655640,0.00384241
2449.58536377,0.00384724
2451.51417114,0.00377423
2453.44297852,0.00385228
2455.37178589,0.00375113
2457.30059326,0.00374043
2459.22940063,0.00382962
2461.15820801,0.00372864
2463.08701538,0.00373022
2465.01582275,0.00371322
2466.94463013,0.00376362
2468.87343750,0.00380388
2470.80224487,0.00370785
2472.73105225,0.00372118
2474.65985962,0.00376772
2476.58866699,0.00375052
2478.51747437,0.00375089
2480.44628174,0.00372503
2482.37508911,0.00365346
2484.30389648,0.00369367
2486.23270386,0.00370068
2488.16151123,0.00356297
2490.09031860,0.00353313
2492.01912598,0.00360202
2493.94793335,0.00365987
2495.87674072,0.00373186
2497.80554810,0.00362618
2499.73435547,0.00353242
2501.66316284,0.00364560
2503.59197021,0.00361163
2505.52077759,0.00360542
2507.44958496,0.00368636
2509.37839233,0.00361662
2511.30719971,0.00353822
2513.23600708,0.00358691
2515.16481445,0.00363830
2517.09362183,0.00352392
2519.02242920,0.00349265
2520.95123657,0.00354447
2522.88004395,0.00356336
2524.80885132,0.00351085
2526.73765869,0.00341575
2528.66646606,0.00349270
2530.59527344,0.00353797
2532.52408081,0.00351486
2534.45288818,0.00344747
2536.38169556,0.00338645
2538.31050293,0.00343147
2540.23931030,0.00343591
2542.16811768,0.00344760
2544.09692505,0.00345261
2546.02573242,0.00345904
2547.95453979,0.00354027
2549.88334717,0.00347789
2551.81215454,0.00331493
2553.74096191,0.00344555
2555.66976929,0.00349466
2557.59857666,0.00346694
2559.52738403,0.00351141
2561.45619141,0.00327838
2563.38499878,0.00335636
2565.31380615,0.00340359
2567.24261353,0.00328594
2569.17142090,0.00339743
2571.10022827,0.00337832
2573.02903564,0.00342522
2574.95784302,0.00327959
2576.88665039,0.00322329
2578.81545776,0.00328467
2580.74426514,0.00320386
2582.67307251,0.00335210
2584.60187988,0.00334178
2586.53068726,0.00332273
2588.45949463,0.00323941
2590.38830200,0.00317545
2592.31710937,0.00334191
2594.24591675,0.00327954
2596.17472412,0.00320589
2598.10353149,0.00315877
2600.03233887,0.00312826
2601.96114624,0.00321363
2603.88995361,0.00326798
2605.81876099,0.00326960
2607.74756836,0.00324762
2609.67637573,0.00321923
2611.60518311,0.00324467
2613.53399048,0.00322731
2615.46279785,0.00319937
2617.39160522,0.00330104
2619.32041260,0.00318166
2621.24921997,0.00311201
2623.17802734,0.00316766
2625.10683472,0.00314709
2627.03564209,0.00318456
2628.96444946,0.00313286
2630.89325684,0.00314403
2632.82206421,0.00305068
2634.75087158,0.00308973
2636.67967895,0.00316736
2638.60848633,0.00307870
2640.53729370,0.00318196
2642.46610107,0.00308345
2644.39490845,0.00307368
2646.32371582,0.00306149
2648.25252319,0.00300316
2650.18133057,0.00311185
2652.11013794,0.00301356
2654.03894531,0.00308454
2655.96775269,0.00311703
2657.89656006,0.00308114
2659.82536743,0.00313542
2661.75417480,0.00298243
2663.68298218,0.00292082
2665.61178955,0.00303574
2667.54059692,0.00302145
2669.46940430,0.00295785
2671.39821167,0.00303586
2673.32701904,0.00297633
2675.25582642,0.00301544
2677.18463379,0.00308226
2679.11344116,0.00287569
2681.04224854,0.00295180
2682.97105591,0.00305869
2684.89986328,0.00289851
2686.82867065,0.00295557
2688.75747803,0.00304656
2690.68628540,0.00282595
2692.61509277,0.00286151
2694.54390015,0.00305779
2696.47270752,0.00296173
2698.40151489,0.00288305
2700.33032227,0.00283837
2702.25912964,0.00294674
2704.18793701,0.00299199
2706.11674438,0.00281838
2708.04555176,0.00280034
2709.97435913,0.00285265
2711.90316650,0.00284082
2713.83197388,0.00281155
2715.76078125,0.00283436
2717.68958862,0.00281025
2719.61839600,0.00283706
2721.54720337,0.00285368
2723.47601074,0.00282063
2725.40481812,0.00284579
2727.33362549,0.00283588
2729.26243286,0.00282543
2731.19124023,0.00275599
2733.12004761,0.00290076
2735.04885498,0.00278309
2736.97766235,0.00258716
2738.90646973,0.00290803
2740.83527710,0.00279096
2742.76408447,0.00266841
2744.69289185,0.00277870
2746.62169922,0.00273640
2748.55050659,0.00276329
2750.47931396,0.00265799
2752.40812134,0.00268994
2754.33692871,0.00276063
2756.26573608,0.00277427
2758.19454346,0.00276250
2760.12335083,0.00268138
2762.05215820,0.00271958
2763.98096558,0.00269928
2765.90977295,0.00265368
2767.83858032,0.00261402
2769.76738770,0.00265022
2771.69619507,0.00271063
2773.62500244,0.00264015
2775.55380981,0.00258514
2777.48261719,0.00261368
2779.41142456,0.00262080
2781.34023193,0.00255523
2783.26903931,0.00262072
2785.19784668,0.00260797
2787.12665405,0.00253741
2789.05546143,0.00258257
2790.98426880,0.00250604
2792.91307617,0.00252926
2794.84188354,0.00260081
2796.77069092,0.00253551
2798.69949829,0.00254388
2800.62830566,0.00260854
2802.55711304,0.00255519
2804.48592041,0.00252410
2806.41472778,0.00257876
2808.34353516,0.00248225
2810.27234253,0.00247471
2812.20114990,0.00251147
2814.12995728,0.00241993
2816.05876465,0.00245635
2817.98757202,0.00248633
2819.91637939,0.00251814
2821.84518677,0.00249747
2823.77399414,0.00239802
2825.70280151,0.00250523
2827.63160889,0.00253990
2829.56041626,0.00244977
2831.48922363,0.00245721
2833.41803101,0.00241930
2835.34683838,0.00239070
2837.27564575,0.00240827
2839.20445312,0.00242171
2841.13326050,0.00242448
2843.06206787,0.00232023
2844.99087524,0.00230440
2846.91968262,0.00234704
2848.84848999,0.00226577
2850.77729736,0.00229986
2852.70610474,0.00228514
2854.63491211,0.00226982
2856.56371948,0.00238215
2858.49252686,0.00232112
2860.42133423,0.00236588
2862.35014160,0.00235957
2864.27894897,0.00225451
2866.20775635,0.00230328
2868.13656372,0.00220341
2870.06537109,0.00222156
2871.99417847,0.00224721
2873.92298584,0.00219142
2875.85179321,0.00231397
2877.78060059,0.00233463
2879.70940796,0.00229927
2881.63821533,0.00229753
2883.56702270,0.00231702
2885.49583008,0.00224521
2887.42463745,0.00219234
2889.35344482,0.00222151
2891.28225220,0.00217140
2893.21105957,0.00223381
2895.13986694,0.00223618
2897.06867432,0.00225572
2898.99748169,0.00229244
2900.92628906,0.00219725
2902.85509644,0.00224155
2904.78390381,0.00225871
2906.71271118,0.00222955
2908.64151855,0.00223251
2910.57032593,0.00219779
2912.49913330,0.00212378
2914.42794067,0.00203609
2916.35674805,0.00204624
2918.28555542,0.00220693
2920.21436279,0.00229413
2922.14317017,0.00211685
2924.07197754,0.00207930
2926.00078491,0.00216497
2927.92959229,0.00216793
2929.85839966,0.00212539
2931.78720703,0.00207158
2933.71601440,0.00212943
2935.64482178,0.00210142
2937.57362915,0.00215988
2939.50243652,0.00221635
2941.43124390,0.00211948
2943.36005127,0.00217548
2945.28885864,0.00218124
2947.21766602,0.00211282
2949.14647339,0.00207610
2951.07528076,0.00210414
2953.00408813,0.00213993
2954.93289551,0.00208256
2956.86170288,0.00209722
2958.79051025,0.00212976
2960.71931763,0.00206963
2962.64812500,0.00204145
2964.57693237,0.00206985
2966.50573975,0.00195098
2968.43454712,0.00194631
2970.36335449,0.00210181
2972.29216187,0.00203487
2974.22096924,0.00198314
2976.14977661,0.00199518
2978.07858398,0.00202054
2980.00739136,0.00207416
2981.93619873,0.00199823
2983.86500610,0.00205074
2985.79381348,0.00218494
2987.72262085,0.00206984
2989.65142822,0.00191581
2991.58023560,0.00197955
2993.50904297,0.00202828
2995.43785034,0.00185677
2997.36665771,0.00187563
2999.29546509,0.00204102
3001.22427246,0.00193027
3003.15307983,0.00191966
3005.08188721,0.00199184
3007.01069458,0.00195432
3008.93950195,0.00189495
3010.86830933,0.00183108
3012.79711670,0.00196191
3014.72592407,0.00193075
3016.65473145,0.00186031
3018.58353882,0.00192312
3020.51234619,0.00189599
3022.44115356,0.00198417
3024.36996094,0.00195392
3026.29876831,0.00191073
3028.22757568,0.00193319
3030.15638306,0.00188567
3032.08519043,0.00184690
3034.01399780,0.00187964
3035.94280518,0.00200800
3037.87161255,0.00187912
3039.80041992,0.00179069
3041.72922729,0.00185838
3043.65803467,0.00188365
3045.58684204,0.00184301
3047.51564941,0.00177055
3049.44445679,0.00185904
3051.37326416,0.00177194
3053.30207153,0.00182346
3055.23087891,0.00189193
3057.15968628,0.00174995
3059.08849365,0.00179846
3061.01730103,0.00173602
3062.94610840,0.00182609
3064.87491577,0.00189782
3066.80372314,0.00178537
3068.73253052,0.00182678
3070.66133789,0.00180090
3072.59014526,0.00183767
3074.51895264,0.00182587
3076.44776001,0.00174762
3078.37656738,0.00179211
3080.30537476,0.00177612
3082.23418213,0.00171598
3084.16298950,0.00177265
3086.09179687,0.00178086
3088.02060425,0.00169058
3089.94941162,0.00179799
3091.87821899,0.00177875
3093.80702637,0.00167807
3095.73583374,0.00176960
3097.66464111,0.00168085
3099.59344849,0.00165094
3101.52225586,0.00171754
3103.45106323,0.00169150
3105.37987061,0.00175816
3107.30867798,0.00170573
3109.23748535,0.00169671
3111.16629272,0.00177799
3113.09510010,0.00168801
3115.02390747,0.00167261
3116.95271484,0.00167131
3118.88152222,0.00169225
3120.81032959,0.00168905
3122.73913696,0.00166734
3124.66794434,0.00175211
3126.59675171,0.00162578
3128.52555908,0.00163508
3130.45436645,0.00170277
3132.38317383,0.00164694
3134.31198120,0.00167118
3136.24078857,0.00159260
3138.16959595,0.00170245
3140.09840332,0.00171522
3142.02721069,0.00162981
3143.95601807,0.00169486
3145.88482544,0.00161190
3147.81363281,0.00159525
3149.74244019,0.00161438
3151.67124756,0.00164136
3153.60005493,0.00163472
3155.52886230,0.00161581
3157.45766968,0.00163839
3159.38647705,0.00159390
3161.31528442,0.00159288
3163.24409180,0.00162167
3165.17289917,0.00163347
3167.10170654,0.00149120
3169.03051392,0.00156309
3170.95932129,0.00163231
3172.88812866,0.00145885
3174.81693604,0.00162541
3176.74574341,0.00160598
3178.67455078,0.00146614
3180.60335815,0.00152744
3182.53216553,0.00149133
3184.46097290,0.00154933
3186.38978027,0.00158250
3188.31858765,0.00152949
3190.24739502,0.00150861
3192.17620239,0.00152661
3194.10500977,0.00150689
3196.03381714,0.00152561
3197.96262451,0.00154826
3199.89143188,0.00143670
3201.82023926,0.00143262
3203.74904663,0.00146105
3205.67785400,0.00151411
3207.60666138,0.00151962
3209.53546875,0.00142008
3211.46427612,0.00151860
3213.39308350,0.00155538
3215.32189087,0.00149125
3217.25069824,0.00156869
3219.17950562,0.00157642
3221.10831299,0.00157627
3223.03712036,0.00157226
3224.96592773,0.00144779
3226.89473511,0.00153086
3228.82354248,0.00159189
3230.75234985,0.00150738
3232.68115723,0.00156737
3234.60996460,0.00155409
3236.53877197,0.00157848
3238.46757935,0.00155141
3240.39638672,0.00149243
3242.32519409,0.00159182
3244.25400146,0.00155954
3246.18280884,0.00159142
3248.11161621,0.00155038
3250.04042358,0.00142897
3251.96923096,0.00151727
3253.89803833,0.00154945
3255.82684570,0.00153961
3257.75565308,0.00151221
3259.68446045,0.00150885
3261.61326782,0.00154180
3263.54207520,0.00154144
3265.47088257,0.00153693
3267.39968994,0.00151174
3269.32849731,0.00156126
3271.25730469,0.00151894
3273.18611206,0.00147758
3275.11491943,0.00158013
3277.04372681,0.00158181
3278.97253418,0.00152933
3280.90134155,0.00150210
3282.83014893,0.00155089
3284.75895630,0.00155784
3286.68776367,0.00149767
3288.61657104,0.00154706
3290.54537842,0.00154560
3292.47418579,0.00151223
3294.40299316,0.00151911
3296.33180054,0.00157919
3298.26060791,0.00164773
3300.18941528,0.00158678
3302.11822266,0.00155155
3304.04703003,0.00151632
3305.97583740,0.00148886
3307.90464478,0.00151867
3309.83345215,0.00153249
3311.76225952,0.00157681
3313.69106689,0.00154453
3315.61987427,0.00155036
3317.54868164,0.00160177
3319.47748901,0.00153918
3321.40629639,0.00152923
3323.33510376,0.00161065
3325.26391113,0.00163356
3327.19271851,0.00153760
3329.12152588,0.00152899
3331.05033325,0.00160459
3332.97914062,0.00155953
3334.90794800,0.00151305
3336.83675537,0.00155622
3338.76556274,0.00157456
3340.69437012,0.00152649
3342.62317749,0.00153750
3344.55198486,0.00160158
3346.48079224,0.00163657
3348.40959961,0.00161889
3350.33840698,0.00158512
3352.26721436,0.00155647
3354.19602173,0.00158258
3356.12482910,0.00170339
3358.05363647,0.00166866
3359.98244385,0.00162077
3361.91125122,0.00159463
3363.84005859,0.00156497
3365.76886597,0.00170360
3367.69767334,0.00158992
3369.62648071,0.00154552
3371.55528809,0.00167210
3373.48409546,0.00157520
3375.41290283,0.00159643
3377.34171020,0.00161613
3379.27051758,0.00164595
3381.19932495,0.00166131
3383.12813232,0.00155830
3385.05693970,0.00161515
3386.98574707,0.00163294
3388.91455444,0.00158890
3390.84336182,0.00160532
3392.77216919,0.00163742
3394.70097656,0.00160368
3396.62978394,0.00150681
3398.55859131,0.00150936
3400.48739868,0.00153204
3402.41620605,0.00156113
3404.34501343,0.00161720
3406.27382080,0.00158376
3408.20262817,0.00152328
3410.13143555,0.00157683
3412.06024292,0.00162043
3413.98905029,0.00159945
3415.91785767,0.00160567
3417.84666504,0.00160050
3419.77547241,0.00160271
3421.70427979,0.00156400
3423.63308716,0.00157477
3425.56189453,0.00160870
3427.49070190,0.00156647
3429.41950928,0.00154218
3431.34831665,0.00148917
3433.27712402,0.00157120
3435.20593140,0.00165209
3437.13473877,0.00156549
3439.06354614,0.00156341
3440.99235352,0.00158075
3442.92116089,0.00153564
3444.84996826,0.00155808
3446.77877563,0.00158086
3448.70758301,0.00147550
3450.63639038,0.00151735
3452.56519775,0.00160584
3454.49400513,0.00157253
3456.42281250,0.00160293
3458.35161987,0.00157493
3460.28042725,0.00160312
3462.20923462,0.00154801
3464.13804199,0.00148785
3466.06684937,0.00160847
3467.99565674,0.00150574
3469.92446411,0.00144627
3471.85327148,0.00150858
3473.78207886,0.00148243
3475.71088623,0.00148677
3477.63969360,0.00149914
3479.56850098,0.00148770
3481.49730835,0.00144362
3483.42611572,0.00146319
3485.35492310,0.00151118
3487.28373047,0.00153450
3489.21253784,0.00151034
3491.14134521,0.00150447
3493.07015259,0.00155107
3494.99895996,0.00149448
3496.92776733,0.00148451
3498.85657471,0.00151969
3500.78538208,0.00147583
3502.71418945,0.00144652
3504.64299683,0.00143946
3506.57180420,0.00145991
3508.50061157,0.00149593
3510.42941895,0.00145644
3512.35822632,0.00145102
3514.28703369,0.00150590
3516.21584106,0.00145908
3518.14464844,0.00147759
3520.07345581,0.00153124
3522.00226318,0.00148145
3523.93107056,0.00138970
3525.85987793,0.00134646
3527.78868530,0.00138362
3529.71749268,0.00139219
3531.64630005,0.00149103
3533.57510742,0.00150480
3535.50391479,0.00147326
3537.43272217,0.00153264
3539.36152954,0.00146976
3541.29033691,0.00146794
3543.21914429,0.00142680
3545.14795166,0.00132350
3547.07675903,0.00125644
3549.00556641,0.00133952
3550.93437378,0.00146910
3552.86318115,0.00131768
3554.79198853,0.00133404
3556.72079590,0.00143706
3558.64960327,0.00138991
3560.57841064,0.00133021
3562.50721802,0.00132517
3564.43602539,0.00140219
3566.36483276,0.00127976
3568.29364014,0.00127045
3570.22244751,0.00138662
3572.15125488,0.00138399
3574.08006226,0.00141645
3576.00886963,0.00140416
3577.93767700,0.00141047
3579.86648437,0.00138166
3581.79529175,0.00134341
3583.72409912,0.00137614
3585.65290649,0.00128692
3587.58171387,0.00115487
3589.51052124,0.00125645
3591.43932861,0.00139906
3593.36813599,0.00131019
3595.29694336,0.00126645
3597.22575073,0.00134665
3599.15455811,0.00140059
3601.08336548,0.00137151
3603.01217285,0.00133416
3604.94098022,0.00138248
3606.86978760,0.00131302
3608.79859497,0.00124051
3610.72740234,0.00134311
3612.65620972,0.00130894
3614.58501709,0.00127005
3616.51382446,0.00134040
3618.44263184,0.00122945
3620.37143921,0.00129583
3622.30024658,0.00136106
3624.22905395,0.00127869
3626.15786133,0.00134816
3628.08666870,0.00111052
3630.01547607,0.00102568
3631.94428345,0.00123374
3633.87309082,0.00126875
3635.80189819,0.00134019
3637.73070557,0.00134420
3639.65951294,0.00135506
3641.58832031,0.00135443
3643.51712769,0.00137128
3645.44593506,0.00133867
3647.37474243,0.00117212
3649.30354980,0.00103408
3651.23235718,0.00102260
3653.16116455,0.00135516
3655.08997192,0.00129379
3657.01877930,0.00106758
3658.94758667,0.00126103
3660.87639404,0.00128375
3662.80520142,0.00125897
3664.73400879,0.00118476
3666.66281616,0.00126653
3668.59162354,0.00122421
3670.52043091,0.00095999
3672.44923828,0.00115646
3674.37804565,0.00105594
3676.30685303,0.00093713
3678.23566040,0.00119879
3680.16446777,0.00122372
3682.09327515,0.00122372
3684.02208252,0.00122532
3685.95088989,0.00122129
3687.87969727,0.00103113
3689.80850464,0.00091249
3691.73731201,0.00109656
3693.66611938,0.00115765
3695.59492676,0.00116346
3697.52373413,0.00111437
3699.45254150,0.00121116
3701.38134888,0.00111037
3703.31015625,0.00097123
3705.23896362,0.00120525
3707.16777100,0.00111544
3709.09657837,0.00112184
3711.02538574,0.00106899
3712.95419312,0.00101961
3714.88300049,0.00129727
3716.81180786,0.00118522
3718.74061523,0.00112601
3720.66942261,0.00105051
3722.59822998,0.00106599
3724.52703735,0.00115981
3726.45584473,0.00104137
3728.38465210,0.00120602
3730.31345947,0.00116544
3732.24226685,0.00103279
3734.17107422,0.00095054
3736.09988159,0.00091343
3738.02868896,0.00099860
3739.95749634,0.00099317
3741.88630371,0.00106614
3743.81511108,0.00086585
3745.74391846,0.00086941
3747.67272583,0.00104039
3749.60153320,0.00089465
3751.53034058,0.00086159
3753.45914795,0.00087699
3755.38795532,0.00101473
3757.31676270,0.00107826
3759.24557007,0.00100251
3761.17437744,0.00100821
3763.10318481,0.00101644
3765.03199219,0.00102063
3766.96079956,0.00099162
3768.88960693,0.00094951
3770.81841431,0.00097200
3772.74722168,0.00107659
3774.67602905,0.00104960
3776.60483643,0.00108762
3778.53364380,0.00104057
3780.46245117,0.00089410
3782.39125854,0.00106404
3784.32006592,0.00102970
3786.24887329,0.00088071
3788.17768066,0.00101729
3790.10648804,0.00106385
3792.03529541,0.00100277
3793.96410278,0.00109322
3795.89291016,0.00099538
3797.82171753,0.00099328
3799.75052490,0.00102987
3801.67933228,0.00074494
3803.60813965,0.00101586
3805.53694702,0.00101360
3807.46575439,0.00086838
3809.39456177,0.00111878
3811.32336914,0.00091065
3813.25217651,0.00098389
3815.18098389,0.00089363
3817.10979126,0.00082365
3819.03859863,0.00100530
3820.96740601,0.00080827
3822.89621338,0.00099339
3824.82502075,0.00104036
3826.75382812,0.00090119
3828.68263550,0.00096241
3830.61144287,0.00094628
3832.54025024,0.00088495
3834.46905762,0.00089197
3836.39786499,0.00088035
3838.32667236,0.00070076
3840.25547974,0.00083251
3842.18428711,0.00090957
3844.11309448,0.00088031
3846.04190186,0.00098050
3847.97070923,0.00094558
3849.89951660,0.00093522
3851.82832397,0.00078961
3853.75713135,0.00066871
3855.68593872,0.00073039
3857.61474609,0.00090395
3859.54355347,0.00097447
3861.47236084,0.00098442
3863.40116821,0.00094521
3865.32997559,0.00076356
3867.25878296,0.00082941
3869.18759033,0.00077907
3871.11639770,0.00079072
3873.04520508,0.00088700
3874.97401245,0.00084113
3876.90281982,0.00096629
3878.83162720,0.00085796
3880.76043457,0.00077054
3882.68924194,0.00083185
3884.61804932,0.00076251
3886.54685669,0.00072877
3888.47566406,0.00085857
3890.40447144,0.00092793
3892.33327881,0.00082148
3894.26208618,0.00088428
3896.19089355,0.00090081
3898.11970093,0.00084380
3900.04850830,0.00083085
3901.97731567,0.00083630
3903.90612305,0.00076945
3905.83493042,0.00075867
3907.76373779,0.00091104
3909.69254517,0.00075172
3911.62135254,0.00081978
3913.55015991,0.00091754
3915.47896728,0.00077501
3917.40777466,0.00091096
3919.33658203,0.00081723
3921.26538940,0.00082396
3923.19419678,0.00091122
3925.12300415,0.00076823
3927.05181152,0.00083746
3928.98061890,0.00089897
3930.90942627,0.00082775
3932.83823364,0.00078026
3934.76704102,0.00089096
3936.69584839,0.00084949
3938.62465576,0.00072464
3940.55346313,0.00089408
3942.48227051,0.00083726
3944.41107788,0.00075469
3946.33988525,0.00091460
3948.26869263,0.00083185
3950.19750000,0.00079471
3952.12630737,0.00086700
3954.05511475,0.00079863
3955.98392212,0.00078535
3957.91272949,0.00076852
3959.84153687,0.00080858
3961.77034424,0.00085682
3963.69915161,0.00081604
3965.62795898,0.00083423
3967.55676636,0.00084213
3969.48557373,0.00085924
3971.41438110,0.00081065
3973.34318848,0.00075295
3975.27199585,0.00080111
3977.20080322,0.00083530
3979.12961060,0.00081521
3981.05841797,0.00074851
3982.98722534,0.00075845
3984.91603271,0.00079039
3986.84484009,0.00079845
3988.77364746,0.00075476
3990.70245483,0.00072957
3992.63126221,0.00081543
3994.56006958,0.00081063
3996.48887695,0.00079830
3998.41768433,0.00073167
4000.34649170,0.00071134
4002.27529907,0.00081443
4004.20410645,0.00072755
4006.13291382,0.00070623
4008.06172119,0.00075515
4009.99052856,0.00081228
4011.91933594,0.00089623
4013.84814331,0.00072342
4015.77695068,0.00071620
4017.70575806,0.00078423
4019.63456543,0.00065058
4021.56337280,0.00078218
4023.49218018,0.00083125
4025.42098755,0.00075258
4027.34979492,0.00077865
4029.27860229,0.00069930
4031.20740967,0.00076259
4033.13621704,0.00076123
4035.06502441,0.00072414
4036.99383179,0.00080882
4038.92263916,0.00072950
4040.85144653,0.00069511
4042.78025391,0.00069857
4044.70906128,0.00069066
4046.63786865,0.00070547
4048.56667603,0.00075382
4050.49548340,0.00079404
4052.42429077,0.00078092
4054.35309814,0.00081674
4056.28190552,0.00069766
4058.21071289,0.00068265
4060.13952026,0.00071750
4062.06832764,0.00066061
4063.99713501,0.00077302
4065.92594238,0.00069733
4067.85474976,0.00068264
4069.78355713,0.00076624
4071.71236450,0.00066515
4073.64117187,0.00067536
4075.56997925,0.00070039
4077.49878662,0.00073953
4079.42759399,0.00070733
4081.35640137,0.00064559
4083.28520874,0.00073379
4085.21401611,0.00071326
4087.14282349,0.00069799
4089.07163086,0.00068041
4091.00043823,0.00063362
4092.92924561,0.00073414
4094.85805298,0.00073903
4096.78686035,0.00067454
4098.71566772,0.00069776
4100.64447510,0.00069753
4102.57328247,0.00064261
4104.50208984,0.00062707
4106.43089722,0.00065262
4108.35970459,0.00064731
4110.28851196,0.00068680
4112.21731934,0.00068896
4114.14612671,0.00067418
4116.07493408,0.00067582
4118.00374145,0.00065738
4119.93254883,0.00072037
4121.86135620,0.00067661
4123.79016357,0.00069172
4125.71897095,0.00073647
4127.64777832,0.00061023
4129.57658569,0.00064130
4131.50539307,0.00063763
4133.43420044,0.00062616
4135.36300781,0.00073065
4137.29181519,0.00071130
4139.22062256,0.00064112
4141.14942993,0.00059866
4143.07823730,0.00067979
4145.00704468,0.00068758
4146.93585205,0.00060886
4148.86465942,0.00063546
4150.79346680,0.00062553
4152.72227417,0.00065638
4154.65108154,0.00069313
4156.57988892,0.00065689
4158.50869629,0.00067163
4160.43750366,0.00069596
4162.36631103,0.00062476
4164.29511841,0.00063245
4166.22392578,0.00069567
4168.15273315,0.00058103
4170.08154053,0.00060447
4172.01034790,0.00066196
4173.93915527,0.00058107
4175.86796265,0.00062183
4177.79677002,0.00060050
4179.72557739,0.00057089
4181.65438477,0.00061720
4183.58319214,0.00064654
4185.51199951,0.00059990
4187.44080688,0.00059248
4189.36961426,0.00069733
4191.29842163,0.00055545
4193.22722900,0.00057544
4195.15603638,0.00069806
4197.08484375,0.00056641
4199.01365112,0.00065696
4200.94245850,0.00064115
4202.87126587,0.00051311
4204.80007324,0.00055535
4206.72888062,0.00063935
4208.65768799,0.00069139
4210.58649536,0.00057410
4212.51530273,0.00058623
4214.44411011,0.00060830
4216.37291748,0.00055022
4218.30172485,0.00058335
4220.23053223,0.00062099
4222.15933960,0.00059087
4224.08814697,0.00048316
4226.01695435,0.00060186
4227.94576172,0.00065114
4229.87456909,0.00059342
4231.80337646,0.00064484
4233.73218384,0.00056864
4235.66099121,0.00058737
4237.58979858,0.00061386
4239.51860596,0.00056824
4241.44741333,0.00059069
4243.37622070,0.00064633
4245.30502808,0.00059746
4247.23383545,0.00052448
4249.16264282,0.00059316
4251.09145020,0.00054336
4253.02025757,0.00054112
4254.94906494,0.00057764
4256.87787231,0.00057757
4258.80667969,0.00058274
4260.73548706,0.00053648
4262.66429443,0.00060537
4264.59310181,0.00054244
4266.52190918,0.00053450
4268.45071655,0.00058091
4270.37952393,0.00052112
4272.30833130,0.00054910
4274.23713867,0.00047894
4276.16594604,0.00050079
4278.09475342,0.00053761
4280.02356079,0.00049374
4281.95236816,0.00052784
4283.88117554,0.00056108
4285.80998291,0.00058942
4287.73879028,0.00049216
4289.66759766,0.00046281
4291.59640503,0.00052689
4293.52521240,0.00049043
4295.45401978,0.00049069
4297.38282715,0.00052859
4299.31163452,0.00054592
4301.24044189,0.00057345
4303.16924927,0.00056707
4305.09805664,0.00051402
4307.02686401,0.00050343
4308.95567139,0.00050652
4310.88447876,0.00052019
4312.81328613,0.00054414
4314.74209351,0.00051726
4316.67090088,0.00052586
4318.59970825,0.00056383
4320.52851562,0.00051576
4322.45732300,0.00047218
4324.38613037,0.00050617
4326.31493774,0.00054801
4328.24374512,0.00053279
4330.17255249,0.00047552
4332.10135986,0.00057688
4334.03016724,0.00052794
4335.95897461,0.00040319
4337.88778198,0.00059013
4339.81658936,0.00053192
4341.74539673,0.00047653
4343.67420410,0.00057585
4345.60301147,0.00046366
4347.53181885,0.00044819
4349.46062622,0.00050373
4351.38943359,0.00053781
4353.31824097,0.00048608
4355.24704834,0.00048088
4357.17585571,0.00050646
4359.10466309,0.00045808
4361.03347046,0.00045624
4362.96227783,0.00042165
4364.89108520,0.00049270
4366.81989258,0.00051506
4368.74869995,0.00053176
4370.67750732,0.00052515
4372.60631470,0.00042240
4374.53512207,0.00046975
4376.46392944,0.00044146
4378.39273682,0.00039595
4380.32154419,0.00041789
4382.25035156,0.00050240
4384.17915894,0.00047319
4386.10796631,0.00042827
4388.03677368,0.00051792
4389.96558105,0.00043320
4391.89438843,0.00049384
4393.82319580,0.00047834
4395.75200317,0.00044869
4397.68081055,0.00054686
4399.60961792,0.00041481
4401.53842529,0.00044137
4403.46723267,0.00041210
4405.39604004,0.00036950
4407.32484741,0.00048957
4409.25365478,0.00046767
4411.18246216,0.00039785
4413.11126953,0.00039799
4415.04007690,0.00046768
4416.96888428,0.00044427
4418.89769165,0.00047692
4420.82649902,0.00049490
4422.75530640,0.00044658
4424.68411377,0.00046126
4426.61292114,0.00046450
4428.54172852,0.00052233
4430.47053589,0.00044878
4432.39934326,0.00043223
4434.32815063,0.00049104
4436.25695801,0.00042301
4438.18576538,0.00042381
4440.11457275,0.00045263
4442.04338013,0.00044668
4443.97218750,0.00038397
4445.90099487,0.00040140
4447.82980225,0.00038944
4449.75860962,0.00033704
4451.68741699,0.00042574
4453.61622437,0.00041174
4455.54503174,0.00042242
4457.47383911,0.00044043
4459.40264648,0.00039932
4461.33145386,0.00047172
4463.26026123,0.00047770
4465.18906860,0.00050431
4467.11787598,0.00047261
4469.04668335,0.00033470
4470.97549072,0.00040298
4472.90429810,0.00042356
4474.83310547,0.00037757
4476.76191284,0.00044155
4478.69072021,0.00047542
4480.61952759,0.00050019
4482.54833496,0.00045536
4484.47714233,0.00047102
4486.40594971,0.00048340
4488.33475708,0.00037789
4490.26356445,0.00041703
4492.19237183,0.00043862
4494.12117920,0.00037008
4496.04998657,0.00038052
4497.97879395,0.00043293
4499.90760132,0.00039481
4501.83640869,0.00034629
4503.76521606,0.00034356
4505.69402344,0.00033297
4507.62283081,0.00040721
4509.55163818,0.00037104
4511.48044556,0.00041631
4513.40925293,0.00048646
4515.33806030,0.00034104
4517.26686768,0.00036814
4519.19567505,0.00037414
4521.12448242,0.00036338
4523.05328979,0.00040470
4524.98209717,0.00037334
4526.91090454,0.00041316
4528.83971191,0.00040962
4530.76851929,0.00041517
4532.69732666,0.00041848
4534.62613403,0.00039859
4536.55494141,0.00040069
4538.48374878,0.00042291
4540.41255615,0.00036129
4542.34136353,0.00029370
4544.27017090,0.00041626
4546.19897827,0.00039464
4548.12778564,0.00035072
4550.05659302,0.00036199
4551.98540039,0.00034663
4553.91420776,0.00038664
4555.84301514,0.00035452
4557.77182251,0.00039590
4559.70062988,0.00041282
4561.62943726,0.00044848
4563.55824463,0.00041525
4565.48705200,0.00034300
4567.41585937,0.00043785
4569.34466675,0.00037772
4571.27347412,0.00036289
4573.20228149,0.00037273
4575.13108887,0.00038843
4577.05989624,0.00043001
4578.98870361,0.00036099
4580.91751099,0.00036099
4582.84631836,0.00025782
4584.77512573,0.00031142
4586.70393311,0.00042558
4588.63274048,0.00038947
4590.56154785,0.00041796
4592.49035522,0.00035460
4594.41916260,0.00036196
4596.34796997,0.00036871
4598.27677734,0.00033674
4600.20558472,0.00031566
4602.13439209,0.00029070
4604.06319946,0.00039588
4605.99200684,0.00042066
4607.92081421,0.00039541
4609.84962158,0.00036445
4611.77842895,0.00035333
4613.70723633,0.00032252
4615.63604370,0.00027550
4617.56485107,0.00038276
4619.49365845,0.00036247
4621.42246582,0.00028613
4623.35127319,0.00034516
4625.28008057,0.00036337
4627.20888794,0.00034311
4629.13769531,0.00037557
4631.06650269,0.00035002
4632.99531006,0.00028327
4634.92411743,0.00035405
4636.85292480,0.00035949
4638.78173218,0.00030280
4640.71053955,0.00028076
4642.63934692,0.00030777
4644.56815430,0.00037920
4646.49696167,0.00035037
4648.42576904,0.00038285
4650.35457642,0.00032569
4652.28338379,0.00026715
4654.21219116,0.00039765
4656.14099853,0.00036071
4658.06980591,0.00027840
4659.99861328,0.00025952
4661.92742065,0.00029471
4663.85622803,0.00036826
4665.78503540,0.00033923
4667.71384277,0.00033810
4669.64265015,0.00036274
4671.57145752,0.00034303
4673.50026489,0.00033780
4675.42907227,0.00033688
4677.35787964,0.00030874
4679.28668701,0.00032617
4681.21549438,0.00031464
4683.14430176,0.00028633
4685.07310913,0.00035213
4687.00191650,0.00033208
4688.93072388,0.00032951
4690.85953125,0.00035832
4692.78833862,0.00033561
4694.71714600,0.00038146
4696.64595337,0.00033862
4698.57476074,0.00029024
4700.50356812,0.00030693
4702.43237549,0.00029160
4704.36118286,0.00029675
4706.28999023,0.00027017
4708.21879761,0.00029020
4710.14760498,0.00033171
4712.07641235,0.00029349
4714.00521973,0.00027802
4715.93402710,0.00027831
4717.86283447,0.00026923
4719.79164185,0.00030514
4721.72044922,0.00034773
4723.64925659,0.00034819
4725.57806396,0.00038560
4727.50687134,0.00035974
4729.43567871,0.00028616
4731.36448608,0.00035025
4733.29329346,0.00035863
4735.22210083,0.00031353
4737.15090820,0.00031189
4739.07971558,0.00030999
4741.00852295,0.00024080
4742.93733032,0.00017503
4744.86613770,0.00034507
4746.79494507,0.00034982
4748.72375244,0.00023323
4750.65255981,0.00028664
4752.58136719,0.00026094
4754.51017456,0.00027793
4756.43898193,0.00029597
4758.36778931,0.00031577
4760.29659668,0.00029484
4762.22540405,0.00025047
4764.15421143,0.00036230
4766.08301880,0.00031602
4768.01182617,0.00028786
4769.94063354,0.00037028
4771.86944092,0.00033694
4773.79824829,0.00028202
4775.72705566,0.00026983
4777.65586304,0.00028762
4779.58467041,0.00025502
4781.51347778,0.00029860
4783.44228516,0.00025778
4785.37109253,0.00017997
4787.29989990,0.00032133
4789.22870728,0.00035014
4791.15751465,0.00030446
4793.08632202,0.00029838
4795.01512939,0.00029812
4796.94393677,0.00031982
4798.87274414,0.00029991
4800.80155151,0.00030455
4802.73035889,0.00025810
4804.65916626,0.00028826
4806.58797363,0.00035718
4808.51678101,0.00025044
4810.44558838,0.00027608
4812.37439575,0.00032704
4814.30320312,0.00025244
4816.23201050,0.00029193
4818.16081787,0.00026269
4820.08962524,0.00026063
4822.01843262,0.00032180
4823.94723999,0.00023685
4825.87604736,0.00025051
4827.80485474,0.00028912
4829.73366211,0.00028119
4831.66246948,0.00029990
4833.59127686,0.00029527
4835.52008423,0.00028169
4837.44889160,0.00024600
4839.37769897,0.00026747
4841.30650635,0.00026402
4843.23531372,0.00030844
4845.16412109,0.00031339
4847.09292847,0.00025267
4849.02173584,0.00031651
4850.95054321,0.00027677
4852.87935059,0.00027784
4854.80815796,0.00025427
4856.73696533,0.00017336
4858.66577270,0.00028321
4860.59458008,0.00027109
4862.52338745,0.00021926
4864.45219482,0.00027660
4866.38100220,0.00024909
4868.30980957,0.00022685
4870.23861694,0.00031250
4872.16742432,0.00033108
4874.09623169,0.00024501
4876.02503906,0.00020211
4877.95384644,0.00023267
4879.88265381,0.00023895
4881.81146118,0.00017345
4883.74026855,0.00020940
4885.66907593,0.00024021
4887.59788330,0.00023459
4889.52669067,0.00025197
4891.45549805,0.00019767
4893.38430542,0.00020125
4895.31311279,0.00021755
4897.24192017,0.00027896
4899.17072754,0.00027228
4901.09953491,0.00018853
4903.02834228,0.00023819
4904.95714966,0.00020092
4906.88595703,0.00014398
4908.81476440,0.00018015
4910.74357178,0.00022828
4912.67237915,0.00024038
4914.60118652,0.00022891
4916.52999390,0.00020880
4918.45880127,0.00019812
4920.38760864,0.00029178
4922.31641602,0.00024970
4924.24522339,0.00017636
4926.17403076,0.00029804
4928.10283813,0.00033460
4930.03164551,0.00025591
4931.96045288,0.00026903
4933.88926025,0.00027302
4935.81806763,0.00017361
4937.74687500,0.00019832
4939.67568237,0.00021004
4941.60448975,0.00013199
4943.53329712,0.00020456
4945.46210449,0.00024391
4947.39091187,0.00022355
4949.31971924,0.00028619
4951.24852661,0.00024922
4953.17733398,0.00022089
4955.10614136,0.00028808
4957.03494873,0.00025196
4958.96375610,0.00026960
4960.89256348,0.00023489
4962.82137085,0.00020188
4964.75017822,0.00030945
4966.67898560,0.00019927
4968.60779297,0.00016297
4970.53660034,0.00020756
4972.46540771,0.00016113
4974.39421509,0.00024163
4976.32302246,0.00025122
4978.25182983,0.00024650
4980.18063721,0.00025010
4982.10944458,0.00015599
4984.03825195,0.00017727
4985.96705933,0.00025512
4987.89586670,0.00021460
4989.82467407,0.00020623
4991.75348145,0.00016136
4993.68228882,0.00013763
4995.61109619,0.00023645
4997.53990356,0.00017756
4999.46871094,0.00018457
5001.39751831,0.00018488
5003.32632568,0.00015693
5005.25513306,0.00026300
5007.18394043,0.00020741
5009.11274780,0.00020147
5011.04155518,0.00022765
5012.97036255,0.00022212
5014.89916992,0.00022405
5016.82797729,0.00022461
5018.75678467,0.00024895
5020.68559204,0.00016610
5022.61439941,0.00021514
5024.54320679,0.00025659
5026.47201416,0.00025286
5028.40082153,0.00017654
5030.32962891,0.00006932
5032.25843628,0.00027736
5034.18724365,0.00027854
5036.11605103,0.00013459
5038.04485840,0.00019016
5039.97366577,0.00020328
5041.90247314,0.00021951
5043.83128052,0.00024749
5045.76008789,0.00022695
5047.68889526,0.00019165
5049.61770264,0.00019436
5051.54651001,0.00016096
5053.47531738,0.00017638
5055.40412476,0.00020453
5057.33293213,0.00010475
5059.26173950,0.00015812
5061.19054687,0.00025335
5063.11935425,0.00018268
5065.04816162,0.00021456
5066.97696899,0.00025792
5068.90577637,0.00019387
5070.83458374,0.00024495
5072.76339111,0.00021483
5074.69219849,0.00014463
5076.62100586,0.00019439
5078.54981323,0.00015442
5080.47862061,0.00016362
5082.40742798,0.00018312
5084.33623535,0.00016356
5086.26504272,0.00019392
5088.19385010,0.00021093
5090.12265747,0.00019393
5092.05146484,0.00018952
5093.98027222,0.00026154
5095.90907959,0.00020772
5097.83788696,0.00017219
5099.76669434,0.00021175
5101.69550171,0.00014896
5103.62430908,0.00019602
5105.55311645,0.00021941
5107.48192383,0.00014940
5109.41073120,0.00017441
5111.33953857,0.00018015
5113.26834595,0.00017796
5115.19715332,0.00022430
5117.12596069,0.00014375
5119.05476807,0.00014125
5120.98357544,0.00023001
5122.91238281,0.00015404
5124.84119019,0.00014856
5126.76999756,0.00012400
5128.69880493,0.00010716
5130.62761230,0.00019661
5132.55641968,0.00014819
5134.48522705,0.00013963
5136.41403442,0.00024472
5138.34284180,0.00022620
5140.27164917,0.00009157
5142.20045654,0.00013295
5144.12926392,0.00019374
5146.05807129,0.00016051
5147.98687866,0.00020668
5149.91568603,0.00017121
5151.84449341,0.00015918
5153.77330078,0.00020095
5155.70210815,0.00021628
5157.63091553,0.00019415
5159.55972290,0.00015118
5161.48853027,0.00015748
5163.41733765,0.00014040
5165.34614502,0.00017937
5167.27495239,0.00018230
5169.20375977,0.00013926
5171.13256714,0.00012910
5173.06137451,0.00015407
5174.99018188,0.00014282
5176.91898926,0.00008409
5178.84779663,0.00019344
5180.77660400,0.00019879
5182.70541138,0.00014848
5184.63421875,0.00016923
5186.56302612,0.00007273
5188.49183350,0.00009845
5190.42064087,0.00016493
5192.34944824,0.00012761
5194.27825562,0.00013080
5196.20706299,0.00020050
5198.13587036,0.00023156
5200.06467773,0.00017767
5201.99348511,0.00016447
5203.92229248,0.00020374
5205.85109985,0.00014398
5207.77990723,0.00012092
5209.70871460,0.00022157
5211.63752197,0.00016386
5213.56632935,0.00011540
5215.49513672,0.00015169
5217.42394409,0.00014504
5219.35275146,0.00021492
5221.28155884,0.00020883
5223.21036621,0.00014319
5225.13917358,0.00012185
5227.06798096,0.00013594
5228.99678833,0.00014011
5230.92559570,0.00011096
5232.85440308,0.00017337
5234.78321045,0.00020023
5236.71201782,0.00016855
5238.64082520,0.00019747
5240.56963257,0.00018432
5242.49843994,0.00015387
5244.42724731,0.00015411
5246.35605469,0.00011765
5248.28486206,0.00016679
5250.21366943,0.00018075
5252.14247681,0.00009012
5254.07128418,0.00013331
5256.00009155,0.00013777
5257.92889893,0.00009829
5259.85770630,0.00010563
5261.78651367,0.00012487
5263.71532104,0.00017998
5265.64412842,0.00019309
5267.57293579,0.00017909
5269.50174316,0.00010889
5271.43055054,0.00014949
5273.35935791,0.00025798
5275.28816528,0.00020999
5277.21697266,0.00014545
5279.14578003,0.00014675
5281.07458740,0.00012967
5283.00339478,0.00011931
5284.93220215,0.00019614
5286.86100952,0.00018626
5288.78981689,0.00017555
5290.71862427,0.00013219
5292.64743164,0.00007591
5294.57623901,0.00015120
5296.50504639,0.00006309
5298.43385376,0.00010484
5300.36266113,0.00019502
5302.29146851,0.00011943
5304.22027588,0.00014311
5306.14908325,0.00015979
5308.07789062,0.00017118
5310.00669800,0.00012999
5311.93550537,0.00011202
5313.86431274,0.00012300
5315.79312012,0.00010693
5317.72192749,0.00010779
5319.65073486,0.00010539
5321.57954224,0.00014817
5323.50834961,0.00011622
5325.43715698,0.00009928
5327.36596436,0.00014864
5329.29477173,0.00014553
5331.22357910,0.00009291
5333.15238647,0.00014131
5335.08119385,0.00019196
5337.01000122,0.00009069
5338.93880859,0.00011434
5340.86761597,0.00015484
5342.79642334,0.00013224
5344.72523071,0.00012832
5346.65403809,0.00012281
5348.58284546,0.00011839
5350.51165283,0.00008899
5352.44046020,0.00012783
5354.36926758,0.00008591
5356.29807495,0.00010543
5358.22688232,0.00019956
5360.15568970,0.00016849
5362.08449707,0.00015669
5364.01330444,0.00015989
5365.94211182,0.00017055
5367.87091919,0.00012138
5369.79972656,0.00012241
5371.72853394,0.00012532
5373.65734131,0.00005646
5375.58614868,0.00005980
5377.51495605,0.00009535
5379.44376343,0.00021839
5381.37257080,0.00021734
5383.30137817,0.00010056
5385.23018555,0.00009178
5387.15899292,0.00011728
5389.08780029,0.00011169
5391.01660767,0.00014276
5392.94541504,0.00015200
5394.87422241,0.00008522
5396.80302978,0.00018314
5398.73183716,0.00016336
5400.66064453,0.00010688
5402.58945190,0.00018828
5404.51825928,0.00012750
5406.44706665,0.00013837
5408.37587402,0.00008609
5410.30468140,0.00004525
5412.23348877,0.00010395
5414.16229614,0.00011314
5416.09110352,0.00010463
5418.01991089,0.00007831
5419.94871826,0.00018666
5421.87752563,0.00012652
5423.80633301,0.00006181
5425.73514038,0.00019858
5427.66394775,0.00016422
5429.59275513,0.00010323
5431.52156250,0.00015889
5433.45036987,0.00018479
5435.37917725,0.00013109
5437.30798462,0.00009822
5439.23679199,0.00007739
5441.16559936,0.00011117
5443.09440674,0.00011865
5445.02321411,0.00009017
5446.95202148,0.00014121
5448.88082886,0.00010800
5450.80963623,0.00013313
5452.73844360,0.00014508
5454.66725098,0.00010376
5456.59605835,0.00015734
5458.52486572,0.00015613
5460.45367310,0.00016463
5462.38248047,0.00012436
5464.31128784,0.00009150
5466.24009521,0.00014504
5468.16890259,0.00015904
5470.09770996,0.00012588
5472.02651733,0.00007845
5473.95532471,0.00012012
5475.88413208,0.00008250
5477.81293945,0.00004861
5479.74174683,0.00014713
5481.67055420,0.00013778
5483.59936157,0.00012988
5485.52816895,0.00011933
5487.45697632,0.00009665
5489.38578369,0.00012915
5491.31459106,0.00007862
5493.24339844,0.00012298
5495.17220581,0.00019880
5497.10101318,0.00013072
5499.02982056,0.00008027
5500.95862793,0.00004140
5502.88743530,0.00009392
5504.81624268,0.00013478
5506.74505005,0.00010220
5508.67385742,0.00016125
5510.60266479,0.00012316
5512.53147217,0.00006456
5514.46027954,0.00006596
5516.38908691,0.00003543
5518.31789429,0.00005300
5520.24670166,0.00008980
5522.17550903,0.00011229
5524.10431641,0.00008329
5526.03312378,0.00006897
5527.96193115,0.00009654
5529.89073853,0.00013046
5531.81954590,0.00015761
5533.74835327,0.00012657
5535.67716064,0.00012087
5537.60596802,0.00018571
5539.53477539,0.00016368
5541.46358276,0.00009820
5543.39239014,0.00016572
5545.32119751,0.00010686
5547.25000488,0.00004476
5549.17881226,0.00010098
5551.10761963,0.00005879
5553.03642700,0.00010120
5554.96523437,0.00008362
5556.89404175,0.00007058
5558.82284912,0.00011416
5560.75165649,0.00012190
5562.68046387,0.00014619
5564.60927124,0.00006126
5566.53807861,0.00013906
5568.46688599,0.00011842
5570.39569336,0.00007479
5572.32450073,0.00019800
5574.25330811,0.00005979
5576.18211548,0.00009047
5578.11092285,0.00013382
5580.03973022,0.00006198
5581.96853760,0.00013873
5583.89734497,0.00009441
5585.82615234,0.00014373
5587.75495972,0.00017308
5589.68376709,0.00008102
5591.61257446,0.00007452
5593.54138184,0.00011843
5595.47018921,0.00017654
5597.39899658,0.00014095
5599.32780395,0.00010558
5601.25661133,0.00010357
5603.18541870,0.00013898
5605.11422607,0.00010035
5607.04303345,-0.00001547
5608.97184082,0.00007574
5610.90064819,0.00012213
5612.82945557,0.00006856
5614.75826294,0.00011295
5616.68707031,0.00012984
5618.61587769,0.00010168
5620.54468506,0.00006805
5622.47349243,0.00010589
5624.40229980,0.00015129
5626.33110718,0.00010079
5628.25991455,0.00003422
5630.18872192,0.00006048
5632.11752930,0.00013051
5634.04633667,0.00008602
5635.97514404,0.00008158
5637.90395142,0.00012330
5639.83275879,0.00006521
5641.76156616,0.00005949
5643.69037353,0.00009433
5645.61918091,0.00009645
5647.54798828,0.00014194
5649.47679565,0.00015019
5651.40560303,0.00008097
5653.33441040,0.00008772
5655.26321777,0.00009067
5657.19202515,0.00007648
5659.12083252,0.00008446
5661.04963989,0.00004591
5662.97844727,0.00007710
5664.90725464,0.00003622
5666.83606201,0.00000882
5668.76486938,0.00011496
5670.69367676,0.00010708
5672.62248413,0.00005886
5674.55129150,0.00007405
5676.48009888,0.00014214
5678.40890625,0.00009167
5680.33771362,0.00003954
5682.26652100,0.00011856
5684.19532837,0.00010069
5686.12413574,0.00011582
5688.05294311,0.00009855
5689.98175049,0.00005885
5691.91055786,0.00007552
5693.83936523,0.00006080
5695.76817261,0.00012020
5697.69697998,0.00012050
5699.62578735,0.00010531
5701.55459473,0.00008846
5703.48340210,0.00006943
5705.41220947,0.00012863
5707.34101685,0.00009020
5709.26982422,0.00008548
5711.19863159,0.00017666
5713.12743896,0.00013844
5715.05624634,0.00007608
5716.98505371,0.00012040
5718.91386108,0.00008710
5720.84266846,0.00006497
5722.77147583,0.00011091
5724.70028320,0.00010314
5726.62909058,0.00011103
5728.55789795,0.00006209
5730.48670532,0.00005221
5732.41551270,0.00007045
5734.34432007,0.00004603
5736.27312744,0.00010800
5738.20193481,0.00014047
5740.13074219,0.00012245
5742.05954956,0.00010371
5743.98835693,0.00007298
5745.91716431,0.00006331
5747.84597168,0.00010567
5749.77477905,0.00006076
5751.70358643,-0.00000868
5753.63239380,0.00011435
5755.56120117,0.00012587
5757.49000854,0.00012261
5759.41881592,0.00020267
5761.34762329,0.00002848
5763.27643066,-0.00000341
5765.20523804,0.00017546
5767.13404541,0.00011108
5769.06285278,0.00005731
5770.99166016,0.00012007
5772.92046753,0.00009633
5774.84927490,0.00009107
5776.77808228,0.00008325
5778.70688965,0.00010947
5780.63569702,0.00010784
5782.56450439,0.00002087
5784.49331177,0.00007605
5786.42211914,0.00009686
5788.35092651,0.00006069
5790.27973389,0.00010378
5792.20854126,0.00009234
5794.13734863,0.00007002
5796.06615601,0.00006113
5797.99496338,0.00009885
5799.92377075,0.00011677
5801.85257812,0.00008134
5803.78138550,0.00013234
5805.71019287,0.00014130
5807.63900024,0.00005977
5809.56780762,0.00006065
5811.49661499,0.00012108
5813.42542236,0.00005229
5815.35422974,-0.00000985
5817.28303711,0.00008591
5819.21184448,0.00013461
5821.14065186,0.00007326
5823.06945923,0.00004510
5824.99826660,0.00013402
5826.92707397,0.00012987
5828.85588135,0.00005578
5830.78468872,0.00006670
5832.71349609,0.00003070
5834.64230347,0.00004051
5836.57111084,0.00007404
5838.49991821,0.00010733
5840.42872559,0.00010946
5842.35753296,0.00003920
5844.28634033,0.00004446
5846.21514770,0.00002247
5848.14395508,0.00008730
5850.07276245,0.00013127
5852.00156982,0.00000704
5853.93037720,0.00006337
5855.85918457,0.00008096
5857.78799194,0.00002914
5859.71679932,0.00007132
5861.64560669,-0.00001842
5863.57441406,0.00001840
5865.50322144,0.00012464
5867.43202881,0.00006217
5869.36083618,0.00007433
5871.28964355,0.00009471
5873.21845093,0.00003912
5875.14725830,0.00006525
5877.07606567,0.00011680
5879.00487305,0.00008032
5880.93368042,0.00010493
5882.86248779,0.00010899
5884.79129517,0.00005281
5886.72010254,0.00008437
5888.64890991,0.00004418
5890.57771728,0.00007508
5892.50652466,0.00012186
5894.43533203,0.00009200
5896.36413940,0.00012264
5898.29294678,0.00005163
5900.22175415,0.00006103
5902.15056152,0.00011110
5904.07936890,0.00004510
5906.00817627,0.00002129
5907.93698364,0.00004751
5909.86579102,0.00009023
5911.79459839,0.00008720
5913.72340576,0.00007199
5915.65221313,0.00004699
5917.58102051,0.00003808
5919.50982788,0.00003649
5921.43863525,0.00002190
5923.36744263,0.00007500
5925.29625000,0.00005726
5927.22505737,0.00003510
5929.15386475,0.00007235
5931.08267212,0.00004764
5933.01147949,0.00005661
5934.94028686,0.00005942
5936.86909424,0.00004380
5938.79790161,0.00007079
5940.72670898,0.00009870
5942.65551636,0.00009222
5944.58432373,0.00004673
5946.51313110,-0.00001552
5948.44193848,0.00000533
5950.37074585,0.00008160
5952.29955322,0.00004970
5954.22836060,0.00008885
5956.15716797,0.00010696
5958.08597534,0.00006425
5960.01478271,0.00006456
5961.94359009,0.00003076
5963.87239746,0.00011353
5965.80120483,0.00010282
5967.73001221,0.00005181
5969.65881958,0.00008377
5971.58762695,0.00005504
5973.51643433,0.00006717
5975.44524170,0.00012167
5977.37404907,0.00011683
5979.30285645,0.00000573
5981.23166382,0.00006483
5983.16047119,0.00014550
5985.08927856,0.00007730
5987.01808594,0.00006935
5988.94689331,0.00003030
5990.87570068,0.00006165
5992.80450806,0.00005475
5994.73331543,0.00001361
5996.66212280,0.00007395
5998.59093018,0.00004786
6000.51973755,0.00002442
