399.26312622,0.00124565
401.19193359,0.00128145
403.12074097,0.00060066
405.04954834,0.00084551
406.97835571,0.00092553
408.90716309,0.00105311
410.83597046,0.00125126
412.76477783,0.00128543
414.69358521,0.00138481
416.62239258,0.00079747
418.55119995,0.00084927
420.48000732,0.00142389
422.40881470,0.00126766
424.33762207,0.00103314
426.26642944,0.00109435
428.19523682,0.00155725
430.12404419,0.00152067
432.05285156,0.00131435
433.98165894,0.00141572
435.91046631,0.00124143
437.83927368,0.00141377
439.76808105,0.00147590
441.69688843,0.00123205
443.62569580,0.00115831
445.55450317,0.00116646
447.48331055,0.00097628
449.41211792,0.00083033
451.34092529,0.00099632
453.26973267,0.00081566
455.19854004,0.00091727
457.12734741,0.00060275
459.05615479,0.00025288
460.98496216,0.00090862
462.91376953,0.00067640
464.84257690,0.00059982
466.77138428,0.00081321
468.70019165,0.00048040
470.62899902,0.00035952
472.55780640,0.00025582
474.48661377,0.00050994
476.41542114,0.00025366
478.34422852,0.00043763
480.27303589,0.00102873
482.20184326,0.00033650
484.13065063,0.00046661
486.05945801,0.00043081
487.98826538,-0.00021484
489.91707275,0.00048789
491.84588013,0.00042422
493.77468750,0.00021164
495.70349487,0.00064390
497.63230225,0.00014360
499.56110962,0.00020300
501.48991699,0.00022202
503.41872437,-0.00016645
505.34753174,0.00038665
507.27633911,0.00049604
509.20514648,0.00020674
511.13395386,0.00070070
513.06276123,0.00075468
514.99156860,0.00025410
516.92037598,0.00027187
518.84918335,0.00046116
520.77799072,0.00038654
522.70679810,0.00019937
524.63560547,0.00026639
526.56441284,0.00048894
528.49322021,0.00035661
530.42202759,0.00042611
532.35083496,0.00022665
534.27964233,0.00000377
536.20844971,0.00029640
538.13725708,0.00019539
540.06606445,0.00019652
541.99487183,-0.00002209
543.92367920,0.00005694
545.85248657,0.00031953
547.78129395,0.00020064
549.71010132,0.00034907
551.63890869,0.00008830
553.56771606,0.00021021
555.49652344,0.00012380
557.42533081,0.00000686
559.35413818,0.00039828
561.28294556,-0.00001122
563.21175293,0.00017822
565.14056030,0.00043332
567.06936768,0.00041815
568.99817505,0.00039565
570.92698242,0.00004728
572.85578979,0.00021801
574.78459717,0.00016283
576.71340454,0.00031585
578.64221191,0.00043390
580.57101929,0.00023295
582.49982666,0.00003551
584.42863403,-0.00031040
586.35744141,0.00020953
588.28624878,0.00045147
590.21505615,0.00000231
592.14386353,-0.00005223
594.07267090,0.00019268
596.00147827,0.00036506
597.93028564,0.00034886
599.85909302,0.00035585
601.78790039,0.00024976
603.71670776,0.00018461
605.64551514,0.00009215
607.57432251,0.00025868
609.50312988,0.00017894
611.43193726,0.00009652
613.36074463,0.00013325
615.28955200,-0.00007037
617.21835938,-0.00003608
619.14716675,0.00027226
621.07597412,0.00041227
623.00478149,-0.00014377
624.93358887,-0.00004322
626.86239624,0.00016104
628.79120361,-0.00022183
630.72001099,0.00037021
632.64881836,0.00091286
634.57762573,0.00104131
636.50643311,0.00126389
638.43524048,0.00120436
640.36404785,0.00079856
642.29285522,0.00103841
644.22166260,0.00167401
646.15046997,0.00132088
648.07927734,0.00132902
650.00808472,0.00132904
651.93689209,0.00138738
653.86569946,0.00203699
655.79450684,0.00161288
657.72331421,0.00160920
659.65212158,0.00214478
661.58092896,0.00177842
663.50973633,0.00184449
665.43854370,0.00240567
667.36735107,0.00201827
669.29615845,0.00170024
671.22496582,0.00244961
673.15377319,0.00278583
675.08258057,0.00262124
677.01138794,0.00244689
678.94019531,0.00248721
680.86900269,0.00287777
682.79781006,0.00262104
684.72661743,0.00219404
686.65542480,0.00257083
688.58423218,0.00284848
690.51303955,0.00267904
692.44184692,0.00277344
694.37065430,0.00298058
696.29946167,0.00348427
698.22826904,0.00382052
700.15707642,0.00389295
702.08588379,0.00421791
704.01469116,0.00354168
705.94349854,0.00302572
707.87230591,0.00307452
709.80111328,0.00221649
711.72992065,0.00157047
713.65872803,0.00117455
715.58753540,0.00062036
717.51634277,0.00039115
719.44515015,0.00032348
721.37395752,0.00016240
723.30276489,0.00022867
725.23157227,0.00048918
727.16037964,0.00027148
729.08918701,0.00021496
731.01799438,0.00017866
732.94680176,-0.00018356
734.87560913,0.00000474
736.80441650,0.00033348
738.73322388,0.00028797
740.66203125,-0.00003785
742.59083862,0.00026051
744.51964600,0.00048673
746.44845337,0.00032387
748.37726074,0.00012234
750.30606812,0.00014840
752.23487549,0.00038893
754.16368286,0.00007096
756.09249023,0.00023935
758.02129761,0.00016085
759.95010498,0.00011178
761.87891235,0.00035186
763.80771973,0.00024878
765.73652710,0.00040973
767.66533447,0.00042309
769.59414185,0.00017922
771.52294922,0.00019344
773.45175659,0.00026990
775.38056396,0.00009244
777.30937134,0.00030640
779.23817871,0.00049658
781.16698608,0.00055925
783.09579346,0.00072004
785.02460083,0.00059304
786.95340820,0.00047581
788.88221558,0.00023472
790.81102295,0.00032089
792.73983032,0.00029902
794.66863770,0.00026228
796.59744507,0.00063711
798.52625244,0.00066693
800.45505981,0.00074155
802.38386719,0.00054535
804.31267456,0.00034880
806.24148193,0.00039024
808.17028931,0.00032415
810.09909668,0.00034804
812.02790405,0.00009466
813.95671143,0.00016584
815.88551880,0.00033490
817.81432617,0.00020365
819.74313354,0.00020765
821.67194092,0.00029448
823.60074829,0.00052778
825.52955566,0.00038163
827.45836304,0.00031554
829.38717041,0.00063586
831.31597778,0.00083764
833.24478516,0.00084481
835.17359253,0.00086252
837.10239990,0.00101923
839.03120728,0.00072664
840.96001465,0.00072354
842.88882202,0.00100778
844.81762939,0.00095589
846.74643677,0.00093595
848.67524414,0.00059519
850.60405151,0.00066428
852.53285889,0.00086535
854.46166626,0.00063596
856.39047363,0.00074159
858.31928101,0.00066920
860.24808838,0.00057273
862.17689575,0.00055725
864.10570313,0.00030061
866.03451050,0.00034181
867.96331787,0.00047739
869.89212524,0.00039049
871.82093262,0.00022455
873.74973999,0.00003252
875.67854736,0.00010208
877.60735474,0.00048499
879.53616211,0.00050113
881.46496948,0.00024748
883.39377686,0.00027297
885.32258423,0.00035443
887.25139160,0.00034318
889.18019897,0.00030831
891.10900635,0.00020345
893.03781372,0.00037287
894.96662109,0.00055033
896.89542847,0.00048658
898.82423584,0.00054474
900.75304321,0.00065972
902.68185059,0.00070058
904.61065796,0.00029766
906.53946533,0.00042723
908.46827271,0.00063166
910.39708008,0.00027663
912.32588745,0.00063617
914.25469482,0.00062321
916.18350220,0.00030890
918.11230957,0.00062508
920.04111694,0.00069780
921.96992432,0.00060166
923.89873169,0.00065262
925.82753906,0.00076059
927.75634644,0.00092117
929.68515381,0.00104927
931.61396118,0.00107743
933.54276855,0.00105756
935.47157593,0.00106559
937.40038330,0.00106541
939.32919067,0.00101905
941.25799805,0.00099426
943.18680542,0.00117554
945.11561279,0.00132444
947.04442017,0.00117748
948.97322754,0.00119048
950.90203491,0.00133164
952.83084229,0.00113390
954.75964966,0.00115931
956.68845703,0.00131502
958.61726440,0.00110260
960.54607178,0.00114890
962.47487915,0.00125333
964.40368652,0.00121381
966.33249390,0.00127787
968.26130127,0.00123768
970.19010864,0.00138655
972.11891602,0.00158734
974.04772339,0.00162691
975.97653076,0.00170306
977.90533813,0.00170318
979.83414551,0.00181326
981.76295288,0.00192886
983.69176025,0.00204921
985.62056763,0.00257065
987.54937500,0.00294299
989.47818237,0.00308318
991.40698975,0.00340442
993.33579712,0.00366708
995.26460449,0.00412117
997.19341187,0.00456764
999.12221924,0.00463488
1001.05102661,0.00493819
1002.97983398,0.00536598
1004.90864136,0.00572170
1006.83744873,0.00617442
1008.76625610,0.00630712
1010.69506348,0.00661012
1012.62387085,0.00713197
1014.55267822,0.00729418
1016.48148560,0.00782991
1018.41029297,0.00825861
1020.33910034,0.00840633
1022.26790771,0.00905991
1024.19671509,0.00928540
1026.12552246,0.00935398
1028.05432983,0.00987237
1029.98313721,0.01001708
1031.91194458,0.01017598
1033.84075195,0.01079567
1035.76955933,0.01087886
1037.69836670,0.01066833
1039.62717407,0.01108786
1041.55598145,0.01103294
1043.48478882,0.01075864
1045.41359619,0.01097875
1047.34240356,0.01061107
1049.27121094,0.01018137
1051.20001831,0.01010828
1053.12882568,0.01009325
1055.05763306,0.01001377
1056.98644043,0.00962951
1058.91524780,0.00940369
1060.84405518,0.00920575
1062.77286255,0.00894817
1064.70166992,0.00858003
1066.63047729,0.00815898
1068.55928467,0.00787591
1070.48809204,0.00753101
1072.41689941,0.00723462
1074.34570679,0.00673037
1076.27451416,0.00650190
1078.20332153,0.00626932
1080.13212891,0.00593405
1082.06093628,0.00590673
1083.98974365,0.00530811
1085.91855103,0.00519680
1087.84735840,0.00511316
1089.77616577,0.00470396
1091.70497314,0.00474405
1093.63378052,0.00426025
1095.56258789,0.00421674
1097.49139526,0.00423929
1099.42020264,0.00398651
1101.34901001,0.00387998
1103.27781738,0.00371068
1105.20662476,0.00393355
1107.13543213,0.00363050
1109.06423950,0.00353788
1110.99304687,0.00355405
1112.92185425,0.00327372
1114.85066162,0.00343322
1116.77946899,0.00349870
1118.70827637,0.00375076
1120.63708374,0.00349892
1122.56589111,0.00325799
1124.49469849,0.00350336
1126.42350586,0.00365337
1128.35231323,0.00396613
1130.28112061,0.00374540
1132.20992798,0.00379231
1134.13873535,0.00413298
1136.06754272,0.00408080
1137.99635010,0.00424085
1139.92515747,0.00468215
1141.85396484,0.00494100
1143.78277222,0.00497973
1145.71157959,0.00546347
1147.64038696,0.00581605
1149.56919434,0.00612089
1151.49800171,0.00650512
1153.42680908,0.00676733
1155.35561646,0.00712517
1157.28442383,0.00709033
1159.21323120,0.00746002
1161.14203857,0.00788285
1163.07084595,0.00803447
1164.99965332,0.00858443
1166.92846069,0.00888901
1168.85726807,0.00899580
1170.78607544,0.00923247
1172.71488281,0.00968294
1174.64369019,0.01013185
1176.57249756,0.01054977
1178.50130493,0.01098097
1180.43011230,0.01118819
1182.35891968,0.01153524
1184.28772705,0.01217151
1186.21653442,0.01266014
1188.14534180,0.01308087
1190.07414917,0.01392498
1192.00295654,0.01452063
1193.93176392,0.01504804
1195.86057129,0.01602275
1197.78937866,0.01662785
1199.71818604,0.01730438
1201.64699341,0.01817961
1203.57580078,0.01865162
1205.50460815,0.01933374
1207.43341553,0.02012490
1209.36222290,0.02070190
1211.29103027,0.02137312
1213.21983765,0.02158383
1215.14864502,0.02224775
1217.07745239,0.02321059
1219.00625977,0.02313032
1220.93506714,0.02355305
1222.86387451,0.02398839
1224.79268188,0.02408715
1226.72148926,0.02439860
1228.65029663,0.02442173
1230.57910400,0.02460954
1232.50791138,0.02440931
1234.43671875,0.02443288
1236.36552612,0.02438025
1238.29433350,0.02427332
1240.22314087,0.02451423
1242.15194824,0.02409667
1244.08075562,0.02442326
1246.00956299,0.02434806
1247.93837036,0.02384482
1249.86717773,0.02403084
1251.79598511,0.02355585
1253.72479248,0.02340209
1255.65359985,0.02311232
1257.58240723,0.02247501
1259.51121460,0.02225016
1261.44002197,0.02194592
1263.36882935,0.02164500
1265.29763672,0.02120212
1267.22644409,0.02101472
1269.15525146,0.02079369
1271.08405884,0.02035830
1273.01286621,0.02014863
1274.94167358,0.01972088
1276.87048096,0.01933441
1278.79928833,0.01912174
1280.72809570,0.01873928
1282.65690308,0.01836574
1284.58571045,0.01802229
1286.51451782,0.01762377
1288.44332520,0.01722196
1290.37213257,0.01711292
1292.30093994,0.01723471
1294.22974731,0.01690409
1296.15855469,0.01669013
1298.08736206,0.01686125
1300.01616943,0.01677211
1301.94497681,0.01677288
1303.87378418,0.01689498
1305.80259155,0.01717567
1307.73139893,0.01743244
1309.66020630,0.01757221
1311.58901367,0.01788575
1313.51782104,0.01807820
1315.44662842,0.01851737
1317.37543579,0.01895408
1319.30424316,0.01930556
1321.23305054,0.02004844
1323.16185791,0.02065655
1325.09066528,0.02127015
1327.01947266,0.02200231
1328.94828003,0.02244914
1330.87708740,0.02290769
1332.80589478,0.02348004
1334.73470215,0.02383593
1336.66350952,0.02405326
1338.59231689,0.02376925
1340.52112427,0.02381764
1342.44993164,0.02491895
1344.37873901,0.02526163
1346.30754639,0.02512300
1348.23635376,0.02504021
1350.16516113,0.02499895
1352.09396851,0.02505211
1354.02277588,0.02444049
1355.95158325,0.02437967
1357.88039062,0.02432812
1359.80919800,0.02383138
1361.73800537,0.02269413
1363.66681274,0.02221730
1365.59562012,0.02370031
1367.52442749,0.02291800
1369.45323486,0.02272433
1371.38204224,0.02341370
1373.31084961,0.02158616
1375.23965698,0.02190833
1377.16846436,0.02263457
1379.09727173,0.02232441
1381.02607910,0.02247781
1382.95488647,0.02270437
1384.88369385,0.02260644
1386.81250122,0.02100671
1388.74130859,0.02163357
1390.67011597,0.02377018
1392.59892334,0.02279716
1394.52773071,0.02124267
1396.45653809,0.02241299
1398.38534546,0.02230940
1400.31415283,0.02226106
1402.24296021,0.02425302
1404.17176758,0.02262334
1406.10057495,0.02283013
1408.02938232,0.02386483
1409.95818970,0.02289272
1411.88699707,0.02336871
1413.81580444,0.02237348
1415.74461182,0.02297587
1417.67341919,0.02014425
1419.60222656,0.01778027
1421.53103394,0.02129544
1423.45984131,0.02029714
1425.38864868,0.01982171
1427.31745605,0.02047716
1429.24626343,0.01869421
1431.17507080,0.01814432
1433.10387817,0.01875396
1435.03268555,0.01678307
1436.96149292,0.01360120
1438.89030029,0.01612969
1440.81910767,0.01672898
1442.74791504,0.01550608
1444.67672241,0.01636713
1446.60552979,0.01467529
1448.53433716,0.01512641
1450.46314453,0.01573801
1452.39195190,0.01604828
1454.32075928,0.01652698
1456.24956665,0.01283403
1458.17837402,0.01341396
1460.10718140,0.01896036
1462.03598877,0.02007465
1463.96479614,0.01951466
1465.89360352,0.02059663
1467.82241089,0.02368994
1469.75121826,0.02528355
1471.68002563,0.02178760
1473.60883301,0.02293023
1475.53764038,0.02650592
1477.46644775,0.02858367
1479.39525513,0.03182520
1481.32406250,0.03198721
1483.25286987,0.03411577
1485.18167725,0.03512862
1487.11048462,0.03380685
1489.03929199,0.03327643
1490.96809937,0.03356568
1492.89690674,0.04005302
1494.82571411,0.03855841
1496.75452148,0.03390884
1498.68332886,0.03907697
1500.61213623,0.04030005
1502.54094360,0.04369394
1504.46975098,0.04049518
1506.39855835,0.02748497
1508.32736572,0.03495532
1510.25617310,0.04208869
1512.18498047,0.04073130
1514.11378784,0.04462962
1516.04259521,0.03936707
1517.97140259,0.04121432
1519.90020996,0.03949719
1521.82901733,0.03322484
1523.75782471,0.04224493
1525.68663208,0.04122054
1527.61543945,0.04114588
1529.54424683,0.04672502
1531.47305420,0.04425763
1533.40186157,0.03961788
1535.33066895,0.04292811
1537.25947632,0.04628102
1539.18828369,0.03097579
1541.11709106,0.03281792
1543.04589844,0.04030143
1544.97470581,0.03851903
1546.90351318,0.04718391
1548.83232056,0.04332478
1550.76112793,0.04504668
1552.68993530,0.04462969
1554.61874268,0.03979526
1556.54755005,0.04291362
1558.47635742,0.02791668
1560.40516479,0.03130529
1562.33397217,0.04738351
1564.26277954,0.04415217
1566.19158691,0.04593232
1568.12039429,0.04494477
1570.04920166,0.03883900
1571.97800903,0.04649489
1573.90681641,0.04674354
1575.83562378,0.03556033
1577.76443115,0.04144935
1579.69323853,0.04734332
1581.62204590,0.04515031
1583.55085327,0.04647812
1585.47966064,0.04566672
1587.40846802,0.04618557
1589.33727539,0.04545830
1591.26608276,0.04562234
1593.19489014,0.04573653
1595.12369751,0.04502515
1597.05250488,0.04579601
1598.98131226,0.04542573
1600.91011963,0.04560157
1602.83892700,0.04455854
1604.76773437,0.04579691
1606.69654175,0.04501643
1608.62534912,0.04478133
1610.55415649,0.04482610
1612.48296387,0.04504337
1614.41177124,0.04573261
1616.34057861,0.03619872
1618.26938599,0.03999489
1620.19819336,0.04763383
1622.12700073,0.04124885
1624.05580811,0.04149904
1625.98461548,0.04424314
1627.91342285,0.04392792
1629.84223022,0.04372393
1631.77103760,0.04758548
1633.69984497,0.04279841
1635.62865234,0.03388266
1637.55745972,0.04119790
1639.48626709,0.04608966
1641.41507446,0.04490533
1643.34388184,0.04629877
1645.27268921,0.04068154
1647.20149658,0.03484482
1649.13030396,0.04522160
1651.05911133,0.04224387
1652.98791870,0.02477890
1654.91672607,0.03650444
1656.84553345,0.04719098
1658.77434082,0.04476953
1660.70314819,0.04628234
1662.63195557,0.04110768
1664.56076294,0.04402456
1666.48957031,0.04788544
1668.41837769,0.04021739
1670.34718506,0.03911254
1672.27599243,0.04558983
1674.20479980,0.04117011
1676.13360718,0.03932764
1678.06241455,0.04636882
1679.99122192,0.04425766
1681.92002930,0.04337577
1683.84883667,0.03378700
1685.77764404,0.03388935
1687.70645142,0.04861905
1689.63525879,0.04088880
1691.56406616,0.04618767
1693.49287354,0.04693103
1695.42168091,0.03226058
1697.35048828,0.04157438
1699.27929565,0.03514937
1701.20810303,0.03118736
1703.13691040,0.04525174
1705.06571777,0.04050538
1706.99452515,0.04123129
1708.92333252,0.04551171
1710.85213989,0.04336624
1712.78094727,0.04408145
1714.70975464,0.04006723
1716.63856201,0.03550898
1718.56736938,0.03500044
1720.49617676,0.04297107
1722.42498413,0.04500922
1724.35379150,0.04118468
1726.28259888,0.04549690
1728.21140625,0.04138668
1730.14021362,0.04185049
1732.06902100,0.04050878
1733.99782837,0.02917848
1735.92663574,0.03857923
1737.85544312,0.04313975
1739.78425049,0.03730536
1741.71305786,0.04134675
1743.64186523,0.04191470
1745.57067261,0.04198866
1747.49947998,0.04229198
1749.42828735,0.03988792
1751.35709473,0.03807469
1753.28590210,0.04348904
1755.21470947,0.04537391
1757.14351685,0.04065296
1759.07232422,0.04587049
1761.00113159,0.04211596
1762.92993896,0.04061396
1764.85874634,0.04779793
1766.78755371,0.04199200
1768.71636108,0.04257315
1770.64516846,0.04190355
1772.57397583,0.03707596
1774.50278320,0.04248919
1776.43159058,0.04507066
1778.36039795,0.04449360
1780.28920532,0.04384940
1782.21801270,0.04434532
1784.14682007,0.04418845
1786.07562744,0.04315903
1788.00443481,0.04600061
1789.93324219,0.04432239
1791.86204956,0.03916432
1793.79085693,0.04140864
1795.71966431,0.04506180
1797.64847168,0.04425777
1799.57727905,0.04341967
1801.50608643,0.04259927
1803.43489380,0.04446204
1805.36370117,0.04565730
1807.29250854,0.04478544
1809.22131592,0.04491090
1811.15012329,0.04354890
1813.07893066,0.04522546
1815.00773804,0.04532633
1816.93654541,0.04474841
1818.86535278,0.04515103
1820.79416016,0.04482467
1822.72296753,0.04575345
1824.65177490,0.04203317
1826.58058228,0.04386181
1828.50938965,0.04397468
1830.43819702,0.04065011
1832.36700439,0.04520620
1834.29581177,0.04474165
1836.22461914,0.04467697
1838.15342651,0.04457919
1840.08223389,0.04479618
1842.01104126,0.04485130
1843.93984863,0.03881588
1845.86865601,0.04194471
1847.79746338,0.04475491
1849.72627075,0.04366511
1851.65507812,0.04523422
1853.58388550,0.04423249
1855.51269287,0.04473376
1857.44150024,0.04425572
1859.37030762,0.04397624
1861.29911499,0.04424948
1863.22792236,0.04368559
1865.15672974,0.04435948
1867.08553711,0.04238570
1869.01434448,0.04020441
1870.94315186,0.04216047
1872.87195923,0.04419405
1874.80076660,0.04342718
1876.72957397,0.04366313
1878.65838135,0.04344487
1880.58718872,0.04299200
1882.51599609,0.04344403
1884.44480347,0.04267512
1886.37361084,0.04345406
1888.30241821,0.04219590
1890.23122559,0.04111563
1892.16003296,0.04327138
1894.08884033,0.04251125
1896.01764771,0.04208228
1897.94645508,0.04283141
1899.87526245,0.04260721
1901.80406982,0.04265209
1903.73287720,0.04231139
1905.66168457,0.04249056
1907.59049194,0.04202399
1909.51929932,0.04161604
1911.44810669,0.04177900
1913.37691406,0.04194081
1915.30572144,0.04241492
1917.23452881,0.04005006
1919.16333618,0.04021483
1921.09214355,0.04199858
1923.02095093,0.04020564
1924.94975830,0.04140853
1926.87856567,0.04181942
1928.80737305,0.04112177
1930.73618042,0.04188247
1932.66498779,0.04104979
1934.59379517,0.04157255
1936.52260254,0.04113512
1938.45140991,0.04126205
1940.38021729,0.04128128
1942.30902466,0.03953521
1944.23783203,0.04059196
1946.16663940,0.04095239
1948.09544678,0.04074911
1950.02425415,0.04105940
1951.95306152,0.04087426
1953.88186890,0.04095897
1955.81067627,0.04065685
1957.73948364,0.04080592
1959.66829102,0.04065821
1961.59709839,0.04048036
1963.52590576,0.04056826
1965.45471313,0.04022320
1967.38352051,0.03989138
1969.31232788,0.04011845
1971.24113525,0.04038639
1973.16994263,0.04025646
1975.09875000,0.04029411
1977.02755737,0.03999721
1978.95636475,0.04003236
1980.88517212,0.03986481
1982.81397949,0.03977519
1984.74278687,0.03989519
1986.67159424,0.03924705
1988.60040161,0.03951617
1990.52920898,0.03911204
1992.45801636,0.03840735
1994.38682373,0.03911028
1996.31563110,0.03927945
1998.24443848,0.03903428
2000.17324585,0.03902481
2002.10205322,0.03891461
2004.03086060,0.03875157
2005.95966797,0.03876316
2007.88847534,0.03863936
2009.81728271,0.03846416
2011.74609009,0.03833418
2013.67489746,0.03828334
2015.60370483,0.03801233
2017.53251221,0.03762526
2019.46131958,0.03789914
2021.39012695,0.03768072
2023.31893433,0.03751238
2025.24774170,0.03767898
2027.17654907,0.03749242
2029.10535645,0.03749070
2031.03416382,0.03725832
2032.96297119,0.03719974
2034.89177856,0.03699111
2036.82058594,0.03676170
2038.74939331,0.03689080
2040.67820068,0.03666418
2042.60700806,0.03653856
2044.53581543,0.03646660
2046.46462280,0.03636667
2048.39343018,0.03629563
2050.32223755,0.03623202
2052.25104492,0.03611023
2054.17985229,0.03587802
2056.10865967,0.03590078
2058.03746704,0.03582580
2059.96627441,0.03565837
2061.89508179,0.03563070
2063.82388916,0.03532252
2065.75269653,0.03517549
2067.68150391,0.03545647
2069.61031128,0.03535327
2071.53911865,0.03518962
2073.46792603,0.03510925
2075.39673340,0.03489067
2077.32554077,0.03484703
2079.25434814,0.03474993
2081.18315552,0.03475355
2083.11196289,0.03467218
2085.04077026,0.03451099
2086.96957764,0.03448384
2088.89838501,0.03439552
2090.82719238,0.03438597
2092.75599976,0.03433560
2094.68480713,0.03425589
2096.61361450,0.03411544
2098.54242187,0.03402586
2100.47122925,0.03400596
2102.40003662,0.03384081
2104.32884399,0.03369212
2106.25765137,0.03375899
2108.18645874,0.03371270
2110.11526611,0.03353839
2112.04407349,0.03357321
2113.97288086,0.03330941
2115.90168823,0.03327196
2117.83049561,0.03340593
2119.75930298,0.03326584
2121.68811035,0.03322100
2123.61691772,0.03303415
2125.54572510,0.03315100
2127.47453247,0.03301620
2129.40333984,0.03283142
2131.33214722,0.03298241
2133.26095459,0.03279070
2135.18976196,0.03284797
2137.11856934,0.03277424
2139.04737671,0.03262772
2140.97618408,0.03266612
2142.90499146,0.03258332
2144.83379883,0.03259224
2146.76260620,0.03249003
2148.69141357,0.03239129
2150.62022095,0.03238148
2152.54902832,0.03233882
2154.47783569,0.03233050
2156.40664307,0.03235485
2158.33545044,0.03222939
2160.26425781,0.03225081
2162.19306519,0.03222476
2164.12187256,0.03196715
2166.05067993,0.03196823
2167.97948730,0.03184231
2169.90829468,0.03183173
2171.83710205,0.03195331
2173.76590942,0.03191420
2175.69471680,0.03186721
2177.62352417,0.03167350
2179.55233154,0.03166357
2181.48113892,0.03171573
2183.40994629,0.03160104
2185.33875366,0.03152071
2187.26756104,0.03153425
2189.19636841,0.03148664
2191.12517578,0.03150208
2193.05398315,0.03148211
2194.98279053,0.03130381
2196.91159790,0.03128369
2198.84040527,0.03128474
2200.76921265,0.03136519
2202.69802002,0.03124409
2204.62682739,0.03112971
2206.55563477,0.03121318
2208.48444214,0.03111246
2210.41324951,0.03109370
2212.34205688,0.03102720
2214.27086426,0.03104908
2216.19967163,0.03106283
2218.12847900,0.03100635
2220.05728638,0.03092264
2221.98609375,0.03084394
2223.91490112,0.03084480
2225.84370850,0.03066435
2227.77251587,0.03073704
2229.70132324,0.03067149
2231.63013062,0.03058288
2233.55893799,0.03064690
2235.48774536,0.03054108
2237.41655273,0.03055025
2239.34536011,0.03048010
2241.27416748,0.03047945
2243.20297485,0.03031973
2245.13178223,0.03025953
2247.06058960,0.03020239
2248.98939697,0.03013196
2250.91820435,0.03032496
2252.84701172,0.03012512
2254.77581909,0.03016671
2256.70462646,0.03008461
2258.63343384,0.02990212
2260.56224121,0.02999132
2262.49104858,0.02987215
2264.41985596,0.02993510
2266.34866333,0.02983265
2268.27747070,0.02976787
2270.20627808,0.02975510
2272.13508545,0.02970488
2274.06389282,0.02975363
2275.99270020,0.02969635
2277.92150757,0.02970104
2279.85031494,0.02954501
2281.77912231,0.02954787
2283.70792969,0.02951244
2285.63673706,0.02937179
2287.56554443,0.02947296
2289.49435181,0.02936705
2291.42315918,0.02924936
2293.35196655,0.02919693
2295.28077393,0.02907164
2297.20958130,0.02897689
2299.13838867,0.02885868
2301.06719604,0.02887522
2302.99600342,0.02882655
2304.92481079,0.02850341
2306.85361816,0.02842937
2308.78242554,0.02827449
2310.71123291,0.02792134
2312.64004028,0.02778830
2314.56884766,0.02748700
2316.49765503,0.02722592
2318.42646240,0.02695996
2320.35526978,0.02663619
2322.28407715,0.02628755
2324.21288452,0.02591737
2326.14169189,0.02573251
2328.07049927,0.02539137
2329.99930664,0.02518020
2331.92811401,0.02503098
2333.85692139,0.02491694
2335.78572876,0.02481975
2337.71453613,0.02470052
2339.64334351,0.02481576
2341.57215088,0.02489720
2343.50095825,0.02519749
2345.42976562,0.02563145
2347.35857300,0.02655735
2349.28738037,0.02715632
2351.21618774,0.02629386
2353.14499512,0.02523281
2355.07380249,0.02437646
2357.00260986,0.02364327
2358.93141724,0.02313537
2360.86022461,0.02306970
2362.78903198,0.02311624
2364.71783936,0.02300839
2366.64664673,0.02334595
2368.57545410,0.02384813
2370.50426147,0.02440292
2372.43306885,0.02495262
2374.36187622,0.02557682
2376.29068359,0.02612932
2378.21949097,0.02656565
2380.14829834,0.02706697
2382.07710571,0.02726779
2384.00591309,0.02744898
2385.93472046,0.02747365
2387.86352783,0.02749147
2389.79233521,0.02755755
2391.72114258,0.02743498
2393.64994995,0.02744334
2395.57875732,0.02739706
2397.50756470,0.02739236
2399.43637207,0.02736028
2401.36517944,0.02722901
2403.29398682,0.02720120
2405.22279419,0.02724450
2407.15160156,0.02716845
2409.08040894,0.02704022
2411.00921631,0.02705846
2412.93802368,0.02707202
2414.86683105,0.02700500
2416.79563843,0.02676818
2418.72444580,0.02685089
2420.65325317,0.02693279
2422.58206055,0.02671129
2424.51086792,0.02682619
2426.43967529,0.02672925
2428.36848267,0.02648353
2430.29729004,0.02657897
2432.22609741,0.02665886
2434.15490479,0.02653924
2436.08371216,0.02645028
2438.01251953,0.02644690
2439.94132690,0.02643270
2441.87013428,0.02641726
2443.79894165,0.02639986
2445.72774902,0.02643009
2447.65655640,0.02625137
2449.58536377,0.02627408
2451.51417114,0.02633010
2453.44297852,0.02604462
2455.37178589,0.02607743
2457.30059326,0.02620981
2459.22940063,0.02617406
2461.15820801,0.02599023
2463.08701538,0.02598316
2465.01582275,0.02607074
2466.94463013,0.02598797
2468.87343750,0.02594769
2470.80224487,0.02585509
2472.73105225,0.02596849
2474.65985962,0.02589403
2476.58866699,0.02572701
2478.51747437,0.02580916
2480.44628174,0.02568436
2482.37508911,0.02556008
2484.30389648,0.02558834
2486.23270386,0.02554940
2488.16151123,0.02535804
2490.09031860,0.02544818
2492.01912598,0.02543594
2493.94793335,0.02528262
2495.87674072,0.02545922
2497.80554810,0.02526942
2499.73435547,0.02513244
2501.66316284,0.02524700
2503.59197021,0.02511403
2505.52077759,0.02510301
2507.44958496,0.02523833
2509.37839233,0.02516656
2511.30719971,0.02501095
2513.23600708,0.02503987
2515.16481445,0.02501722
2517.09362183,0.02496175
2519.02242920,0.02495062
2520.95123657,0.02488599
2522.88004395,0.02483563
2524.80885132,0.02481380
2526.73765869,0.02484786
2528.66646606,0.02480738
2530.59527344,0.02460291
2532.52408081,0.02455062
2534.45288818,0.02461666
2536.38169556,0.02450409
2538.31050293,0.02452674
2540.23931030,0.02456171
2542.16811768,0.02456504
2544.09692505,0.02450277
2546.02573242,0.02431818
2547.95453979,0.02439061
2549.88334717,0.02423136
2551.81215454,0.02420247
2553.74096191,0.02429679
2555.66976929,0.02411355
2557.59857666,0.02419745
2559.52738403,0.02423866
2561.45619141,0.02414439
2563.38499878,0.02395853
2565.31380615,0.02399604
2567.24261353,0.02408370
2569.17142090,0.02390714
2571.10022827,0.02387987
2573.02903564,0.02378392
2574.95784302,0.02374063
2576.88665039,0.02368228
2578.81545776,0.02366972
2580.74426514,0.02370482
2582.67307251,0.02365828
2584.60187988,0.02363883
2586.53068726,0.02347232
2588.45949463,0.02348747
2590.38830200,0.02344165
2592.31710937,0.02334788
2594.24591675,0.02335972
2596.17472412,0.02335463
2598.10353149,0.02330276
2600.03233887,0.02314558
2601.96114624,0.02325246
2603.88995361,0.02314315
2605.81876099,0.02301000
2607.74756836,0.02310437
2609.67637573,0.02300406
2611.60518311,0.02297963
2613.53399048,0.02295689
2615.46279785,0.02292367
2617.39160522,0.02290132
2619.32041260,0.02281699
2621.24921997,0.02267185
2623.17802734,0.02271358
2625.10683472,0.02281147
2627.03564209,0.02264134
2628.96444946,0.02262660
2630.89325684,0.02265413
2632.82206421,0.02252823
2634.75087158,0.02240624
2636.67967895,0.02232008
2638.60848633,0.02228510
2640.53729370,0.02237071
2642.46610107,0.02233159
2644.39490845,0.02217608
2646.32371582,0.02229647
2648.25252319,0.02226207
2650.18133057,0.02210288
2652.11013794,0.02208723
2654.03894531,0.02205062
2655.96775269,0.02195814
2657.89656006,0.02192475
2659.82536743,0.02193975
2661.75417480,0.02183353
2663.68298218,0.02185849
2665.61178955,0.02179209
2667.54059692,0.02169806
2669.46940430,0.02167141
2671.39821167,0.02160887
2673.32701904,0.02162807
2675.25582642,0.02147973
2677.18463379,0.02149818
2679.11344116,0.02145022
2681.04224854,0.02132077
2682.97105591,0.02132930
2684.89986328,0.02123254
2686.82867065,0.02124987
2688.75747803,0.02115759
2690.68628540,0.02106787
2692.61509277,0.02104940
2694.54390015,0.02104517
2696.47270752,0.02095655
2698.40151489,0.02076499
2700.33032227,0.02084371
2702.25912964,0.02088247
2704.18793701,0.02081037
2706.11674438,0.02073958
2708.04555176,0.02068359
2709.97435913,0.02062342
2711.90316650,0.02065934
2713.83197388,0.02068329
2715.76078125,0.02052651
2717.68958862,0.02049687
2719.61839600,0.02033417
2721.54720337,0.02026812
2723.47601074,0.02036169
2725.40481812,0.02032261
2727.33362549,0.02024915
2729.26243286,0.02009159
2731.19124023,0.02013666
2733.12004761,0.02013254
2735.04885498,0.02000215
2736.97766235,0.01996377
2738.90646973,0.01983157
2740.83527710,0.01971567
2742.76408447,0.01975287
2744.69289185,0.01969001
2746.62169922,0.01961112
2748.55050659,0.01972785
2750.47931396,0.01961083
2752.40812134,0.01960349
2754.33692871,0.01956287
2756.26573608,0.01930939
2758.19454346,0.01945166
2760.12335083,0.01935448
2762.05215820,0.01915912
2763.98096558,0.01923964
2765.90977295,0.01921561
2767.83858032,0.01916993
2769.76738770,0.01903598
2771.69619507,0.01887662
2773.62500244,0.01886960
2775.55380981,0.01888866
2777.48261719,0.01882078
2779.41142456,0.01873697
2781.34023193,0.01869175
2783.26903931,0.01871359
2785.19784668,0.01856945
2787.12665405,0.01849854
2789.05546143,0.01861081
2790.98426880,0.01842297
2792.91307617,0.01831573
2794.84188354,0.01828845
2796.77069092,0.01822071
2798.69949829,0.01822200
2800.62830566,0.01808592
2802.55711304,0.01797078
2804.48592041,0.01799524
2806.41472778,0.01807604
2808.34353516,0.01793053
2810.27234253,0.01779261
2812.20114990,0.01774972
2814.12995728,0.01761571
2816.05876465,0.01757214
2817.98757202,0.01751162
2819.91637939,0.01750498
2821.84518677,0.01749538
2823.77399414,0.01732165
2825.70280151,0.01724438
2827.63160889,0.01730877
2829.56041626,0.01718097
2831.48922363,0.01712337
2833.41803101,0.01710750
2835.34683838,0.01691766
2837.27564575,0.01692578
2839.20445312,0.01673910
2841.13326050,0.01666585
2843.06206787,0.01673387
2844.99087524,0.01653765
2846.91968262,0.01644922
2848.84848999,0.01626163
2850.77729736,0.01624370
2852.70610474,0.01627275
2854.63491211,0.01619067
2856.56371948,0.01615376
2858.49252686,0.01609339
2860.42133423,0.01615926
2862.35014160,0.01607076
2864.27894897,0.01595704
2866.20775635,0.01587401
2868.13656372,0.01588854
2870.06537109,0.01583724
2871.99417847,0.01570893
2873.92298584,0.01578270
2875.85179321,0.01564692
2877.78060059,0.01557245
2879.70940796,0.01552918
2881.63821533,0.01546107
2883.56702270,0.01545708
2885.49583008,0.01534435
2887.42463745,0.01527708
2889.35344482,0.01519453
2891.28225220,0.01514320
2893.21105957,0.01502119
2895.13986694,0.01504546
2897.06867432,0.01497418
2898.99748169,0.01476772
2900.92628906,0.01484653
2902.85509644,0.01477666
2904.78390381,0.01468148
2906.71271118,0.01455798
2908.64151855,0.01447483
2910.57032593,0.01452287
2912.49913330,0.01445822
2914.42794067,0.01432106
2916.35674805,0.01418314
2918.28555542,0.01420137
2920.21436279,0.01409731
2922.14317017,0.01406497
2924.07197754,0.01409241
2926.00078491,0.01403342
2927.92959229,0.01409662
2929.85839966,0.01403002
2931.78720703,0.01395285
2933.71601440,0.01389311
2935.64482178,0.01393364
2937.57362915,0.01394645
2939.50243652,0.01389681
2941.43124390,0.01392645
2943.36005127,0.01374806
2945.28885864,0.01365266
2947.21766602,0.01359360
2949.14647339,0.01352249
2951.07528076,0.01355428
2953.00408813,0.01343118
2954.93289551,0.01327316
2956.86170288,0.01320414
2958.79051025,0.01318238
2960.71931763,0.01312128
2962.64812500,0.01301395
2964.57693237,0.01293084
2966.50573975,0.01291406
2968.43454712,0.01283783
2970.36335449,0.01283049
2972.29216187,0.01285080
2974.22096924,0.01268385
2976.14977661,0.01272752
2978.07858398,0.01270461
2980.00739136,0.01258309
2981.93619873,0.01269997
2983.86500610,0.01263891
2985.79381348,0.01249557
2987.72262085,0.01241335
2989.65142822,0.01238158
2991.58023560,0.01242418
2993.50904297,0.01233129
2995.43785034,0.01217268
2997.36665771,0.01210206
2999.29546509,0.01216127
3001.22427246,0.01217003
3003.15307983,0.01203545
3005.08188721,0.01196603
3007.01069458,0.01192487
3008.93950195,0.01190019
3010.86830933,0.01182556
3012.79711670,0.01170014
3014.72592407,0.01173949
3016.65473145,0.01163255
3018.58353882,0.01152901
3020.51234619,0.01156715
3022.44115356,0.01142456
3024.36996094,0.01139437
3026.29876831,0.01133291
3028.22757568,0.01119189
3030.15638306,0.01120197
3032.08519043,0.01120324
3034.01399780,0.01116641
3035.94280518,0.01107362
3037.87161255,0.01106369
3039.80041992,0.01107246
3041.72922729,0.01096576
3043.65803467,0.01086255
3045.58684204,0.01084940
3047.51564941,0.01079966
3049.44445679,0.01069093
3051.37326416,0.01065366
3053.30207153,0.01058544
3055.23087891,0.01063553
3057.15968628,0.01061332
3059.08849365,0.01049265
3061.01730103,0.01056587
3062.94610840,0.01053102
3064.87491577,0.01043774
3066.80372314,0.01034214
3068.73253052,0.01024994
3070.66133789,0.01025942
3072.59014526,0.01026362
3074.51895264,0.01024981
3076.44776001,0.01017648
3078.37656738,0.01010388
3080.30537476,0.01005883
3082.23418213,0.01000440
3084.16298950,0.00995911
3086.09179687,0.01002624
3088.02060425,0.01001911
3089.94941162,0.00986961
3091.87821899,0.00991730
3093.80702637,0.00991167
3095.73583374,0.00977711
3097.66464111,0.00975851
3099.59344849,0.00970134
3101.52225586,0.00963843
3103.45106323,0.00965296
3105.37987061,0.00959240
3107.30867798,0.00952509
3109.23748535,0.00952167
3111.16629272,0.00947678
3113.09510010,0.00950466
3115.02390747,0.00952490
3116.95271484,0.00943407
3118.88152222,0.00938897
3120.81032959,0.00938350
3122.73913696,0.00936892
3124.66794434,0.00929902
3126.59675171,0.00921795
3128.52555908,0.00925523
3130.45436645,0.00925325
3132.38317383,0.00919767
3134.31198120,0.00922351
3136.24078857,0.00909031
3138.16959595,0.00907121
3140.09840332,0.00909745
3142.02721069,0.00893094
3143.95601807,0.00904742
3145.88482544,0.00899213
3147.81363281,0.00889318
3149.74244019,0.00897161
3151.67124756,0.00885008
3153.60005493,0.00889586
3155.52886230,0.00889540
3157.45766968,0.00883319
3159.38647705,0.00884219
3161.31528442,0.00879975
3163.24409180,0.00872909
3165.17289917,0.00871248
3167.10170654,0.00872373
3169.03051392,0.00858875
3170.95932129,0.00868648
3172.88812866,0.00869916
3174.81693604,0.00858787
3176.74574341,0.00861363
3178.67455078,0.00856537
3180.60335815,0.00860542
3182.53216553,0.00852743
3184.46097290,0.00850189
3186.38978027,0.00856707
3188.31858765,0.00858418
3190.24739502,0.00849776
3192.17620239,0.00843367
3194.10500977,0.00852961
3196.03381714,0.00844249
3197.96262451,0.00853804
3199.89143188,0.00846968
3201.82023926,0.00829429
3203.74904663,0.00841579
3205.67785400,0.00841934
3207.60666138,0.00842718
3209.53546875,0.00838219
3211.46427612,0.00842206
3213.39308350,0.00830547
3215.32189087,0.00827305
3217.25069824,0.00839917
3219.17950562,0.00826221
3221.10831299,0.00836609
3223.03712036,0.00834624
3224.96592773,0.00837145
3226.89473511,0.00842489
3228.82354248,0.00828871
3230.75234985,0.00832911
3232.68115723,0.00826765
3234.60996460,0.00831090
3236.53877197,0.00830023
3238.46757935,0.00826706
3240.39638672,0.00828374
3242.32519409,0.00824929
3244.25400146,0.00826057
3246.18280884,0.00817570
3248.11161621,0.00826496
3250.04042358,0.00826535
3251.96923096,0.00836482
3253.89803833,0.00852020
3255.82684570,0.00837311
3257.75565308,0.00841684
3259.68446045,0.00835598
3261.61326782,0.00827711
3263.54207520,0.00837966
3265.47088257,0.00832884
3267.39968994,0.00830552
3269.32849731,0.00828675
3271.25730469,0.00827346
3273.18611206,0.00836581
3275.11491943,0.00826551
3277.04372681,0.00820493
3278.97253418,0.00838984
3280.90134155,0.00835908
3282.83014893,0.00833090
3284.75895630,0.00836854
3286.68776367,0.00824950
3288.61657104,0.00820451
3290.54537842,0.00828576
3292.47418579,0.00836688
3294.40299316,0.00825950
3296.33180054,0.00824757
3298.26060791,0.00832285
3300.18941528,0.00832865
3302.11822266,0.00839542
3304.04703003,0.00829328
3305.97583740,0.00829729
3307.90464478,0.00837459
3309.83345215,0.00823773
3311.76225952,0.00827745
3313.69106689,0.00838559
3315.61987427,0.00830209
3317.54868164,0.00825527
3319.47748901,0.00832127
3321.40629639,0.00839090
3323.33510376,0.00833284
3325.26391113,0.00827545
3327.19271851,0.00840563
3329.12152588,0.00839778
3331.05033325,0.00825365
3332.97914062,0.00829640
3334.90794800,0.00838634
3336.83675537,0.00828641
3338.76556274,0.00821690
3340.69437012,0.00833971
3342.62317749,0.00832843
3344.55198486,0.00823096
3346.48079224,0.00826376
3348.40959961,0.00842156
3350.33840698,0.00838343
3352.26721436,0.00828577
3354.19602173,0.00841434
3356.12482910,0.00831050
3358.05363647,0.00836055
3359.98244385,0.00842162
3361.91125122,0.00823864
3363.84005859,0.00839943
3365.76886597,0.00846560
3367.69767334,0.00841778
3369.62648071,0.00839578
3371.55528809,0.00833395
3373.48409546,0.00839271
3375.41290283,0.00838530
3377.34171020,0.00842668
3379.27051758,0.00847835
3381.19932495,0.00841288
3383.12813232,0.00842516
3385.05693970,0.00843163
3386.98574707,0.00835930
3388.91455444,0.00841638
3390.84336182,0.00846448
3392.77216919,0.00847736
3394.70097656,0.00844489
3396.62978394,0.00840171
3398.55859131,0.00856508
3400.48739868,0.00851358
3402.41620605,0.00840903
3404.34501343,0.00848386
3406.27382080,0.00853918
3408.20262817,0.00850641
3410.13143555,0.00843841
3412.06024292,0.00851339
3413.98905029,0.00843651
3415.91785767,0.00851752
3417.84666504,0.00861806
3419.77547241,0.00848971
3421.70427979,0.00847698
3423.63308716,0.00843915
3425.56189453,0.00852493
3427.49070190,0.00851562
3429.41950928,0.00853744
3431.34831665,0.00856436
3433.27712402,0.00849389
3435.20593140,0.00856204
3437.13473877,0.00848073
3439.06354614,0.00854116
3440.99235352,0.00847491
3442.92116089,0.00842096
3444.84996826,0.00856361
3446.77877563,0.00838707
3448.70758301,0.00839691
3450.63639038,0.00856068
3452.56519775,0.00857282
3454.49400513,0.00856506
3456.42281250,0.00858039
3458.35161987,0.00853986
3460.28042725,0.00851846
3462.20923462,0.00856237
3464.13804199,0.00848343
3466.06684937,0.00844781
3467.99565674,0.00851682
3469.92446411,0.00861446
3471.85327148,0.00861059
3473.78207886,0.00854400
3475.71088623,0.00850040
3477.63969360,0.00853325
3479.56850098,0.00855346
3481.49730835,0.00844003
3483.42611572,0.00851013
3485.35492310,0.00857627
3487.28373047,0.00853838
3489.21253784,0.00849890
3491.14134521,0.00856051
3493.07015259,0.00867006
3494.99895996,0.00857147
3496.92776733,0.00855352
3498.85657471,0.00866709
3500.78538208,0.00868452
3502.71418945,0.00841205
3504.64299683,0.00842268
3506.57180420,0.00864177
3508.50061157,0.00850066
3510.42941895,0.00851209
3512.35822632,0.00862178
3514.28703369,0.00877231
3516.21584106,0.00874080
3518.14464844,0.00865317
3520.07345581,0.00873546
3522.00226318,0.00856369
3523.93107056,0.00844993
3525.85987793,0.00846835
3527.78868530,0.00852936
3529.71749268,0.00857120
3531.64630005,0.00868833
3533.57510742,0.00871837
3535.50391479,0.00857602
3537.43272217,0.00862810
3539.36152954,0.00867584
3541.29033691,0.00875997
3543.21914429,0.00869953
3545.14795166,0.00837421
3547.07675903,0.00826672
3549.00556641,0.00867451
3550.93437378,0.00866369
3552.86318115,0.00837272
3554.79198853,0.00873874
3556.72079590,0.00871278
3558.64960327,0.00866284
3560.57841064,0.00864821
3562.50721802,0.00854717
3564.43602539,0.00866774
3566.36483276,0.00795387
3568.29364014,0.00774113
3570.22244751,0.00852469
3572.15125488,0.00881512
3574.08006226,0.00869508
3576.00886963,0.00867848
3577.93767700,0.00860260
3579.86648437,0.00857928
3581.79529175,0.00868460
3583.72409912,0.00871016
3585.65290649,0.00848856
3587.58171387,0.00770530
3589.51052124,0.00798479
3591.43932861,0.00883683
3593.36813599,0.00848852
3595.29694336,0.00827751
3597.22575073,0.00851700
3599.15455811,0.00856422
3601.08336548,0.00848587
3603.01217285,0.00871542
3604.94098022,0.00884814
3606.86978760,0.00852577
3608.79859497,0.00792450
3610.72740234,0.00804132
3612.65620972,0.00837163
3614.58501709,0.00808121
3616.51382446,0.00876434
3618.44263184,0.00800257
3620.37143921,0.00769395
3622.30024658,0.00885764
3624.22905395,0.00866116
3626.15786133,0.00917397
3628.08666870,0.00738118
3630.01547607,0.00672157
3631.94428345,0.00882409
3633.87309082,0.00851514
3635.80189819,0.00874413
3637.73070557,0.00893219
3639.65951294,0.00895365
3641.58832031,0.00894464
3643.51712769,0.00889432
3645.44593506,0.00902482
3647.37474243,0.00789524
3649.30354980,0.00732692
3651.23235718,0.00726611
3653.16116455,0.00902052
3655.08997192,0.00891307
3657.01877930,0.00770622
3658.94758667,0.00927955
3660.87639404,0.00905671
3662.80520142,0.00935104
3664.73400879,0.00933212
3666.66281616,0.00915364
3668.59162354,0.00885935
3670.52043091,0.00699355
3672.44923828,0.00891251
3674.37804565,0.00838845
3676.30685303,0.00671037
3678.23566040,0.00883991
3680.16446777,0.00912282
3682.09327515,0.00922268
3684.02208252,0.00957556
3685.95088989,0.00940379
3687.87969727,0.00823770
3689.80850464,0.00746511
3691.73731201,0.00877385
3693.66611938,0.00912845
3695.59492676,0.00945998
3697.52373413,0.00951010
3699.45254150,0.00948224
3701.38134888,0.00910780
3703.31015625,0.00866474
3705.23896362,0.00971265
3707.16777100,0.00913182
3709.09657837,0.00895618
3711.02538574,0.00839192
3712.95419312,0.00776028
3714.88300049,0.00940156
3716.81180786,0.00926244
3718.74061523,0.00935772
3720.66942261,0.00910326
3722.59822998,0.00865109
3724.52703735,0.00904566
3726.45584473,0.00829141
3728.38465210,0.00913353
3730.31345947,0.00907967
3732.24226685,0.00820005
3734.17107422,0.00792841
3736.09988159,0.00741158
3738.02868896,0.00800458
3739.95749634,0.00879169
3741.88630371,0.00917234
3743.81511108,0.00686523
3745.74391846,0.00638327
3747.67272583,0.00872478
3749.60153320,0.00738520
3751.53034058,0.00666645
3753.45914795,0.00783882
3755.38795532,0.00848982
3757.31676270,0.00893411
3759.24557007,0.00819035
3761.17437744,0.00848426
3763.10318481,0.00912053
3765.03199219,0.00836750
3766.96079956,0.00856019
3768.88960693,0.00844062
3770.81841431,0.00795990
3772.74722168,0.00882440
3774.67602905,0.00879821
3776.60483643,0.00877470
3778.53364380,0.00863534
3780.46245117,0.00817993
3782.39125854,0.00874185
3784.32006592,0.00854819
3786.24887329,0.00844059
3788.17768066,0.00863740
3790.10648804,0.00861470
3792.03529541,0.00857201
3793.96410278,0.00870577
3795.89291016,0.00806184
3797.82171753,0.00790835
3799.75052490,0.00842768
3801.67933228,0.00643113
3803.60813965,0.00775243
3805.53694702,0.00850842
3807.46575439,0.00666668
3809.39456177,0.00844962
3811.32336914,0.00826759
3813.25217651,0.00856232
3815.18098389,0.00759323
3817.10979126,0.00648085
3819.03859863,0.00858730
3820.96740601,0.00659221
3822.89621338,0.00703923
3824.82502075,0.00849319
3826.75382812,0.00747654
3828.68263550,0.00824400
3830.61144287,0.00775089
3832.54025024,0.00745200
3834.46905762,0.00771995
3836.39786499,0.00717711
3838.32667236,0.00641253
3840.25547974,0.00691329
3842.18428711,0.00762666
3844.11309448,0.00739940
3846.04190186,0.00793904
3847.97070923,0.00781681
3849.89951660,0.00785044
3851.82832397,0.00694088
3853.75713135,0.00492153
3855.68593872,0.00593174
3857.61474609,0.00785768
3859.54355347,0.00761710
3861.47236084,0.00743655
3863.40116821,0.00732991
3865.32997559,0.00669783
3867.25878296,0.00759408
3869.18759033,0.00680888
3871.11639770,0.00630305
3873.04520508,0.00771967
3874.97401245,0.00684425
3876.90281982,0.00755059
3878.83162720,0.00779357
3880.76043457,0.00643155
3882.68924194,0.00754836
3884.61804932,0.00708271
3886.54685669,0.00637730
3888.47566406,0.00760840
3890.40447144,0.00714527
3892.33327881,0.00658609
3894.26208618,0.00735096
3896.19089355,0.00747344
3898.11970093,0.00717748
3900.04850830,0.00665091
3901.97731567,0.00646112
3903.90612305,0.00652311
3905.83493042,0.00651148
3907.76373779,0.00723721
3909.69254517,0.00729328
3911.62135254,0.00725480
3913.55015991,0.00739574
3915.47896728,0.00705629
3917.40777466,0.00685391
3919.33658203,0.00669197
3921.26538940,0.00714098
3923.19419678,0.00707916
3925.12300415,0.00683080
3927.05181152,0.00704707
3928.98061890,0.00700034
3930.90942627,0.00686654
3932.83823364,0.00661666
3934.76704102,0.00699307
3936.69584839,0.00702612
3938.62465576,0.00685061
3940.55346313,0.00700921
3942.48227051,0.00667528
3944.41107788,0.00671867
3946.33988525,0.00689339
3948.26869263,0.00672444
3950.19750000,0.00661186
3952.12630737,0.00681009
3954.05511475,0.00686029
3955.98392212,0.00667178
3957.91272949,0.00676787
3959.84153687,0.00681233
3961.77034424,0.00672616
3963.69915161,0.00666590
3965.62795898,0.00674800
3967.55676636,0.00680670
3969.48557373,0.00677572
3971.41438110,0.00663600
3973.34318848,0.00662058
3975.27199585,0.00669057
3977.20080322,0.00652739
3979.12961060,0.00660844
3981.05841797,0.00663630
3982.98722534,0.00659621
3984.91603271,0.00655893
3986.84484009,0.00654580
3988.77364746,0.00660316
3990.70245483,0.00648820
3992.63126221,0.00655582
3994.56006958,0.00646450
3996.48887695,0.00645372
3998.41768433,0.00652803
4000.34649170,0.00650375
4002.27529907,0.00656785
4004.20410645,0.00641498
4006.13291382,0.00645151
4008.06172119,0.00644294
4009.99052856,0.00629205
4011.91933594,0.00628606
4013.84814331,0.00633680
4015.77695068,0.00634164
4017.70575806,0.00629058
4019.63456543,0.00623461
4021.56337280,0.00615822
4023.49218018,0.00632333
4025.42098755,0.00624258
4027.34979492,0.00610016
4029.27860229,0.00615041
4031.20740967,0.00611920
4033.13621704,0.00621898
4035.06502441,0.00618504
4036.99383179,0.00614625
4038.92263916,0.00610130
4040.85144653,0.00609728
4042.78025391,0.00613282
4044.70906128,0.00601733
4046.63786865,0.00597386
4048.56667603,0.00602280
4050.49548340,0.00611159
4052.42429077,0.00601572
4054.35309814,0.00597451
4056.28190552,0.00600254
4058.21071289,0.00599040
4060.13952026,0.00595964
4062.06832764,0.00585333
4063.99713501,0.00586643
4065.92594238,0.00587880
4067.85474976,0.00594307
4069.78355713,0.00590521
4071.71236450,0.00588318
4073.64117187,0.00592166
4075.56997925,0.00586340
4077.49878662,0.00580161
4079.42759399,0.00571760
4081.35640137,0.00579700
4083.28520874,0.00578223
4085.21401611,0.00586653
4087.14282349,0.00582571
4089.07163086,0.00565233
4091.00043823,0.00578754
4092.92924561,0.00571397
4094.85805298,0.00570755
4096.78686035,0.00571381
4098.71566772,0.00564202
4100.64447510,0.00561291
4102.57328247,0.00554674
4104.50208984,0.00556657
4106.43089722,0.00554868
4108.35970459,0.00561672
4110.28851196,0.00559638
4112.21731934,0.00559825
4114.14612671,0.00558304
4116.07493408,0.00555460
4118.00374145,0.00553361
4119.93254883,0.00542085
4121.86135620,0.00551721
4123.79016357,0.00544056
4125.71897095,0.00545048
4127.64777832,0.00541967
4129.57658569,0.00528611
4131.50539307,0.00547845
4133.43420044,0.00545231
4135.36300781,0.00539104
4137.29181519,0.00537394
4139.22062256,0.00534997
4141.14942993,0.00532479
4143.07823730,0.00527639
4145.00704468,0.00535853
4146.93585205,0.00534628
4148.86465942,0.00533481
4150.79346680,0.00530880
4152.72227417,0.00526939
4154.65108154,0.00525316
4156.57988892,0.00524806
4158.50869629,0.00522126
4160.43750366,0.00521000
4162.36631103,0.00529148
4164.29511841,0.00522264
4166.22392578,0.00521229
4168.15273315,0.00521222
4170.08154053,0.00510389
4172.01034790,0.00513828
4173.93915527,0.00516181
4175.86796265,0.00515679
4177.79677002,0.00517971
4179.72557739,0.00503523
4181.65438477,0.00498520
4183.58319214,0.00510395
4185.51199951,0.00502254
4187.44080688,0.00503939
4189.36961426,0.00504488
4191.29842163,0.00502728
4193.22722900,0.00508030
4195.15603638,0.00497661
4197.08484375,0.00504327
4199.01365112,0.00489746
4200.94245850,0.00482192
4202.87126587,0.00500225
4204.80007324,0.00488407
4206.72888062,0.00488002
4208.65768799,0.00491512
4210.58649536,0.00485755
4212.51530273,0.00478867
4214.44411011,0.00484967
4216.37291748,0.00492387
4218.30172485,0.00477964
4220.23053223,0.00481855
4222.15933960,0.00485526
4224.08814697,0.00471874
4226.01695435,0.00470362
4227.94576172,0.00480043
4229.87456909,0.00467877
4231.80337646,0.00456787
4233.73218384,0.00471112
4235.66099121,0.00473642
4237.58979858,0.00472049
4239.51860596,0.00467599
4241.44741333,0.00467961
4243.37622070,0.00473061
4245.30502808,0.00467524
4247.23383545,0.00462867
4249.16264282,0.00459819
4251.09145020,0.00465331
4253.02025757,0.00461295
4254.94906494,0.00458500
4256.87787231,0.00462597
4258.80667969,0.00456885
4260.73548706,0.00458633
4262.66429443,0.00454544
4264.59310181,0.00445784
4266.52190918,0.00443539
4268.45071655,0.00446520
4270.37952393,0.00451093
4272.30833130,0.00451124
4274.23713867,0.00453536
4276.16594604,0.00449126
4278.09475342,0.00442908
4280.02356079,0.00445243
4281.95236816,0.00445999
4283.88117554,0.00440231
4285.80998291,0.00433210
4287.73879028,0.00432643
4289.66759766,0.00430209
4291.59640503,0.00430908
4293.52521240,0.00441112
4295.45401978,0.00438897
4297.38282715,0.00434254
4299.31163452,0.00434512
4301.24044189,0.00426436
4303.16924927,0.00422980
4305.09805664,0.00421558
4307.02686401,0.00421742
4308.95567139,0.00429226
4310.88447876,0.00428774
4312.81328613,0.00418384
4314.74209351,0.00416520
4316.67090088,0.00420053
4318.59970825,0.00414291
4320.52851562,0.00411014
4322.45732300,0.00410502
4324.38613037,0.00414935
4326.31493774,0.00419227
4328.24374512,0.00416595
4330.17255249,0.00416675
4332.10135986,0.00413228
4334.03016724,0.00414744
4335.95897461,0.00413941
4337.88778198,0.00409590
4339.81658936,0.00408629
4341.74539673,0.00407545
4343.67420410,0.00407503
4345.60301147,0.00397050
4347.53181885,0.00397958
4349.46062622,0.00403583
4351.38943359,0.00400328
4353.31824097,0.00404101
4355.24704834,0.00398896
4357.17585571,0.00390724
4359.10466309,0.00399243
4361.03347046,0.00402756
4362.96227783,0.00389377
4364.89108520,0.00393214
4366.81989258,0.00402847
4368.74869995,0.00394420
4370.67750732,0.00386315
4372.60631470,0.00389109
4374.53512207,0.00391234
4376.46392944,0.00381861
4378.39273682,0.00383459
4380.32154419,0.00385066
4382.25035156,0.00381347
4384.17915894,0.00376666
4386.10796631,0.00377653
4388.03677368,0.00389160
4389.96558105,0.00375910
4391.89438843,0.00377330
4393.82319580,0.00385837
4395.75200317,0.00378400
4397.68081055,0.00379749
4399.60961792,0.00371015
4401.53842529,0.00371466
4403.46723267,0.00367208
4405.39604004,0.00362977
4407.32484741,0.00371631
4409.25365478,0.00368367
4411.18246216,0.00368237
4413.11126953,0.00364396
4415.04007690,0.00360516
4416.96888428,0.00366188
4418.89769165,0.00367761
4420.82649902,0.00361440
4422.75530640,0.00362306
4424.68411377,0.00360957
4426.61292114,0.00357452
4428.54172852,0.00362632
4430.47053589,0.00355049
4432.39934326,0.00356749
4434.32815063,0.00356397
4436.25695801,0.00354620
4438.18576538,0.00362455
4440.11457275,0.00351306
4442.04338013,0.00351245
4443.97218750,0.00354125
4445.90099487,0.00349983
4447.82980225,0.00347822
4449.75860962,0.00346856
4451.68741699,0.00349930
4453.61622437,0.00344074
4455.54503174,0.00345588
4457.47383911,0.00345513
4459.40264648,0.00348446
4461.33145386,0.00353158
4463.26026123,0.00343315
4465.18906860,0.00342368
4467.11787598,0.00343320
4469.04668335,0.00341833
4470.97549072,0.00331802
4472.90429810,0.00325810
4474.83310547,0.00333316
4476.76191284,0.00327583
4478.69072021,0.00326943
4480.61952759,0.00331037
4482.54833496,0.00330573
4484.47714233,0.00331513
4486.40594971,0.00333605
4488.33475708,0.00337881
4490.26356445,0.00328248
4492.19237183,0.00326897
4494.12117920,0.00330929
4496.04998657,0.00323126
4497.97879395,0.00318933
4499.90760132,0.00311974
4501.83640869,0.00321908
4503.76521606,0.00325597
4505.69402344,0.00313128
4507.62283081,0.00322333
4509.55163818,0.00323293
4511.48044556,0.00317075
4513.40925293,0.00319530
4515.33806030,0.00322380
4517.26686768,0.00320483
4519.19567505,0.00316955
4521.12448242,0.00319196
4523.05328979,0.00313277
4524.98209717,0.00312023
4526.91090454,0.00310153
4528.83971191,0.00308654
4530.76851929,0.00309823
4532.69732666,0.00304505
4534.62613403,0.00312548
4536.55494141,0.00305318
4538.48374878,0.00300782
4540.41255615,0.00311843
4542.34136353,0.00303600
4544.27017090,0.00306744
4546.19897827,0.00304863
4548.12778564,0.00296466
4550.05659302,0.00308373
4551.98540039,0.00298351
4553.91420776,0.00290285
4555.84301514,0.00303005
4557.77182251,0.00294409
4559.70062988,0.00293725
4561.62943726,0.00299329
4563.55824463,0.00292623
4565.48705200,0.00295441
4567.41585937,0.00291330
4569.34466675,0.00291992
4571.27347412,0.00296361
4573.20228149,0.00289228
4575.13108887,0.00287765
4577.05989624,0.00285156
4578.98870361,0.00288385
4580.91751099,0.00294839
4582.84631836,0.00286822
4584.77512573,0.00283560
4586.70393311,0.00289879
4588.63274048,0.00284259
4590.56154785,0.00278598
4592.49035522,0.00280404
4594.41916260,0.00279641
4596.34796997,0.00277911
4598.27677734,0.00274030
4600.20558472,0.00280205
4602.13439209,0.00281690
4604.06319946,0.00275195
4605.99200684,0.00278266
4607.92081421,0.00276043
4609.84962158,0.00275542
4611.77842895,0.00277663
4613.70723633,0.00273367
4615.63604370,0.00270646
4617.56485107,0.00269176
4619.49365845,0.00269678
4621.42246582,0.00273552
4623.35127319,0.00271975
4625.28008057,0.00272067
4627.20888794,0.00269398
4629.13769531,0.00261950
4631.06650269,0.00268663
4632.99531006,0.00263628
4634.92411743,0.00260386
4636.85292480,0.00263255
4638.78173218,0.00259635
4640.71053955,0.00264211
4642.63934692,0.00256372
4644.56815430,0.00262394
4646.49696167,0.00262798
4648.42576904,0.00253844
4650.35457642,0.00260079
4652.28338379,0.00257030
4654.21219116,0.00258447
4656.14099853,0.00253626
4658.06980591,0.00258168
4659.99861328,0.00252296
4661.92742065,0.00240118
4663.85622803,0.00251012
4665.78503540,0.00244434
4667.71384277,0.00243367
4669.64265015,0.00247224
4671.57145752,0.00254789
4673.50026489,0.00256243
4675.42907227,0.00246006
4677.35787964,0.00244943
4679.28668701,0.00247735
4681.21549438,0.00253075
4683.14430176,0.00239074
4685.07310913,0.00244337
4687.00191650,0.00247021
4688.93072388,0.00243904
4690.85953125,0.00252784
4692.78833862,0.00237724
4694.71714600,0.00244926
4696.64595337,0.00236232
4698.57476074,0.00230508
4700.50356812,0.00246450
4702.43237549,0.00237718
4704.36118286,0.00238753
4706.28999023,0.00234815
4708.21879761,0.00234379
4710.14760498,0.00234525
4712.07641235,0.00241854
4714.00521973,0.00243671
4715.93402710,0.00221935
4717.86283447,0.00231515
4719.79164185,0.00236750
4721.72044922,0.00225092
4723.64925659,0.00225744
4725.57806396,0.00231005
4727.50687134,0.00228023
4729.43567871,0.00218473
4731.36448608,0.00223532
4733.29329346,0.00234324
4735.22210083,0.00233565
4737.15090820,0.00223510
4739.07971558,0.00224356
4741.00852295,0.00227013
4742.93733032,0.00226244
4744.86613770,0.00220075
4746.79494507,0.00214578
4748.72375244,0.00220763
4750.65255981,0.00221469
4752.58136719,0.00227764
4754.51017456,0.00222194
4756.43898193,0.00218779
4758.36778931,0.00223148
4760.29659668,0.00212430
4762.22540405,0.00215394
4764.15421143,0.00215963
4766.08301880,0.00217243
4768.01182617,0.00222843
4769.94063354,0.00221231
4771.86944092,0.00216038
4773.79824829,0.00212163
4775.72705566,0.00219331
4777.65586304,0.00214018
4779.58467041,0.00210495
4781.51347778,0.00211352
4783.44228516,0.00207541
4785.37109253,0.00211925
4787.29989990,0.00208983
4789.22870728,0.00207021
4791.15751465,0.00212132
4793.08632202,0.00208906
4795.01512939,0.00207146
4796.94393677,0.00212674
4798.87274414,0.00206523
4800.80155151,0.00202899
4802.73035889,0.00202881
4804.65916626,0.00198285
4806.58797363,0.00202502
4808.51678101,0.00201719
4810.44558838,0.00207032
4812.37439575,0.00209793
4814.30320312,0.00200673
4816.23201050,0.00202403
4818.16081787,0.00207070
4820.08962524,0.00206032
4822.01843262,0.00199833
4823.94723999,0.00199093
4825.87604736,0.00197866
4827.80485474,0.00191768
4829.73366211,0.00191185
4831.66246948,0.00196153
4833.59127686,0.00198280
4835.52008423,0.00196964
4837.44889160,0.00195710
4839.37769897,0.00188128
4841.30650635,0.00195838
4843.23531372,0.00198716
4845.16412109,0.00189419
4847.09292847,0.00192297
4849.02173584,0.00189715
4850.95054321,0.00198030
4852.87935059,0.00195344
4854.80815796,0.00185525
4856.73696533,0.00195427
4858.66577270,0.00188489
4860.59458008,0.00186527
4862.52338745,0.00191931
4864.45219482,0.00188224
4866.38100220,0.00190524
4868.30980957,0.00187038
4870.23861694,0.00181736
4872.16742432,0.00183453
4874.09623169,0.00182756
4876.02503906,0.00182486
4877.95384644,0.00186451
4879.88265381,0.00181525
4881.81146118,0.00178564
4883.74026855,0.00183239
4885.66907593,0.00177946
4887.59788330,0.00176086
4889.52669067,0.00177555
4891.45549805,0.00172683
4893.38430542,0.00174564
4895.31311279,0.00179886
4897.24192017,0.00174828
4899.17072754,0.00169942
4901.09953491,0.00176339
4903.02834228,0.00171626
4904.95714966,0.00166550
4906.88595703,0.00174149
4908.81476440,0.00172170
4910.74357178,0.00173028
4912.67237915,0.00167848
4914.60118652,0.00163198
4916.52999390,0.00174074
4918.45880127,0.00170398
4920.38760864,0.00172304
4922.31641602,0.00175352
4924.24522339,0.00168785
4926.17403076,0.00171839
4928.10283813,0.00169987
4930.03164551,0.00169937
4931.96045288,0.00168610
4933.88926025,0.00166802
4935.81806763,0.00168612
4937.74687500,0.00163228
4939.67568237,0.00168023
4941.60448975,0.00172477
4943.53329712,0.00160799
4945.46210449,0.00155405
4947.39091187,0.00158464
4949.31971924,0.00160596
4951.24852661,0.00164168
4953.17733398,0.00156707
4955.10614136,0.00153683
4957.03494873,0.00156814
4958.96375610,0.00153797
4960.89256348,0.00165763
4962.82137085,0.00167466
4964.75017822,0.00158389
4966.67898560,0.00155065
4968.60779297,0.00155627
4970.53660034,0.00161530
4972.46540771,0.00158040
4974.39421509,0.00161869
4976.32302246,0.00158183
4978.25182983,0.00152636
4980.18063721,0.00156294
4982.10944458,0.00148242
4984.03825195,0.00153304
4985.96705933,0.00154730
4987.89586670,0.00147058
4989.82467407,0.00153504
4991.75348145,0.00156362
4993.68228882,0.00147103
4995.61109619,0.00150857
4997.53990356,0.00158541
4999.46871094,0.00150654
5001.39751831,0.00152647
5003.32632568,0.00147112
5005.25513306,0.00147343
5007.18394043,0.00151752
5009.11274780,0.00141407
5011.04155518,0.00153089
5012.97036255,0.00147207
5014.89916992,0.00136904
5016.82797729,0.00144061
5018.75678467,0.00136987
5020.68559204,0.00141561
5022.61439941,0.00144104
5024.54320679,0.00136432
5026.47201416,0.00141052
5028.40082153,0.00149551
5030.32962891,0.00144838
5032.25843628,0.00140455
5034.18724365,0.00141479
5036.11605103,0.00135216
5038.04485840,0.00141132
5039.97366577,0.00143657
5041.90247314,0.00136982
5043.83128052,0.00133635
5045.76008789,0.00126571
5047.68889526,0.00131578
5049.61770264,0.00139059
5051.54651001,0.00135878
5053.47531738,0.00132118
5055.40412476,0.00136271
5057.33293213,0.00134551
5059.26173950,0.00123321
5061.19054687,0.00131082
5063.11935425,0.00139237
5065.04816162,0.00135689
5066.97696899,0.00134963
5068.90577637,0.00127194
5070.83458374,0.00126335
5072.76339111,0.00131950
5074.69219849,0.00125072
5076.62100586,0.00123410
5078.54981323,0.00132263
5080.47862061,0.00131893
5082.40742798,0.00127618
5084.33623535,0.00129374
5086.26504272,0.00124824
5088.19385010,0.00125848
5090.12265747,0.00132618
5092.05146484,0.00122818
5093.98027222,0.00123301
5095.90907959,0.00131275
5097.83788696,0.00129364
5099.76669434,0.00131845
5101.69550171,0.00124122
5103.62430908,0.00120684
5105.55311645,0.00121723
5107.48192383,0.00115755
5109.41073120,0.00125449
5111.33953857,0.00123940
5113.26834595,0.00116639
5115.19715332,0.00124991
5117.12596069,0.00123546
5119.05476807,0.00119165
5120.98357544,0.00120841
5122.91238281,0.00121497
5124.84119019,0.00118690
5126.76999756,0.00117827
5128.69880493,0.00115732
5130.62761230,0.00115770
5132.55641968,0.00122465
5134.48522705,0.00118765
5136.41403442,0.00121865
5138.34284180,0.00121138
5140.27164917,0.00111032
5142.20045654,0.00109253
5144.12926392,0.00103748
5146.05807129,0.00118004
5147.98687866,0.00123087
5149.91568603,0.00110985
5151.84449341,0.00115926
5153.77330078,0.00116161
5155.70210815,0.00120778
5157.63091553,0.00120216
5159.55972290,0.00115494
5161.48853027,0.00117041
5163.41733765,0.00111673
5165.34614502,0.00114418
5167.27495239,0.00112667
5169.20375977,0.00105007
5171.13256714,0.00109300
5173.06137451,0.00114673
5174.99018188,0.00109793
5176.91898926,0.00107719
5178.84779663,0.00110556
5180.77660400,0.00111315
5182.70541138,0.00107900
5184.63421875,0.00103607
5186.56302612,0.00112026
5188.49183350,0.00106995
5190.42064087,0.00105486
5192.34944824,0.00109929
5194.27825562,0.00097266
5196.20706299,0.00106398
5198.13587036,0.00113236
5200.06467773,0.00107576
5201.99348511,0.00106040
5203.92229248,0.00108463
5205.85109985,0.00106182
5207.77990723,0.00096557
5209.70871460,0.00106358
5211.63752197,0.00105111
5213.56632935,0.00102416
5215.49513672,0.00104379
5217.42394409,0.00099204
5219.35275146,0.00102627
5221.28155884,0.00099479
5223.21036621,0.00106623
5225.13917358,0.00104832
5227.06798096,0.00094799
5228.99678833,0.00098695
5230.92559570,0.00097925
5232.85440308,0.00095569
5234.78321045,0.00099200
5236.71201782,0.00103036
5238.64082520,0.00092616
5240.56963257,0.00098827
5242.49843994,0.00100336
5244.42724731,0.00093431
5246.35605469,0.00110660
5248.28486206,0.00100592
5250.21366943,0.00093250
5252.14247681,0.00102206
5254.07128418,0.00098019
5256.00009155,0.00094716
5257.92889893,0.00091664
5259.85770630,0.00101764
5261.78651367,0.00100728
5263.71532104,0.00088043
5265.64412842,0.00093057
5267.57293579,0.00097747
5269.50174316,0.00094821
5271.43055054,0.00095689
5273.35935791,0.00094453
5275.28816528,0.00090618
5277.21697266,0.00096623
5279.14578003,0.00097263
5281.07458740,0.00093534
5283.00339478,0.00094110
5284.93220215,0.00087898
5286.86100952,0.00090166
5288.78981689,0.00098455
5290.71862427,0.00094685
5292.64743164,0.00094539
5294.57623901,0.00095841
5296.50504639,0.00090338
5298.43385376,0.00092460
5300.36266113,0.00093152
5302.29146851,0.00095167
5304.22027588,0.00096005
5306.14908325,0.00087426
5308.07789062,0.00089838
5310.00669800,0.00092261
5311.93550537,0.00091288
5313.86431274,0.00092511
5315.79312012,0.00088237
5317.72192749,0.00084796
5319.65073486,0.00086620
5321.57954224,0.00095708
5323.50834961,0.00094317
5325.43715698,0.00085530
5327.36596436,0.00087686
5329.29477173,0.00081354
5331.22357910,0.00080455
5333.15238647,0.00092773
5335.08119385,0.00089177
5337.01000122,0.00085730
5338.93880859,0.00080203
5340.86761597,0.00082700
5342.79642334,0.00092928
5344.72523071,0.00076807
5346.65403809,0.00081899
5348.58284546,0.00088972
5350.51165283,0.00079529
5352.44046020,0.00083252
5354.36926758,0.00075864
5356.29807495,0.00082955
5358.22688232,0.00091022
5360.15568970,0.00087583
5362.08449707,0.00083941
5364.01330444,0.00080430
5365.94211182,0.00086675
5367.87091919,0.00078336
5369.79972656,0.00080519
5371.72853394,0.00079716
5373.65734131,0.00072423
5375.58614868,0.00080918
5377.51495605,0.00077224
5379.44376343,0.00080674
5381.37257080,0.00080655
5383.30137817,0.00075245
5385.23018555,0.00077048
5387.15899292,0.00075339
5389.08780029,0.00079155
5391.01660767,0.00079422
5392.94541504,0.00073278
5394.87422241,0.00067560
5396.80302978,0.00069145
5398.73183716,0.00076459
5400.66064453,0.00082906
5402.58945190,0.00078078
5404.51825928,0.00075827
5406.44706665,0.00081155
5408.37587402,0.00075550
5410.30468140,0.00075648
5412.23348877,0.00073679
5414.16229614,0.00074554
5416.09110352,0.00076734
5418.01991089,0.00073890
5419.94871826,0.00081993
5421.87752563,0.00078358
5423.80633301,0.00074000
5425.73514038,0.00072069
5427.66394775,0.00069519
5429.59275513,0.00070988
5431.52156250,0.00065009
5433.45036987,0.00072013
5435.37917725,0.00077522
5437.30798462,0.00070794
5439.23679199,0.00073201
5441.16559936,0.00074030
5443.09440674,0.00069651
5445.02321411,0.00071723
5446.95202148,0.00074869
5448.88082886,0.00076846
5450.80963623,0.00069659
5452.73844360,0.00062554
5454.66725098,0.00072174
5456.59605835,0.00072290
5458.52486572,0.00072234
5460.45367310,0.00075200
5462.38248047,0.00070877
5464.31128784,0.00074004
5466.24009521,0.00073640
5468.16890259,0.00073807
5470.09770996,0.00072997
5472.02651733,0.00072203
5473.95532471,0.00069408
5475.88413208,0.00067443
5477.81293945,0.00073024
5479.74174683,0.00067458
5481.67055420,0.00069511
5483.59936157,0.00069380
5485.52816895,0.00065883
5487.45697632,0.00069100
5489.38578369,0.00065242
5491.31459106,0.00070130
5493.24339844,0.00064708
5495.17220581,0.00060709
5497.10101318,0.00065634
5499.02982056,0.00061280
5500.95862793,0.00063804
5502.88743530,0.00064831
5504.81624268,0.00067545
5506.74505005,0.00065544
5508.67385742,0.00060730
5510.60266479,0.00061631
5512.53147217,0.00060896
5514.46027954,0.00067885
5516.38908691,0.00064066
5518.31789429,0.00062667
5520.24670166,0.00071905
5522.17550903,0.00069995
5524.10431641,0.00066577
5526.03312378,0.00059424
5527.96193115,0.00060362
5529.89073853,0.00066395
5531.81954590,0.00064261
5533.74835327,0.00064849
5535.67716064,0.00064002
5537.60596802,0.00062971
5539.53477539,0.00061966
5541.46358276,0.00063619
5543.39239014,0.00065954
5545.32119751,0.00062377
5547.25000488,0.00056165
5549.17881226,0.00056000
5551.10761963,0.00061450
5553.03642700,0.00054176
5554.96523437,0.00057146
5556.89404175,0.00065096
5558.82284912,0.00059227
5560.75165649,0.00061693
5562.68046387,0.00060791
5564.60927124,0.00061444
5566.53807861,0.00059910
5568.46688599,0.00055098
5570.39569336,0.00060882
5572.32450073,0.00060944
5574.25330811,0.00058248
5576.18211548,0.00058477
5578.11092285,0.00063527
5580.03973022,0.00058391
5581.96853760,0.00054421
5583.89734497,0.00062770
5585.82615234,0.00063551
5587.75495972,0.00061269
5589.68376709,0.00051418
5591.61257446,0.00057077
5593.54138184,0.00066204
5595.47018921,0.00060935
5597.39899658,0.00062450
5599.32780395,0.00058466
5601.25661133,0.00061122
5603.18541870,0.00058246
5605.11422607,0.00050533
5607.04303345,0.00057040
5608.97184082,0.00056643
5610.90064819,0.00054834
5612.82945557,0.00054068
5614.75826294,0.00054194
5616.68707031,0.00055280
5618.61587769,0.00053512
5620.54468506,0.00052433
5622.47349243,0.00049950
5624.40229980,0.00054794
5626.33110718,0.00058908
5628.25991455,0.00050754
5630.18872192,0.00050561
5632.11752930,0.00051644
5634.04633667,0.00048856
5635.97514404,0.00053477
5637.90395142,0.00048784
5639.83275879,0.00050982
5641.76156616,0.00048684
5643.69037353,0.00043583
5645.61918091,0.00055155
5647.54798828,0.00049206
5649.47679565,0.00054000
5651.40560303,0.00053344
5653.33441040,0.00044324
5655.26321777,0.00055242
5657.19202515,0.00051587
5659.12083252,0.00052569
5661.04963989,0.00047092
5662.97844727,0.00047099
5664.90725464,0.00060260
5666.83606201,0.00054536
5668.76486938,0.00052080
5670.69367676,0.00047568
5672.62248413,0.00045657
5674.55129150,0.00050563
5676.48009888,0.00051000
5678.40890625,0.00044420
5680.33771362,0.00047696
5682.26652100,0.00053501
5684.19532837,0.00043526
5686.12413574,0.00045706
5688.05294311,0.00041176
5689.98175049,0.00042928
5691.91055786,0.00051593
5693.83936523,0.00043227
5695.76817261,0.00047526
5697.69697998,0.00053113
5699.62578735,0.00051157
5701.55459473,0.00046059
5703.48340210,0.00049576
5705.41220947,0.00046302
5707.34101685,0.00041500
5709.26982422,0.00054835
5711.19863159,0.00051267
5713.12743896,0.00045997
5715.05624634,0.00044994
5716.98505371,0.00044983
5718.91386108,0.00042210
5720.84266846,0.00040368
5722.77147583,0.00049140
5724.70028320,0.00045443
5726.62909058,0.00045744
5728.55789795,0.00044460
5730.48670532,0.00044476
5732.41551270,0.00042096
5734.34432007,0.00044322
5736.27312744,0.00055019
5738.20193481,0.00037561
5740.13074219,0.00043546
5742.05954956,0.00047422
5743.98835693,0.00037108
5745.91716431,0.00050425
5747.84597168,0.00045383
5749.77477905,0.00042249
5751.70358643,0.00039749
5753.63239380,0.00041629
5755.56120117,0.00046429
5757.49000854,0.00039647
5759.41881592,0.00043602
5761.34762329,0.00040060
5763.27643066,0.00046861
5765.20523804,0.00048518
5767.13404541,0.00041160
5769.06285278,0.00044116
5770.99166016,0.00035534
5772.92046753,0.00041512
5774.84927490,0.00044471
5776.77808228,0.00040262
5778.70688965,0.00040067
5780.63569702,0.00035205
5782.56450439,0.00043894
5784.49331177,0.00041332
5786.42211914,0.00038379
5788.35092651,0.00040857
5790.27973389,0.00035553
5792.20854126,0.00038834
5794.13734863,0.00038007
5796.06615601,0.00038480
5797.99496338,0.00036795
5799.92377075,0.00036282
5801.85257812,0.00042039
5803.78138550,0.00039521
5805.71019287,0.00043693
5807.63900024,0.00039978
5809.56780762,0.00035461
5811.49661499,0.00040472
5813.42542236,0.00034007
5815.35422974,0.00036065
5817.28303711,0.00039782
5819.21184448,0.00040981
5821.14065186,0.00042226
5823.06945923,0.00032936
5824.99826660,0.00035698
5826.92707397,0.00037619
5828.85588135,0.00038411
5830.78468872,0.00044612
5832.71349609,0.00035714
5834.64230347,0.00036285
5836.57111084,0.00039762
5838.49991821,0.00031413
5840.42872559,0.00029312
5842.35753296,0.00036576
5844.28634033,0.00044809
5846.21514770,0.00035852
5848.14395508,0.00030766
5850.07276245,0.00037139
5852.00156982,0.00040452
5853.93037720,0.00040807
5855.85918457,0.00036390
5857.78799194,0.00041544
5859.71679932,0.00036413
5861.64560669,0.00034763
5863.57441406,0.00042764
5865.50322144,0.00030543
5867.43202881,0.00033952
5869.36083618,0.00036977
5871.28964355,0.00031097
5873.21845093,0.00033742
5875.14725830,0.00028680
5877.07606567,0.00031888
5879.00487305,0.00034740
5880.93368042,0.00037266
5882.86248779,0.00038111
5884.79129517,0.00034166
5886.72010254,0.00034962
5888.64890991,0.00027887
5890.57771728,0.00031369
5892.50652466,0.00033920
5894.43533203,0.00028997
5896.36413940,0.00035081
5898.29294678,0.00034454
5900.22175415,0.00030782
5902.15056152,0.00030614
5904.07936890,0.00035780
5906.00817627,0.00036195
5907.93698364,0.00028714
5909.86579102,0.00034423
5911.79459839,0.00035060
5913.72340576,0.00027680
5915.65221313,0.00030415
5917.58102051,0.00033190
5919.50982788,0.00034309
5921.43863525,0.00036866
5923.36744263,0.00033053
5925.29625000,0.00028964
5927.22505737,0.00036333
5929.15386475,0.00038095
5931.08267212,0.00027359
5933.01147949,0.00024796
5934.94028686,0.00033144
5936.86909424,0.00033336
5938.79790161,0.00026713
5940.72670898,0.00031448
5942.65551636,0.00031249
5944.58432373,0.00027785
5946.51313110,0.00032396
5948.44193848,0.00032069
5950.37074585,0.00035480
5952.29955322,0.00032021
5954.22836060,0.00027374
5956.15716797,0.00033526
5958.08597534,0.00030362
5960.01478271,0.00031542
5961.94359009,0.00033900
5963.87239746,0.00027373
5965.80120483,0.00030805
5967.73001221,0.00034192
5969.65881958,0.00025916
5971.58762695,0.00024755
5973.51643433,0.00031072
5975.44524170,0.00027684
5977.37404907,0.00020179
5979.30285645,0.00024425
5981.23166382,0.00033533
5983.16047119,0.00023795
5985.08927856,0.00021552
5987.01808594,0.00034300
5988.94689331,0.00028441
5990.87570068,0.00025926
5992.80450806,0.00032474
5994.73331543,0.00029596
5996.66212280,0.00022939
5998.59093018,0.00022908
6000.51973755,0.00021562
