399.26312622,0.00006140
401.19193359,0.00063709
403.12074097,0.00041666
405.04954834,0.00048257
406.97835571,0.00096633
408.90716309,0.00070715
410.83597046,0.00073381
412.76477783,0.00042926
414.69358521,0.00082344
416.62239258,0.00094187
418.55119995,0.00062925
420.48000732,0.00081959
422.40881470,0.00074721
424.33762207,0.00104712
426.26642944,0.00087524
428.19523682,0.00098291
430.12404419,0.00109199
432.05285156,0.00064764
433.98165894,0.00098099
435.91046631,0.00091533
437.83927368,0.00082430
439.76808105,0.00106721
441.69688843,0.00093666
443.62569580,0.00082050
445.55450317,0.00091479
447.48331055,0.00074883
449.41211792,0.00048379
451.34092529,0.00066490
453.26973267,0.00059075
455.19854004,0.00054530
457.12734741,0.00040264
459.05615479,0.00045314
460.98496216,0.00088640
462.91376953,0.00069839
464.84257690,0.00063580
466.77138428,0.00046134
468.70019165,0.00039215
470.62899902,0.00076280
472.55780640,0.00059282
474.48661377,0.00021505
476.41542114,0.00007845
478.34422852,0.00013790
480.27303589,0.00011947
482.20184326,0.00012250
484.13065063,0.00003260
486.05945801,0.00010428
487.98826538,0.00047776
489.91707275,0.00013147
491.84588013,-0.00030905
493.77468750,0.00018733
495.70349487,0.00038399
497.63230225,0.00022518
499.56110962,0.00057409
501.48991699,0.00015267
503.41872437,0.00011906
505.34753174,0.00055769
507.27633911,-0.00005869
509.20514648,0.00000760
511.13395386,0.00009992
513.06276123,0.00000718
514.99156860,0.00007703
516.92037598,-0.00010158
518.84918335,0.00037034
520.77799072,0.00031480
522.70679810,0.00005504
524.63560547,0.00030533
526.56441284,0.00010363
528.49322021,0.00012440
530.42202759,0.00027893
532.35083496,0.00015997
534.27964233,0.00025372
536.20844971,0.00007550
538.13725708,-0.00016525
540.06606445,0.00003127
541.99487183,0.00031362
543.92367920,0.00055842
545.85248657,0.00038294
547.78129395,0.00045789
549.71010132,0.00038860
551.63890869,-0.00016499
553.56771606,0.00017628
555.49652344,0.00024800
557.42533081,0.00008240
559.35413818,0.00063600
561.28294556,0.00039421
563.21175293,-0.00020758
565.14056030,0.00003168
567.06936768,0.00034640
568.99817505,0.00007723
570.92698242,-0.00013574
572.85578979,0.00025325
574.78459717,0.00027761
576.71340454,-0.00009076
578.64221191,0.00010492
580.57101929,0.00014885
582.49982666,-0.00010038
584.42863403,0.00015062
586.35744141,0.00015366
588.28624878,0.00006837
590.21505615,0.00031560
592.14386353,0.00029337
594.07267090,0.00029512
596.00147827,0.00033095
597.93028564,-0.00000253
599.85909302,-0.00006654
601.78790039,0.00021869
603.71670776,0.00010500
605.64551514,-0.00000871
607.57432251,0.00017905
609.50312988,0.00038891
611.43193726,0.00033757
613.36074463,-0.00014935
615.28955200,-0.00021281
617.21835938,0.00033592
619.14716675,0.00026047
621.07597412,0.00026811
623.00478149,0.00010454
624.93358887,0.00017518
626.86239624,0.00049982
628.79120361,0.00015363
630.72001099,0.00053796
632.64881836,0.00079579
634.57762573,0.00063141
636.50643311,0.00085315
638.43524048,0.00053069
640.36404785,0.00066532
642.29285522,0.00106687
644.22166260,0.00099271
646.15046997,0.00093788
648.07927734,0.00109658
650.00808472,0.00135607
651.93689209,0.00106867
653.86569946,0.00141348
655.79450684,0.00155511
657.72331421,0.00106124
659.65212158,0.00164617
661.58092896,0.00165628
663.50973633,0.00178637
665.43854370,0.00177150
667.36735107,0.00123302
669.29615845,0.00198779
671.22496582,0.00193255
673.15377319,0.00178001
675.08258057,0.00209054
677.01138794,0.00214328
678.94019531,0.00245654
680.86900269,0.00216374
682.79781006,0.00205483
684.72661743,0.00192470
686.65542480,0.00194093
688.58423218,0.00213847
690.51303955,0.00207584
692.44184692,0.00227847
694.37065430,0.00237178
696.29946167,0.00300369
698.22826904,0.00329040
700.15707642,0.00317288
702.08588379,0.00326271
704.01469116,0.00287396
705.94349854,0.00265530
707.87230591,0.00231849
709.80111328,0.00178566
711.72992065,0.00128464
713.65872803,0.00093380
715.58753540,0.00069929
717.51634277,0.00040356
719.44515015,0.00042068
721.37395752,0.00033971
723.30276489,0.00014996
725.23157227,-0.00006109
727.16037964,0.00004481
729.08918701,0.00029036
731.01799438,-0.00001647
732.94680176,0.00003774
734.87560913,0.00031918
736.80441650,0.00014362
738.73322388,0.00005125
740.66203125,0.00024009
742.59083862,0.00009315
744.51964600,0.00023537
746.44845337,0.00028478
748.37726074,-0.00009911
750.30606812,0.00027057
752.23487549,0.00022610
754.16368286,0.00034761
756.09249023,0.00049516
758.02129761,0.00003262
759.95010498,-0.00006176
761.87891235,0.00020333
763.80771973,0.00030133
765.73652710,0.00019852
767.66533447,0.00041950
769.59414185,0.00052271
771.52294922,0.00042866
773.45175659,0.00025539
775.38056396,0.00029948
777.30937134,0.00033385
779.23817871,-0.00003900
781.16698608,0.00025414
783.09579346,0.00034952
785.02460083,0.00021880
786.95340820,0.00045196
788.88221558,0.00028988
790.81102295,-0.00001400
792.73983032,0.00013972
794.66863770,0.00047118
796.59744507,0.00026803
798.52625244,0.00020379
800.45505981,0.00030401
802.38386719,0.00047118
804.31267456,0.00057883
806.24148193,0.00036862
808.17028931,0.00046735
810.09909668,0.00026647
812.02790405,0.00018322
813.95671143,0.00029982
815.88551880,0.00036448
817.81432617,0.00045471
819.74313354,0.00031563
821.67194092,0.00047924
823.60074829,0.00034120
825.52955566,0.00046252
827.45836304,0.00067613
829.38717041,0.00032935
831.31597778,0.00059381
833.24478516,0.00072553
835.17359253,0.00051485
837.10239990,0.00061205
839.03120728,0.00086399
840.96001465,0.00093111
842.88882202,0.00049877
844.81762939,0.00033925
846.74643677,0.00056934
848.67524414,0.00042779
850.60405151,0.00045387
852.53285889,0.00081430
854.46166626,0.00062891
856.39047363,0.00034061
858.31928101,0.00033160
860.24808838,0.00038825
862.17689575,0.00046351
864.10570313,0.00052887
866.03451050,0.00061131
867.96331787,0.00011067
869.89212524,0.00000939
871.82093262,0.00054325
873.74973999,0.00031707
875.67854736,0.00010249
877.60735474,0.00032740
879.53616211,0.00043264
881.46496948,0.00046121
883.39377686,0.00058634
885.32258423,0.00051350
887.25139160,0.00023487
889.18019897,0.00040427
891.10900635,0.00045835
893.03781372,0.00040315
894.96662109,0.00060545
896.89542847,0.00038213
898.82423584,0.00025507
900.75304321,0.00054689
902.68185059,0.00049723
904.61065796,0.00039614
906.53946533,0.00054932
908.46827271,0.00048818
910.39708008,0.00059335
912.32588745,0.00061609
914.25469482,0.00021806
916.18350220,0.00051042
918.11230957,0.00074279
920.04111694,0.00048430
921.96992432,0.00071970
923.89873169,0.00083718
925.82753906,0.00099214
927.75634644,0.00098009
929.68515381,0.00091218
931.61396118,0.00109535
933.54276855,0.00076224
935.47157593,0.00107112
937.40038330,0.00127672
939.32919067,0.00108464
941.25799805,0.00136868
943.18680542,0.00133194
945.11561279,0.00140577
947.04442017,0.00125279
948.97322754,0.00129915
950.90203491,0.00125849
952.83084229,0.00099751
954.75964966,0.00135922
956.68845703,0.00118827
958.61726440,0.00128131
960.54607178,0.00130557
962.47487915,0.00111908
964.40368652,0.00148700
966.33249390,0.00137602
968.26130127,0.00142364
970.19010864,0.00153251
972.11891602,0.00127689
974.04772339,0.00141352
975.97653076,0.00184696
977.90533813,0.00161580
979.83414551,0.00159593
981.76295288,0.00212486
983.69176025,0.00199800
985.62056763,0.00243930
987.54937500,0.00299474
989.47818237,0.00316601
991.40698975,0.00358223
993.33579712,0.00370511
995.26460449,0.00403651
997.19341187,0.00445926
999.12221924,0.00474150
1001.05102661,0.00499225
1002.97983398,0.00539375
1004.90864136,0.00572556
1006.83744873,0.00587091
1008.76625610,0.00629397
1010.69506348,0.00655694
1012.62387085,0.00689524
1014.55267822,0.00743251
1016.48148560,0.00782667
1018.41029297,0.00813959
1020.33910034,0.00850759
1022.26790771,0.00889871
1024.19671509,0.00939299
1026.12552246,0.00977801
1028.05432983,0.00971438
1029.98313721,0.01015027
1031.91194458,0.01046624
1033.84075195,0.01036851
1035.76955933,0.01067504
1037.69836670,0.01076273
1039.62717407,0.01079066
1041.55598145,0.01085625
1043.48478882,0.01086852
1045.41359619,0.01062540
1047.34240356,0.01038509
1049.27121094,0.01044133
1051.20001831,0.01008330
1053.12882568,0.00997952
1055.05763306,0.01012174
1056.98644043,0.00982105
1058.91524780,0.00948866
1060.84405518,0.00915422
1062.77286255,0.00882901
1064.70166992,0.00871097
1066.63047729,0.00841244
1068.55928467,0.00796951
1070.48809204,0.00771345
1072.41689941,0.00722872
1074.34570679,0.00677531
1076.27451416,0.00660752
1078.20332153,0.00651422
1080.13212891,0.00620889
1082.06093628,0.00579592
1083.98974365,0.00568957
1085.91855103,0.00523722
1087.84735840,0.00494611
1089.77616577,0.00487705
1091.70497314,0.00441472
1093.63378052,0.00435667
1095.56258789,0.00440339
1097.49139526,0.00417441
1099.42020264,0.00388235
1101.34901001,0.00383400
1103.27781738,0.00395578
1105.20662476,0.00389100
1107.13543213,0.00382305
1109.06423950,0.00365890
1110.99304687,0.00365235
1112.92185425,0.00356006
1114.85066162,0.00339375
1116.77946899,0.00358114
1118.70827637,0.00363215
1120.63708374,0.00371125
1122.56589111,0.00364184
1124.49469849,0.00363068
1126.42350586,0.00395509
1128.35231323,0.00377345
1130.28112061,0.00376764
1132.20992798,0.00411999
1134.13873535,0.00420511
1136.06754272,0.00425654
1137.99635010,0.00450125
1139.92515747,0.00496480
1141.85396484,0.00501893
1143.78277222,0.00524864
1145.71157959,0.00570492
1147.64038696,0.00581077
1149.56919434,0.00633640
1151.49800171,0.00660521
1153.42680908,0.00677987
1155.35561646,0.00738070
1157.28442383,0.00757537
1159.21323120,0.00764043
1161.14203857,0.00789485
1163.07084595,0.00838134
1164.99965332,0.00879347
1166.92846069,0.00880162
1168.85726807,0.00900195
1170.78607544,0.00968959
1172.71488281,0.01018264
1174.64369019,0.01045275
1176.57249756,0.01080951
1178.50130493,0.01113053
1180.43011230,0.01166455
1182.35891968,0.01217810
1184.28772705,0.01274766
1186.21653442,0.01329323
1188.14534180,0.01385886
1190.07414917,0.01455740
1192.00295654,0.01502688
1193.93176392,0.01592709
1195.86057129,0.01663049
1197.78937866,0.01725083
1199.71818604,0.01812954
1201.64699341,0.01869438
1203.57580078,0.01969770
1205.50460815,0.02043893
1207.43341553,0.02102312
1209.36222290,0.02183440
1211.29103027,0.02228380
1213.21983765,0.02292637
1215.14864502,0.02362404
1217.07745239,0.02403827
1219.00625977,0.02441591
1220.93506714,0.02492386
1222.86387451,0.02506809
1224.79268188,0.02514737
1226.72148926,0.02565416
1228.65029663,0.02586405
1230.57910400,0.02576965
1232.50791138,0.02582412
1234.43671875,0.02590820
1236.36552612,0.02576007
1238.29433350,0.02582151
1240.22314087,0.02588805
1242.15194824,0.02577060
1244.08075562,0.02581801
1246.00956299,0.02560785
1247.93837036,0.02543957
1249.86717773,0.02530915
1251.79598511,0.02512936
1253.72479248,0.02505282
1255.65359985,0.02478475
1257.58240723,0.02450012
1259.51121460,0.02408449
1261.44002197,0.02370808
1263.36882935,0.02353309
1265.29763672,0.02317004
1267.22644409,0.02277869
1269.15525146,0.02254913
1271.08405884,0.02228045
1273.01286621,0.02188953
1274.94167358,0.02136452
1276.87048096,0.02110252
1278.79928833,0.02092787
1280.72809570,0.02022995
1282.65690308,0.01985724
1284.58571045,0.01973313
1286.51451782,0.01923368
1288.44332520,0.01883116
1290.37213257,0.01858414
1292.30093994,0.01850406
1294.22974731,0.01846462
1296.15855469,0.01828587
1298.08736206,0.01819041
1300.01616943,0.01842768
1301.94497681,0.01856517
1303.87378418,0.01857074
1305.80259155,0.01886173
1307.73139893,0.01917909
1309.66020630,0.01945527
1311.58901367,0.01958997
1313.51782104,0.01998313
1315.44662842,0.02051190
1317.37543579,0.02082129
1319.30424316,0.02141303
1321.23305054,0.02208979
1323.16185791,0.02276346
1325.09066528,0.02345626
1327.01947266,0.02418936
1328.94828003,0.02477324
1330.87708740,0.02529887
1332.80589478,0.02596839
1334.73470215,0.02642435
1336.66350952,0.02658759
1338.59231689,0.02613593
1340.52112427,0.02657537
1342.44993164,0.02793649
1344.37873901,0.02814165
1346.30754639,0.02810416
1348.23635376,0.02798757
1350.16516113,0.02776592
1352.09396851,0.02775166
1354.02277588,0.02740856
1355.95158325,0.02732884
1357.88039062,0.02695963
1359.80919800,0.02639752
1361.73800537,0.02521668
1363.66681274,0.02465037
1365.59562012,0.02631075
1367.52442749,0.02597839
1369.45323486,0.02555528
1371.38204224,0.02600314
1373.31084961,0.02437752
1375.23965698,0.02459936
1377.16846436,0.02528716
1379.09727173,0.02511998
1381.02607910,0.02532963
1382.95488647,0.02527643
1384.88369385,0.02532534
1386.81250122,0.02384742
1388.74130859,0.02410151
1390.67011597,0.02671063
1392.59892334,0.02580144
1394.52773071,0.02364331
1396.45653809,0.02515601
1398.38534546,0.02514227
1400.31415283,0.02493892
1402.24296021,0.02751200
1404.17176758,0.02570741
1406.10057495,0.02573163
1408.02938232,0.02707971
1409.95818970,0.02591481
1411.88699707,0.02649057
1413.81580444,0.02527238
1415.74461182,0.02599410
1417.67341919,0.02328164
1419.60222656,0.02021060
1421.53103394,0.02410111
1423.45984131,0.02322469
1425.38864868,0.02251158
1427.31745605,0.02336424
1429.24626343,0.02117221
1431.17507080,0.02047633
1433.10387817,0.02131553
1435.03268555,0.01911527
1436.96149292,0.01564774
1438.89030029,0.01849554
1440.81910767,0.01910343
1442.74791504,0.01766255
1444.67672241,0.01873174
1446.60552979,0.01677976
1448.53433716,0.01706195
1450.46314453,0.01786429
1452.39195190,0.01826260
1454.32075928,0.01894546
1456.24956665,0.01504321
1458.17837402,0.01543318
1460.10718140,0.02153539
1462.03598877,0.02318486
1463.96479614,0.02268334
1465.89360352,0.02345210
1467.82241089,0.02711475
1469.75121826,0.02941093
1471.68002563,0.02512650
1473.60883301,0.02641341
1475.53764038,0.03069429
1477.46644775,0.03307585
1479.39525513,0.03695950
1481.32406250,0.03730216
1483.25286987,0.03988465
1485.18167725,0.04098532
1487.11048462,0.03967422
1489.03929199,0.03903389
1490.96809937,0.03904105
1492.89690674,0.04700701
1494.82571411,0.04555280
1496.75452148,0.03986206
1498.68332886,0.04578520
1500.61213623,0.04720953
1502.54094360,0.05140515
1504.46975098,0.04824635
1506.39855835,0.03247138
1508.32736572,0.04077490
1510.25617310,0.04988454
1512.18498047,0.04825618
1514.11378784,0.05293500
1516.04259521,0.04647351
1517.97140259,0.04860494
1519.90020996,0.04726619
1521.82901733,0.03897599
1523.75782471,0.04998004
1525.68663208,0.04933089
1527.61543945,0.04840984
1529.54424683,0.05523376
1531.47305420,0.05261388
1533.40186157,0.04693145
1535.33066895,0.05045874
1537.25947632,0.05511028
1539.18828369,0.03677065
1541.11709106,0.03812791
1543.04589844,0.04793913
1544.97470581,0.04550691
1546.90351318,0.05621609
1548.83232056,0.05195171
1550.76112793,0.05331405
1552.68993530,0.05361125
1554.61874268,0.04738043
1556.54755005,0.05146490
1558.47635742,0.03370466
1560.40516479,0.03658419
1562.33397217,0.05678384
1564.26277954,0.05300516
1566.19158691,0.05475595
1568.12039429,0.05423372
1570.04920166,0.04656653
1571.97800903,0.05542392
1573.90681641,0.05651261
1575.83562378,0.04278955
1577.76443115,0.04920923
1579.69323853,0.05723374
1581.62204590,0.05452158
1583.55085327,0.05596965
1585.47966064,0.05522617
1587.40846802,0.05567245
1589.33727539,0.05514055
1591.26608276,0.05492970
1593.19489014,0.05502351
1595.12369751,0.05427679
1597.05250488,0.05510947
1598.98131226,0.05491413
1600.91011963,0.05519680
1602.83892700,0.05395046
1604.76773437,0.05497433
1606.69654175,0.05412596
1608.62534912,0.05392196
1610.55415649,0.05379318
1612.48296387,0.05414230
1614.41177124,0.05502177
1616.34057861,0.04337726
1618.26938599,0.04755179
1620.19819336,0.05725063
1622.12700073,0.04949679
1624.05580811,0.04948868
1625.98461548,0.05282867
1627.91342285,0.05251648
1629.84223022,0.05245809
1631.77103760,0.05648275
1633.69984497,0.05136549
1635.62865234,0.04067148
1637.55745972,0.04873983
1639.48626709,0.05521230
1641.41507446,0.05365654
1643.34388184,0.05565246
1645.27268921,0.04926027
1647.20149658,0.04166766
1649.13030396,0.05448844
1651.05911133,0.05197600
1652.98791870,0.03020811
1654.91672607,0.04345596
1656.84553345,0.05785345
1658.77434082,0.05539296
1660.70314819,0.05694453
1662.63195557,0.05089173
1664.56076294,0.05422569
1666.48957031,0.05943084
1668.41837769,0.05028782
1670.34718506,0.04846465
1672.27599243,0.05689223
1674.20479980,0.05183095
1676.13360718,0.04910711
1678.06241455,0.05845428
1679.99122192,0.05610925
1681.92002930,0.05507991
1683.84883667,0.04324800
1685.77764404,0.04239036
1687.70645142,0.06215080
1689.63525879,0.05273115
1691.56406616,0.05862357
1693.49287354,0.06083230
1695.42168091,0.04146231
1697.35048828,0.05343623
1699.27929565,0.04604154
1701.20810303,0.03989093
1703.13691040,0.05860062
1705.06571777,0.05290652
1706.99452515,0.05338659
1708.92333252,0.05936414
1710.85213989,0.05653847
1712.78094727,0.05753318
1714.70975464,0.05256012
1716.63856201,0.04630782
1718.56736938,0.04528317
1720.49617676,0.05565084
1722.42498413,0.05875254
1724.35379150,0.05366691
1726.28259888,0.05942342
1728.21140625,0.05419578
1730.14021362,0.05432035
1732.06902100,0.05323715
1733.99782837,0.03800746
1735.92663574,0.04951749
1737.85544312,0.05632196
1739.78425049,0.04885846
1741.71305786,0.05397404
1743.64186523,0.05462277
1745.57067261,0.05478340
1747.49947998,0.05518737
1749.42828735,0.05228508
1751.35709473,0.04955361
1753.28590210,0.05583635
1755.21470947,0.05936885
1757.14351685,0.05290483
1759.07232422,0.05932561
1761.00113159,0.05523071
1762.92993896,0.05248222
1764.85874634,0.06200422
1766.78755371,0.05459914
1768.71636108,0.05506287
1770.64516846,0.05485198
1772.57397583,0.04821432
1774.50278320,0.05488939
1776.43159058,0.05875954
1778.36039795,0.05791717
1780.28920532,0.05678401
1782.21801270,0.05756143
1784.14682007,0.05734367
1786.07562744,0.05603714
1788.00443481,0.05975480
1789.93324219,0.05765054
1791.86204956,0.05096631
1793.79085693,0.05366482
1795.71966431,0.05856936
1797.64847168,0.05763135
1799.57727905,0.05654834
1801.50608643,0.05536251
1803.43489380,0.05764993
1805.36370117,0.05923758
1807.29250854,0.05826019
1809.22131592,0.05859358
1811.15012329,0.05635223
1813.07893066,0.05865248
1815.00773804,0.05912760
1816.93654541,0.05823218
1818.86535278,0.05891684
1820.79416016,0.05835315
1822.72296753,0.05961090
1824.65177490,0.05482788
1826.58058228,0.05718446
1828.50938965,0.05743385
1830.43819702,0.05277821
1832.36700439,0.05884477
1834.29581177,0.05851641
1836.22461914,0.05824780
1838.15342651,0.05801788
1840.08223389,0.05858682
1842.01104126,0.05879723
1843.93984863,0.05060166
1845.86865601,0.05479475
1847.79746338,0.05855661
1849.72627075,0.05700466
1851.65507812,0.05918399
1853.58388550,0.05774332
1855.51269287,0.05837459
1857.44150024,0.05788428
1859.37030762,0.05750147
1861.29911499,0.05796592
1863.22792236,0.05722547
1865.15672974,0.05819278
1867.08553711,0.05581781
1869.01434448,0.05288114
1870.94315186,0.05538909
1872.87195923,0.05811378
1874.80076660,0.05713654
1876.72957397,0.05760496
1878.65838135,0.05747436
1880.58718872,0.05691974
1882.51599609,0.05751414
1884.44480347,0.05637529
1886.37361084,0.05743264
1888.30241821,0.05597588
1890.23122559,0.05444849
1892.16003296,0.05711446
1894.08884033,0.05615334
1896.01764771,0.05575866
1897.94645508,0.05675821
1899.87526245,0.05636396
1901.80406982,0.05649164
1903.73287720,0.05615048
1905.66168457,0.05648660
1907.59049194,0.05572346
1909.51929932,0.05529726
1911.44810669,0.05579882
1913.37691406,0.05571739
1915.30572144,0.05648085
1917.23452881,0.05342663
1919.16333618,0.05329584
1921.09214355,0.05606364
1923.02095093,0.05369241
1924.94975830,0.05505704
1926.87856567,0.05602628
1928.80737305,0.05507860
1930.73618042,0.05607522
1932.66498779,0.05507585
1934.59379517,0.05562470
1936.52260254,0.05514279
1938.45140991,0.05526440
1940.38021729,0.05547523
1942.30902466,0.05326004
1944.23783203,0.05430388
1946.16663940,0.05505344
1948.09544678,0.05499835
1950.02425415,0.05527011
1951.95306152,0.05504964
1953.88186890,0.05512483
1955.81067627,0.05488613
1957.73948364,0.05513085
1959.66829102,0.05491184
1961.59709839,0.05486312
1963.52590576,0.05503483
1965.45471313,0.05452442
1967.38352051,0.05391557
1969.31232788,0.05448556
1971.24113525,0.05502116
1973.16994263,0.05449434
1975.09875000,0.05482918
1977.02755737,0.05451035
1978.95636475,0.05452270
1980.88517212,0.05458126
1982.81397949,0.05412391
1984.74278687,0.05451887
1986.67159424,0.05394291
1988.60040161,0.05405411
1990.52920898,0.05361141
1992.45801636,0.05267803
1994.38682373,0.05371950
1996.31563110,0.05390681
1998.24443848,0.05366539
2000.17324585,0.05386694
2002.10205322,0.05356836
2004.03086060,0.05352614
2005.95966797,0.05342267
2007.88847534,0.05310698
2009.81728271,0.05317181
2011.74609009,0.05301396
2013.67489746,0.05309346
2015.60370483,0.05288941
2017.53251221,0.05216426
2019.46131958,0.05261086
2021.39012695,0.05269592
2023.31893433,0.05241305
2025.24774170,0.05255381
2027.17654907,0.05241451
2029.10535645,0.05225243
2031.03416382,0.05198123
2032.96297119,0.05205999
2034.89177856,0.05202133
2036.82058594,0.05186479
2038.74939331,0.05158892
2040.67820068,0.05131838
2042.60700806,0.05153248
2044.53581543,0.05132328
2046.46462280,0.05130670
2048.39343018,0.05138282
2050.32223755,0.05113810
2052.25104492,0.05106610
2054.17985229,0.05098101
2056.10865967,0.05093829
2058.03746704,0.05083684
2059.96627441,0.05069065
2061.89508179,0.05060729
2063.82388916,0.05035738
2065.75269653,0.05012002
2067.68150391,0.05031690
2069.61031128,0.05027834
2071.53911865,0.05012890
2073.46792603,0.05017052
2075.39673340,0.05002984
2077.32554077,0.05005594
2079.25434814,0.04981532
2081.18315552,0.04966610
2083.11196289,0.04970219
2085.04077026,0.04946832
2086.96957764,0.04946684
2088.89838501,0.04946518
2090.82719238,0.04926560
2092.75599976,0.04915454
2094.68480713,0.04930011
2096.61361450,0.04918840
2098.54242187,0.04898723
2100.47122925,0.04898812
2102.40003662,0.04892858
2104.32884399,0.04889206
2106.25765137,0.04867724
2108.18645874,0.04866388
2110.11526611,0.04868098
2112.04407349,0.04847570
2113.97288086,0.04841817
2115.90168823,0.04836667
2117.83049561,0.04829814
2119.75930298,0.04824480
2121.68811035,0.04810910
2123.61691772,0.04804580
2125.54572510,0.04819002
2127.47453247,0.04811549
2129.40333984,0.04802938
2131.33214722,0.04796298
2133.26095459,0.04785740
2135.18976196,0.04780670
2137.11856934,0.04762534
2139.04737671,0.04771797
2140.97618408,0.04756516
2142.90499146,0.04748647
2144.83379883,0.04758722
2146.76260620,0.04742580
2148.69141357,0.04755491
2150.62022095,0.04748019
2152.54902832,0.04732664
2154.47783569,0.04720825
2156.40664307,0.04721876
2158.33545044,0.04731366
2160.26425781,0.04717547
2162.19306519,0.04712115
2164.12187256,0.04691280
2166.05067993,0.04692731
2167.97948730,0.04701900
2169.90829468,0.04691018
2171.83710205,0.04674920
2173.76590942,0.04666130
2175.69471680,0.04670062
2177.62352417,0.04660069
2179.55233154,0.04673355
2181.48113892,0.04661969
2183.40994629,0.04647233
2185.33875366,0.04654398
2187.26756104,0.04638121
2189.19636841,0.04638787
2191.12517578,0.04631221
2193.05398315,0.04624151
2194.98279053,0.04629508
2196.91159790,0.04630113
2198.84040527,0.04620386
2200.76921265,0.04605888
2202.69802002,0.04604829
2204.62682739,0.04604030
2206.55563477,0.04609302
2208.48444214,0.04600213
2210.41324951,0.04587179
2212.34205688,0.04587223
2214.27086426,0.04589463
2216.19967163,0.04577640
2218.12847900,0.04553976
2220.05728638,0.04561274
2221.98609375,0.04568529
2223.91490112,0.04547054
2225.84370850,0.04537853
2227.77251587,0.04543891
2229.70132324,0.04523949
2231.63013062,0.04520983
2233.55893799,0.04530973
2235.48774536,0.04518913
2237.41655273,0.04520960
2239.34536011,0.04498954
2241.27416748,0.04488257
2243.20297485,0.04494236
2245.13178223,0.04489815
2247.06058960,0.04496713
2248.98939697,0.04469727
2250.91820435,0.04462131
2252.84701172,0.04473517
2254.77581909,0.04453698
2256.70462646,0.04453559
2258.63343384,0.04457466
2260.56224121,0.04435902
2262.49104858,0.04436750
2264.41985596,0.04442972
2266.34866333,0.04430581
2268.27747070,0.04430582
2270.20627808,0.04409440
2272.13508545,0.04408988
2274.06389282,0.04422566
2275.99270020,0.04396341
2277.92150757,0.04389498
2279.85031494,0.04394483
2281.77912231,0.04400320
2283.70792969,0.04384501
2285.63673706,0.04362153
2287.56554443,0.04371976
2289.49435181,0.04368914
2291.42315918,0.04356633
2293.35196655,0.04345164
2295.28077393,0.04339740
2297.20958130,0.04326672
2299.13838867,0.04305667
2301.06719604,0.04292887
2302.99600342,0.04265796
2304.92481079,0.04252058
2306.85361816,0.04232105
2308.78242554,0.04194368
2310.71123291,0.04172955
2312.64004028,0.04129796
2314.56884766,0.04098540
2316.49765503,0.04072917
2318.42646240,0.04011032
2320.35526978,0.03967138
2322.28407715,0.03911769
2324.21288452,0.03872943
2326.14169189,0.03842604
2328.07049927,0.03777383
2329.99930664,0.03755235
2331.92811401,0.03738485
2333.85692139,0.03723491
2335.78572876,0.03700153
2337.71453613,0.03679689
2339.64334351,0.03689867
2341.57215088,0.03695124
2343.50095825,0.03753994
2345.42976562,0.03810849
2347.35857300,0.03946651
2349.28738037,0.04076600
2351.21618774,0.03947645
2353.14499512,0.03766817
2355.07380249,0.03640879
2357.00260986,0.03539884
2358.93141724,0.03477524
2360.86022461,0.03436095
2362.78903198,0.03429196
2364.71783936,0.03441015
2366.64664673,0.03494878
2368.57545410,0.03562757
2370.50426147,0.03634521
2372.43306885,0.03710505
2374.36187622,0.03817346
2376.29068359,0.03921796
2378.21949097,0.03968610
2380.14829834,0.04034384
2382.07710571,0.04074030
2384.00591309,0.04097046
2385.93472046,0.04117134
2387.86352783,0.04109440
2389.79233521,0.04115179
2391.72114258,0.04100670
2393.64994995,0.04099621
2395.57875732,0.04106408
2397.50756470,0.04090427
2399.43637207,0.04078797
2401.36517944,0.04080807
2403.29398682,0.04077061
2405.22279419,0.04067721
2407.15160156,0.04075114
2409.08040894,0.04053536
2411.00921631,0.04047889
2412.93802368,0.04057688
2414.86683105,0.04043849
2416.79563843,0.04050404
2418.72444580,0.04043896
2420.65325317,0.04030737
2422.58206055,0.04028041
2424.51086792,0.04021044
2426.43967529,0.04012325
2428.36848267,0.04014500
2430.29729004,0.04014693
2432.22609741,0.04004798
2434.15490479,0.04010480
2436.08371216,0.03998664
2438.01251953,0.03991867
2439.94132690,0.03985022
2441.87013428,0.03967020
2443.79894165,0.03976991
2445.72774902,0.03970634
2447.65655640,0.03964806
2449.58536377,0.03966735
2451.51417114,0.03960178
2453.44297852,0.03951350
2455.37178589,0.03941780
2457.30059326,0.03949932
2459.22940063,0.03939211
2461.15820801,0.03932031
2463.08701538,0.03930146
2465.01582275,0.03915387
2466.94463013,0.03927459
2468.87343750,0.03928377
2470.80224487,0.03915185
2472.73105225,0.03911982
2474.65985962,0.03904248
2476.58866699,0.03897087
2478.51747437,0.03891101
2480.44628174,0.03880168
2482.37508911,0.03878900
2484.30389648,0.03880017
2486.23270386,0.03862627
2488.16151123,0.03861417
2490.09031860,0.03860242
2492.01912598,0.03859434
2493.94793335,0.03862357
2495.87674072,0.03838477
2497.80554810,0.03844003
2499.73435547,0.03840896
2501.66316284,0.03825522
2503.59197021,0.03838198
2505.52077759,0.03831096
2507.44958496,0.03820623
2509.37839233,0.03812917
2511.30719971,0.03812592
2513.23600708,0.03802784
2515.16481445,0.03799563
2517.09362183,0.03803597
2519.02242920,0.03783468
2520.95123657,0.03795466
2522.88004395,0.03790274
2524.80885132,0.03772581
2526.73765869,0.03766765
2528.66646606,0.03756819
2530.59527344,0.03769829
2532.52408081,0.03756757
2534.45288818,0.03755831
2536.38169556,0.03758728
2538.31050293,0.03746292
2540.23931030,0.03748003
2542.16811768,0.03736268
2544.09692505,0.03740460
2546.02573242,0.03735662
2547.95453979,0.03714082
2549.88334717,0.03705994
2551.81215454,0.03712521
2553.74096191,0.03707287
2555.66976929,0.03690854
2557.59857666,0.03699808
2559.52738403,0.03692026
2561.45619141,0.03680459
2563.38499878,0.03674378
2565.31380615,0.03672813
2567.24261353,0.03677667
2569.17142090,0.03665552
2571.10022827,0.03664637
2573.02903564,0.03655713
2574.95784302,0.03648739
2576.88665039,0.03637668
2578.81545776,0.03631637
2580.74426514,0.03650310
2582.67307251,0.03640693
2584.60187988,0.03633250
2586.53068726,0.03626815
2588.45949463,0.03614974
2590.38830200,0.03618455
2592.31710937,0.03619557
2594.24591675,0.03613050
2596.17472412,0.03603188
2598.10353149,0.03598673
2600.03233887,0.03580952
2601.96114624,0.03583996
2603.88995361,0.03590926
2605.81876099,0.03569590
2607.74756836,0.03571851
2609.67637573,0.03569043
2611.60518311,0.03555068
2613.53399048,0.03554424
2615.46279785,0.03554917
2617.39160522,0.03555443
2619.32041260,0.03547475
2621.24921997,0.03535623
2623.17802734,0.03530927
2625.10683472,0.03527877
2627.03564209,0.03519206
2628.96444946,0.03525610
2630.89325684,0.03526022
2632.82206421,0.03496547
2634.75087158,0.03491639
2636.67967895,0.03502917
2638.60848633,0.03490471
2640.53729370,0.03491045
2642.46610107,0.03496028
2644.39490845,0.03474188
2646.32371582,0.03468132
2648.25252319,0.03470261
2650.18133057,0.03460462
2652.11013794,0.03462385
2654.03894531,0.03455859
2655.96775269,0.03450766
2657.89656006,0.03450529
2659.82536743,0.03438461
2661.75417480,0.03439723
2663.68298218,0.03438333
2665.61178955,0.03428130
2667.54059692,0.03419062
2669.46940430,0.03412160
2671.39821167,0.03423716
2673.32701904,0.03415722
2675.25582642,0.03393612
2677.18463379,0.03395038
2679.11344116,0.03393370
2681.04224854,0.03394849
2682.97105591,0.03391357
2684.89986328,0.03372276
2686.82867065,0.03374930
2688.75747803,0.03380061
2690.68628540,0.03363040
2692.61509277,0.03351747
2694.54390015,0.03349516
2696.47270752,0.03342979
2698.40151489,0.03347441
2700.33032227,0.03346126
2702.25912964,0.03329668
2704.18793701,0.03327045
2706.11674438,0.03321306
2708.04555176,0.03318775
2709.97435913,0.03321195
2711.90316650,0.03307473
2713.83197388,0.03306485
2715.76078125,0.03301562
2717.68958862,0.03295533
2719.61839600,0.03302769
2721.54720337,0.03280981
2723.47601074,0.03271914
2725.40481812,0.03278707
2727.33362549,0.03262127
2729.26243286,0.03262179
2731.19124023,0.03259669
2733.12004761,0.03245476
2735.04885498,0.03250009
2736.97766235,0.03251842
2738.90646973,0.03233414
2740.83527710,0.03221831
2742.76408447,0.03230525
2744.69289185,0.03226744
2746.62169922,0.03219452
2748.55050659,0.03205663
2750.47931396,0.03197057
2752.40812134,0.03206665
2754.33692871,0.03196862
2756.26573608,0.03193361
2758.19454346,0.03183202
2760.12335083,0.03174227
2762.05215820,0.03176285
2763.98096558,0.03158626
2765.90977295,0.03154167
2767.83858032,0.03149326
2769.76738770,0.03144675
2771.69619507,0.03137493
2773.62500244,0.03135198
2775.55380981,0.03133620
2777.48261719,0.03113455
2779.41142456,0.03123739
2781.34023193,0.03116382
2783.26903931,0.03099396
2785.19784668,0.03101962
2787.12665405,0.03093478
2789.05546143,0.03087275
2790.98426880,0.03065846
2792.91307617,0.03064995
2794.84188354,0.03076934
2796.77069092,0.03068086
2798.69949829,0.03059298
2800.62830566,0.03053838
2802.55711304,0.03055137
2804.48592041,0.03044722
2806.41472778,0.03026150
2808.34353516,0.03019442
2810.27234253,0.03015404
2812.20114990,0.02999591
2814.12995728,0.03000687
2816.05876465,0.02997053
2817.98757202,0.02978250
2819.91637939,0.02991236
2821.84518677,0.02982710
2823.77399414,0.02963134
2825.70280151,0.02972119
2827.63160889,0.02967719
2829.56041626,0.02945790
2831.48922363,0.02938633
2833.41803101,0.02931432
2835.34683838,0.02914916
2837.27564575,0.02920449
2839.20445312,0.02903493
2841.13326050,0.02886797
2843.06206787,0.02871241
2844.99087524,0.02839065
2846.91968262,0.02831543
2848.84848999,0.02801858
2850.77729736,0.02804792
2852.70610474,0.02826380
2854.63491211,0.02821168
2856.56371948,0.02839196
2858.49252686,0.02841932
2860.42133423,0.02836840
2862.35014160,0.02833752
2864.27894897,0.02828098
2866.20775635,0.02814382
2868.13656372,0.02805791
2870.06537109,0.02814637
2871.99417847,0.02808275
2873.92298584,0.02803182
2875.85179321,0.02791825
2877.78060059,0.02780140
2879.70940796,0.02778688
2881.63821533,0.02771268
2883.56702270,0.02757264
2885.49583008,0.02752136
2887.42463745,0.02747539
2889.35344482,0.02727470
2891.28225220,0.02726297
2893.21105957,0.02723607
2895.13986694,0.02717531
2897.06867432,0.02702660
2898.99748169,0.02683164
2900.92628906,0.02687219
2902.85509644,0.02678845
2904.78390381,0.02677278
2906.71271118,0.02669201
2908.64151855,0.02655591
2910.57032593,0.02646082
2912.49913330,0.02622991
2914.42794067,0.02608349
2916.35674805,0.02595054
2918.28555542,0.02594964
2920.21436279,0.02591816
2922.14317017,0.02598957
2924.07197754,0.02608432
2926.00078491,0.02602990
2927.92959229,0.02624377
2929.85839966,0.02628574
2931.78720703,0.02621943
2933.71601440,0.02633999
2935.64482178,0.02638897
2937.57362915,0.02637750
2939.50243652,0.02638730
2941.43124390,0.02627318
2943.36005127,0.02620551
2945.28885864,0.02629441
2947.21766602,0.02615516
2949.14647339,0.02609008
2951.07528076,0.02604635
2953.00408813,0.02589772
2954.93289551,0.02583367
2956.86170288,0.02580174
2958.79051025,0.02577722
2960.71931763,0.02564949
2962.64812500,0.02569890
2964.57693237,0.02562092
2966.50573975,0.02554668
2968.43454712,0.02566319
2970.36335449,0.02564128
2972.29216187,0.02569654
2974.22096924,0.02558079
2976.14977661,0.02553471
2978.07858398,0.02554384
2980.00739136,0.02545688
2981.93619873,0.02547783
2983.86500610,0.02542290
2985.79381348,0.02539098
2987.72262085,0.02532955
2989.65142822,0.02530416
2991.58023560,0.02524374
2993.50904297,0.02518413
2995.43785034,0.02511818
2997.36665771,0.02504604
2999.29546509,0.02504227
3001.22427246,0.02486005
3003.15307983,0.02481482
3005.08188721,0.02476862
3007.01069458,0.02477721
3008.93950195,0.02476507
3010.86830933,0.02447226
3012.79711670,0.02442240
3014.72592407,0.02442258
3016.65473145,0.02440222
3018.58353882,0.02439550
3020.51234619,0.02432151
3022.44115356,0.02426400
3024.36996094,0.02412837
3026.29876831,0.02400184
3028.22757568,0.02399151
3030.15638306,0.02387118
3032.08519043,0.02366320
3034.01399780,0.02375000
3035.94280518,0.02366929
3037.87161255,0.02359360
3039.80041992,0.02363219
3041.72922729,0.02341787
3043.65803467,0.02337014
3045.58684204,0.02330533
3047.51564941,0.02329729
3049.44445679,0.02324876
3051.37326416,0.02315570
3053.30207153,0.02316785
3055.23087891,0.02300966
3057.15968628,0.02294524
3059.08849365,0.02285049
3061.01730103,0.02278536
3062.94610840,0.02269918
3064.87491577,0.02256140
3066.80372314,0.02242912
3068.73253052,0.02237555
3070.66133789,0.02254935
3072.59014526,0.02242116
3074.51895264,0.02234980
3076.44776001,0.02229282
3078.37656738,0.02213558
3080.30537476,0.02212950
3082.23418213,0.02201972
3084.16298950,0.02201238
3086.09179687,0.02189433
3088.02060425,0.02187325
3089.94941162,0.02180174
3091.87821899,0.02158901
3093.80702637,0.02165724
3095.73583374,0.02154980
3097.66464111,0.02155697
3099.59344849,0.02153933
3101.52225586,0.02130517
3103.45106323,0.02129155
3105.37987061,0.02121618
3107.30867798,0.02117318
3109.23748535,0.02111603
3111.16629272,0.02094850
3113.09510010,0.02092822
3115.02390747,0.02078296
3116.95271484,0.02062564
3118.88152222,0.02066275
3120.81032959,0.02053815
3122.73913696,0.02036756
3124.66794434,0.02037140
3126.59675171,0.02036104
3128.52555908,0.02024643
3130.45436645,0.02026495
3132.38317383,0.02026230
3134.31198120,0.02004011
3136.24078857,0.01998988
3138.16959595,0.01995441
3140.09840332,0.01987415
3142.02721069,0.01976727
3143.95601807,0.01960072
3145.88482544,0.01964437
3147.81363281,0.01956135
3149.74244019,0.01940843
3151.67124756,0.01939924
3153.60005493,0.01932549
3155.52886230,0.01918994
3157.45766968,0.01919759
3159.38647705,0.01915638
3161.31528442,0.01893964
3163.24409180,0.01890386
3165.17289917,0.01882634
3167.10170654,0.01876319
3169.03051392,0.01869005
3170.95932129,0.01858540
3172.88812866,0.01859031
3174.81693604,0.01844809
3176.74574341,0.01843279
3178.67455078,0.01830674
3180.60335815,0.01816235
3182.53216553,0.01818485
3184.46097290,0.01809424
3186.38978027,0.01808820
3188.31858765,0.01804805
3190.24739502,0.01800914
3192.17620239,0.01792898
3194.10500977,0.01786888
3196.03381714,0.01782341
3197.96262451,0.01768534
3199.89143188,0.01763541
3201.82023926,0.01757791
3203.74904663,0.01753417
3205.67785400,0.01743206
3207.60666138,0.01748294
3209.53546875,0.01755769
3211.46427612,0.01737041
3213.39308350,0.01728238
3215.32189087,0.01722547
3217.25069824,0.01714836
3219.17950562,0.01714814
3221.10831299,0.01712488
3223.03712036,0.01714428
3224.96592773,0.01721657
3226.89473511,0.01710598
3228.82354248,0.01707029
3230.75234985,0.01711329
3232.68115723,0.01693781
3234.60996460,0.01684829
3236.53877197,0.01688109
3238.46757935,0.01690133
3240.39638672,0.01678272
3242.32519409,0.01681287
3244.25400146,0.01681720
3246.18280884,0.01665656
3248.11161621,0.01681647
3250.04042358,0.01683302
3251.96923096,0.01671988
3253.89803833,0.01665457
3255.82684570,0.01671275
3257.75565308,0.01674087
3259.68446045,0.01661675
3261.61326782,0.01669733
3263.54207520,0.01658516
3265.47088257,0.01662336
3267.39968994,0.01675772
3269.32849731,0.01667090
3271.25730469,0.01654980
3273.18611206,0.01643251
3275.11491943,0.01651484
3277.04372681,0.01642992
3278.97253418,0.01651252
3280.90134155,0.01660359
3282.83014893,0.01645656
3284.75895630,0.01651561
3286.68776367,0.01648810
3288.61657104,0.01641368
3290.54537842,0.01642770
3292.47418579,0.01645733
3294.40299316,0.01637342
3296.33180054,0.01637831
3298.26060791,0.01636141
3300.18941528,0.01628355
3302.11822266,0.01641248
3304.04703003,0.01639440
3305.97583740,0.01630263
3307.90464478,0.01624317
3309.83345215,0.01628949
3311.76225952,0.01626191
3313.69106689,0.01629680
3315.61987427,0.01635944
3317.54868164,0.01617256
3319.47748901,0.01637761
3321.40629639,0.01638459
3323.33510376,0.01613599
3325.26391113,0.01614138
3327.19271851,0.01616685
3329.12152588,0.01624388
3331.05033325,0.01612488
3332.97914062,0.01611234
3334.90794800,0.01613169
3336.83675537,0.01603096
3338.76556274,0.01610383
3340.69437012,0.01610048
3342.62317749,0.01608480
3344.55198486,0.01611419
3346.48079224,0.01602831
3348.40959961,0.01598090
3350.33840698,0.01597751
3352.26721436,0.01601114
3354.19602173,0.01601522
3356.12482910,0.01587201
3358.05363647,0.01593290
3359.98244385,0.01588053
3361.91125122,0.01585084
3363.84005859,0.01600932
3365.76886597,0.01586084
3367.69767334,0.01588834
3369.62648071,0.01584687
3371.55528809,0.01583777
3373.48409546,0.01599051
3375.41290283,0.01593478
3377.34171020,0.01586284
3379.27051758,0.01581359
3381.19932495,0.01594662
3383.12813232,0.01583550
3385.05693970,0.01585838
3386.98574707,0.01592121
3388.91455444,0.01585511
3390.84336182,0.01592808
3392.77216919,0.01570047
3394.70097656,0.01584383
3396.62978394,0.01577105
3398.55859131,0.01563613
3400.48739868,0.01587668
3402.41620605,0.01575766
3404.34501343,0.01576342
3406.27382080,0.01580924
3408.20262817,0.01589041
3410.13143555,0.01587399
3412.06024292,0.01584029
3413.98905029,0.01584580
3415.91785767,0.01578569
3417.84666504,0.01584923
3419.77547241,0.01570392
3421.70427979,0.01566981
3423.63308716,0.01570091
3425.56189453,0.01578104
3427.49070190,0.01583660
3429.41950928,0.01580032
3431.34831665,0.01573253
3433.27712402,0.01571172
3435.20593140,0.01590727
3437.13473877,0.01576128
3439.06354614,0.01580923
3440.99235352,0.01576925
3442.92116089,0.01565116
3444.84996826,0.01583474
3446.77877563,0.01554373
3448.70758301,0.01558047
3450.63639038,0.01584218
3452.56519775,0.01578249
3454.49400513,0.01576758
3456.42281250,0.01587030
3458.35161987,0.01586294
3460.28042725,0.01570083
3462.20923462,0.01570188
3464.13804199,0.01583075
3466.06684937,0.01590637
3467.99565674,0.01578886
3469.92446411,0.01593532
3471.85327148,0.01600994
3473.78207886,0.01589474
3475.71088623,0.01587805
3477.63969360,0.01589544
3479.56850098,0.01600542
3481.49730835,0.01572698
3483.42611572,0.01584735
3485.35492310,0.01600398
3487.28373047,0.01583884
3489.21253784,0.01593812
3491.14134521,0.01591638
3493.07015259,0.01610259
3494.99895996,0.01609368
3496.92776733,0.01599047
3498.85657471,0.01606886
3500.78538208,0.01603216
3502.71418945,0.01572305
3504.64299683,0.01574673
3506.57180420,0.01628107
3508.50061157,0.01597960
3510.42941895,0.01587139
3512.35822632,0.01614986
3514.28703369,0.01614806
3516.21584106,0.01622570
3518.14464844,0.01616677
3520.07345581,0.01629400
3522.00226318,0.01608630
3523.93107056,0.01580379
3525.85987793,0.01590652
3527.78868530,0.01589601
3529.71749268,0.01596851
3531.64630005,0.01627943
3533.57510742,0.01644812
3535.50391479,0.01622131
3537.43272217,0.01609220
3539.36152954,0.01628542
3541.29033691,0.01638398
3543.21914429,0.01620352
3545.14795166,0.01592746
3547.07675903,0.01566135
3549.00556641,0.01616438
3550.93437378,0.01639108
3552.86318115,0.01592325
3554.79198853,0.01632854
3556.72079590,0.01639135
3558.64960327,0.01636967
3560.57841064,0.01626562
3562.50721802,0.01609787
3564.43602539,0.01630310
3566.36483276,0.01493365
3568.29364014,0.01446791
3570.22244751,0.01598808
3572.15125488,0.01658892
3574.08006226,0.01630882
3576.00886963,0.01636308
3577.93767700,0.01641622
3579.86648437,0.01636367
3581.79529175,0.01649393
3583.72409912,0.01653294
3585.65290649,0.01608375
3587.58171387,0.01454549
3589.51052124,0.01496703
3591.43932861,0.01664800
3593.36813599,0.01604972
3595.29694336,0.01568201
3597.22575073,0.01613320
3599.15455811,0.01627523
3601.08336548,0.01615672
3603.01217285,0.01632002
3604.94098022,0.01667714
3606.86978760,0.01606556
3608.79859497,0.01486975
3610.72740234,0.01535114
3612.65620972,0.01572647
3614.58501709,0.01500089
3616.51382446,0.01645442
3618.44263184,0.01503593
3620.37143921,0.01441977
3622.30024658,0.01666567
3624.22905395,0.01615113
3626.15786133,0.01722033
3628.08666870,0.01402259
3630.01547607,0.01244402
3631.94428345,0.01661529
3633.87309082,0.01609820
3635.80189819,0.01636766
3637.73070557,0.01670256
3639.65951294,0.01649477
3641.58832031,0.01670436
3643.51712769,0.01646288
3645.44593506,0.01670363
3647.37474243,0.01452456
3649.30354980,0.01313499
3651.23235718,0.01339832
3653.16116455,0.01639605
3655.08997192,0.01626153
3657.01877930,0.01427777
3658.94758667,0.01687853
3660.87639404,0.01650843
3662.80520142,0.01680305
3664.73400879,0.01678206
3666.66281616,0.01657788
3668.59162354,0.01600351
3670.52043091,0.01256914
3672.44923828,0.01573130
3674.37804565,0.01484743
3676.30685303,0.01192401
3678.23566040,0.01564315
3680.16446777,0.01606145
3682.09327515,0.01618631
3684.02208252,0.01673473
3685.95088989,0.01642552
3687.87969727,0.01458216
3689.80850464,0.01309251
3691.73731201,0.01519753
3693.66611938,0.01583381
3695.59492676,0.01628843
3697.52373413,0.01620052
3699.45254150,0.01617685
3701.38134888,0.01561592
3703.31015625,0.01474605
3705.23896362,0.01668211
3707.16777100,0.01573380
3709.09657837,0.01520391
3711.02538574,0.01416062
3712.95419312,0.01301168
3714.88300049,0.01585818
3716.81180786,0.01563337
3718.74061523,0.01575258
3720.66942261,0.01540767
3722.59822998,0.01473080
3724.52703735,0.01535683
3726.45584473,0.01400333
3728.38465210,0.01549811
3730.31345947,0.01526582
3732.24226685,0.01375382
3734.17107422,0.01344218
3736.09988159,0.01246322
3738.02868896,0.01345812
3739.95749634,0.01489825
3741.88630371,0.01562232
3743.81511108,0.01169463
3745.74391846,0.01080934
3747.67272583,0.01469672
3749.60153320,0.01240349
3751.53034058,0.01119985
3753.45914795,0.01320921
3755.38795532,0.01445114
3757.31676270,0.01503153
3759.24557007,0.01372354
3761.17437744,0.01445664
3763.10318481,0.01549877
3765.03199219,0.01422842
3766.96079956,0.01456183
3768.88960693,0.01439787
3770.81841431,0.01360474
3772.74722168,0.01497149
3774.67602905,0.01505373
3776.60483643,0.01502445
3778.53364380,0.01452381
3780.46245117,0.01382560
3782.39125854,0.01499207
3784.32006592,0.01451888
3786.24887329,0.01432851
3788.17768066,0.01478482
3790.10648804,0.01476688
3792.03529541,0.01468842
3793.96410278,0.01488403
3795.89291016,0.01391583
3797.82171753,0.01371014
3799.75052490,0.01458283
3801.67933228,0.01107289
3803.60813965,0.01320397
3805.53694702,0.01466131
3807.46575439,0.01152936
3809.39456177,0.01441536
3811.32336914,0.01414820
3813.25217651,0.01472333
3815.18098389,0.01300499
3817.10979126,0.01110200
3819.03859863,0.01472841
3820.96740601,0.01134015
3822.89621338,0.01211618
3824.82502075,0.01465998
3826.75382812,0.01297216
3828.68263550,0.01413522
3830.61144287,0.01355368
3832.54025024,0.01298041
3834.46905762,0.01315758
3836.39786499,0.01254205
3838.32667236,0.01111444
3840.25547974,0.01220136
3842.18428711,0.01339111
3844.11309448,0.01255763
3846.04190186,0.01389993
3847.97070923,0.01364949
3849.89951660,0.01365149
3851.82832397,0.01201994
3853.75713135,0.00848364
3855.68593872,0.01053272
3857.61474609,0.01353781
3859.54355347,0.01323969
3861.47236084,0.01308293
3863.40116821,0.01271611
3865.32997559,0.01174421
3867.25878296,0.01327351
3869.18759033,0.01194463
3871.11639770,0.01096782
3873.04520508,0.01342363
3874.97401245,0.01195351
3876.90281982,0.01316250
3878.83162720,0.01363019
3880.76043457,0.01122477
3882.68924194,0.01325453
3884.61804932,0.01227907
3886.54685669,0.01107758
3888.47566406,0.01335114
3890.40447144,0.01244648
3892.33327881,0.01147010
3894.26208618,0.01288552
3896.19089355,0.01326251
3898.11970093,0.01247654
3900.04850830,0.01169837
3901.97731567,0.01148652
3903.90612305,0.01129060
3905.83493042,0.01163933
3907.76373779,0.01299413
3909.69254517,0.01295573
3911.62135254,0.01272840
3913.55015991,0.01298943
3915.47896728,0.01251532
3917.40777466,0.01203084
3919.33658203,0.01203289
3921.26538940,0.01260045
3923.19419678,0.01241991
3925.12300415,0.01218749
3927.05181152,0.01234589
3928.98061890,0.01248355
3930.90942627,0.01228472
3932.83823364,0.01173032
3934.76704102,0.01238864
3936.69584839,0.01260390
3938.62465576,0.01240856
3940.55346313,0.01250676
3942.48227051,0.01205527
3944.41107788,0.01215610
3946.33988525,0.01231665
3948.26869263,0.01202023
3950.19750000,0.01196306
3952.12630737,0.01222451
3954.05511475,0.01225131
3955.98392212,0.01217336
3957.91272949,0.01211975
3959.84153687,0.01210375
3961.77034424,0.01209143
3963.69915161,0.01207255
3965.62795898,0.01229793
3967.55676636,0.01202799
3969.48557373,0.01193291
3971.41438110,0.01202047
3973.34318848,0.01196907
3975.27199585,0.01204665
3977.20080322,0.01196255
3979.12961060,0.01206336
3981.05841797,0.01188294
3982.98722534,0.01195026
3984.91603271,0.01198799
3986.84484009,0.01181501
3988.77364746,0.01187038
3990.70245483,0.01169914
3992.63126221,0.01183059
3994.56006958,0.01174297
3996.48887695,0.01170355
3998.41768433,0.01176701
4000.34649170,0.01167157
4002.27529907,0.01169427
4004.20410645,0.01158758
4006.13291382,0.01167941
4008.06172119,0.01158762
4009.99052856,0.01152886
4011.91933594,0.01150236
4013.84814331,0.01148780
4015.77695068,0.01154645
4017.70575806,0.01145083
4019.63456543,0.01149399
4021.56337280,0.01140066
4023.49218018,0.01141973
4025.42098755,0.01132183
4027.34979492,0.01124831
4029.27860229,0.01135251
4031.20740967,0.01130589
4033.13621704,0.01132749
4035.06502441,0.01126700
4036.99383179,0.01121923
4038.92263916,0.01114128
4040.85144653,0.01126896
4042.78025391,0.01121248
4044.70906128,0.01103862
4046.63786865,0.01114266
4048.56667603,0.01105964
4050.49548340,0.01104691
4052.42429077,0.01095143
4054.35309814,0.01095593
4056.28190552,0.01097850
4058.21071289,0.01093675
4060.13952026,0.01097135
4062.06832764,0.01084861
4063.99713501,0.01090886
4065.92594238,0.01091184
4067.85474976,0.01084470
4069.78355713,0.01077995
4071.71236450,0.01076491
4073.64117187,0.01073456
4075.56997925,0.01068685
4077.49878662,0.01077328
4079.42759399,0.01069579
4081.35640137,0.01064876
4083.28520874,0.01057309
4085.21401611,0.01062795
4087.14282349,0.01064533
4089.07163086,0.01054009
4091.00043823,0.01060378
4092.92924561,0.01055967
4094.85805298,0.01053772
4096.78686035,0.01045288
4098.71566772,0.01045202
4100.64447510,0.01040541
4102.57328247,0.01031018
4104.50208984,0.01036947
4106.43089722,0.01029373
4108.35970459,0.01028962
4110.28851196,0.01032123
4112.21731934,0.01037491
4114.14612671,0.01032277
4116.07493408,0.01021717
4118.00374145,0.01024500
4119.93254883,0.01027096
4121.86135620,0.01025001
4123.79016357,0.01019664
4125.71897095,0.01017868
4127.64777832,0.01009800
4129.57658569,0.01013218
4131.50539307,0.01008561
4133.43420044,0.01005566
4135.36300781,0.01013071
4137.29181519,0.01003595
4139.22062256,0.00994797
4141.14942993,0.00990119
4143.07823730,0.00998139
4145.00704468,0.00984559
4146.93585205,0.00980240
4148.86465942,0.00989551
4150.79346680,0.00986623
4152.72227417,0.00994611
4154.65108154,0.00984348
4156.57988892,0.00984043
4158.50869629,0.00975025
4160.43750366,0.00971270
4162.36631103,0.00978385
4164.29511841,0.00966180
4166.22392578,0.00967725
4168.15273315,0.00965720
4170.08154053,0.00965980
4172.01034790,0.00960352
4173.93915527,0.00962243
4175.86796265,0.00959903
4177.79677002,0.00954653
4179.72557739,0.00954031
4181.65438477,0.00939507
4183.58319214,0.00950187
4185.51199951,0.00943432
4187.44080688,0.00938985
4189.36961426,0.00941642
4191.29842163,0.00940010
4193.22722900,0.00936739
4195.15603638,0.00922311
4197.08484375,0.00939602
4199.01365112,0.00926866
4200.94245850,0.00925644
4202.87126587,0.00930676
4204.80007324,0.00913107
4206.72888062,0.00929741
4208.65768799,0.00924302
4210.58649536,0.00918910
4212.51530273,0.00916504
4214.44411011,0.00913388
4216.37291748,0.00916512
4218.30172485,0.00910069
4220.23053223,0.00909673
4222.15933960,0.00903346
4224.08814697,0.00908796
4226.01695435,0.00910337
4227.94576172,0.00900347
4229.87456909,0.00896759
4231.80337646,0.00901110
4233.73218384,0.00897927
4235.66099121,0.00887681
4237.58979858,0.00883375
4239.51860596,0.00879833
4241.44741333,0.00890477
4243.37622070,0.00884549
4245.30502808,0.00874852
4247.23383545,0.00881995
4249.16264282,0.00883031
4251.09145020,0.00875284
4253.02025757,0.00869319
4254.94906494,0.00876836
4256.87787231,0.00867405
4258.80667969,0.00866076
4260.73548706,0.00875815
4262.66429443,0.00865835
4264.59310181,0.00861512
4266.52190918,0.00861018
4268.45071655,0.00861277
4270.37952393,0.00862591
4272.30833130,0.00854323
4274.23713867,0.00858102
4276.16594604,0.00869531
4278.09475342,0.00856118
4280.02356079,0.00853194
4281.95236816,0.00849229
4283.88117554,0.00843881
4285.80998291,0.00847727
4287.73879028,0.00833699
4289.66759766,0.00845534
4291.59640503,0.00837723
4293.52521240,0.00823642
4295.45401978,0.00833938
4297.38282715,0.00832930
4299.31163452,0.00833211
4301.24044189,0.00819747
4303.16924927,0.00829219
4305.09805664,0.00822688
4307.02686401,0.00812619
4308.95567139,0.00826297
4310.88447876,0.00815690
4312.81328613,0.00819639
4314.74209351,0.00809899
4316.67090088,0.00806386
4318.59970825,0.00816651
4320.52851562,0.00807472
4322.45732300,0.00802528
4324.38613037,0.00804140
4326.31493774,0.00810155
4328.24374512,0.00803395
4330.17255249,0.00801308
4332.10135986,0.00797772
4334.03016724,0.00793332
4335.95897461,0.00791137
4337.88778198,0.00785845
4339.81658936,0.00788032
4341.74539673,0.00789633
4343.67420410,0.00797148
4345.60301147,0.00793529
4347.53181885,0.00788420
4349.46062622,0.00778127
4351.38943359,0.00775624
4353.31824097,0.00782095
4355.24704834,0.00778652
4357.17585571,0.00780063
4359.10466309,0.00764994
4361.03347046,0.00768431
4362.96227783,0.00770075
4364.89108520,0.00766416
4366.81989258,0.00769583
4368.74869995,0.00757488
4370.67750732,0.00766254
4372.60631470,0.00760758
4374.53512207,0.00761068
4376.46392944,0.00758673
4378.39273682,0.00745270
4380.32154419,0.00755782
4382.25035156,0.00747811
4384.17915894,0.00742060
4386.10796631,0.00744790
4388.03677368,0.00753910
4389.96558105,0.00753562
4391.89438843,0.00739408
4393.82319580,0.00739745
4395.75200317,0.00735160
4397.68081055,0.00732054
4399.60961792,0.00732140
4401.53842529,0.00730333
4403.46723267,0.00731852
4405.39604004,0.00738746
4407.32484741,0.00731962
4409.25365478,0.00728111
4411.18246216,0.00733539
4413.11126953,0.00718683
4415.04007690,0.00714656
4416.96888428,0.00714833
4418.89769165,0.00717590
4420.82649902,0.00715418
4422.75530640,0.00705644
4424.68411377,0.00715498
4426.61292114,0.00713434
4428.54172852,0.00709296
4430.47053589,0.00710395
4432.39934326,0.00702181
4434.32815063,0.00698415
4436.25695801,0.00703103
4438.18576538,0.00700199
4440.11457275,0.00692461
4442.04338013,0.00697495
4443.97218750,0.00694273
4445.90099487,0.00688115
4447.82980225,0.00687814
4449.75860962,0.00688446
4451.68741699,0.00689875
4453.61622437,0.00684839
4455.54503174,0.00687326
4457.47383911,0.00686607
4459.40264648,0.00674917
4461.33145386,0.00676883
4463.26026123,0.00679871
4465.18906860,0.00679169
4467.11787598,0.00686246
4469.04668335,0.00676535
4470.97549072,0.00672277
4472.90429810,0.00675207
4474.83310547,0.00666979
4476.76191284,0.00667131
4478.69072021,0.00662130
4480.61952759,0.00665814
4482.54833496,0.00663496
4484.47714233,0.00655064
4486.40594971,0.00664191
4488.33475708,0.00666790
4490.26356445,0.00661466
4492.19237183,0.00649254
4494.12117920,0.00654578
4496.04998657,0.00657831
4497.97879395,0.00648820
4499.90760132,0.00647903
4501.83640869,0.00643533
4503.76521606,0.00648971
4505.69402344,0.00645635
4507.62283081,0.00641855
4509.55163818,0.00644259
4511.48044556,0.00638440
4513.40925293,0.00633807
4515.33806030,0.00634157
4517.26686768,0.00635553
4519.19567505,0.00628439
4521.12448242,0.00634040
4523.05328979,0.00634654
4524.98209717,0.00626638
4526.91090454,0.00626437
4528.83971191,0.00623548
4530.76851929,0.00623910
4532.69732666,0.00626236
4534.62613403,0.00627436
4536.55494141,0.00615802
4538.48374878,0.00612415
4540.41255615,0.00619574
4542.34136353,0.00625053
4544.27017090,0.00623867
4546.19897827,0.00609857
4548.12778564,0.00603634
4550.05659302,0.00601091
4551.98540039,0.00612704
4553.91420776,0.00611748
4555.84301514,0.00603774
4557.77182251,0.00608272
4559.70062988,0.00600679
4561.62943726,0.00602928
4563.55824463,0.00599111
4565.48705200,0.00597646
4567.41585937,0.00598660
4569.34466675,0.00593895
4571.27347412,0.00590559
4573.20228149,0.00589164
4575.13108887,0.00599214
4577.05989624,0.00582936
4578.98870361,0.00585124
4580.91751099,0.00596587
4582.84631836,0.00581133
4584.77512573,0.00583557
4586.70393311,0.00580505
4588.63274048,0.00579130
4590.56154785,0.00582162
4592.49035522,0.00575830
4594.41916260,0.00569434
4596.34796997,0.00573290
4598.27677734,0.00580601
4600.20558472,0.00572105
4602.13439209,0.00571299
4604.06319946,0.00571502
4605.99200684,0.00566901
4607.92081421,0.00568379
4609.84962158,0.00572972
4611.77842895,0.00570626
4613.70723633,0.00563804
4615.63604370,0.00565134
4617.56485107,0.00558581
4619.49365845,0.00555288
4621.42246582,0.00559211
4623.35127319,0.00557058
4625.28008057,0.00551733
4627.20888794,0.00551850
4629.13769531,0.00551585
4631.06650269,0.00547272
4632.99531006,0.00548937
4634.92411743,0.00542619
4636.85292480,0.00545652
4638.78173218,0.00545986
4640.71053955,0.00536612
4642.63934692,0.00537896
4644.56815430,0.00535847
4646.49696167,0.00547226
4648.42576904,0.00541413
4650.35457642,0.00531854
4652.28338379,0.00542245
4654.21219116,0.00530061
4656.14099853,0.00531279
4658.06980591,0.00539240
4659.99861328,0.00537624
4661.92742065,0.00535170
4663.85622803,0.00521553
4665.78503540,0.00525994
4667.71384277,0.00528691
4669.64265015,0.00525584
4671.57145752,0.00526467
4673.50026489,0.00516505
4675.42907227,0.00520028
4677.35787964,0.00517932
4679.28668701,0.00504270
4681.21549438,0.00509134
4683.14430176,0.00519172
4685.07310913,0.00511463
4687.00191650,0.00501502
4688.93072388,0.00511495
4690.85953125,0.00507936
4692.78833862,0.00501369
4694.71714600,0.00511017
4696.64595337,0.00505812
4698.57476074,0.00499917
4700.50356812,0.00501509
4702.43237549,0.00500507
4704.36118286,0.00499554
4706.28999023,0.00504518
4708.21879761,0.00501554
4710.14760498,0.00494711
4712.07641235,0.00502206
4714.00521973,0.00498738
4715.93402710,0.00491583
4717.86283447,0.00489347
4719.79164185,0.00489881
4721.72044922,0.00497300
4723.64925659,0.00497318
4725.57806396,0.00486382
4727.50687134,0.00480474
4729.43567871,0.00489014
4731.36448608,0.00480186
4733.29329346,0.00473810
4735.22210083,0.00483156
4737.15090820,0.00485483
4739.07971558,0.00482229
4741.00852295,0.00476036
4742.93733032,0.00486890
4744.86613770,0.00479036
4746.79494507,0.00470457
4748.72375244,0.00477763
4750.65255981,0.00469207
4752.58136719,0.00476222
4754.51017456,0.00471236
4756.43898193,0.00463651
4758.36778931,0.00466945
4760.29659668,0.00461935
4762.22540405,0.00465766
4764.15421143,0.00462454
4766.08301880,0.00463105
4768.01182617,0.00466273
4769.94063354,0.00460010
4771.86944092,0.00454045
4773.79824829,0.00456904
4775.72705566,0.00463589
4777.65586304,0.00461681
4779.58467041,0.00461778
4781.51347778,0.00458037
4783.44228516,0.00456765
4785.37109253,0.00457696
4787.29989990,0.00452436
4789.22870728,0.00447803
4791.15751465,0.00444837
4793.08632202,0.00445851
4795.01512939,0.00445998
4796.94393677,0.00447833
4798.87274414,0.00445325
4800.80155151,0.00444283
4802.73035889,0.00443882
4804.65916626,0.00438608
4806.58797363,0.00440770
4808.51678101,0.00437021
4810.44558838,0.00436715
4812.37439575,0.00439432
4814.30320312,0.00433070
4816.23201050,0.00434445
4818.16081787,0.00433705
4820.08962524,0.00431788
4822.01843262,0.00437536
4823.94723999,0.00432762
4825.87604736,0.00426131
4827.80485474,0.00426730
4829.73366211,0.00427386
4831.66246948,0.00431236
4833.59127686,0.00430148
4835.52008423,0.00427901
4837.44889160,0.00423826
4839.37769897,0.00418732
4841.30650635,0.00421131
4843.23531372,0.00424458
4845.16412109,0.00427429
4847.09292847,0.00418869
4849.02173584,0.00415700
4850.95054321,0.00416878
4852.87935059,0.00412271
4854.80815796,0.00419190
4856.73696533,0.00416788
4858.66577270,0.00413472
4860.59458008,0.00416229
4862.52338745,0.00410638
4864.45219482,0.00406510
4866.38100220,0.00410214
4868.30980957,0.00414017
4870.23861694,0.00408050
4872.16742432,0.00403467
4874.09623169,0.00405498
4876.02503906,0.00408909
4877.95384644,0.00398940
4879.88265381,0.00396983
4881.81146118,0.00407409
4883.74026855,0.00398177
4885.66907593,0.00395523
4887.59788330,0.00394842
4889.52669067,0.00393335
4891.45549805,0.00401229
4893.38430542,0.00396002
4895.31311279,0.00387852
4897.24192017,0.00392779
4899.17072754,0.00399293
4901.09953491,0.00391824
4903.02834228,0.00388882
4904.95714966,0.00388726
4906.88595703,0.00388106
4908.81476440,0.00389588
4910.74357178,0.00385081
4912.67237915,0.00387042
4914.60118652,0.00380851
4916.52999390,0.00379374
4918.45880127,0.00381304
4920.38760864,0.00377638
4922.31641602,0.00380931
4924.24522339,0.00375238
4926.17403076,0.00379497
4928.10283813,0.00382240
4930.03164551,0.00371834
4931.96045288,0.00368138
4933.88926025,0.00369496
4935.81806763,0.00370080
4937.74687500,0.00369337
4939.67568237,0.00376568
4941.60448975,0.00370497
4943.53329712,0.00367973
4945.46210449,0.00368373
4947.39091187,0.00358025
4949.31971924,0.00370444
4951.24852661,0.00366731
4953.17733398,0.00362216
4955.10614136,0.00373413
4957.03494873,0.00362819
4958.96375610,0.00362628
4960.89256348,0.00358216
4962.82137085,0.00355147
4964.75017822,0.00363066
4966.67898560,0.00350654
4968.60779297,0.00355666
4970.53660034,0.00362843
4972.46540771,0.00355557
4974.39421509,0.00356846
4976.32302246,0.00348988
4978.25182983,0.00350658
4980.18063721,0.00358581
4982.10944458,0.00354225
4984.03825195,0.00347601
4985.96705933,0.00340827
4987.89586670,0.00346282
4989.82467407,0.00346430
4991.75348145,0.00339328
4993.68228882,0.00340802
4995.61109619,0.00341990
4997.53990356,0.00347025
4999.46871094,0.00343026
5001.39751831,0.00340067
5003.32632568,0.00345408
5005.25513306,0.00337184
5007.18394043,0.00337167
5009.11274780,0.00338883
5011.04155518,0.00332688
5012.97036255,0.00332654
5014.89916992,0.00331999
5016.82797729,0.00333783
5018.75678467,0.00328776
5020.68559204,0.00333279
5022.61439941,0.00338509
5024.54320679,0.00327472
5026.47201416,0.00333053
5028.40082153,0.00327811
5030.32962891,0.00322792
5032.25843628,0.00331999
5034.18724365,0.00326343
5036.11605103,0.00327362
5038.04485840,0.00323045
5039.97366577,0.00318443
5041.90247314,0.00326048
5043.83128052,0.00325672
5045.76008789,0.00320581
5047.68889526,0.00321861
5049.61770264,0.00322845
5051.54651001,0.00310333
5053.47531738,0.00310264
5055.40412476,0.00318339
5057.33293213,0.00318285
5059.26173950,0.00313175
5061.19054687,0.00309212
5063.11935425,0.00316185
5065.04816162,0.00309439
5066.97696899,0.00312147
5068.90577637,0.00319118
5070.83458374,0.00308998
5072.76339111,0.00313351
5074.69219849,0.00311423
5076.62100586,0.00309775
5078.54981323,0.00313669
5080.47862061,0.00305951
5082.40742798,0.00304289
5084.33623535,0.00305041
5086.26504272,0.00304755
5088.19385010,0.00301386
5090.12265747,0.00303043
5092.05146484,0.00308919
5093.98027222,0.00301897
5095.90907959,0.00295211
5097.83788696,0.00293035
5099.76669434,0.00297184
5101.69550171,0.00299449
5103.62430908,0.00295318
5105.55311645,0.00301540
5107.48192383,0.00295026
5109.41073120,0.00289337
5111.33953857,0.00295896
5113.26834595,0.00290013
5115.19715332,0.00290097
5117.12596069,0.00287831
5119.05476807,0.00289933
5120.98357544,0.00292241
5122.91238281,0.00285632
5124.84119019,0.00293823
5126.76999756,0.00289451
5128.69880493,0.00287233
5130.62761230,0.00286240
5132.55641968,0.00278311
5134.48522705,0.00286497
5136.41403442,0.00285229
5138.34284180,0.00290841
5140.27164917,0.00292482
5142.20045654,0.00274477
5144.12926392,0.00271712
5146.05807129,0.00279145
5147.98687866,0.00284607
5149.91568603,0.00281843
5151.84449341,0.00275665
5153.77330078,0.00277237
5155.70210815,0.00278801
5157.63091553,0.00272565
5159.55972290,0.00272927
5161.48853027,0.00277190
5163.41733765,0.00273688
5165.34614502,0.00271620
5167.27495239,0.00271188
5169.20375977,0.00273966
5171.13256714,0.00274190
5173.06137451,0.00271934
5174.99018188,0.00264678
5176.91898926,0.00262013
5178.84779663,0.00270144
5180.77660400,0.00264836
5182.70541138,0.00264418
5184.63421875,0.00261475
5186.56302612,0.00253998
5188.49183350,0.00260384
5190.42064087,0.00257746
5192.34944824,0.00265075
5194.27825562,0.00271726
5196.20706299,0.00256864
5198.13587036,0.00257899
5200.06467773,0.00263973
5201.99348511,0.00259112
5203.92229248,0.00261471
5205.85109985,0.00255380
5207.77990723,0.00245371
5209.70871460,0.00252510
5211.63752197,0.00258348
5213.56632935,0.00258158
5215.49513672,0.00255614
5217.42394409,0.00250930
5219.35275146,0.00252894
5221.28155884,0.00260339
5223.21036621,0.00260057
5225.13917358,0.00253357
5227.06798096,0.00250932
5228.99678833,0.00246234
5230.92559570,0.00244951
5232.85440308,0.00245756
5234.78321045,0.00246690
5236.71201782,0.00251264
5238.64082520,0.00250674
5240.56963257,0.00250136
5242.49843994,0.00248207
5244.42724731,0.00243308
5246.35605469,0.00240187
5248.28486206,0.00238796
5250.21366943,0.00236218
5252.14247681,0.00238649
5254.07128418,0.00241718
5256.00009155,0.00238607
5257.92889893,0.00244208
5259.85770630,0.00242559
5261.78651367,0.00234277
5263.71532104,0.00234350
5265.64412842,0.00235810
5267.57293579,0.00238532
5269.50174316,0.00235698
5271.43055054,0.00236226
5273.35935791,0.00243940
5275.28816528,0.00240558
5277.21697266,0.00234827
5279.14578003,0.00236989
5281.07458740,0.00229554
5283.00339478,0.00233119
5284.93220215,0.00237696
5286.86100952,0.00229957
5288.78981689,0.00239090
5290.71862427,0.00226453
5292.64743164,0.00222318
5294.57623901,0.00237526
5296.50504639,0.00231228
5298.43385376,0.00236150
5300.36266113,0.00232385
5302.29146851,0.00224493
5304.22027588,0.00229286
5306.14908325,0.00230894
5308.07789062,0.00225984
5310.00669800,0.00227173
5311.93550537,0.00228955
5313.86431274,0.00218387
5315.79312012,0.00228593
5317.72192749,0.00224667
5319.65073486,0.00216947
5321.57954224,0.00222001
5323.50834961,0.00215361
5325.43715698,0.00224441
5327.36596436,0.00214707
5329.29477173,0.00207688
5331.22357910,0.00215985
5333.15238647,0.00212910
5335.08119385,0.00220246
5337.01000122,0.00213845
5338.93880859,0.00200763
5340.86761597,0.00209101
5342.79642334,0.00211557
5344.72523071,0.00197879
5346.65403809,0.00204583
5348.58284546,0.00211146
5350.51165283,0.00206165
5352.44046020,0.00203339
5354.36926758,0.00198356
5356.29807495,0.00210658
5358.22688232,0.00212913
5360.15568970,0.00212986
5362.08449707,0.00209915
5364.01330444,0.00201127
5365.94211182,0.00208582
5367.87091919,0.00204369
5369.79972656,0.00209289
5371.72853394,0.00211779
5373.65734131,0.00204580
5375.58614868,0.00197527
5377.51495605,0.00189154
5379.44376343,0.00198538
5381.37257080,0.00203525
5383.30137817,0.00205910
5385.23018555,0.00197530
5387.15899292,0.00192779
5389.08780029,0.00204862
5391.01660767,0.00202820
5392.94541504,0.00196447
5394.87422241,0.00196461
5396.80302978,0.00203503
5398.73183716,0.00200720
5400.66064453,0.00196504
5402.58945190,0.00202017
5404.51825928,0.00202279
5406.44706665,0.00197542
5408.37587402,0.00193508
5410.30468140,0.00199765
5412.23348877,0.00193541
5414.16229614,0.00181456
5416.09110352,0.00191253
5418.01991089,0.00196976
5419.94871826,0.00191485
5421.87752563,0.00196380
5423.80633301,0.00197600
5425.73514038,0.00191757
5427.66394775,0.00188376
5429.59275513,0.00179275
5431.52156250,0.00186926
5433.45036987,0.00189870
5435.37917725,0.00182403
5437.30798462,0.00193518
5439.23679199,0.00188619
5441.16559936,0.00179447
5443.09440674,0.00182323
5445.02321411,0.00185174
5446.95202148,0.00189055
5448.88082886,0.00184525
5450.80963623,0.00181103
5452.73844360,0.00183080
5454.66725098,0.00187693
5456.59605835,0.00189587
5458.52486572,0.00181770
5460.45367310,0.00176865
5462.38248047,0.00178644
5464.31128784,0.00177202
5466.24009521,0.00177669
5468.16890259,0.00179231
5470.09770996,0.00174892
5472.02651733,0.00175617
5473.95532471,0.00182423
5475.88413208,0.00177247
5477.81293945,0.00168439
5479.74174683,0.00179028
5481.67055420,0.00180368
5483.59936157,0.00170941
5485.52816895,0.00174842
5487.45697632,0.00180285
5489.38578369,0.00185458
5491.31459106,0.00175074
5493.24339844,0.00166181
5495.17220581,0.00175443
5497.10101318,0.00176164
5499.02982056,0.00168141
5500.95862793,0.00165344
5502.88743530,0.00169201
5504.81624268,0.00166106
5506.74505005,0.00167175
5508.67385742,0.00170719
5510.60266479,0.00165275
5512.53147217,0.00166952
5514.46027954,0.00172257
5516.38908691,0.00167619
5518.31789429,0.00164324
5520.24670166,0.00169175
5522.17550903,0.00166015
5524.10431641,0.00176458
5526.03312378,0.00179745
5527.96193115,0.00165065
5529.89073853,0.00167261
5531.81954590,0.00163045
5533.74835327,0.00166453
5535.67716064,0.00164261
5537.60596802,0.00157680
5539.53477539,0.00167891
5541.46358276,0.00165641
5543.39239014,0.00167545
5545.32119751,0.00162852
5547.25000488,0.00164144
5549.17881226,0.00172302
5551.10761963,0.00161543
5553.03642700,0.00164661
5554.96523437,0.00167928
5556.89404175,0.00159950
5558.82284912,0.00156864
5560.75165649,0.00154091
5562.68046387,0.00155882
5564.60927124,0.00164144
5566.53807861,0.00159520
5568.46688599,0.00150617
5570.39569336,0.00152950
5572.32450073,0.00156525
5574.25330811,0.00160845
5576.18211548,0.00154269
5578.11092285,0.00148828
5580.03973022,0.00151873
5581.96853760,0.00154414
5583.89734497,0.00159007
5585.82615234,0.00155183
5587.75495972,0.00149616
5589.68376709,0.00152356
5591.61257446,0.00157312
5593.54138184,0.00151222
5595.47018921,0.00152360
5597.39899658,0.00156085
5599.32780395,0.00148503
5601.25661133,0.00152158
5603.18541870,0.00148599
5605.11422607,0.00144798
5607.04303345,0.00149001
5608.97184082,0.00148688
5610.90064819,0.00148938
5612.82945557,0.00145330
5614.75826294,0.00149109
5616.68707031,0.00148953
5618.61587769,0.00139267
5620.54468506,0.00143208
5622.47349243,0.00147888
5624.40229980,0.00141580
5626.33110718,0.00144417
5628.25991455,0.00146010
5630.18872192,0.00141638
5632.11752930,0.00143260
5634.04633667,0.00144728
5635.97514404,0.00146295
5637.90395142,0.00134799
5639.83275879,0.00137514
5641.76156616,0.00147769
5643.69037353,0.00136455
5645.61918091,0.00138502
5647.54798828,0.00137878
5649.47679565,0.00131505
5651.40560303,0.00137491
5653.33441040,0.00143100
5655.26321777,0.00137859
5657.19202515,0.00136106
5659.12083252,0.00143374
5661.04963989,0.00137571
5662.97844727,0.00137027
5664.90725464,0.00138290
5666.83606201,0.00138844
5668.76486938,0.00136630
5670.69367676,0.00133273
5672.62248413,0.00141265
5674.55129150,0.00133189
5676.48009888,0.00132375
5678.40890625,0.00134995
5680.33771362,0.00126459
5682.26652100,0.00126486
5684.19532837,0.00133920
5686.12413574,0.00139525
5688.05294311,0.00130906
5689.98175049,0.00132541
5691.91055786,0.00131702
5693.83936523,0.00127713
5695.76817261,0.00133355
5697.69697998,0.00131340
5699.62578735,0.00131100
5701.55459473,0.00127446
5703.48340210,0.00126944
5705.41220947,0.00120826
5707.34101685,0.00120530
5709.26982422,0.00131150
5711.19863159,0.00124030
5713.12743896,0.00128054
5715.05624634,0.00133365
5716.98505371,0.00129222
5718.91386108,0.00132099
5720.84266846,0.00127247
5722.77147583,0.00124221
5724.70028320,0.00123652
5726.62909058,0.00116763
5728.55789795,0.00120629
5730.48670532,0.00123295
5732.41551270,0.00119851
5734.34432007,0.00128643
5736.27312744,0.00126964
5738.20193481,0.00122070
5740.13074219,0.00126489
5742.05954956,0.00123513
5743.98835693,0.00120533
5745.91716431,0.00118527
5747.84597168,0.00119113
5749.77477905,0.00118245
5751.70358643,0.00121540
5753.63239380,0.00125911
5755.56120117,0.00118078
5757.49000854,0.00120169
5759.41881592,0.00125422
5761.34762329,0.00122100
5763.27643066,0.00121711
5765.20523804,0.00117590
5767.13404541,0.00115704
5769.06285278,0.00123148
5770.99166016,0.00121697
5772.92046753,0.00120769
5774.84927490,0.00124610
5776.77808228,0.00118928
5778.70688965,0.00121479
5780.63569702,0.00122588
5782.56450439,0.00111539
5784.49331177,0.00109358
5786.42211914,0.00114051
5788.35092651,0.00108918
5790.27973389,0.00106691
5792.20854126,0.00113332
5794.13734863,0.00109421
5796.06615601,0.00114577
5797.99496338,0.00114894
5799.92377075,0.00106905
5801.85257812,0.00116974
5803.78138550,0.00113729
5805.71019287,0.00111675
5807.63900024,0.00112936
5809.56780762,0.00106941
5811.49661499,0.00113909
5813.42542236,0.00108469
5815.35422974,0.00104570
5817.28303711,0.00110991
5819.21184448,0.00111874
5821.14065186,0.00115411
5823.06945923,0.00102265
5824.99826660,0.00098851
5826.92707397,0.00112607
5828.85588135,0.00108134
5830.78468872,0.00112763
5832.71349609,0.00113553
5834.64230347,0.00102874
5836.57111084,0.00105936
5838.49991821,0.00103916
5840.42872559,0.00100565
5842.35753296,0.00103680
5844.28634033,0.00109796
5846.21514770,0.00105551
5848.14395508,0.00100073
5850.07276245,0.00104307
5852.00156982,0.00101089
5853.93037720,0.00104899
5855.85918457,0.00106760
5857.78799194,0.00102183
5859.71679932,0.00098679
5861.64560669,0.00102100
5863.57441406,0.00109447
5865.50322144,0.00100614
5867.43202881,0.00103705
5869.36083618,0.00105620
5871.28964355,0.00098426
5873.21845093,0.00102101
5875.14725830,0.00099338
5877.07606567,0.00095062
5879.00487305,0.00094992
5880.93368042,0.00097346
5882.86248779,0.00095219
5884.79129517,0.00100905
5886.72010254,0.00107384
5888.64890991,0.00098145
5890.57771728,0.00093590
5892.50652466,0.00093780
5894.43533203,0.00098814
5896.36413940,0.00097044
5898.29294678,0.00093729
5900.22175415,0.00097422
5902.15056152,0.00097022
5904.07936890,0.00099220
5906.00817627,0.00096631
5907.93698364,0.00096144
5909.86579102,0.00095089
5911.79459839,0.00091503
5913.72340576,0.00093753
5915.65221313,0.00091870
5917.58102051,0.00093372
5919.50982788,0.00095048
5921.43863525,0.00092692
5923.36744263,0.00096110
5925.29625000,0.00098177
5927.22505737,0.00090863
5929.15386475,0.00087613
5931.08267212,0.00090229
5933.01147949,0.00086358
5934.94028686,0.00082537
5936.86909424,0.00088475
5938.79790161,0.00091327
5940.72670898,0.00082525
5942.65551636,0.00087427
5944.58432373,0.00093864
5946.51313110,0.00088437
5948.44193848,0.00092242
5950.37074585,0.00093087
5952.29955322,0.00090203
5954.22836060,0.00090877
5956.15716797,0.00088800
5958.08597534,0.00085424
5960.01478271,0.00086456
5961.94359009,0.00086760
5963.87239746,0.00086586
5965.80120483,0.00092036
5967.73001221,0.00085628
5969.65881958,0.00083127
5971.58762695,0.00090872
5973.51643433,0.00085263
5975.44524170,0.00086122
5977.37404907,0.00090996
5979.30285645,0.00081220
5981.23166382,0.00079256
5983.16047119,0.00080469
5985.08927856,0.00077262
5987.01808594,0.00087048
5988.94689331,0.00089115
5990.87570068,0.00084004
5992.80450806,0.00080678
5994.73331543,0.00075520
5996.66212280,0.00080370
5998.59093018,0.00081230
6000.51973755,0.00081356
