399.26312622,0.00030077
401.19193359,0.00093844
403.12074097,0.00031404
405.04954834,0.00067793
406.97835571,0.00089749
408.90716309,0.00045599
410.83597046,0.00052089
412.76477783,0.00052265
414.69358521,0.00079442
416.62239258,0.00103273
418.55119995,0.00076609
420.48000732,0.00034348
422.40881470,0.00042313
424.33762207,0.00075002
426.26642944,0.00090706
428.19523682,0.00082244
430.12404419,0.00063334
432.05285156,0.00081950
433.98165894,0.00067061
435.91046631,0.00034721
437.83927368,0.00061395
439.76808105,0.00079449
441.69688843,0.00063743
443.62569580,0.00059219
445.55450317,0.00043914
447.48331055,0.00045965
449.41211792,0.00057188
451.34092529,0.00030404
453.26973267,0.00058741
455.19854004,0.00081279
457.12734741,0.00066714
459.05615479,0.00067222
460.98496216,0.00055001
462.91376953,0.00057481
464.84257690,0.00043221
466.77138428,0.00043385
468.70019165,0.00059392
470.62899902,0.00050406
472.55780640,0.00009986
474.48661377,-0.00001163
476.41542114,0.00033219
478.34422852,0.00015693
480.27303589,0.00031641
482.20184326,0.00032463
484.13065063,0.00022045
486.05945801,0.00059337
487.98826538,0.00022525
489.91707275,0.00013585
491.84588013,0.00022629
493.77468750,0.00004038
495.70349487,0.00002771
497.63230225,-0.00021799
499.56110962,-0.00001121
501.48991699,0.00030584
503.41872437,0.00007982
505.34753174,-0.00005763
507.27633911,0.00009546
509.20514648,0.00016103
511.13395386,0.00009353
513.06276123,0.00020792
514.99156860,0.00017795
516.92037598,-0.00006474
518.84918335,0.00016060
520.77799072,0.00034887
522.70679810,0.00000781
524.63560547,0.00004702
526.56441284,0.00031484
528.49322021,0.00048322
530.42202759,0.00048419
532.35083496,0.00023060
534.27964233,0.00019013
536.20844971,0.00013590
538.13725708,0.00000489
540.06606445,-0.00003517
541.99487183,-0.00007504
543.92367920,0.00003245
545.85248657,0.00008908
547.78129395,0.00036184
549.71010132,0.00056147
551.63890869,0.00015054
553.56771606,0.00008291
555.49652344,0.00031832
557.42533081,0.00001689
559.35413818,-0.00002846
561.28294556,0.00034365
563.21175293,0.00001778
565.14056030,0.00005533
567.06936768,0.00048560
568.99817505,0.00029704
570.92698242,0.00019335
572.85578979,-0.00005439
574.78459717,-0.00020465
576.71340454,0.00025916
578.64221191,0.00042132
580.57101929,0.00040268
582.49982666,0.00034823
584.42863403,0.00009181
586.35744141,0.00009694
588.28624878,0.00009691
590.21505615,0.00007623
592.14386353,0.00023692
594.07267090,0.00002597
596.00147827,0.00015505
597.93028564,0.00023248
599.85909302,-0.00009609
601.78790039,0.00011054
603.71670776,-0.00001885
605.64551514,-0.00020769
607.57432251,-0.00012647
609.50312988,0.00019213
611.43193726,0.00011192
613.36074463,-0.00020491
615.28955200,0.00025518
617.21835938,-0.00010732
619.14716675,-0.00031930
621.07597412,-0.00001315
623.00478149,-0.00009075
624.93358887,-0.00000264
626.86239624,-0.00004379
628.79120361,0.00023377
630.72001099,0.00036495
632.64881836,0.00027409
634.57762573,0.00055141
636.50643311,0.00066512
638.43524048,0.00055928
640.36404785,0.00043355
642.29285522,0.00072741
644.22166260,0.00095582
646.15046997,0.00074076
648.07927734,0.00091379
650.00808472,0.00101431
651.93689209,0.00099156
653.86569946,0.00115083
655.79450684,0.00096642
657.72331421,0.00096578
659.65212158,0.00124602
661.58092896,0.00147830
663.50973633,0.00136494
665.43854370,0.00105571
667.36735107,0.00128084
669.29615845,0.00126234
671.22496582,0.00114804
673.15377319,0.00138989
675.08258057,0.00159692
677.01138794,0.00164033
678.94019531,0.00155623
680.86900269,0.00200443
682.79781006,0.00189184
684.72661743,0.00138135
686.65542480,0.00156444
688.58423218,0.00142475
690.51303955,0.00138660
692.44184692,0.00164396
694.37065430,0.00168783
696.29946167,0.00196716
698.22826904,0.00234593
700.15707642,0.00217316
702.08588379,0.00207731
704.01469116,0.00234278
705.94349854,0.00203741
707.87230591,0.00172410
709.80111328,0.00141601
711.72992065,0.00098007
713.65872803,0.00069771
715.58753540,0.00030651
717.51634277,0.00038530
719.44515015,0.00033233
721.37395752,0.00013579
723.30276489,0.00025068
725.23157227,0.00000919
727.16037964,0.00002392
729.08918701,0.00025451
731.01799438,0.00028036
732.94680176,0.00022923
734.87560913,0.00005751
736.80441650,0.00024815
738.73322388,0.00008743
740.66203125,0.00001624
742.59083862,0.00036212
744.51964600,-0.00004306
746.44845337,0.00025699
748.37726074,0.00048251
750.30606812,0.00017638
752.23487549,0.00035759
754.16368286,0.00007899
756.09249023,0.00033909
758.02129761,0.00033819
759.95010498,0.00011964
761.87891235,0.00037151
763.80771973,0.00028569
765.73652710,0.00044089
767.66533447,0.00015122
769.59414185,0.00031515
771.52294922,0.00039376
773.45175659,-0.00008243
775.38056396,0.00032175
777.30937134,0.00031644
779.23817871,0.00036601
781.16698608,0.00031589
783.09579346,0.00017162
785.02460083,0.00062027
786.95340820,0.00036001
788.88221558,0.00019039
790.81102295,0.00024527
792.73983032,0.00031465
794.66863770,0.00041486
796.59744507,0.00030246
798.52625244,0.00062256
800.45505981,0.00034404
802.38386719,0.00007268
804.31267456,0.00043941
806.24148193,0.00014824
808.17028931,0.00004177
810.09909668,0.00024053
812.02790405,0.00017114
813.95671143,0.00031642
815.88551880,0.00008907
817.81432617,-0.00000576
819.74313354,0.00047765
821.67194092,0.00028346
823.60074829,0.00008285
825.52955566,0.00025510
827.45836304,0.00030855
829.38717041,0.00054002
831.31597778,0.00047493
833.24478516,0.00041939
835.17359253,0.00060149
837.10239990,0.00058099
839.03120728,0.00057742
840.96001465,0.00052041
842.88882202,0.00040550
844.81762939,0.00037524
846.74643677,0.00045781
848.67524414,0.00042890
850.60405151,0.00028802
852.53285889,0.00028843
854.46166626,0.00018894
856.39047363,0.00035708
858.31928101,0.00061688
860.24808838,0.00042584
862.17689575,0.00028658
864.10570313,0.00023723
866.03451050,0.00038754
867.96331787,0.00045285
869.89212524,0.00015222
871.82093262,0.00011061
873.74973999,0.00021226
875.67854736,0.00039895
877.60735474,0.00054910
879.53616211,0.00038899
881.46496948,0.00024079
883.39377686,0.00033489
885.32258423,0.00055083
887.25139160,0.00033412
889.18019897,0.00027548
891.10900635,0.00062690
893.03781372,0.00046722
894.96662109,0.00029073
896.89542847,0.00024673
898.82423584,0.00027056
900.75304321,0.00040017
902.68185059,0.00043509
904.61065796,0.00038749
906.53946533,0.00020386
908.46827271,0.00047177
910.39708008,0.00056423
912.32588745,0.00041340
914.25469482,0.00050913
916.18350220,0.00047910
918.11230957,0.00062723
920.04111694,0.00046085
921.96992432,0.00050367
923.89873169,0.00082171
925.82753906,0.00065287
927.75634644,0.00071058
929.68515381,0.00069785
931.61396118,0.00063828
933.54276855,0.00071542
935.47157593,0.00085802
937.40038330,0.00103465
939.32919067,0.00087677
941.25799805,0.00119334
943.18680542,0.00126028
945.11561279,0.00086850
947.04442017,0.00110674
948.97322754,0.00075702
950.90203491,0.00061400
952.83084229,0.00110125
954.75964966,0.00084714
956.68845703,0.00089508
958.61726440,0.00082456
960.54607178,0.00072766
962.47487915,0.00119938
964.40368652,0.00097575
966.33249390,0.00093106
968.26130127,0.00113662
970.19010864,0.00116971
972.11891602,0.00114912
974.04772339,0.00095605
975.97653076,0.00135482
977.90533813,0.00133939
979.83414551,0.00113352
981.76295288,0.00148589
983.69176025,0.00158405
985.62056763,0.00165823
987.54937500,0.00182389
989.47818237,0.00216199
991.40698975,0.00242726
993.33579712,0.00257583
995.26460449,0.00249990
997.19341187,0.00256048
999.12221924,0.00336004
1001.05102661,0.00349119
1002.97983398,0.00338173
1004.90864136,0.00375549
1006.83744873,0.00393541
1008.76625610,0.00418143
1010.69506348,0.00442219
1012.62387085,0.00472494
1014.55267822,0.00495342
1016.48148560,0.00500044
1018.41029297,0.00516076
1020.33910034,0.00552556
1022.26790771,0.00583730
1024.19671509,0.00606327
1026.12552246,0.00628986
1028.05432983,0.00621488
1029.98313721,0.00662045
1031.91194458,0.00682387
1033.84075195,0.00667793
1035.76955933,0.00715126
1037.69836670,0.00707523
1039.62717407,0.00702848
1041.55598145,0.00708192
1043.48478882,0.00680221
1045.41359619,0.00689722
1047.34240356,0.00685479
1049.27121094,0.00682437
1051.20001831,0.00669754
1053.12882568,0.00642297
1055.05763306,0.00630005
1056.98644043,0.00618342
1058.91524780,0.00610232
1060.84405518,0.00584351
1062.77286255,0.00560742
1064.70166992,0.00550692
1066.63047729,0.00532814
1068.55928467,0.00520857
1070.48809204,0.00515010
1072.41689941,0.00489989
1074.34570679,0.00462606
1076.27451416,0.00435139
1078.20332153,0.00426700
1080.13212891,0.00414331
1082.06093628,0.00376663
1083.98974365,0.00371394
1085.91855103,0.00333161
1087.84735840,0.00331753
1089.77616577,0.00345594
1091.70497314,0.00305740
1093.63378052,0.00326183
1095.56258789,0.00303462
1097.49139526,0.00272510
1099.42020264,0.00277037
1101.34901001,0.00268561
1103.27781738,0.00268310
1105.20662476,0.00266810
1107.13543213,0.00269551
1109.06423950,0.00244455
1110.99304687,0.00262612
1112.92185425,0.00257492
1114.85066162,0.00251839
1116.77946899,0.00275906
1118.70827637,0.00245055
1120.63708374,0.00263237
1122.56589111,0.00252855
1124.49469849,0.00250779
1126.42350586,0.00278754
1128.35231323,0.00272132
1130.28112061,0.00282206
1132.20992798,0.00261247
1134.13873535,0.00267478
1136.06754272,0.00294546
1137.99635010,0.00314048
1139.92515747,0.00317967
1141.85396484,0.00337900
1143.78277222,0.00376489
1145.71157959,0.00364829
1147.64038696,0.00403404
1149.56919434,0.00434397
1151.49800171,0.00422425
1153.42680908,0.00445293
1155.35561646,0.00478489
1157.28442383,0.00491211
1159.21323120,0.00493672
1161.14203857,0.00518003
1163.07084595,0.00528008
1164.99965332,0.00557838
1166.92846069,0.00592555
1168.85726807,0.00618313
1170.78607544,0.00639179
1172.71488281,0.00638660
1174.64369019,0.00673876
1176.57249756,0.00695960
1178.50130493,0.00708026
1180.43011230,0.00721753
1182.35891968,0.00756321
1184.28772705,0.00810788
1186.21653442,0.00832674
1188.14534180,0.00866885
1190.07414917,0.00905987
1192.00295654,0.00957287
1193.93176392,0.00998770
1195.86057129,0.01045449
1197.78937866,0.01091525
1199.71818604,0.01110515
1201.64699341,0.01179293
1203.57580078,0.01226467
1205.50460815,0.01248082
1207.43341553,0.01290332
1209.36222290,0.01325121
1211.29103027,0.01370125
1213.21983765,0.01413952
1215.14864502,0.01443671
1217.07745239,0.01479943
1219.00625977,0.01513940
1220.93506714,0.01514225
1222.86387451,0.01526473
1224.79268188,0.01549749
1226.72148926,0.01566083
1228.65029663,0.01573509
1230.57910400,0.01573664
1232.50791138,0.01578116
1234.43671875,0.01567146
1236.36552612,0.01577715
1238.29433350,0.01564456
1240.22314087,0.01543971
1242.15194824,0.01555377
1244.08075562,0.01561934
1246.00956299,0.01556100
1247.93837036,0.01527608
1249.86717773,0.01522164
1251.79598511,0.01499286
1253.72479248,0.01503963
1255.65359985,0.01499370
1257.58240723,0.01436037
1259.51121460,0.01430729
1261.44002197,0.01413694
1263.36882935,0.01403071
1265.29763672,0.01391600
1267.22644409,0.01370580
1269.15525146,0.01347681
1271.08405884,0.01288873
1273.01286621,0.01301549
1274.94167358,0.01300037
1276.87048096,0.01261288
1278.79928833,0.01233006
1280.72809570,0.01194155
1282.65690308,0.01188729
1284.58571045,0.01176672
1286.51451782,0.01136571
1288.44332520,0.01120467
1290.37213257,0.01117736
1292.30093994,0.01080261
1294.22974731,0.01086630
1296.15855469,0.01095024
1298.08736206,0.01076620
1300.01616943,0.01090475
1301.94497681,0.01087495
1303.87378418,0.01104289
1305.80259155,0.01102345
1307.73139893,0.01118571
1309.66020630,0.01143077
1311.58901367,0.01121957
1313.51782104,0.01166998
1315.44662842,0.01212429
1317.37543579,0.01229252
1319.30424316,0.01247760
1321.23305054,0.01290390
1323.16185791,0.01344292
1325.09066528,0.01370057
1327.01947266,0.01411902
1328.94828003,0.01446941
1330.87708740,0.01484713
1332.80589478,0.01507204
1334.73470215,0.01533671
1336.66350952,0.01553179
1338.59231689,0.01511795
1340.52112427,0.01534306
1342.44993164,0.01597825
1344.37873901,0.01618519
1346.30754639,0.01624944
1348.23635376,0.01604670
1350.16516113,0.01601001
1352.09396851,0.01607507
1354.02277588,0.01574273
1355.95158325,0.01557190
1357.88039062,0.01537778
1359.80919800,0.01512759
1361.73800537,0.01452702
1363.66681274,0.01421925
1365.59562012,0.01524161
1367.52442749,0.01492050
1369.45323486,0.01448646
1371.38204224,0.01483050
1373.31084961,0.01391591
1375.23965698,0.01402219
1377.16846436,0.01450595
1379.09727173,0.01446854
1381.02607910,0.01445664
1382.95488647,0.01435206
1384.88369385,0.01436460
1386.81250122,0.01360553
1388.74130859,0.01389995
1390.67011597,0.01518626
1392.59892334,0.01455184
1394.52773071,0.01347746
1396.45653809,0.01429011
1398.38534546,0.01412345
1400.31415283,0.01416237
1402.24296021,0.01548288
1404.17176758,0.01431347
1406.10057495,0.01455980
1408.02938232,0.01513008
1409.95818970,0.01445433
1411.88699707,0.01486642
1413.81580444,0.01422215
1415.74461182,0.01456881
1417.67341919,0.01295979
1419.60222656,0.01159463
1421.53103394,0.01367972
1423.45984131,0.01307548
1425.38864868,0.01260624
1427.31745605,0.01297431
1429.24626343,0.01194688
1431.17507080,0.01150589
1433.10387817,0.01180889
1435.03268555,0.01058098
1436.96149292,0.00906358
1438.89030029,0.01057007
1440.81910767,0.01066186
1442.74791504,0.01004883
1444.67672241,0.01060784
1446.60552979,0.00968820
1448.53433716,0.00971985
1450.46314453,0.01001439
1452.39195190,0.01038891
1454.32075928,0.01061985
1456.24956665,0.00851376
1458.17837402,0.00891883
1460.10718140,0.01212312
1462.03598877,0.01291358
1463.96479614,0.01261984
1465.89360352,0.01295834
1467.82241089,0.01506409
1469.75121826,0.01600952
1471.68002563,0.01359656
1473.60883301,0.01458908
1475.53764038,0.01680056
1477.46644775,0.01809823
1479.39525513,0.02002550
1481.32406250,0.02019244
1483.25286987,0.02138008
1485.18167725,0.02179727
1487.11048462,0.02142270
1489.03929199,0.02096375
1490.96809937,0.02111433
1492.89690674,0.02516285
1494.82571411,0.02408989
1496.75452148,0.02137846
1498.68332886,0.02430082
1500.61213623,0.02506506
1502.54094360,0.02736583
1504.46975098,0.02531431
1506.39855835,0.01737916
1508.32736572,0.02203671
1510.25617310,0.02634775
1512.18498047,0.02551040
1514.11378784,0.02782627
1516.04259521,0.02462684
1517.97140259,0.02580370
1519.90020996,0.02445673
1521.82901733,0.02086451
1523.75782471,0.02647563
1525.68663208,0.02563106
1527.61543945,0.02582345
1529.54424683,0.02913386
1531.47305420,0.02759409
1533.40186157,0.02486453
1535.33066895,0.02688498
1537.25947632,0.02882939
1539.18828369,0.01950908
1541.11709106,0.02083840
1543.04589844,0.02521411
1544.97470581,0.02410463
1546.90351318,0.02938555
1548.83232056,0.02715002
1550.76112793,0.02827227
1552.68993530,0.02777813
1554.61874268,0.02512723
1556.54755005,0.02685041
1558.47635742,0.01742363
1560.40516479,0.01988333
1562.33397217,0.02964508
1564.26277954,0.02760581
1566.19158691,0.02874188
1568.12039429,0.02794378
1570.04920166,0.02434686
1571.97800903,0.02916018
1573.90681641,0.02914047
1575.83562378,0.02232823
1577.76443115,0.02610772
1579.69323853,0.02978750
1581.62204590,0.02845200
1583.55085327,0.02936935
1585.47966064,0.02871338
1587.40846802,0.02878043
1589.33727539,0.02850815
1591.26608276,0.02859042
1593.19489014,0.02857274
1595.12369751,0.02821455
1597.05250488,0.02881399
1598.98131226,0.02852831
1600.91011963,0.02855976
1602.83892700,0.02814691
1604.76773437,0.02854927
1606.69654175,0.02805537
1608.62534912,0.02811063
1610.55415649,0.02798523
1612.48296387,0.02855759
1614.41177124,0.02862464
1616.34057861,0.02259929
1618.26938599,0.02549047
1620.19819336,0.02992018
1622.12700073,0.02600073
1624.05580811,0.02628583
1625.98461548,0.02785439
1627.91342285,0.02768758
1629.84223022,0.02760809
1631.77103760,0.02994859
1633.69984497,0.02697498
1635.62865234,0.02174164
1637.55745972,0.02609949
1639.48626709,0.02893183
1641.41507446,0.02826314
1643.34388184,0.02889622
1645.27268921,0.02545292
1647.20149658,0.02214384
1649.13030396,0.02856137
1651.05911133,0.02645156
1652.98791870,0.01581097
1654.91672607,0.02312853
1656.84553345,0.02956233
1658.77434082,0.02824547
1660.70314819,0.02910418
1662.63195557,0.02593583
1664.56076294,0.02775895
1666.48957031,0.02991368
1668.41837769,0.02518822
1670.34718506,0.02456690
1672.27599243,0.02848738
1674.20479980,0.02560584
1676.13360718,0.02468568
1678.06241455,0.02892097
1679.99122192,0.02756887
1681.92002930,0.02725097
1683.84883667,0.02108991
1685.77764404,0.02141644
1687.70645142,0.03031674
1689.63525879,0.02540343
1691.56406616,0.02887055
1693.49287354,0.02880695
1695.42168091,0.02026248
1697.35048828,0.02606798
1699.27929565,0.02164418
1701.20810303,0.01971737
1703.13691040,0.02814176
1705.06571777,0.02506927
1706.99452515,0.02568313
1708.92333252,0.02808494
1710.85213989,0.02679158
1712.78094727,0.02708350
1714.70975464,0.02458709
1716.63856201,0.02189233
1718.56736938,0.02157487
1720.49617676,0.02644464
1722.42498413,0.02737304
1724.35379150,0.02505881
1726.28259888,0.02776544
1728.21140625,0.02508261
1730.14021362,0.02533107
1732.06902100,0.02450052
1733.99782837,0.01797421
1735.92663574,0.02353619
1737.85544312,0.02600385
1739.78425049,0.02274236
1741.71305786,0.02495758
1743.64186523,0.02521004
1745.57067261,0.02528838
1747.49947998,0.02536430
1749.42828735,0.02403296
1751.35709473,0.02283965
1753.28590210,0.02584985
1755.21470947,0.02687429
1757.14351685,0.02413747
1759.07232422,0.02711099
1761.00113159,0.02490738
1762.92993896,0.02411884
1764.85874634,0.02808061
1766.78755371,0.02465878
1768.71636108,0.02506953
1770.64516846,0.02468912
1772.57397583,0.02186280
1774.50278320,0.02498452
1776.43159058,0.02642619
1778.36039795,0.02587500
1780.28920532,0.02554461
1782.21801270,0.02594928
1784.14682007,0.02581185
1786.07562744,0.02504184
1788.00443481,0.02654023
1789.93324219,0.02568140
1791.86204956,0.02293168
1793.79085693,0.02427921
1795.71966431,0.02611573
1797.64847168,0.02551075
1799.57727905,0.02503788
1801.50608643,0.02453790
1803.43489380,0.02559609
1805.36370117,0.02632371
1807.29250854,0.02579941
1809.22131592,0.02579910
1811.15012329,0.02511130
1813.07893066,0.02600237
1815.00773804,0.02605794
1816.93654541,0.02565455
1818.86535278,0.02587483
1820.79416016,0.02579463
1822.72296753,0.02597108
1824.65177490,0.02410749
1826.58058228,0.02518170
1828.50938965,0.02490431
1830.43819702,0.02333726
1832.36700439,0.02571622
1834.29581177,0.02543077
1836.22461914,0.02547253
1838.15342651,0.02526745
1840.08223389,0.02558572
1842.01104126,0.02532660
1843.93984863,0.02203213
1845.86865601,0.02403085
1847.79746338,0.02530036
1849.72627075,0.02469068
1851.65507812,0.02550696
1853.58388550,0.02497698
1855.51269287,0.02539180
1857.44150024,0.02503495
1859.37030762,0.02491924
1861.29911499,0.02510747
1863.22792236,0.02469231
1865.15672974,0.02501177
1867.08553711,0.02389831
1869.01434448,0.02266469
1870.94315186,0.02388502
1872.87195923,0.02493106
1874.80076660,0.02428413
1876.72957397,0.02436613
1878.65838135,0.02430198
1880.58718872,0.02431514
1882.51599609,0.02446535
1884.44480347,0.02392821
1886.37361084,0.02442925
1888.30241821,0.02370893
1890.23122559,0.02324947
1892.16003296,0.02422098
1894.08884033,0.02372539
1896.01764771,0.02367794
1897.94645508,0.02401986
1899.87526245,0.02377589
1901.80406982,0.02382277
1903.73287720,0.02384043
1905.66168457,0.02374324
1907.59049194,0.02331616
1909.51929932,0.02320386
1911.44810669,0.02337971
1913.37691406,0.02347195
1915.30572144,0.02353505
1917.23452881,0.02239649
1919.16333618,0.02243464
1921.09214355,0.02321440
1923.02095093,0.02245730
1924.94975830,0.02307658
1926.87856567,0.02323873
1928.80737305,0.02287543
1930.73618042,0.02323258
1932.66498779,0.02283861
1934.59379517,0.02314058
1936.52260254,0.02285168
1938.45140991,0.02290159
1940.38021729,0.02288981
1942.30902466,0.02193684
1944.23783203,0.02248617
1946.16663940,0.02270453
1948.09544678,0.02278893
1950.02425415,0.02281843
1951.95306152,0.02247727
1953.88186890,0.02267347
1955.81067627,0.02247611
1957.73948364,0.02247990
1959.66829102,0.02261036
1961.59709839,0.02255376
1963.52590576,0.02252905
1965.45471313,0.02231954
1967.38352051,0.02202785
1969.31232788,0.02219178
1971.24113525,0.02236644
1973.16994263,0.02229741
1975.09875000,0.02244710
1977.02755737,0.02214599
1978.95636475,0.02208585
1980.88517212,0.02211421
1982.81397949,0.02194570
1984.74278687,0.02196356
1986.67159424,0.02186313
1988.60040161,0.02187984
1990.52920898,0.02146436
1992.45801636,0.02133333
1994.38682373,0.02160819
1996.31563110,0.02166449
1998.24443848,0.02159657
2000.17324585,0.02137287
2002.10205322,0.02147117
2004.03086060,0.02141731
2005.95966797,0.02117009
2007.88847534,0.02111914
2009.81728271,0.02125724
2011.74609009,0.02120128
2013.67489746,0.02106277
2015.60370483,0.02086551
2017.53251221,0.02060800
2019.46131958,0.02093232
2021.39012695,0.02086183
2023.31893433,0.02077960
2025.24774170,0.02081267
2027.17654907,0.02064812
2029.10535645,0.02076998
2031.03416382,0.02047337
2032.96297119,0.02047784
2034.89177856,0.02048637
2036.82058594,0.02031159
2038.74939331,0.02041603
2040.67820068,0.02026725
2042.60700806,0.02015292
2044.53581543,0.02007043
2046.46462280,0.02015858
2048.39343018,0.02004562
2050.32223755,0.01986479
2052.25104492,0.02001282
2054.17985229,0.01995736
2056.10865967,0.01979669
2058.03746704,0.01971242
2059.96627441,0.01975381
2061.89508179,0.01965810
2063.82388916,0.01950280
2065.75269653,0.01943525
2067.68150391,0.01943276
2069.61031128,0.01954053
2071.53911865,0.01953398
2073.46792603,0.01940162
2075.39673340,0.01917354
2077.32554077,0.01916386
2079.25434814,0.01925023
2081.18315552,0.01909699
2083.11196289,0.01901368
2085.04077026,0.01911630
2086.96957764,0.01908740
2088.89838501,0.01894054
2090.82719238,0.01881771
2092.75599976,0.01875556
2094.68480713,0.01880273
2096.61361450,0.01868543
2098.54242187,0.01869683
2100.47122925,0.01867707
2102.40003662,0.01856285
2104.32884399,0.01861804
2106.25765137,0.01849497
2108.18645874,0.01854362
2110.11526611,0.01846050
2112.04407349,0.01838963
2113.97288086,0.01842301
2115.90168823,0.01816491
2117.83049561,0.01818883
2119.75930298,0.01820438
2121.68811035,0.01819601
2123.61691772,0.01818826
2125.54572510,0.01813335
2127.47453247,0.01809290
2129.40333984,0.01795198
2131.33214722,0.01805262
2133.26095459,0.01803905
2135.18976196,0.01794088
2137.11856934,0.01788537
2139.04737671,0.01782962
2140.97618408,0.01780577
2142.90499146,0.01767232
2144.83379883,0.01770771
2146.76260620,0.01766796
2148.69141357,0.01757552
2150.62022095,0.01758175
2152.54902832,0.01743942
2154.47783569,0.01744726
2156.40664307,0.01761815
2158.33545044,0.01753711
2160.26425781,0.01733355
2162.19306519,0.01725304
2164.12187256,0.01726694
2166.05067993,0.01724273
2167.97948730,0.01714799
2169.90829468,0.01725838
2171.83710205,0.01722552
2173.76590942,0.01710066
2175.69471680,0.01718717
2177.62352417,0.01704310
2179.55233154,0.01702423
2181.48113892,0.01711169
2183.40994629,0.01696768
2185.33875366,0.01689003
2187.26756104,0.01689247
2189.19636841,0.01694885
2191.12517578,0.01701130
2193.05398315,0.01686503
2194.98279053,0.01666472
2196.91159790,0.01672120
2198.84040527,0.01666358
2200.76921265,0.01662493
2202.69802002,0.01677789
2204.62682739,0.01666840
2206.55563477,0.01660048
2208.48444214,0.01657100
2210.41324951,0.01648640
2212.34205688,0.01655238
2214.27086426,0.01653612
2216.19967163,0.01643825
2218.12847900,0.01637381
2220.05728638,0.01634029
2221.98609375,0.01629682
2223.91490112,0.01630968
2225.84370850,0.01632558
2227.77251587,0.01611406
2229.70132324,0.01604755
2231.63013062,0.01619609
2233.55893799,0.01618996
2235.48774536,0.01613225
2237.41655273,0.01593060
2239.34536011,0.01585945
2241.27416748,0.01592049
2243.20297485,0.01576919
2245.13178223,0.01583179
2247.06058960,0.01585506
2248.98939697,0.01576483
2250.91820435,0.01573754
2252.84701172,0.01562373
2254.77581909,0.01559556
2256.70462646,0.01557059
2258.63343384,0.01554826
2260.56224121,0.01547146
2262.49104858,0.01547216
2264.41985596,0.01548405
2266.34866333,0.01538719
2268.27747070,0.01538961
2270.20627808,0.01535319
2272.13508545,0.01528118
2274.06389282,0.01524108
2275.99270020,0.01531424
2277.92150757,0.01522375
2279.85031494,0.01517556
2281.77912231,0.01521279
2283.70792969,0.01511926
2285.63673706,0.01518742
2287.56554443,0.01496227
2289.49435181,0.01496353
2291.42315918,0.01503012
2293.35196655,0.01478737
2295.28077393,0.01487384
2297.20958130,0.01479022
2299.13838867,0.01476748
2301.06719604,0.01477640
2302.99600342,0.01460437
2304.92481079,0.01447166
2306.85361816,0.01437647
2308.78242554,0.01434919
2310.71123291,0.01417403
2312.64004028,0.01412647
2314.56884766,0.01394153
2316.49765503,0.01367043
2318.42646240,0.01355491
2320.35526978,0.01338978
2322.28407715,0.01324037
2324.21288452,0.01305227
2326.14169189,0.01295121
2328.07049927,0.01276407
2329.99930664,0.01263070
2331.92811401,0.01255173
2333.85692139,0.01244530
2335.78572876,0.01239133
2337.71453613,0.01235803
2339.64334351,0.01246084
2341.57215088,0.01241704
2343.50095825,0.01259326
2345.42976562,0.01286852
2347.35857300,0.01326369
2349.28738037,0.01359394
2351.21618774,0.01296259
2353.14499512,0.01242532
2355.07380249,0.01214444
2357.00260986,0.01169827
2358.93141724,0.01154615
2360.86022461,0.01142260
2362.78903198,0.01129880
2364.71783936,0.01137495
2366.64664673,0.01155310
2368.57545410,0.01171950
2370.50426147,0.01193420
2372.43306885,0.01225064
2374.36187622,0.01267652
2376.29068359,0.01284164
2378.21949097,0.01295205
2380.14829834,0.01325809
2382.07710571,0.01327017
2384.00591309,0.01338189
2385.93472046,0.01345289
2387.86352783,0.01334557
2389.79233521,0.01342854
2391.72114258,0.01343619
2393.64994995,0.01343387
2395.57875732,0.01329966
2397.50756470,0.01319306
2399.43637207,0.01333493
2401.36517944,0.01328409
2403.29398682,0.01314163
2405.22279419,0.01317697
2407.15160156,0.01314928
2409.08040894,0.01305460
2411.00921631,0.01303448
2412.93802368,0.01299002
2414.86683105,0.01299087
2416.79563843,0.01303668
2418.72444580,0.01304847
2420.65325317,0.01299398
2422.58206055,0.01297889
2424.51086792,0.01294486
2426.43967529,0.01283366
2428.36848267,0.01291604
2430.29729004,0.01294753
2432.22609741,0.01282086
2434.15490479,0.01270873
2436.08371216,0.01269001
2438.01251953,0.01270775
2439.94132690,0.01259868
2441.87013428,0.01255488
2443.79894165,0.01259604
2445.72774902,0.01266915
2447.65655640,0.01260910
2449.58536377,0.01251174
2451.51417114,0.01252422
2453.44297852,0.01238233
2455.37178589,0.01234578
2457.30059326,0.01237681
2459.22940063,0.01230089
2461.15820801,0.01236508
2463.08701538,0.01235078
2465.01582275,0.01216977
2466.94463013,0.01218097
2468.87343750,0.01220665
2470.80224487,0.01202059
2472.73105225,0.01203062
2474.65985962,0.01217359
2476.58866699,0.01205328
2478.51747437,0.01197357
2480.44628174,0.01204128
2482.37508911,0.01190239
2484.30389648,0.01195552
2486.23270386,0.01207112
2488.16151123,0.01185152
2490.09031860,0.01187137
2492.01912598,0.01192083
2493.94793335,0.01186270
2495.87674072,0.01181028
2497.80554810,0.01173046
2499.73435547,0.01181840
2501.66316284,0.01175757
2503.59197021,0.01172094
2505.52077759,0.01171732
2507.44958496,0.01165595
2509.37839233,0.01167336
2511.30719971,0.01152582
2513.23600708,0.01145838
2515.16481445,0.01151985
2517.09362183,0.01157680
2519.02242920,0.01153610
2520.95123657,0.01141619
2522.88004395,0.01144633
2524.80885132,0.01143960
2526.73765869,0.01147541
2528.66646606,0.01151158
2530.59527344,0.01134892
2532.52408081,0.01132954
2534.45288818,0.01134490
2536.38169556,0.01122542
2538.31050293,0.01124270
2540.23931030,0.01122720
2542.16811768,0.01112017
2544.09692505,0.01115307
2546.02573242,0.01114986
2547.95453979,0.01106514
2549.88334717,0.01111298
2551.81215454,0.01106203
2553.74096191,0.01094627
2555.66976929,0.01101172
2557.59857666,0.01100667
2559.52738403,0.01104332
2561.45619141,0.01093031
2563.38499878,0.01080318
2565.31380615,0.01099837
2567.24261353,0.01095717
2569.17142090,0.01092821
2571.10022827,0.01090023
2573.02903564,0.01084548
2574.95784302,0.01084944
2576.88665039,0.01069247
2578.81545776,0.01077155
2580.74426514,0.01072020
2582.67307251,0.01059600
2584.60187988,0.01059637
2586.53068726,0.01058598
2588.45949463,0.01058216
2590.38830200,0.01050302
2592.31710937,0.01064138
2594.24591675,0.01056179
2596.17472412,0.01046138
2598.10353149,0.01054636
2600.03233887,0.01049010
2601.96114624,0.01053721
2603.88995361,0.01045826
2605.81876099,0.01031291
2607.74756836,0.01027107
2609.67637573,0.01035288
2611.60518311,0.01042562
2613.53399048,0.01030905
2615.46279785,0.01021198
2617.39160522,0.01024591
2619.32041260,0.01018674
2621.24921997,0.01012016
2623.17802734,0.01025811
2625.10683472,0.01014713
2627.03564209,0.01014290
2628.96444946,0.01013080
2630.89325684,0.01000327
2632.82206421,0.01015683
2634.75087158,0.00995817
2636.67967895,0.00991959
2638.60848633,0.00993694
2640.53729370,0.00979870
2642.46610107,0.00993844
2644.39490845,0.00988052
2646.32371582,0.00985109
2648.25252319,0.00981444
2650.18133057,0.00982582
2652.11013794,0.00991915
2654.03894531,0.00975093
2655.96775269,0.00973257
2657.89656006,0.00987136
2659.82536743,0.00977433
2661.75417480,0.00967118
2663.68298218,0.00971529
2665.61178955,0.00964228
2667.54059692,0.00961610
2669.46940430,0.00959572
2671.39821167,0.00950320
2673.32701904,0.00945302
2675.25582642,0.00955724
2677.18463379,0.00962514
2679.11344116,0.00941081
2681.04224854,0.00936521
2682.97105591,0.00932131
2684.89986328,0.00936730
2686.82867065,0.00940590
2688.75747803,0.00929188
2690.68628540,0.00938215
2692.61509277,0.00931298
2694.54390015,0.00927457
2696.47270752,0.00916324
2698.40151489,0.00921792
2700.33032227,0.00938277
2702.25912964,0.00919389
2704.18793701,0.00919793
2706.11674438,0.00913097
2708.04555176,0.00916789
2709.97435913,0.00927758
2711.90316650,0.00912200
2713.83197388,0.00902306
2715.76078125,0.00899243
2717.68958862,0.00905933
2719.61839600,0.00907619
2721.54720337,0.00895366
2723.47601074,0.00886125
2725.40481812,0.00893502
2727.33362549,0.00882578
2729.26243286,0.00881111
2731.19124023,0.00896062
2733.12004761,0.00887882
2735.04885498,0.00881862
2736.97766235,0.00876239
2738.90646973,0.00884019
2740.83527710,0.00865637
2742.76408447,0.00865320
2744.69289185,0.00877715
2746.62169922,0.00853808
2748.55050659,0.00869699
2750.47931396,0.00861568
2752.40812134,0.00858317
2754.33692871,0.00853885
2756.26573608,0.00837668
2758.19454346,0.00859342
2760.12335083,0.00847060
2762.05215820,0.00856699
2763.98096558,0.00857978
2765.90977295,0.00838354
2767.83858032,0.00839500
2769.76738770,0.00842743
2771.69619507,0.00853257
2773.62500244,0.00837858
2775.55380981,0.00837351
2777.48261719,0.00832155
2779.41142456,0.00824710
2781.34023193,0.00829957
2783.26903931,0.00824705
2785.19784668,0.00827679
2787.12665405,0.00807743
2789.05546143,0.00808441
2790.98426880,0.00815085
2792.91307617,0.00803776
2794.84188354,0.00818035
2796.77069092,0.00816607
2798.69949829,0.00799559
2800.62830566,0.00794256
2802.55711304,0.00795620
2804.48592041,0.00797492
2806.41472778,0.00796455
2808.34353516,0.00797648
2810.27234253,0.00794607
2812.20114990,0.00786797
2814.12995728,0.00789980
2816.05876465,0.00787356
2817.98757202,0.00781512
2819.91637939,0.00779336
2821.84518677,0.00776768
2823.77399414,0.00787873
2825.70280151,0.00777439
2827.63160889,0.00767093
2829.56041626,0.00772095
2831.48922363,0.00766618
2833.41803101,0.00762583
2835.34683838,0.00761860
2837.27564575,0.00765895
2839.20445312,0.00755063
2841.13326050,0.00757612
2843.06206787,0.00762103
2844.99087524,0.00746179
2846.91968262,0.00739073
2848.84848999,0.00734964
2850.77729736,0.00740802
2852.70610474,0.00741901
2854.63491211,0.00743842
2856.56371948,0.00735609
2858.49252686,0.00724783
2860.42133423,0.00729030
2862.35014160,0.00729703
2864.27894897,0.00729204
2866.20775635,0.00718590
2868.13656372,0.00725982
2870.06537109,0.00723407
2871.99417847,0.00719318
2873.92298584,0.00719729
2875.85179321,0.00704512
2877.78060059,0.00708926
2879.70940796,0.00702102
2881.63821533,0.00709045
2883.56702270,0.00706388
2885.49583008,0.00700227
2887.42463745,0.00699902
2889.35344482,0.00681595
2891.28225220,0.00699757
2893.21105957,0.00694687
2895.13986694,0.00689165
2897.06867432,0.00693024
2898.99748169,0.00689920
2900.92628906,0.00694240
2902.85509644,0.00676718
2904.78390381,0.00683913
2906.71271118,0.00679168
2908.64151855,0.00671967
2910.57032593,0.00675276
2912.49913330,0.00677285
2914.42794067,0.00683879
2916.35674805,0.00666345
2918.28555542,0.00670658
2920.21436279,0.00677390
2922.14317017,0.00683972
2924.07197754,0.00684013
2926.00078491,0.00674434
2927.92959229,0.00677517
2929.85839966,0.00666275
2931.78720703,0.00669808
2933.71601440,0.00667543
2935.64482178,0.00658893
2937.57362915,0.00663120
2939.50243652,0.00668797
2941.43124390,0.00665852
2943.36005127,0.00654336
2945.28885864,0.00658424
2947.21766602,0.00650502
2949.14647339,0.00645960
2951.07528076,0.00652212
2953.00408813,0.00651643
2954.93289551,0.00647798
2956.86170288,0.00643365
2958.79051025,0.00640613
2960.71931763,0.00632960
2962.64812500,0.00640862
2964.57693237,0.00641155
2966.50573975,0.00635149
2968.43454712,0.00635115
2970.36335449,0.00632641
2972.29216187,0.00633188
2974.22096924,0.00630032
2976.14977661,0.00633488
2978.07858398,0.00631547
2980.00739136,0.00628631
2981.93619873,0.00621269
2983.86500610,0.00626301
2985.79381348,0.00627231
2987.72262085,0.00613184
2989.65142822,0.00628916
2991.58023560,0.00613256
2993.50904297,0.00610698
2995.43785034,0.00624806
2997.36665771,0.00603990
2999.29546509,0.00615355
3001.22427246,0.00621946
3003.15307983,0.00617060
3005.08188721,0.00608094
3007.01069458,0.00605288
3008.93950195,0.00615167
3010.86830933,0.00604977
3012.79711670,0.00609823
3014.72592407,0.00601542
3016.65473145,0.00593259
3018.58353882,0.00598007
3020.51234619,0.00588221
3022.44115356,0.00593022
3024.36996094,0.00591035
3026.29876831,0.00590492
3028.22757568,0.00595566
3030.15638306,0.00589631
3032.08519043,0.00577812
3034.01399780,0.00571724
3035.94280518,0.00582279
3037.87161255,0.00576853
3039.80041992,0.00577590
3041.72922729,0.00577827
3043.65803467,0.00570307
3045.58684204,0.00586710
3047.51564941,0.00574663
3049.44445679,0.00561452
3051.37326416,0.00570205
3053.30207153,0.00567924
3055.23087891,0.00576496
3057.15968628,0.00574472
3059.08849365,0.00562959
3061.01730103,0.00567065
3062.94610840,0.00561541
3064.87491577,0.00548616
3066.80372314,0.00557628
3068.73253052,0.00561563
3070.66133789,0.00557128
3072.59014526,0.00561244
3074.51895264,0.00554690
3076.44776001,0.00556957
3078.37656738,0.00545237
3080.30537476,0.00536713
3082.23418213,0.00550033
3084.16298950,0.00539750
3086.09179687,0.00541536
3088.02060425,0.00546139
3089.94941162,0.00544294
3091.87821899,0.00547178
3093.80702637,0.00547454
3095.73583374,0.00541655
3097.66464111,0.00529391
3099.59344849,0.00542584
3101.52225586,0.00540227
3103.45106323,0.00534423
3105.37987061,0.00535345
3107.30867798,0.00526611
3109.23748535,0.00535399
3111.16629272,0.00532746
3113.09510010,0.00537713
3115.02390747,0.00525078
3116.95271484,0.00515108
3118.88152222,0.00535946
3120.81032959,0.00524190
3122.73913696,0.00529233
3124.66794434,0.00535807
3126.59675171,0.00518902
3128.52555908,0.00519017
3130.45436645,0.00516894
3132.38317383,0.00514038
3134.31198120,0.00517042
3136.24078857,0.00517868
3138.16959595,0.00517996
3140.09840332,0.00517446
3142.02721069,0.00507946
3143.95601807,0.00504858
3145.88482544,0.00511959
3147.81363281,0.00514998
3149.74244019,0.00511564
3151.67124756,0.00501582
3153.60005493,0.00499612
3155.52886230,0.00509372
3157.45766968,0.00519521
3159.38647705,0.00506807
3161.31528442,0.00495267
3163.24409180,0.00502530
3165.17289917,0.00501742
3167.10170654,0.00500362
3169.03051392,0.00497858
3170.95932129,0.00493791
3172.88812866,0.00489345
3174.81693604,0.00490545
3176.74574341,0.00495952
3178.67455078,0.00496672
3180.60335815,0.00495621
3182.53216553,0.00492267
3184.46097290,0.00495991
3186.38978027,0.00495575
3188.31858765,0.00490342
3190.24739502,0.00483422
3192.17620239,0.00488879
3194.10500977,0.00492518
3196.03381714,0.00481272
3197.96262451,0.00489202
3199.89143188,0.00488137
3201.82023926,0.00485531
3203.74904663,0.00483666
3205.67785400,0.00479896
3207.60666138,0.00488983
3209.53546875,0.00488562
3211.46427612,0.00487730
3213.39308350,0.00478932
3215.32189087,0.00484761
3217.25069824,0.00486745
3219.17950562,0.00483086
3221.10831299,0.00485743
3223.03712036,0.00477009
3224.96592773,0.00489687
3226.89473511,0.00471208
3228.82354248,0.00472270
3230.75234985,0.00487578
3232.68115723,0.00462914
3234.60996460,0.00479345
3236.53877197,0.00476924
3238.46757935,0.00470536
3240.39638672,0.00489289
3242.32519409,0.00487511
3244.25400146,0.00476013
3246.18280884,0.00469258
3248.11161621,0.00485611
3250.04042358,0.00480110
3251.96923096,0.00475156
3253.89803833,0.00477997
3255.82684570,0.00467389
3257.75565308,0.00469233
3259.68446045,0.00472896
3261.61326782,0.00481031
3263.54207520,0.00474549
3265.47088257,0.00475034
3267.39968994,0.00480097
3269.32849731,0.00476495
3271.25730469,0.00483480
3273.18611206,0.00472708
3275.11491943,0.00468299
3277.04372681,0.00471487
3278.97253418,0.00479142
3280.90134155,0.00484796
3282.83014893,0.00468268
3284.75895630,0.00480106
3286.68776367,0.00491318
3288.61657104,0.00473473
3290.54537842,0.00472982
3292.47418579,0.00477281
3294.40299316,0.00477084
3296.33180054,0.00474820
3298.26060791,0.00465496
3300.18941528,0.00478023
3302.11822266,0.00482714
3304.04703003,0.00469322
3305.97583740,0.00471836
3307.90464478,0.00466559
3309.83345215,0.00473728
3311.76225952,0.00477694
3313.69106689,0.00466598
3315.61987427,0.00479014
3317.54868164,0.00476645
3319.47748901,0.00471128
3321.40629639,0.00473113
3323.33510376,0.00469465
3325.26391113,0.00466526
3327.19271851,0.00455594
3329.12152588,0.00471096
3331.05033325,0.00476861
3332.97914062,0.00459041
3334.90794800,0.00473448
3336.83675537,0.00480366
3338.76556274,0.00470759
3340.69437012,0.00468963
3342.62317749,0.00468331
3344.55198486,0.00473858
3346.48079224,0.00470234
3348.40959961,0.00469931
3350.33840698,0.00476331
3352.26721436,0.00472607
3354.19602173,0.00477524
3356.12482910,0.00479469
3358.05363647,0.00475369
3359.98244385,0.00471622
3361.91125122,0.00465666
3363.84005859,0.00474988
3365.76886597,0.00477551
3367.69767334,0.00468554
3369.62648071,0.00471180
3371.55528809,0.00475530
3373.48409546,0.00474300
3375.41290283,0.00470625
3377.34171020,0.00472650
3379.27051758,0.00473031
3381.19932495,0.00462531
3383.12813232,0.00462429
3385.05693970,0.00466484
3386.98574707,0.00462649
3388.91455444,0.00471843
3390.84336182,0.00476307
3392.77216919,0.00467083
3394.70097656,0.00466016
3396.62978394,0.00465248
3398.55859131,0.00461732
3400.48739868,0.00464298
3402.41620605,0.00469382
3404.34501343,0.00461211
3406.27382080,0.00459107
3408.20262817,0.00461588
3410.13143555,0.00449756
3412.06024292,0.00461782
3413.98905029,0.00469362
3415.91785767,0.00459827
3417.84666504,0.00468103
3419.77547241,0.00461688
3421.70427979,0.00445121
3423.63308716,0.00448618
3425.56189453,0.00462230
3427.49070190,0.00458969
3429.41950928,0.00449500
3431.34831665,0.00459888
3433.27712402,0.00464459
3435.20593140,0.00456688
3437.13473877,0.00455704
3439.06354614,0.00451171
3440.99235352,0.00448598
3442.92116089,0.00458919
3444.84996826,0.00451458
3446.77877563,0.00441465
3448.70758301,0.00452842
3450.63639038,0.00456116
3452.56519775,0.00451928
3454.49400513,0.00448153
3456.42281250,0.00443066
3458.35161987,0.00440728
3460.28042725,0.00441526
3462.20923462,0.00435212
3464.13804199,0.00439750
3466.06684937,0.00449109
3467.99565674,0.00434259
3469.92446411,0.00441100
3471.85327148,0.00446720
3473.78207886,0.00438590
3475.71088623,0.00441817
3477.63969360,0.00435525
3479.56850098,0.00441285
3481.49730835,0.00436201
3483.42611572,0.00434098
3485.35492310,0.00434450
3487.28373047,0.00421712
3489.21253784,0.00436155
3491.14134521,0.00433890
3493.07015259,0.00431184
3494.99895996,0.00434836
3496.92776733,0.00426542
3498.85657471,0.00434899
3500.78538208,0.00425589
3502.71418945,0.00417209
3504.64299683,0.00426720
3506.57180420,0.00424529
3508.50061157,0.00414488
3510.42941895,0.00415310
3512.35822632,0.00427142
3514.28703369,0.00425243
3516.21584106,0.00419979
3518.14464844,0.00422948
3520.07345581,0.00424551
3522.00226318,0.00419161
3523.93107056,0.00409793
3525.85987793,0.00410692
3527.78868530,0.00413150
3529.71749268,0.00407998
3531.64630005,0.00411398
3533.57510742,0.00415725
3535.50391479,0.00410542
3537.43272217,0.00409623
3539.36152954,0.00408161
3541.29033691,0.00410523
3543.21914429,0.00406077
3545.14795166,0.00382943
3547.07675903,0.00386373
3549.00556641,0.00408865
3550.93437378,0.00401603
3552.86318115,0.00390086
3554.79198853,0.00397553
3556.72079590,0.00402480
3558.64960327,0.00404654
3560.57841064,0.00392297
3562.50721802,0.00385904
3564.43602539,0.00392109
3566.36483276,0.00358603
3568.29364014,0.00352852
3570.22244751,0.00392419
3572.15125488,0.00391313
3574.08006226,0.00383663
3576.00886963,0.00391039
3577.93767700,0.00385530
3579.86648437,0.00383640
3581.79529175,0.00385546
3583.72409912,0.00382225
3585.65290649,0.00360953
3587.58171387,0.00331122
3589.51052124,0.00352200
3591.43932861,0.00382105
3593.36813599,0.00362810
3595.29694336,0.00357885
3597.22575073,0.00374361
3599.15455811,0.00369483
3601.08336548,0.00361492
3603.01217285,0.00369163
3604.94098022,0.00375589
3606.86978760,0.00365346
3608.79859497,0.00340830
3610.72740234,0.00350095
3612.65620972,0.00359928
3614.58501709,0.00343728
3616.51382446,0.00360945
3618.44263184,0.00327041
3620.37143921,0.00323730
3622.30024658,0.00370179
3624.22905395,0.00358467
3626.15786133,0.00371400
3628.08666870,0.00299101
3630.01547607,0.00278483
3631.94428345,0.00361475
3633.87309082,0.00339479
3635.80189819,0.00353778
3637.73070557,0.00363045
3639.65951294,0.00351463
3641.58832031,0.00360692
3643.51712769,0.00350382
3645.44593506,0.00347367
3647.37474243,0.00306040
3649.30354980,0.00278052
3651.23235718,0.00286756
3653.16116455,0.00346965
3655.08997192,0.00336489
3657.01877930,0.00303119
3658.94758667,0.00355397
3660.87639404,0.00331707
3662.80520142,0.00345054
3664.73400879,0.00342718
3666.66281616,0.00327864
3668.59162354,0.00324372
3670.52043091,0.00254485
3672.44923828,0.00316066
3674.37804565,0.00291036
3676.30685303,0.00237057
3678.23566040,0.00319247
3680.16446777,0.00315332
3682.09327515,0.00319970
3684.02208252,0.00327134
3685.95088989,0.00311126
3687.87969727,0.00281052
3689.80850464,0.00259204
3691.73731201,0.00302935
3693.66611938,0.00313478
3695.59492676,0.00320247
3697.52373413,0.00320895
3699.45254150,0.00318625
3701.38134888,0.00301884
3703.31015625,0.00287363
3705.23896362,0.00315407
3707.16777100,0.00293101
3709.09657837,0.00288981
3711.02538574,0.00266012
3712.95419312,0.00249680
3714.88300049,0.00304064
3716.81180786,0.00296076
3718.74061523,0.00292883
3720.66942261,0.00283434
3722.59822998,0.00277007
3724.52703735,0.00292651
3726.45584473,0.00266410
3728.38465210,0.00288315
3730.31345947,0.00289655
3732.24226685,0.00259017
3734.17107422,0.00244047
3736.09988159,0.00224045
3738.02868896,0.00248978
3739.95749634,0.00289218
3741.88630371,0.00291277
3743.81511108,0.00215697
3745.74391846,0.00207807
3747.67272583,0.00272552
3749.60153320,0.00224087
3751.53034058,0.00206239
3753.45914795,0.00249928
3755.38795532,0.00265470
3757.31676270,0.00277099
3759.24557007,0.00258137
3761.17437744,0.00268321
3763.10318481,0.00277712
3765.03199219,0.00255566
3766.96079956,0.00272305
3768.88960693,0.00255931
3770.81841431,0.00242632
3772.74722168,0.00277294
3774.67602905,0.00269078
3776.60483643,0.00271351
3778.53364380,0.00271316
3780.46245117,0.00247283
3782.39125854,0.00266273
3784.32006592,0.00264903
3786.24887329,0.00250258
3788.17768066,0.00270080
3790.10648804,0.00267604
3792.03529541,0.00253440
3793.96410278,0.00264768
3795.89291016,0.00240843
3797.82171753,0.00246303
3799.75052490,0.00258062
3801.67933228,0.00190170
3803.60813965,0.00235919
3805.53694702,0.00259443
3807.46575439,0.00211164
3809.39456177,0.00255833
3811.32336914,0.00250892
3813.25217651,0.00258338
3815.18098389,0.00227537
3817.10979126,0.00203320
3819.03859863,0.00260021
3820.96740601,0.00200204
3822.89621338,0.00210178
3824.82502075,0.00264691
3826.75382812,0.00230790
3828.68263550,0.00234606
3830.61144287,0.00243704
3832.54025024,0.00237630
3834.46905762,0.00232677
3836.39786499,0.00220122
3838.32667236,0.00200484
3840.25547974,0.00218415
3842.18428711,0.00230121
3844.11309448,0.00227386
3846.04190186,0.00243063
3847.97070923,0.00227916
3849.89951660,0.00240230
3851.82832397,0.00211899
3853.75713135,0.00150822
3855.68593872,0.00193665
3857.61474609,0.00241033
3859.54355347,0.00231452
3861.47236084,0.00230396
3863.40116821,0.00212851
3865.32997559,0.00194773
3867.25878296,0.00229560
3869.18759033,0.00203320
3871.11639770,0.00189356
3873.04520508,0.00228059
3874.97401245,0.00204743
3876.90281982,0.00232560
3878.83162720,0.00229791
3880.76043457,0.00190667
3882.68924194,0.00227980
3884.61804932,0.00208850
3886.54685669,0.00187839
3888.47566406,0.00224125
3890.40447144,0.00216628
3892.33327881,0.00196351
3894.26208618,0.00224719
3896.19089355,0.00234057
3898.11970093,0.00207188
3900.04850830,0.00197852
3901.97731567,0.00193855
3903.90612305,0.00193249
3905.83493042,0.00195878
3907.76373779,0.00209875
3909.69254517,0.00215140
3911.62135254,0.00207107
3913.55015991,0.00211790
3915.47896728,0.00201867
3917.40777466,0.00200791
3919.33658203,0.00209718
3921.26538940,0.00212703
3923.19419678,0.00208879
3925.12300415,0.00191415
3927.05181152,0.00206379
3928.98061890,0.00226181
3930.90942627,0.00210324
3932.83823364,0.00198763
3934.76704102,0.00205508
3936.69584839,0.00207038
3938.62465576,0.00201276
3940.55346313,0.00199026
3942.48227051,0.00192229
3944.41107788,0.00198224
3946.33988525,0.00199917
3948.26869263,0.00187166
3950.19750000,0.00204898
3952.12630737,0.00209630
3954.05511475,0.00196953
3955.98392212,0.00201727
3957.91272949,0.00198832
3959.84153687,0.00201698
3961.77034424,0.00200541
3963.69915161,0.00193093
3965.62795898,0.00194804
3967.55676636,0.00202576
3969.48557373,0.00200926
3971.41438110,0.00187351
3973.34318848,0.00200864
3975.27199585,0.00201727
3977.20080322,0.00191930
3979.12961060,0.00197725
3981.05841797,0.00189975
3982.98722534,0.00189814
3984.91603271,0.00191621
3986.84484009,0.00192343
3988.77364746,0.00187790
3990.70245483,0.00185568
3992.63126221,0.00190415
3994.56006958,0.00186922
3996.48887695,0.00193302
3998.41768433,0.00192723
4000.34649170,0.00191409
4002.27529907,0.00192341
4004.20410645,0.00186461
4006.13291382,0.00183664
4008.06172119,0.00188771
4009.99052856,0.00192092
4011.91933594,0.00183261
4013.84814331,0.00184762
4015.77695068,0.00177004
4017.70575806,0.00178055
4019.63456543,0.00188021
4021.56337280,0.00185593
4023.49218018,0.00186965
4025.42098755,0.00177800
4027.34979492,0.00181479
4029.27860229,0.00179709
4031.20740967,0.00180411
4033.13621704,0.00183269
4035.06502441,0.00171132
4036.99383179,0.00182445
4038.92263916,0.00184604
4040.85144653,0.00179438
4042.78025391,0.00176895
4044.70906128,0.00180343
4046.63786865,0.00174691
4048.56667603,0.00162805
4050.49548340,0.00175017
4052.42429077,0.00170347
4054.35309814,0.00175073
4056.28190552,0.00178436
4058.21071289,0.00173388
4060.13952026,0.00174427
4062.06832764,0.00162873
4063.99713501,0.00174683
4065.92594238,0.00177991
4067.85474976,0.00171182
4069.78355713,0.00173172
4071.71236450,0.00173548
4073.64117187,0.00173872
4075.56997925,0.00166798
4077.49878662,0.00166441
4079.42759399,0.00162102
4081.35640137,0.00164231
4083.28520874,0.00172300
4085.21401611,0.00164547
4087.14282349,0.00157870
4089.07163086,0.00164570
4091.00043823,0.00162163
4092.92924561,0.00151464
4094.85805298,0.00161103
4096.78686035,0.00166981
4098.71566772,0.00163753
4100.64447510,0.00163469
4102.57328247,0.00164433
4104.50208984,0.00163178
4106.43089722,0.00158917
4108.35970459,0.00157473
4110.28851196,0.00152141
4112.21731934,0.00155274
4114.14612671,0.00158464
4116.07493408,0.00158465
4118.00374145,0.00154529
4119.93254883,0.00151829
4121.86135620,0.00156341
4123.79016357,0.00151530
4125.71897095,0.00161015
4127.64777832,0.00164846
4129.57658569,0.00154616
4131.50539307,0.00154624
4133.43420044,0.00155939
4135.36300781,0.00153677
4137.29181519,0.00150801
4139.22062256,0.00154586
4141.14942993,0.00147079
4143.07823730,0.00145062
4145.00704468,0.00151461
4146.93585205,0.00147667
4148.86465942,0.00144795
4150.79346680,0.00146076
4152.72227417,0.00154319
4154.65108154,0.00152225
4156.57988892,0.00149343
4158.50869629,0.00148368
4160.43750366,0.00146311
4162.36631103,0.00146611
4164.29511841,0.00143182
4166.22392578,0.00147465
4168.15273315,0.00141154
4170.08154053,0.00140609
4172.01034790,0.00149857
4173.93915527,0.00141295
4175.86796265,0.00137439
4177.79677002,0.00142387
4179.72557739,0.00137938
4181.65438477,0.00139612
4183.58319214,0.00148684
4185.51199951,0.00141765
4187.44080688,0.00138355
4189.36961426,0.00137356
4191.29842163,0.00136656
4193.22722900,0.00137178
4195.15603638,0.00130230
4197.08484375,0.00134587
4199.01365112,0.00135904
4200.94245850,0.00137596
4202.87126587,0.00136902
4204.80007324,0.00136454
4206.72888062,0.00138980
4208.65768799,0.00133125
4210.58649536,0.00135710
4212.51530273,0.00133240
4214.44411011,0.00132968
4216.37291748,0.00129124
4218.30172485,0.00134483
4220.23053223,0.00140047
4222.15933960,0.00125899
4224.08814697,0.00136324
4226.01695435,0.00133600
4227.94576172,0.00129094
4229.87456909,0.00131118
4231.80337646,0.00120988
4233.73218384,0.00131086
4235.66099121,0.00128969
4237.58979858,0.00121850
4239.51860596,0.00122509
4241.44741333,0.00128414
4243.37622070,0.00129073
4245.30502808,0.00118763
4247.23383545,0.00129774
4249.16264282,0.00132812
4251.09145020,0.00126188
4253.02025757,0.00129985
4254.94906494,0.00126510
4256.87787231,0.00123814
4258.80667969,0.00125944
4260.73548706,0.00122990
4262.66429443,0.00124684
4264.59310181,0.00126267
4266.52190918,0.00122116
4268.45071655,0.00122871
4270.37952393,0.00124834
4272.30833130,0.00127641
4274.23713867,0.00119357
4276.16594604,0.00119797
4278.09475342,0.00120949
4280.02356079,0.00111319
4281.95236816,0.00126070
4283.88117554,0.00119428
4285.80998291,0.00115916
4287.73879028,0.00125313
4289.66759766,0.00104381
4291.59640503,0.00114493
4293.52521240,0.00124152
4295.45401978,0.00109340
4297.38282715,0.00116814
4299.31163452,0.00121985
4301.24044189,0.00117308
4303.16924927,0.00116372
4305.09805664,0.00117717
4307.02686401,0.00118819
4308.95567139,0.00118089
4310.88447876,0.00118537
4312.81328613,0.00117834
4314.74209351,0.00119274
4316.67090088,0.00119719
4318.59970825,0.00109972
4320.52851562,0.00109906
4322.45732300,0.00112476
4324.38613037,0.00113122
4326.31493774,0.00121635
4328.24374512,0.00109440
4330.17255249,0.00107012
4332.10135986,0.00123773
4334.03016724,0.00117074
4335.95897461,0.00108522
4337.88778198,0.00112197
4339.81658936,0.00108388
4341.74539673,0.00105080
4343.67420410,0.00108728
4345.60301147,0.00104074
4347.53181885,0.00106361
4349.46062622,0.00110929
4351.38943359,0.00115072
4353.31824097,0.00118259
4355.24704834,0.00105413
4357.17585571,0.00109901
4359.10466309,0.00106994
4361.03347046,0.00102906
4362.96227783,0.00113693
4364.89108520,0.00103300
4366.81989258,0.00107900
4368.74869995,0.00109134
4370.67750732,0.00096454
4372.60631470,0.00100314
4374.53512207,0.00104011
4376.46392944,0.00100589
4378.39273682,0.00095506
4380.32154419,0.00103787
4382.25035156,0.00108901
4384.17915894,0.00105085
4386.10796631,0.00106422
4388.03677368,0.00102255
4389.96558105,0.00096081
4391.89438843,0.00104313
4393.82319580,0.00105771
4395.75200317,0.00095208
4397.68081055,0.00108460
4399.60961792,0.00105681
4401.53842529,0.00093552
4403.46723267,0.00099862
4405.39604004,0.00090588
4407.32484741,0.00098188
4409.25365478,0.00103135
4411.18246216,0.00090776
4413.11126953,0.00099030
4415.04007690,0.00101891
4416.96888428,0.00093726
4418.89769165,0.00092598
4420.82649902,0.00096840
4422.75530640,0.00096882
4424.68411377,0.00094447
4426.61292114,0.00095902
4428.54172852,0.00100058
4430.47053589,0.00100656
4432.39934326,0.00096030
4434.32815063,0.00094319
4436.25695801,0.00093886
4438.18576538,0.00095410
4440.11457275,0.00094361
4442.04338013,0.00093973
4443.97218750,0.00089529
4445.90099487,0.00083141
4447.82980225,0.00088320
4449.75860962,0.00090119
4451.68741699,0.00097344
4453.61622437,0.00091296
4455.54503174,0.00080779
4457.47383911,0.00093418
4459.40264648,0.00089906
4461.33145386,0.00088181
4463.26026123,0.00089587
4465.18906860,0.00086158
4467.11787598,0.00094828
4469.04668335,0.00093506
4470.97549072,0.00090708
4472.90429810,0.00089136
4474.83310547,0.00090144
4476.76191284,0.00088844
4478.69072021,0.00086265
4480.61952759,0.00092175
4482.54833496,0.00084749
4484.47714233,0.00085237
4486.40594971,0.00089716
4488.33475708,0.00085482
4490.26356445,0.00090382
4492.19237183,0.00091740
4494.12117920,0.00089843
4496.04998657,0.00083320
4497.97879395,0.00082392
4499.90760132,0.00087401
4501.83640869,0.00082876
4503.76521606,0.00081289
4505.69402344,0.00079851
4507.62283081,0.00081503
4509.55163818,0.00082166
4511.48044556,0.00074251
4513.40925293,0.00075519
4515.33806030,0.00080363
4517.26686768,0.00083687
4519.19567505,0.00084296
4521.12448242,0.00078766
4523.05328979,0.00079352
4524.98209717,0.00079748
4526.91090454,0.00081070
4528.83971191,0.00078842
4530.76851929,0.00069988
4532.69732666,0.00078318
4534.62613403,0.00080103
4536.55494141,0.00076521
4538.48374878,0.00081919
4540.41255615,0.00074921
4542.34136353,0.00075646
4544.27017090,0.00079020
4546.19897827,0.00077952
4548.12778564,0.00077993
4550.05659302,0.00074327
4551.98540039,0.00077420
4553.91420776,0.00076324
4555.84301514,0.00076612
4557.77182251,0.00075069
4559.70062988,0.00070997
4561.62943726,0.00077622
4563.55824463,0.00077163
4565.48705200,0.00071790
4567.41585937,0.00076053
4569.34466675,0.00080611
4571.27347412,0.00070955
4573.20228149,0.00071781
4575.13108887,0.00077714
4577.05989624,0.00074495
4578.98870361,0.00079551
4580.91751099,0.00070344
4582.84631836,0.00069398
4584.77512573,0.00079765
4586.70393311,0.00074867
4588.63274048,0.00069794
4590.56154785,0.00065431
4592.49035522,0.00074426
4594.41916260,0.00075974
4596.34796997,0.00068076
4598.27677734,0.00069396
4600.20558472,0.00070802
4602.13439209,0.00078088
4604.06319946,0.00074521
4605.99200684,0.00072270
4607.92081421,0.00072320
4609.84962158,0.00062180
4611.77842895,0.00064797
4613.70723633,0.00067619
4615.63604370,0.00068264
4617.56485107,0.00073841
4619.49365845,0.00073816
4621.42246582,0.00067200
4623.35127319,0.00070032
4625.28008057,0.00076078
4627.20888794,0.00067614
4629.13769531,0.00069079
4631.06650269,0.00069460
4632.99531006,0.00066213
4634.92411743,0.00067904
4636.85292480,0.00065585
4638.78173218,0.00076683
4640.71053955,0.00068439
4642.63934692,0.00058852
4644.56815430,0.00064153
4646.49696167,0.00057582
4648.42576904,0.00068016
4650.35457642,0.00064310
4652.28338379,0.00061464
4654.21219116,0.00071946
4656.14099853,0.00065021
4658.06980591,0.00068753
4659.99861328,0.00062422
4661.92742065,0.00063936
4663.85622803,0.00066265
4665.78503540,0.00053721
4667.71384277,0.00068714
4669.64265015,0.00073525
4671.57145752,0.00065247
4673.50026489,0.00061337
4675.42907227,0.00063019
4677.35787964,0.00065887
4679.28668701,0.00056072
4681.21549438,0.00058275
4683.14430176,0.00058688
4685.07310913,0.00059250
4687.00191650,0.00064659
4688.93072388,0.00058553
4690.85953125,0.00060020
4692.78833862,0.00062446
4694.71714600,0.00058087
4696.64595337,0.00060472
4698.57476074,0.00064186
4700.50356812,0.00064160
4702.43237549,0.00069045
4704.36118286,0.00064126
4706.28999023,0.00059571
4708.21879761,0.00062158
4710.14760498,0.00051394
4712.07641235,0.00059532
4714.00521973,0.00062936
4715.93402710,0.00051503
4717.86283447,0.00064473
4719.79164185,0.00060819
4721.72044922,0.00051674
4723.64925659,0.00062909
4725.57806396,0.00063038
4727.50687134,0.00057037
4729.43567871,0.00057833
4731.36448608,0.00062945
4733.29329346,0.00063523
4735.22210083,0.00060628
4737.15090820,0.00061211
4739.07971558,0.00056734
4741.00852295,0.00045716
4742.93733032,0.00046298
4744.86613770,0.00059130
4746.79494507,0.00057543
4748.72375244,0.00056005
4750.65255981,0.00063507
4752.58136719,0.00055609
4754.51017456,0.00052458
4756.43898193,0.00055895
4758.36778931,0.00052793
4760.29659668,0.00057706
4762.22540405,0.00062288
4764.15421143,0.00055262
4766.08301880,0.00053348
4768.01182617,0.00060270
4769.94063354,0.00048044
4771.86944092,0.00045970
4773.79824829,0.00059773
4775.72705566,0.00051458
4777.65586304,0.00053122
4779.58467041,0.00055221
4781.51347778,0.00048744
4783.44228516,0.00049222
4785.37109253,0.00051994
4787.29989990,0.00057763
4789.22870728,0.00048496
4791.15751465,0.00052325
4793.08632202,0.00056316
4795.01512939,0.00045142
4796.94393677,0.00050410
4798.87274414,0.00047037
4800.80155151,0.00048555
4802.73035889,0.00055976
4804.65916626,0.00044278
4806.58797363,0.00049233
4808.51678101,0.00061271
4810.44558838,0.00052974
4812.37439575,0.00051122
4814.30320312,0.00045268
4816.23201050,0.00045491
4818.16081787,0.00058482
4820.08962524,0.00047098
4822.01843262,0.00050758
4823.94723999,0.00051303
4825.87604736,0.00046693
4827.80485474,0.00055876
4829.73366211,0.00039911
4831.66246948,0.00051853
4833.59127686,0.00057938
4835.52008423,0.00043451
4837.44889160,0.00049676
4839.37769897,0.00042742
4841.30650635,0.00051607
4843.23531372,0.00055047
4845.16412109,0.00043024
4847.09292847,0.00048687
4849.02173584,0.00049717
4850.95054321,0.00044536
4852.87935059,0.00045492
4854.80815796,0.00049224
4856.73696533,0.00051155
4858.66577270,0.00059071
4860.59458008,0.00053066
4862.52338745,0.00044579
4864.45219482,0.00048468
4866.38100220,0.00045920
4868.30980957,0.00049447
4870.23861694,0.00047446
4872.16742432,0.00043751
4874.09623169,0.00047164
4876.02503906,0.00046574
4877.95384644,0.00046280
4879.88265381,0.00044096
4881.81146118,0.00043478
4883.74026855,0.00049138
4885.66907593,0.00051570
4887.59788330,0.00044075
4889.52669067,0.00042828
4891.45549805,0.00041875
4893.38430542,0.00037912
4895.31311279,0.00042540
4897.24192017,0.00047869
4899.17072754,0.00047540
4901.09953491,0.00039612
4903.02834228,0.00038478
4904.95714966,0.00042135
4906.88595703,0.00042865
4908.81476440,0.00038386
4910.74357178,0.00035998
4912.67237915,0.00039319
4914.60118652,0.00037265
4916.52999390,0.00041739
4918.45880127,0.00040137
4920.38760864,0.00038255
4922.31641602,0.00041344
4924.24522339,0.00040984
4926.17403076,0.00042789
4928.10283813,0.00041241
4930.03164551,0.00047230
4931.96045288,0.00042447
4933.88926025,0.00035654
4935.81806763,0.00036619
4937.74687500,0.00039318
4939.67568237,0.00044630
4941.60448975,0.00038617
4943.53329712,0.00045533
4945.46210449,0.00040715
4947.39091187,0.00034641
4949.31971924,0.00043561
4951.24852661,0.00033780
4953.17733398,0.00037206
4955.10614136,0.00040621
4957.03494873,0.00039341
4958.96375610,0.00043914
4960.89256348,0.00035539
4962.82137085,0.00039767
4964.75017822,0.00046934
4966.67898560,0.00039654
4968.60779297,0.00039212
4970.53660034,0.00040858
4972.46540771,0.00039138
4974.39421509,0.00043565
4976.32302246,0.00044216
4978.25182983,0.00038940
4980.18063721,0.00037193
4982.10944458,0.00040682
4984.03825195,0.00038438
4985.96705933,0.00036432
4987.89586670,0.00039724
4989.82467407,0.00035409
4991.75348145,0.00040018
4993.68228882,0.00038711
4995.61109619,0.00036191
4997.53990356,0.00042800
4999.46871094,0.00036688
5001.39751831,0.00036153
5003.32632568,0.00036240
5005.25513306,0.00039382
5007.18394043,0.00031182
5009.11274780,0.00023206
5011.04155518,0.00037704
5012.97036255,0.00037912
5014.89916992,0.00038635
5016.82797729,0.00036365
5018.75678467,0.00039591
5020.68559204,0.00041122
5022.61439941,0.00031125
5024.54320679,0.00040021
5026.47201416,0.00035667
5028.40082153,0.00033757
5030.32962891,0.00032909
5032.25843628,0.00033431
5034.18724365,0.00043588
5036.11605103,0.00029445
5038.04485840,0.00034211
5039.97366577,0.00039345
5041.90247314,0.00028175
5043.83128052,0.00037393
5045.76008789,0.00037719
5047.68889526,0.00030315
5049.61770264,0.00031532
5051.54651001,0.00029713
5053.47531738,0.00029353
5055.40412476,0.00032350
5057.33293213,0.00030491
5059.26173950,0.00034002
5061.19054687,0.00036437
5063.11935425,0.00033281
5065.04816162,0.00038079
5066.97696899,0.00039566
5068.90577637,0.00032836
5070.83458374,0.00026791
5072.76339111,0.00032772
5074.69219849,0.00035316
5076.62100586,0.00027403
5078.54981323,0.00031213
5080.47862061,0.00028404
5082.40742798,0.00024400
5084.33623535,0.00037066
5086.26504272,0.00032487
5088.19385010,0.00028329
5090.12265747,0.00033740
5092.05146484,0.00019818
5093.98027222,0.00029228
5095.90907959,0.00039703
5097.83788696,0.00028168
5099.76669434,0.00033509
5101.69550171,0.00029891
5103.62430908,0.00028838
5105.55311645,0.00030404
5107.48192383,0.00028688
5109.41073120,0.00034160
5111.33953857,0.00029858
5113.26834595,0.00033292
5115.19715332,0.00034336
5117.12596069,0.00031680
5119.05476807,0.00028687
5120.98357544,0.00031391
5122.91238281,0.00031074
5124.84119019,0.00020677
5126.76999756,0.00033653
5128.69880493,0.00026045
5130.62761230,0.00026065
5132.55641968,0.00042953
5134.48522705,0.00023540
5136.41403442,0.00025667
5138.34284180,0.00031714
5140.27164917,0.00022369
5142.20045654,0.00027727
5144.12926392,0.00026870
5146.05807129,0.00023366
5147.98687866,0.00029461
5149.91568603,0.00028843
5151.84449341,0.00024296
5153.77330078,0.00029209
5155.70210815,0.00025657
5157.63091553,0.00029456
5159.55972290,0.00034883
5161.48853027,0.00030225
5163.41733765,0.00034606
5165.34614502,0.00026257
5167.27495239,0.00019690
5169.20375977,0.00020808
5171.13256714,0.00023454
5173.06137451,0.00032486
5174.99018188,0.00027187
5176.91898926,0.00020471
5178.84779663,0.00022959
5180.77660400,0.00027419
5182.70541138,0.00029033
5184.63421875,0.00029211
5186.56302612,0.00026011
5188.49183350,0.00021945
5190.42064087,0.00028744
5192.34944824,0.00032253
5194.27825562,0.00027932
5196.20706299,0.00025087
5198.13587036,0.00026936
5200.06467773,0.00027516
5201.99348511,0.00026388
5203.92229248,0.00027183
5205.85109985,0.00025054
5207.77990723,0.00023314
5209.70871460,0.00022927
5211.63752197,0.00023972
5213.56632935,0.00022442
5215.49513672,0.00032291
5217.42394409,0.00037795
5219.35275146,0.00021664
5221.28155884,0.00022810
5223.21036621,0.00021986
5225.13917358,0.00017295
5227.06798096,0.00023321
5228.99678833,0.00022779
5230.92559570,0.00029430
5232.85440308,0.00026558
5234.78321045,0.00022330
5236.71201782,0.00024962
5238.64082520,0.00027351
5240.56963257,0.00032796
5242.49843994,0.00019623
5244.42724731,0.00019798
5246.35605469,0.00024555
5248.28486206,0.00019029
5250.21366943,0.00030136
5252.14247681,0.00026389
5254.07128418,0.00025178
5256.00009155,0.00031436
5257.92889893,0.00024461
5259.85770630,0.00023144
5261.78651367,0.00020692
5263.71532104,0.00027408
5265.64412842,0.00028165
5267.57293579,0.00017740
5269.50174316,0.00020225
5271.43055054,0.00020907
5273.35935791,0.00022217
5275.28816528,0.00018197
5277.21697266,0.00020344
5279.14578003,0.00030269
5281.07458740,0.00021575
5283.00339478,0.00018183
5284.93220215,0.00021800
5286.86100952,0.00024077
5288.78981689,0.00022305
5290.71862427,0.00019419
5292.64743164,0.00023927
5294.57623901,0.00019706
5296.50504639,0.00021145
5298.43385376,0.00019295
5300.36266113,0.00012291
5302.29146851,0.00019888
5304.22027588,0.00022245
5306.14908325,0.00023477
5308.07789062,0.00021465
5310.00669800,0.00018966
5311.93550537,0.00021873
5313.86431274,0.00019197
5315.79312012,0.00021580
5317.72192749,0.00022192
5319.65073486,0.00018399
5321.57954224,0.00018105
5323.50834961,0.00025575
5325.43715698,0.00026159
5327.36596436,0.00013023
5329.29477173,0.00017030
5331.22357910,0.00024384
5333.15238647,0.00026103
5335.08119385,0.00032219
5337.01000122,0.00029825
5338.93880859,0.00022151
5340.86761597,0.00015947
5342.79642334,0.00019597
5344.72523071,0.00021585
5346.65403809,0.00020812
5348.58284546,0.00025332
5350.51165283,0.00024153
5352.44046020,0.00022073
5354.36926758,0.00016480
5356.29807495,0.00017101
5358.22688232,0.00018272
5360.15568970,0.00015831
5362.08449707,0.00021169
5364.01330444,0.00013761
5365.94211182,0.00017003
5367.87091919,0.00026657
5369.79972656,0.00018028
5371.72853394,0.00017299
5373.65734131,0.00020580
5375.58614868,0.00021526
5377.51495605,0.00022236
5379.44376343,0.00018433
5381.37257080,0.00015927
5383.30137817,0.00021960
5385.23018555,0.00018606
5387.15899292,0.00015563
5389.08780029,0.00023298
5391.01660767,0.00013317
5392.94541504,0.00019634
5394.87422241,0.00022484
5396.80302978,0.00007719
5398.73183716,0.00018354
5400.66064453,0.00022887
5402.58945190,0.00024175
5404.51825928,0.00020751
5406.44706665,0.00018535
5408.37587402,0.00026994
5410.30468140,0.00023144
5412.23348877,0.00022972
5414.16229614,0.00017723
5416.09110352,0.00016475
5418.01991089,0.00016487
5419.94871826,0.00015929
5421.87752563,0.00025747
5423.80633301,0.00021308
5425.73514038,0.00021867
5427.66394775,0.00025597
5429.59275513,0.00022156
5431.52156250,0.00018468
5433.45036987,0.00016874
5435.37917725,0.00021693
5437.30798462,0.00020332
5439.23679199,0.00013234
5441.16559936,0.00009482
5443.09440674,0.00018464
5445.02321411,0.00019854
5446.95202148,0.00016285
5448.88082886,0.00018904
5450.80963623,0.00021394
5452.73844360,0.00025291
5454.66725098,0.00016605
5456.59605835,0.00019489
5458.52486572,0.00013645
5460.45367310,0.00005608
5462.38248047,0.00022998
5464.31128784,0.00019278
5466.24009521,0.00016663
5468.16890259,0.00015744
5470.09770996,0.00013479
5472.02651733,0.00025231
5473.95532471,0.00024129
5475.88413208,0.00015682
5477.81293945,0.00010247
5479.74174683,0.00017473
5481.67055420,0.00024158
5483.59936157,0.00024454
5485.52816895,0.00021798
5487.45697632,0.00013834
5489.38578369,0.00013164
5491.31459106,0.00014449
5493.24339844,0.00012493
5495.17220581,0.00014404
5497.10101318,0.00022567
5499.02982056,0.00011151
5500.95862793,0.00007502
5502.88743530,0.00017981
5504.81624268,0.00012432
5506.74505005,0.00020144
5508.67385742,0.00018648
5510.60266479,0.00016077
5512.53147217,0.00018261
5514.46027954,0.00008192
5516.38908691,0.00011909
5518.31789429,0.00014638
5520.24670166,0.00016392
5522.17550903,0.00013478
5524.10431641,0.00013800
5526.03312378,0.00018167
5527.96193115,0.00008506
5529.89073853,0.00003196
5531.81954590,0.00009801
5533.74835327,0.00018542
5535.67716064,0.00012529
5537.60596802,0.00014855
5539.53477539,0.00015206
5541.46358276,0.00006641
5543.39239014,0.00014236
5545.32119751,0.00014798
5547.25000488,0.00017030
5549.17881226,0.00014613
5551.10761963,0.00012131
5553.03642700,0.00016003
5554.96523437,0.00010210
5556.89404175,0.00014733
5558.82284912,0.00016591
5560.75165649,0.00012583
5562.68046387,0.00012305
5564.60927124,0.00015604
5566.53807861,0.00014074
5568.46688599,0.00013030
5570.39569336,0.00021257
5572.32450073,0.00014204
5574.25330811,0.00010685
5576.18211548,0.00013344
5578.11092285,0.00013685
5580.03973022,0.00017170
5581.96853760,0.00011984
5583.89734497,0.00010806
5585.82615234,0.00013402
5587.75495972,0.00015883
5589.68376709,0.00016760
5591.61257446,0.00013522
5593.54138184,0.00010879
5595.47018921,0.00013267
5597.39899658,0.00016342
5599.32780395,0.00009668
5601.25661133,0.00007860
5603.18541870,0.00013480
5605.11422607,0.00011771
5607.04303345,0.00011724
5608.97184082,0.00013892
5610.90064819,0.00009535
5612.82945557,0.00019615
5614.75826294,0.00019152
5616.68707031,0.00004342
5618.61587769,0.00014520
5620.54468506,0.00018112
5622.47349243,0.00017587
5624.40229980,0.00012850
5626.33110718,0.00007659
5628.25991455,0.00019769
5630.18872192,0.00017557
5632.11752930,0.00012651
5634.04633667,0.00009099
5635.97514404,0.00016300
5637.90395142,0.00015844
5639.83275879,0.00008171
5641.76156616,0.00018258
5643.69037353,0.00005342
5645.61918091,0.00011807
5647.54798828,0.00017419
5649.47679565,0.00004752
5651.40560303,0.00015794
5653.33441040,0.00008331
5655.26321777,0.00009795
5657.19202515,0.00008859
5659.12083252,0.00000666
5661.04963989,0.00015009
5662.97844727,0.00014299
5664.90725464,0.00010652
5666.83606201,0.00008910
5668.76486938,0.00009656
5670.69367676,0.00011950
5672.62248413,0.00008186
5674.55129150,0.00009047
5676.48009888,0.00007890
5678.40890625,0.00010019
5680.33771362,0.00012469
5682.26652100,0.00013708
5684.19532837,0.00013617
5686.12413574,0.00015214
5688.05294311,0.00014822
5689.98175049,0.00009455
5691.91055786,0.00017796
5693.83936523,0.00015542
5695.76817261,0.00005309
5697.69697998,0.00007714
5699.62578735,0.00010016
5701.55459473,0.00008000
5703.48340210,0.00006934
5705.41220947,0.00013833
5707.34101685,0.00010475
5709.26982422,0.00011684
5711.19863159,0.00019422
5713.12743896,0.00013548
5715.05624634,0.00010516
5716.98505371,0.00003960
5718.91386108,0.00003143
5720.84266846,0.00006552
5722.77147583,0.00011587
5724.70028320,0.00015191
5726.62909058,0.00002593
5728.55789795,0.00006433
5730.48670532,0.00009399
5732.41551270,0.00009331
5734.34432007,0.00017958
5736.27312744,0.00012869
5738.20193481,0.00013837
5740.13074219,0.00005452
5742.05954956,0.00002502
5743.98835693,0.00014473
5745.91716431,0.00007326
5747.84597168,0.00008880
5749.77477905,0.00010483
5751.70358643,0.00008452
5753.63239380,0.00012457
5755.56120117,0.00008643
5757.49000854,0.00009851
5759.41881592,0.00003401
5761.34762329,0.00003453
5763.27643066,0.00012218
5765.20523804,0.00010470
5767.13404541,0.00014623
5769.06285278,0.00006054
5770.99166016,0.00005228
5772.92046753,0.00016576
5774.84927490,0.00007442
5776.77808228,0.00011115
5778.70688965,0.00010487
5780.63569702,0.00005970
5782.56450439,0.00014060
5784.49331177,0.00004371
5786.42211914,0.00008567
5788.35092651,0.00012799
5790.27973389,0.00003084
5792.20854126,0.00008915
5794.13734863,0.00007982
5796.06615601,0.00008455
5797.99496338,0.00010375
5799.92377075,0.00008684
5801.85257812,0.00007935
5803.78138550,0.00000552
5805.71019287,0.00009743
5807.63900024,0.00012473
5809.56780762,0.00003526
5811.49661499,0.00010899
5813.42542236,0.00013811
5815.35422974,0.00006174
5817.28303711,0.00006209
5819.21184448,0.00012422
5821.14065186,0.00008998
5823.06945923,0.00006700
5824.99826660,0.00007371
5826.92707397,0.00007687
5828.85588135,0.00009801
5830.78468872,0.00006015
5832.71349609,0.00007047
5834.64230347,0.00006292
5836.57111084,0.00008863
5838.49991821,0.00009944
5840.42872559,0.00002763
5842.35753296,0.00008201
5844.28634033,0.00008038
5846.21514770,0.00003254
5848.14395508,0.00005270
5850.07276245,0.00007828
5852.00156982,0.00014367
5853.93037720,0.00010069
5855.85918457,0.00000324
5857.78799194,0.00010370
5859.71679932,0.00012981
5861.64560669,-0.00002489
5863.57441406,0.00001899
5865.50322144,0.00008799
5867.43202881,0.00008672
5869.36083618,0.00010832
5871.28964355,0.00008104
5873.21845093,0.00016242
5875.14725830,0.00012399
5877.07606567,0.00007314
5879.00487305,0.00014085
5880.93368042,0.00003325
5882.86248779,0.00006397
5884.79129517,0.00009334
5886.72010254,0.00000595
5888.64890991,0.00005225
5890.57771728,0.00006768
5892.50652466,0.00010499
5894.43533203,0.00009418
5896.36413940,0.00006971
5898.29294678,0.00007603
5900.22175415,0.00006562
5902.15056152,0.00013329
5904.07936890,0.00009040
5906.00817627,0.00006901
5907.93698364,0.00013755
5909.86579102,0.00009188
5911.79459839,0.00003539
5913.72340576,-0.00000402
5915.65221313,0.00000502
5917.58102051,0.00011160
5919.50982788,0.00014908
5921.43863525,0.00013196
5923.36744263,0.00016250
5925.29625000,0.00011526
5927.22505737,0.00005574
5929.15386475,0.00009405
5931.08267212,0.00009029
5933.01147949,0.00003611
5934.94028686,0.00003860
5936.86909424,0.00004668
5938.79790161,0.00003997
5940.72670898,0.00009971
5942.65551636,0.00011966
5944.58432373,0.00010968
5946.51313110,0.00009911
5948.44193848,0.00000503
5950.37074585,-0.00001273
5952.29955322,0.00005119
5954.22836060,0.00008836
5956.15716797,0.00009114
5958.08597534,0.00006604
5960.01478271,0.00005615
5961.94359009,0.00007085
5963.87239746,0.00007656
5965.80120483,0.00004446
5967.73001221,0.00005586
5969.65881958,0.00007241
5971.58762695,0.00007602
5973.51643433,0.00013380
5975.44524170,0.00012262
5977.37404907,0.00014612
5979.30285645,0.00015002
5981.23166382,0.00001935
5983.16047119,0.00003357
5985.08927856,0.00007491
5987.01808594,0.00010307
5988.94689331,0.00006357
5990.87570068,-0.00005221
5992.80450806,0.00010073
5994.73331543,0.00015360
5996.66212280,0.00005597
5998.59093018,0.00007683
6000.51973755,0.00005176
