399.26312622,0.00089518
401.19193359,0.00094071
403.12074097,0.00079560
405.04954834,0.00106351
406.97835571,0.00091826
408.90716309,0.00121505
410.83597046,0.00095543
412.76477783,0.00073949
414.69358521,0.00126862
416.62239258,0.00107470
418.55119995,0.00081693
420.48000732,0.00086780
422.40881470,0.00125040
424.33762207,0.00117433
426.26642944,0.00150979
428.19523682,0.00177569
430.12404419,0.00116410
432.05285156,0.00106785
433.98165894,0.00093361
435.91046631,0.00108092
437.83927368,0.00117295
439.76808105,0.00114544
441.69688843,0.00103683
443.62569580,0.00077846
445.55450317,0.00090142
447.48331055,0.00103237
449.41211792,0.00121415
451.34092529,0.00086830
453.26973267,0.00095695
455.19854004,0.00074388
457.12734741,0.00082636
459.05615479,0.00124979
460.98496216,0.00031875
462.91376953,0.00082320
464.84257690,0.00064386
466.77138428,0.00015365
468.70019165,0.00077582
470.62899902,0.00055537
472.55780640,0.00074182
474.48661377,0.00020996
476.41542114,0.00027178
478.34422852,0.00057915
480.27303589,0.00023180
482.20184326,0.00036504
484.13065063,-0.00006188
486.05945801,0.00039530
487.98826538,0.00075661
489.91707275,0.00066335
491.84588013,0.00026204
493.77468750,-0.00009382
495.70349487,0.00045338
497.63230225,0.00013817
499.56110962,0.00029475
501.48991699,0.00042576
503.41872437,0.00039638
505.34753174,0.00042983
507.27633911,-0.00016580
509.20514648,0.00008172
511.13395386,0.00038916
513.06276123,0.00041564
514.99156860,-0.00009185
516.92037598,0.00019441
518.84918335,0.00058689
520.77799072,-0.00018632
522.70679810,0.00017200
524.63560547,0.00023680
526.56441284,0.00001029
528.49322021,0.00021256
530.42202759,0.00025885
532.35083496,0.00010940
534.27964233,-0.00026172
536.20844971,0.00040582
538.13725708,0.00054936
540.06606445,0.00014667
541.99487183,0.00014022
543.92367920,0.00015333
545.85248657,0.00033866
547.78129395,0.00001322
549.71010132,-0.00013395
551.63890869,0.00005756
553.56771606,0.00008102
555.49652344,0.00011107
557.42533081,0.00035420
559.35413818,0.00022031
561.28294556,-0.00004188
563.21175293,0.00028083
565.14056030,0.00024082
567.06936768,0.00041772
568.99817505,0.00020217
570.92698242,-0.00012484
572.85578979,-0.00014192
574.78459717,-0.00036712
576.71340454,0.00031811
578.64221191,0.00012077
580.57101929,0.00000662
582.49982666,0.00079841
584.42863403,0.00015517
586.35744141,-0.00014918
588.28624878,0.00043227
590.21505615,0.00029062
592.14386353,0.00001442
594.07267090,0.00010448
596.00147827,0.00002492
597.93028564,-0.00003364
599.85909302,-0.00001381
601.78790039,0.00004767
603.71670776,0.00000598
605.64551514,-0.00005292
607.57432251,0.00031480
609.50312988,-0.00005830
611.43193726,-0.00020814
613.36074463,0.00018770
615.28955200,0.00018467
617.21835938,0.00017253
619.14716675,-0.00009149
621.07597412,0.00007061
623.00478149,0.00018895
624.93358887,-0.00007122
626.86239624,-0.00008518
628.79120361,-0.00027782
630.72001099,0.00022561
632.64881836,0.00083364
634.57762573,0.00073417
636.50643311,0.00088189
638.43524048,0.00082545
640.36404785,0.00122703
642.29285522,0.00121998
644.22166260,0.00082232
646.15046997,0.00157318
648.07927734,0.00153969
650.00808472,0.00126061
651.93689209,0.00142172
653.86569946,0.00167491
655.79450684,0.00175005
657.72331421,0.00121319
659.65212158,0.00150935
661.58092896,0.00173594
663.50973633,0.00184249
665.43854370,0.00205398
667.36735107,0.00171516
669.29615845,0.00192831
671.22496582,0.00226104
673.15377319,0.00245021
675.08258057,0.00233897
677.01138794,0.00202391
678.94019531,0.00245464
680.86900269,0.00276261
682.79781006,0.00245936
684.72661743,0.00228669
686.65542480,0.00229424
688.58423218,0.00262953
690.51303955,0.00279568
692.44184692,0.00234031
694.37065430,0.00267516
696.29946167,0.00337539
698.22826904,0.00366153
700.15707642,0.00392130
702.08588379,0.00372631
704.01469116,0.00342926
705.94349854,0.00309553
707.87230591,0.00272684
709.80111328,0.00208440
711.72992065,0.00123586
713.65872803,0.00097868
715.58753540,0.00065394
717.51634277,0.00026053
719.44515015,0.00042593
721.37395752,0.00056890
723.30276489,0.00031905
725.23157227,0.00046599
727.16037964,0.00061146
729.08918701,0.00013196
731.01799438,0.00017468
732.94680176,0.00041210
734.87560913,0.00018894
736.80441650,0.00005164
738.73322388,0.00010390
740.66203125,0.00025743
742.59083862,0.00045658
744.51964600,0.00026388
746.44845337,0.00009156
748.37726074,0.00033625
750.30606812,0.00029352
752.23487549,0.00037712
754.16368286,0.00060151
756.09249023,0.00026653
758.02129761,0.00015364
759.95010498,0.00040538
761.87891235,0.00038059
763.80771973,0.00016892
765.73652710,0.00019852
767.66533447,0.00019328
769.59414185,0.00021291
771.52294922,0.00025674
773.45175659,0.00022209
775.38056396,0.00054156
777.30937134,0.00039571
779.23817871,0.00032062
781.16698608,0.00048745
783.09579346,0.00017680
785.02460083,0.00053351
786.95340820,0.00066617
788.88221558,0.00013602
790.81102295,0.00022834
792.73983032,0.00035335
794.66863770,0.00029724
796.59744507,0.00050596
798.52625244,0.00064690
800.45505981,0.00060453
802.38386719,0.00055337
804.31267456,0.00050593
806.24148193,0.00055442
808.17028931,0.00058389
810.09909668,0.00034255
812.02790405,0.00031312
813.95671143,0.00052610
815.88551880,0.00052405
817.81432617,0.00051059
819.74313354,0.00024609
821.67194092,0.00012719
823.60074829,0.00048381
825.52955566,0.00040296
827.45836304,0.00035598
829.38717041,0.00040794
831.31597778,0.00040380
833.24478516,0.00074595
835.17359253,0.00061219
837.10239990,0.00047929
839.03120728,0.00079421
840.96001465,0.00099094
842.88882202,0.00108690
844.81762939,0.00092505
846.74643677,0.00073752
848.67524414,0.00083762
850.60405151,0.00079502
852.53285889,0.00067071
854.46166626,0.00086322
856.39047363,0.00064337
858.31928101,0.00033529
860.24808838,0.00043045
862.17689575,0.00039262
864.10570313,0.00039923
866.03451050,0.00031598
867.96331787,0.00031303
869.89212524,0.00032486
871.82093262,0.00027949
873.74973999,0.00053553
875.67854736,0.00059878
877.60735474,0.00037700
879.53616211,0.00030499
881.46496948,0.00037610
883.39377686,0.00034020
885.32258423,0.00037960
887.25139160,0.00031699
889.18019897,0.00033923
891.10900635,0.00032812
893.03781372,0.00018045
894.96662109,0.00049086
896.89542847,0.00014814
898.82423584,0.00026893
900.75304321,0.00088926
902.68185059,0.00042841
904.61065796,0.00036447
906.53946533,0.00039320
908.46827271,0.00054614
910.39708008,0.00048408
912.32588745,0.00024515
914.25469482,0.00065588
916.18350220,0.00062523
918.11230957,0.00073496
920.04111694,0.00054609
921.96992432,0.00055647
923.89873169,0.00091609
925.82753906,0.00094079
927.75634644,0.00108858
929.68515381,0.00096745
931.61396118,0.00144153
933.54276855,0.00112043
935.47157593,0.00080396
937.40038330,0.00140271
939.32919067,0.00113934
941.25799805,0.00123062
943.18680542,0.00130014
945.11561279,0.00135137
947.04442017,0.00144495
948.97322754,0.00148520
950.90203491,0.00150910
952.83084229,0.00105298
954.75964966,0.00130206
956.68845703,0.00120992
958.61726440,0.00089030
960.54607178,0.00121749
962.47487915,0.00146258
964.40368652,0.00138593
966.33249390,0.00125029
968.26130127,0.00147712
970.19010864,0.00158794
972.11891602,0.00175468
974.04772339,0.00179113
975.97653076,0.00185945
977.90533813,0.00200434
979.83414551,0.00208972
981.76295288,0.00225216
983.69176025,0.00222507
985.62056763,0.00280870
987.54937500,0.00308502
989.47818237,0.00310106
991.40698975,0.00364292
993.33579712,0.00411943
995.26460449,0.00442335
997.19341187,0.00460154
999.12221924,0.00508324
1001.05102661,0.00525224
1002.97983398,0.00571487
1004.90864136,0.00618543
1006.83744873,0.00622553
1008.76625610,0.00685129
1010.69506348,0.00712258
1012.62387085,0.00759534
1014.55267822,0.00812947
1016.48148560,0.00838687
1018.41029297,0.00878416
1020.33910034,0.00895598
1022.26790771,0.00957795
1024.19671509,0.00999893
1026.12552246,0.01020938
1028.05432983,0.01059597
1029.98313721,0.01088718
1031.91194458,0.01128978
1033.84075195,0.01142466
1035.76955933,0.01145042
1037.69836670,0.01155227
1039.62717407,0.01161392
1041.55598145,0.01175263
1043.48478882,0.01178323
1045.41359619,0.01149174
1047.34240356,0.01135080
1049.27121094,0.01120041
1051.20001831,0.01092389
1053.12882568,0.01083678
1055.05763306,0.01061808
1056.98644043,0.01043960
1058.91524780,0.01004730
1060.84405518,0.00985948
1062.77286255,0.00960478
1064.70166992,0.00892057
1066.63047729,0.00879564
1068.55928467,0.00844196
1070.48809204,0.00818420
1072.41689941,0.00783396
1074.34570679,0.00714442
1076.27451416,0.00723410
1078.20332153,0.00711905
1080.13212891,0.00664786
1082.06093628,0.00628476
1083.98974365,0.00609306
1085.91855103,0.00569657
1087.84735840,0.00523276
1089.77616577,0.00523762
1091.70497314,0.00480004
1093.63378052,0.00446423
1095.56258789,0.00452441
1097.49139526,0.00432818
1099.42020264,0.00428993
1101.34901001,0.00447399
1103.27781738,0.00425336
1105.20662476,0.00388026
1107.13543213,0.00399284
1109.06423950,0.00395800
1110.99304687,0.00394827
1112.92185425,0.00396856
1114.85066162,0.00379672
1116.77946899,0.00375298
1118.70827637,0.00360628
1120.63708374,0.00373591
1122.56589111,0.00375536
1124.49469849,0.00384170
1126.42350586,0.00408318
1128.35231323,0.00393884
1130.28112061,0.00423207
1132.20992798,0.00431156
1134.13873535,0.00425098
1136.06754272,0.00461343
1137.99635010,0.00459973
1139.92515747,0.00495385
1141.85396484,0.00537522
1143.78277222,0.00551923
1145.71157959,0.00621535
1147.64038696,0.00646582
1149.56919434,0.00659829
1151.49800171,0.00712972
1153.42680908,0.00731033
1155.35561646,0.00778944
1157.28442383,0.00808263
1159.21323120,0.00822932
1161.14203857,0.00871614
1163.07084595,0.00884467
1164.99965332,0.00930471
1166.92846069,0.00976822
1168.85726807,0.01011614
1170.78607544,0.01058086
1172.71488281,0.01050669
1174.64369019,0.01085420
1176.57249756,0.01147948
1178.50130493,0.01179968
1180.43011230,0.01227167
1182.35891968,0.01293971
1184.28772705,0.01362574
1186.21653442,0.01405685
1188.14534180,0.01463235
1190.07414917,0.01530451
1192.00295654,0.01588667
1193.93176392,0.01660550
1195.86057129,0.01738503
1197.78937866,0.01819425
1199.71818604,0.01904040
1201.64699341,0.02001149
1203.57580078,0.02070852
1205.50460815,0.02138465
1207.43341553,0.02225694
1209.36222290,0.02292339
1211.29103027,0.02373512
1213.21983765,0.02432997
1215.14864502,0.02481895
1217.07745239,0.02551633
1219.00625977,0.02580431
1220.93506714,0.02607995
1222.86387451,0.02645697
1224.79268188,0.02669355
1226.72148926,0.02705113
1228.65029663,0.02719270
1230.57910400,0.02720641
1232.50791138,0.02738979
1234.43671875,0.02747170
1236.36552612,0.02747281
1238.29433350,0.02727021
1240.22314087,0.02729215
1242.15194824,0.02729248
1244.08075562,0.02677412
1246.00956299,0.02696181
1247.93837036,0.02704121
1249.86717773,0.02655448
1251.79598511,0.02648842
1253.72479248,0.02620203
1255.65359985,0.02584883
1257.58240723,0.02561119
1259.51121460,0.02523108
1261.44002197,0.02463922
1263.36882935,0.02435717
1265.29763672,0.02423643
1267.22644409,0.02370754
1269.15525146,0.02366656
1271.08405884,0.02318325
1273.01286621,0.02254852
1274.94167358,0.02255123
1276.87048096,0.02189285
1278.79928833,0.02145869
1280.72809570,0.02135598
1282.65690308,0.02091290
1284.58571045,0.02043123
1286.51451782,0.01994515
1288.44332520,0.01977746
1290.37213257,0.01959006
1292.30093994,0.01926185
1294.22974731,0.01910742
1296.15855469,0.01894160
1298.08736206,0.01898032
1300.01616943,0.01922094
1301.94497681,0.01927430
1303.87378418,0.01937684
1305.80259155,0.01943347
1307.73139893,0.01968021
1309.66020630,0.02012319
1311.58901367,0.02022870
1313.51782104,0.02067516
1315.44662842,0.02137175
1317.37543579,0.02180492
1319.30424316,0.02203230
1321.23305054,0.02272506
1323.16185791,0.02371927
1325.09066528,0.02428858
1327.01947266,0.02524067
1328.94828003,0.02578062
1330.87708740,0.02613745
1332.80589478,0.02683784
1334.73470215,0.02720551
1336.66350952,0.02764451
1338.59231689,0.02705796
1340.52112427,0.02731160
1342.44993164,0.02887058
1344.37873901,0.02898127
1346.30754639,0.02901048
1348.23635376,0.02879252
1350.16516113,0.02860790
1352.09396851,0.02904651
1354.02277588,0.02846720
1355.95158325,0.02814707
1357.88039062,0.02790680
1359.80919800,0.02738244
1361.73800537,0.02620989
1363.66681274,0.02545843
1365.59562012,0.02706944
1367.52442749,0.02657456
1369.45323486,0.02609479
1371.38204224,0.02683971
1373.31084961,0.02511451
1375.23965698,0.02531301
1377.16846436,0.02619582
1379.09727173,0.02604822
1381.02607910,0.02611700
1382.95488647,0.02610111
1384.88369385,0.02638627
1386.81250122,0.02461403
1388.74130859,0.02464187
1390.67011597,0.02750325
1392.59892334,0.02668187
1394.52773071,0.02440566
1396.45653809,0.02579379
1398.38534546,0.02571311
1400.31415283,0.02568102
1402.24296021,0.02841826
1404.17176758,0.02623589
1406.10057495,0.02625628
1408.02938232,0.02789325
1409.95818970,0.02653769
1411.88699707,0.02724135
1413.81580444,0.02622711
1415.74461182,0.02682124
1417.67341919,0.02379663
1419.60222656,0.02068302
1421.53103394,0.02485627
1423.45984131,0.02396323
1425.38864868,0.02316429
1427.31745605,0.02367437
1429.24626343,0.02149540
1431.17507080,0.02108089
1433.10387817,0.02162619
1435.03268555,0.01949512
1436.96149292,0.01606451
1438.89030029,0.01903625
1440.81910767,0.01985256
1442.74791504,0.01797086
1444.67672241,0.01920939
1446.60552979,0.01746688
1448.53433716,0.01747242
1450.46314453,0.01828203
1452.39195190,0.01857746
1454.32075928,0.01926919
1456.24956665,0.01544306
1458.17837402,0.01573091
1460.10718140,0.02194495
1462.03598877,0.02366434
1463.96479614,0.02298014
1465.89360352,0.02388057
1467.82241089,0.02779364
1469.75121826,0.02991574
1471.68002563,0.02556165
1473.60883301,0.02700321
1475.53764038,0.03140749
1477.46644775,0.03378919
1479.39525513,0.03757651
1481.32406250,0.03793918
1483.25286987,0.04049657
1485.18167725,0.04162930
1487.11048462,0.04033516
1489.03929199,0.03966880
1490.96809937,0.03976428
1492.89690674,0.04763084
1494.82571411,0.04595798
1496.75452148,0.04021689
1498.68332886,0.04641382
1500.61213623,0.04807191
1502.54094360,0.05207835
1504.46975098,0.04849793
1506.39855835,0.03272092
1508.32736572,0.04132589
1510.25617310,0.05030232
1512.18498047,0.04872216
1514.11378784,0.05329533
1516.04259521,0.04680898
1517.97140259,0.04921617
1519.90020996,0.04746176
1521.82901733,0.03952472
1523.75782471,0.05063840
1525.68663208,0.04949445
1527.61543945,0.04899647
1529.54424683,0.05562213
1531.47305420,0.05281221
1533.40186157,0.04734673
1535.33066895,0.05078503
1537.25947632,0.05521035
1539.18828369,0.03699432
1541.11709106,0.03878953
1543.04589844,0.04824869
1544.97470581,0.04582430
1546.90351318,0.05644659
1548.83232056,0.05199248
1550.76112793,0.05357102
1552.68993530,0.05355801
1554.61874268,0.04761442
1556.54755005,0.05153254
1558.47635742,0.03373926
1560.40516479,0.03698412
1562.33397217,0.05668759
1564.26277954,0.05302641
1566.19158691,0.05474333
1568.12039429,0.05396540
1570.04920166,0.04633865
1571.97800903,0.05533110
1573.90681641,0.05622544
1575.83562378,0.04241879
1577.76443115,0.04946812
1579.69323853,0.05707301
1581.62204590,0.05406582
1583.55085327,0.05553848
1585.47966064,0.05469609
1587.40846802,0.05536750
1589.33727539,0.05470398
1591.26608276,0.05465478
1593.19489014,0.05439126
1595.12369751,0.05363209
1597.05250488,0.05466710
1598.98131226,0.05405756
1600.91011963,0.05451646
1602.83892700,0.05319300
1604.76773437,0.05416963
1606.69654175,0.05327848
1608.62534912,0.05303515
1610.55415649,0.05312068
1612.48296387,0.05342979
1614.41177124,0.05424070
1616.34057861,0.04276040
1618.26938599,0.04713129
1620.19819336,0.05646624
1622.12700073,0.04890234
1624.05580811,0.04898768
1625.98461548,0.05220622
1627.91342285,0.05208344
1629.84223022,0.05183036
1631.77103760,0.05622347
1633.69984497,0.05100802
1635.62865234,0.04047311
1637.55745972,0.04901469
1639.48626709,0.05530341
1641.41507446,0.05385493
1643.34388184,0.05555916
1645.27268921,0.04926146
1647.20149658,0.04179220
1649.13030396,0.05465631
1651.05911133,0.05231518
1652.98791870,0.03049243
1654.91672607,0.04414516
1656.84553345,0.05838712
1658.77434082,0.05589744
1660.70314819,0.05757467
1662.63195557,0.05151273
1664.56076294,0.05515701
1666.48957031,0.06025586
1668.41837769,0.05103817
1670.34718506,0.04929232
1672.27599243,0.05771885
1674.20479980,0.05255637
1676.13360718,0.05005305
1678.06241455,0.05942302
1679.99122192,0.05692163
1681.92002930,0.05587267
1683.84883667,0.04380688
1685.77764404,0.04349460
1687.70645142,0.06318987
1689.63525879,0.05357368
1691.56406616,0.05990108
1693.49287354,0.06148869
1695.42168091,0.04213259
1697.35048828,0.05446677
1699.27929565,0.04669731
1701.20810303,0.04072543
1703.13691040,0.05958255
1705.06571777,0.05362717
1706.99452515,0.05420306
1708.92333252,0.06027266
1710.85213989,0.05747220
1712.78094727,0.05852909
1714.70975464,0.05339783
1716.63856201,0.04717711
1718.56736938,0.04619361
1720.49617676,0.05668108
1722.42498413,0.05964394
1724.35379150,0.05437886
1726.28259888,0.06040528
1728.21140625,0.05500540
1730.14021362,0.05511853
1732.06902100,0.05391601
1733.99782837,0.03869739
1735.92663574,0.05056382
1737.85544312,0.05689549
1739.78425049,0.04936532
1741.71305786,0.05474505
1743.64186523,0.05534701
1745.57067261,0.05553955
1747.49947998,0.05576948
1749.42828735,0.05257827
1751.35709473,0.05004544
1753.28590210,0.05678561
1755.21470947,0.05996978
1757.14351685,0.05339765
1759.07232422,0.06008186
1761.00113159,0.05576322
1762.92993896,0.05312687
1764.85874634,0.06264569
1766.78755371,0.05523316
1768.71636108,0.05589849
1770.64516846,0.05517655
1772.57397583,0.04854534
1774.50278320,0.05571662
1776.43159058,0.05913450
1778.36039795,0.05820521
1780.28920532,0.05735208
1782.21801270,0.05800018
1784.14682007,0.05782480
1786.07562744,0.05633967
1788.00443481,0.06000107
1789.93324219,0.05801522
1791.86204956,0.05122616
1793.79085693,0.05398870
1795.71966431,0.05894525
1797.64847168,0.05796279
1799.57727905,0.05686481
1801.50608643,0.05549920
1803.43489380,0.05765358
1805.36370117,0.05949939
1807.29250854,0.05848135
1809.22131592,0.05866709
1811.15012329,0.05655207
1813.07893066,0.05878969
1815.00773804,0.05923254
1816.93654541,0.05814757
1818.86535278,0.05895811
1820.79416016,0.05870641
1822.72296753,0.05975426
1824.65177490,0.05488135
1826.58058228,0.05713335
1828.50938965,0.05736282
1830.43819702,0.05295077
1832.36700439,0.05891776
1834.29581177,0.05843525
1836.22461914,0.05823369
1838.15342651,0.05787417
1840.08223389,0.05843753
1842.01104126,0.05876100
1843.93984863,0.05048764
1845.86865601,0.05477792
1847.79746338,0.05843451
1849.72627075,0.05682967
1851.65507812,0.05911124
1853.58388550,0.05746783
1855.51269287,0.05814859
1857.44150024,0.05788691
1859.37030762,0.05751586
1861.29911499,0.05786365
1863.22792236,0.05710769
1865.15672974,0.05800451
1867.08553711,0.05551861
1869.01434448,0.05260247
1870.94315186,0.05518909
1872.87195923,0.05792372
1874.80076660,0.05671145
1876.72957397,0.05707131
1878.65838135,0.05692494
1880.58718872,0.05659246
1882.51599609,0.05721024
1884.44480347,0.05583318
1886.37361084,0.05711825
1888.30241821,0.05555504
1890.23122559,0.05405945
1892.16003296,0.05681793
1894.08884033,0.05561000
1896.01764771,0.05532090
1897.94645508,0.05623484
1899.87526245,0.05569416
1901.80406982,0.05586581
1903.73287720,0.05559990
1905.66168457,0.05586065
1907.59049194,0.05509504
1909.51929932,0.05469676
1911.44810669,0.05508463
1913.37691406,0.05515216
1915.30572144,0.05582890
1917.23452881,0.05284661
1919.16333618,0.05281067
1921.09214355,0.05542478
1923.02095093,0.05327872
1924.94975830,0.05470246
1926.87856567,0.05552054
1928.80737305,0.05442417
1930.73618042,0.05534250
1932.66498779,0.05430146
1934.59379517,0.05497004
1936.52260254,0.05460841
1938.45140991,0.05459282
1940.38021729,0.05475472
1942.30902466,0.05245917
1944.23783203,0.05363581
1946.16663940,0.05433492
1948.09544678,0.05421418
1950.02425415,0.05466832
1951.95306152,0.05430282
1953.88186890,0.05443949
1955.81067627,0.05408426
1957.73948364,0.05424076
1959.66829102,0.05415562
1961.59709839,0.05395817
1963.52590576,0.05419564
1965.45471313,0.05373874
1967.38352051,0.05309098
1969.31232788,0.05346803
1971.24113525,0.05402069
1973.16994263,0.05374520
1975.09875000,0.05384197
1977.02755737,0.05350214
1978.95636475,0.05356742
1980.88517212,0.05349880
1982.81397949,0.05313359
1984.74278687,0.05355341
1986.67159424,0.05305715
1988.60040161,0.05315442
1990.52920898,0.05271674
1992.45801636,0.05182815
1994.38682373,0.05270815
1996.31563110,0.05301541
1998.24443848,0.05262623
2000.17324585,0.05250977
2002.10205322,0.05245535
2004.03086060,0.05253333
2005.95966797,0.05235307
2007.88847534,0.05204535
2009.81728271,0.05218158
2011.74609009,0.05194902
2013.67489746,0.05178490
2015.60370483,0.05167480
2017.53251221,0.05101729
2019.46131958,0.05126059
2021.39012695,0.05135037
2023.31893433,0.05123731
2025.24774170,0.05135692
2027.17654907,0.05110056
2029.10535645,0.05105588
2031.03416382,0.05096471
2032.96297119,0.05083105
2034.89177856,0.05054001
2036.82058594,0.05066494
2038.74939331,0.05061051
2040.67820068,0.05004623
2042.60700806,0.04997540
2044.53581543,0.04997704
2046.46462280,0.05009298
2048.39343018,0.04991077
2050.32223755,0.04969510
2052.25104492,0.04966889
2054.17985229,0.04952324
2056.10865967,0.04952451
2058.03746704,0.04951973
2059.96627441,0.04935725
2061.89508179,0.04909132
2063.82388916,0.04894834
2065.75269653,0.04868822
2067.68150391,0.04882181
2069.61031128,0.04885883
2071.53911865,0.04867699
2073.46792603,0.04875737
2075.39673340,0.04850872
2077.32554077,0.04856247
2079.25434814,0.04837903
2081.18315552,0.04820068
2083.11196289,0.04821292
2085.04077026,0.04793764
2086.96957764,0.04801773
2088.89838501,0.04796598
2090.82719238,0.04786637
2092.75599976,0.04774015
2094.68480713,0.04770563
2096.61361450,0.04757955
2098.54242187,0.04737381
2100.47122925,0.04744346
2102.40003662,0.04720594
2104.32884399,0.04713266
2106.25765137,0.04717920
2108.18645874,0.04717002
2110.11526611,0.04705454
2112.04407349,0.04690212
2113.97288086,0.04695117
2115.90168823,0.04681353
2117.83049561,0.04676259
2119.75930298,0.04672883
2121.68811035,0.04651176
2123.61691772,0.04638614
2125.54572510,0.04643280
2127.47453247,0.04643732
2129.40333984,0.04648271
2131.33214722,0.04627904
2133.26095459,0.04609279
2135.18976196,0.04619613
2137.11856934,0.04599899
2139.04737671,0.04617896
2140.97618408,0.04610700
2142.90499146,0.04588085
2144.83379883,0.04596437
2146.76260620,0.04584812
2148.69141357,0.04600439
2150.62022095,0.04577170
2152.54902832,0.04564989
2154.47783569,0.04559116
2156.40664307,0.04552822
2158.33545044,0.04561230
2160.26425781,0.04526407
2162.19306519,0.04544061
2164.12187256,0.04535113
2166.05067993,0.04525018
2167.97948730,0.04535066
2169.90829468,0.04505320
2171.83710205,0.04521564
2173.76590942,0.04518510
2175.69471680,0.04505987
2177.62352417,0.04510888
2179.55233154,0.04498462
2181.48113892,0.04481333
2183.40994629,0.04478166
2185.33875366,0.04486525
2187.26756104,0.04474358
2189.19636841,0.04464627
2191.12517578,0.04454653
2193.05398315,0.04449094
2194.98279053,0.04455700
2196.91159790,0.04453548
2198.84040527,0.04440505
2200.76921265,0.04437874
2202.69802002,0.04435103
2204.62682739,0.04427866
2206.55563477,0.04430534
2208.48444214,0.04415089
2210.41324951,0.04411051
2212.34205688,0.04406098
2214.27086426,0.04408763
2216.19967163,0.04414963
2218.12847900,0.04386005
2220.05728638,0.04395169
2221.98609375,0.04404681
2223.91490112,0.04373798
2225.84370850,0.04367903
2227.77251587,0.04380080
2229.70132324,0.04356571
2231.63013062,0.04351334
2233.55893799,0.04359235
2235.48774536,0.04330863
2237.41655273,0.04338498
2239.34536011,0.04327226
2241.27416748,0.04312305
2243.20297485,0.04330256
2245.13178223,0.04319023
2247.06058960,0.04306461
2248.98939697,0.04291869
2250.91820435,0.04289228
2252.84701172,0.04281124
2254.77581909,0.04270584
2256.70462646,0.04266217
2258.63343384,0.04257107
2260.56224121,0.04265959
2262.49104858,0.04248117
2264.41985596,0.04237652
2266.34866333,0.04253995
2268.27747070,0.04246163
2270.20627808,0.04231412
2272.13508545,0.04230610
2274.06389282,0.04228674
2275.99270020,0.04221010
2277.92150757,0.04215930
2279.85031494,0.04214869
2281.77912231,0.04218391
2283.70792969,0.04206689
2285.63673706,0.04194469
2287.56554443,0.04189600
2289.49435181,0.04182376
2291.42315918,0.04170008
2293.35196655,0.04158908
2295.28077393,0.04152416
2297.20958130,0.04133806
2299.13838867,0.04125080
2301.06719604,0.04100426
2302.99600342,0.04082453
2304.92481079,0.04081758
2306.85361816,0.04054157
2308.78242554,0.04027753
2310.71123291,0.03991707
2312.64004028,0.03961478
2314.56884766,0.03930844
2316.49765503,0.03888638
2318.42646240,0.03842189
2320.35526978,0.03791021
2322.28407715,0.03750536
2324.21288452,0.03698891
2326.14169189,0.03664331
2328.07049927,0.03622390
2329.99930664,0.03566963
2331.92811401,0.03546434
2333.85692139,0.03540712
2335.78572876,0.03532808
2337.71453613,0.03523588
2339.64334351,0.03515151
2341.57215088,0.03531003
2343.50095825,0.03588483
2345.42976562,0.03641042
2347.35857300,0.03768318
2349.28738037,0.03878988
2351.21618774,0.03765550
2353.14499512,0.03598345
2355.07380249,0.03476828
2357.00260986,0.03374628
2358.93141724,0.03313940
2360.86022461,0.03288027
2362.78903198,0.03271738
2364.71783936,0.03275159
2366.64664673,0.03338221
2368.57545410,0.03394301
2370.50426147,0.03465512
2372.43306885,0.03553253
2374.36187622,0.03635545
2376.29068359,0.03724159
2378.21949097,0.03787812
2380.14829834,0.03853534
2382.07710571,0.03882081
2384.00591309,0.03905427
2385.93472046,0.03930586
2387.86352783,0.03928868
2389.79233521,0.03928062
2391.72114258,0.03902367
2393.64994995,0.03909654
2395.57875732,0.03916265
2397.50756470,0.03892511
2399.43637207,0.03897179
2401.36517944,0.03891987
2403.29398682,0.03876665
2405.22279419,0.03876279
2407.15160156,0.03872370
2409.08040894,0.03868067
2411.00921631,0.03868809
2412.93802368,0.03857177
2414.86683105,0.03851165
2416.79563843,0.03855484
2418.72444580,0.03844819
2420.65325317,0.03821767
2422.58206055,0.03826709
2424.51086792,0.03831448
2426.43967529,0.03811009
2428.36848267,0.03824726
2430.29729004,0.03807493
2432.22609741,0.03790257
2434.15490479,0.03816448
2436.08371216,0.03793289
2438.01251953,0.03786843
2439.94132690,0.03806058
2441.87013428,0.03789776
2443.79894165,0.03777333
2445.72774902,0.03778248
2447.65655640,0.03765366
2449.58536377,0.03762275
2451.51417114,0.03755800
2453.44297852,0.03732841
2455.37178589,0.03732384
2457.30059326,0.03733283
2459.22940063,0.03747623
2461.15820801,0.03731143
2463.08701538,0.03703090
2465.01582275,0.03718280
2466.94463013,0.03709264
2468.87343750,0.03707742
2470.80224487,0.03696938
2472.73105225,0.03690042
2474.65985962,0.03698310
2476.58866699,0.03683540
2478.51747437,0.03693847
2480.44628174,0.03689855
2482.37508911,0.03675909
2484.30389648,0.03665928
2486.23270386,0.03653424
2488.16151123,0.03657231
2490.09031860,0.03650637
2492.01912598,0.03647371
2493.94793335,0.03653045
2495.87674072,0.03646670
2497.80554810,0.03632556
2499.73435547,0.03632583
2501.66316284,0.03624958
2503.59197021,0.03615552
2505.52077759,0.03614636
2507.44958496,0.03606359
2509.37839233,0.03611458
2511.30719971,0.03600641
2513.23600708,0.03595081
2515.16481445,0.03602014
2517.09362183,0.03587162
2519.02242920,0.03589104
2520.95123657,0.03586533
2522.88004395,0.03567336
2524.80885132,0.03564334
2526.73765869,0.03557006
2528.66646606,0.03549562
2530.59527344,0.03546893
2532.52408081,0.03540458
2534.45288818,0.03552645
2536.38169556,0.03539426
2538.31050293,0.03521330
2540.23931030,0.03534420
2542.16811768,0.03520412
2544.09692505,0.03509343
2546.02573242,0.03505888
2547.95453979,0.03504910
2549.88334717,0.03506850
2551.81215454,0.03498477
2553.74096191,0.03502373
2555.66976929,0.03490879
2557.59857666,0.03483146
2559.52738403,0.03483637
2561.45619141,0.03479037
2563.38499878,0.03472689
2565.31380615,0.03460582
2567.24261353,0.03462049
2569.17142090,0.03457324
2571.10022827,0.03449691
2573.02903564,0.03450021
2574.95784302,0.03454647
2576.88665039,0.03448477
2578.81545776,0.03433615
2580.74426514,0.03427587
2582.67307251,0.03429159
2584.60187988,0.03430744
2586.53068726,0.03413411
2588.45949463,0.03408171
2590.38830200,0.03397544
2592.31710937,0.03384191
2594.24591675,0.03390661
2596.17472412,0.03385695
2598.10353149,0.03383052
2600.03233887,0.03376156
2601.96114624,0.03375035
2603.88995361,0.03367220
2605.81876099,0.03366001
2607.74756836,0.03372905
2609.67637573,0.03355853
2611.60518311,0.03357550
2613.53399048,0.03343371
2615.46279785,0.03327198
2617.39160522,0.03324699
2619.32041260,0.03316950
2621.24921997,0.03330270
2623.17802734,0.03322416
2625.10683472,0.03302620
2627.03564209,0.03302244
2628.96444946,0.03315151
2630.89325684,0.03305005
2632.82206421,0.03281959
2634.75087158,0.03292551
2636.67967895,0.03287099
2638.60848633,0.03268073
2640.53729370,0.03266109
2642.46610107,0.03260607
2644.39490845,0.03256771
2646.32371582,0.03251904
2648.25252319,0.03248609
2650.18133057,0.03255581
2652.11013794,0.03246994
2654.03894531,0.03233636
2655.96775269,0.03226778
2657.89656006,0.03225568
2659.82536743,0.03232117
2661.75417480,0.03211580
2663.68298218,0.03204354
2665.61178955,0.03207459
2667.54059692,0.03188509
2669.46940430,0.03192545
2671.39821167,0.03196109
2673.32701904,0.03182507
2675.25582642,0.03179964
2677.18463379,0.03185964
2679.11344116,0.03169918
2681.04224854,0.03157336
2682.97105591,0.03155790
2684.89986328,0.03146066
2686.82867065,0.03144690
2688.75747803,0.03133829
2690.68628540,0.03143581
2692.61509277,0.03140285
2694.54390015,0.03121553
2696.47270752,0.03124917
2698.40151489,0.03109872
2700.33032227,0.03111526
2702.25912964,0.03105606
2704.18793701,0.03099990
2706.11674438,0.03098806
2708.04555176,0.03075387
2709.97435913,0.03081685
2711.90316650,0.03077584
2713.83197388,0.03069225
2715.76078125,0.03069635
2717.68958862,0.03050121
2719.61839600,0.03052239
2721.54720337,0.03056313
2723.47601074,0.03035355
2725.40481812,0.03037836
2727.33362549,0.03033205
2729.26243286,0.03019705
2731.19124023,0.03036003
2733.12004761,0.03014712
2735.04885498,0.03008478
2736.97766235,0.03015925
2738.90646973,0.02994103
2740.83527710,0.02997962
2742.76408447,0.02989282
2744.69289185,0.02984374
2746.62169922,0.02972377
2748.55050659,0.02965570
2750.47931396,0.02978375
2752.40812134,0.02964868
2754.33692871,0.02956758
2756.26573608,0.02942973
2758.19454346,0.02938892
2760.12335083,0.02933114
2762.05215820,0.02924620
2763.98096558,0.02924195
2765.90977295,0.02920053
2767.83858032,0.02925972
2769.76738770,0.02907462
2771.69619507,0.02905717
2773.62500244,0.02898887
2775.55380981,0.02882518
2777.48261719,0.02886852
2779.41142456,0.02874881
2781.34023193,0.02877666
2783.26903931,0.02864413
2785.19784668,0.02856113
2787.12665405,0.02861825
2789.05546143,0.02842988
2790.98426880,0.02834821
2792.91307617,0.02828273
2794.84188354,0.02827163
2796.77069092,0.02822258
2798.69949829,0.02812771
2800.62830566,0.02811995
2802.55711304,0.02803859
2804.48592041,0.02796010
2806.41472778,0.02791620
2808.34353516,0.02789932
2810.27234253,0.02782935
2812.20114990,0.02770583
2814.12995728,0.02770960
2816.05876465,0.02763773
2817.98757202,0.02742229
2819.91637939,0.02741946
2821.84518677,0.02732738
2823.77399414,0.02721777
2825.70280151,0.02728071
2827.63160889,0.02713944
2829.56041626,0.02705185
2831.48922363,0.02695927
2833.41803101,0.02686818
2835.34683838,0.02678239
2837.27564575,0.02665639
2839.20445312,0.02659965
2841.13326050,0.02633376
2843.06206787,0.02628206
2844.99087524,0.02621076
2846.91968262,0.02587580
2848.84848999,0.02582151
2850.77729736,0.02584265
2852.70610474,0.02582775
2854.63491211,0.02591854
2856.56371948,0.02593372
2858.49252686,0.02578050
2860.42133423,0.02582246
2862.35014160,0.02581538
2864.27894897,0.02568865
2866.20775635,0.02580172
2868.13656372,0.02573661
2870.06537109,0.02558466
2871.99417847,0.02550429
2873.92298584,0.02540957
2875.85179321,0.02537978
2877.78060059,0.02528805
2879.70940796,0.02522646
2881.63821533,0.02524243
2883.56702270,0.02507457
2885.49583008,0.02491132
2887.42463745,0.02502150
2889.35344482,0.02492310
2891.28225220,0.02474283
2893.21105957,0.02464820
2895.13986694,0.02453457
2897.06867432,0.02463207
2898.99748169,0.02453988
2900.92628906,0.02432896
2902.85509644,0.02427529
2904.78390381,0.02424047
2906.71271118,0.02408731
2908.64151855,0.02387984
2910.57032593,0.02388216
2912.49913330,0.02378070
2914.42794067,0.02358162
2916.35674805,0.02350259
2918.28555542,0.02349958
2920.21436279,0.02356583
2922.14317017,0.02358415
2924.07197754,0.02358288
2926.00078491,0.02362132
2927.92959229,0.02373439
2929.85839966,0.02373816
2931.78720703,0.02364571
2933.71601440,0.02370344
2935.64482178,0.02370652
2937.57362915,0.02360605
2939.50243652,0.02360759
2941.43124390,0.02360708
2943.36005127,0.02361427
2945.28885864,0.02359017
2947.21766602,0.02340479
2949.14647339,0.02330393
2951.07528076,0.02322842
2953.00408813,0.02317738
2954.93289551,0.02315443
2956.86170288,0.02299037
2958.79051025,0.02295145
2960.71931763,0.02299033
2962.64812500,0.02286430
2964.57693237,0.02274651
2966.50573975,0.02282974
2968.43454712,0.02276784
2970.36335449,0.02271322
2972.29216187,0.02278456
2974.22096924,0.02263280
2976.14977661,0.02263424
2978.07858398,0.02258495
2980.00739136,0.02258790
2981.93619873,0.02264318
2983.86500610,0.02237121
2985.79381348,0.02232319
2987.72262085,0.02233290
2989.65142822,0.02233626
2991.58023560,0.02229484
2993.50904297,0.02211714
2995.43785034,0.02209236
2997.36665771,0.02208315
2999.29546509,0.02199400
3001.22427246,0.02185971
3003.15307983,0.02182506
3005.08188721,0.02167014
3007.01069458,0.02160683
3008.93950195,0.02157907
3010.86830933,0.02137034
3012.79711670,0.02135127
3014.72592407,0.02121444
3016.65473145,0.02120706
3018.58353882,0.02119964
3020.51234619,0.02100693
3022.44115356,0.02098916
3024.36996094,0.02084929
3026.29876831,0.02076676
3028.22757568,0.02074864
3030.15638306,0.02058398
3032.08519043,0.02039473
3034.01399780,0.02036094
3035.94280518,0.02040268
3037.87161255,0.02040216
3039.80041992,0.02029035
3041.72922729,0.02008541
3043.65803467,0.02014313
3045.58684204,0.02002633
3047.51564941,0.01978792
3049.44445679,0.01980406
3051.37326416,0.01975922
3053.30207153,0.01962948
3055.23087891,0.01951509
3057.15968628,0.01948467
3059.08849365,0.01940481
3061.01730103,0.01933730
3062.94610840,0.01916463
3064.87491577,0.01907801
3066.80372314,0.01905892
3068.73253052,0.01889865
3070.66133789,0.01905759
3072.59014526,0.01892864
3074.51895264,0.01873477
3076.44776001,0.01871349
3078.37656738,0.01853082
3080.30537476,0.01859004
3082.23418213,0.01844610
3084.16298950,0.01835807
3086.09179687,0.01834564
3088.02060425,0.01816705
3089.94941162,0.01811824
3091.87821899,0.01799235
3093.80702637,0.01795249
3095.73583374,0.01787666
3097.66464111,0.01777257
3099.59344849,0.01767574
3101.52225586,0.01751596
3103.45106323,0.01745984
3105.37987061,0.01745844
3107.30867798,0.01741291
3109.23748535,0.01714790
3111.16629272,0.01707333
3113.09510010,0.01708978
3115.02390747,0.01692398
3116.95271484,0.01687607
3118.88152222,0.01678086
3120.81032959,0.01664228
3122.73913696,0.01651838
3124.66794434,0.01650239
3126.59675171,0.01651352
3128.52555908,0.01639882
3130.45436645,0.01631736
3132.38317383,0.01627698
3134.31198120,0.01625375
3136.24078857,0.01607962
3138.16959595,0.01600738
3140.09840332,0.01599076
3142.02721069,0.01572973
3143.95601807,0.01563850
3145.88482544,0.01561047
3147.81363281,0.01552075
3149.74244019,0.01546017
3151.67124756,0.01535857
3153.60005493,0.01532863
3155.52886230,0.01528823
3157.45766968,0.01521198
3159.38647705,0.01511859
3161.31528442,0.01499157
3163.24409180,0.01486669
3165.17289917,0.01486312
3167.10170654,0.01484728
3169.03051392,0.01467445
3170.95932129,0.01463592
3172.88812866,0.01460181
3174.81693604,0.01459556
3176.74574341,0.01460556
3178.67455078,0.01439276
3180.60335815,0.01428676
3182.53216553,0.01428254
3184.46097290,0.01424913
3186.38978027,0.01415220
3188.31858765,0.01410282
3190.24739502,0.01416802
3192.17620239,0.01409156
3194.10500977,0.01397027
3196.03381714,0.01390544
3197.96262451,0.01396715
3199.89143188,0.01391038
3201.82023926,0.01369336
3203.74904663,0.01372910
3205.67785400,0.01382056
3207.60666138,0.01377836
3209.53546875,0.01367792
3211.46427612,0.01359252
3213.39308350,0.01351971
3215.32189087,0.01351348
3217.25069824,0.01351587
3219.17950562,0.01350110
3221.10831299,0.01358209
3223.03712036,0.01349305
3224.96592773,0.01343328
3226.89473511,0.01344989
3228.82354248,0.01336444
3230.75234985,0.01338773
3232.68115723,0.01334558
3234.60996460,0.01328679
3236.53877197,0.01334769
3238.46757935,0.01336907
3240.39638672,0.01334038
3242.32519409,0.01332803
3244.25400146,0.01332300
3246.18280884,0.01334416
3248.11161621,0.01331051
3250.04042358,0.01327193
3251.96923096,0.01336947
3253.89803833,0.01333948
3255.82684570,0.01331027
3257.75565308,0.01334318
3259.68446045,0.01331681
3261.61326782,0.01333348
3263.54207520,0.01332200
3265.47088257,0.01335777
3267.39968994,0.01337014
3269.32849731,0.01335961
3271.25730469,0.01326158
3273.18611206,0.01321646
3275.11491943,0.01328565
3277.04372681,0.01320967
3278.97253418,0.01326443
3280.90134155,0.01323179
3282.83014893,0.01318710
3284.75895630,0.01329295
3286.68776367,0.01325627
3288.61657104,0.01326281
3290.54537842,0.01322081
3292.47418579,0.01320997
3294.40299316,0.01327363
3296.33180054,0.01327689
3298.26060791,0.01325670
3300.18941528,0.01321871
3302.11822266,0.01322626
3304.04703003,0.01319664
3305.97583740,0.01320193
3307.90464478,0.01320399
3309.83345215,0.01318755
3311.76225952,0.01321230
3313.69106689,0.01324634
3315.61987427,0.01326735
3317.54868164,0.01316824
3319.47748901,0.01320070
3321.40629639,0.01323208
3323.33510376,0.01311684
3325.26391113,0.01326154
3327.19271851,0.01330847
3329.12152588,0.01314309
3331.05033325,0.01317225
3332.97914062,0.01321744
3334.90794800,0.01325348
3336.83675537,0.01316164
3338.76556274,0.01307946
3340.69437012,0.01322672
3342.62317749,0.01325454
3344.55198486,0.01328387
3346.48079224,0.01326705
3348.40959961,0.01326799
3350.33840698,0.01327081
3352.26721436,0.01313693
3354.19602173,0.01322345
3356.12482910,0.01323164
3358.05363647,0.01319100
3359.98244385,0.01319809
3361.91125122,0.01318307
3363.84005859,0.01324253
3365.76886597,0.01319469
3367.69767334,0.01319510
3369.62648071,0.01323341
3371.55528809,0.01324826
3373.48409546,0.01323807
3375.41290283,0.01327978
3377.34171020,0.01327182
3379.27051758,0.01324251
3381.19932495,0.01328938
3383.12813232,0.01321891
3385.05693970,0.01324646
3386.98574707,0.01319524
3388.91455444,0.01328446
3390.84336182,0.01335975
3392.77216919,0.01321033
3394.70097656,0.01331440
3396.62978394,0.01335235
3398.55859131,0.01344883
3400.48739868,0.01341534
3402.41620605,0.01333371
3404.34501343,0.01344322
3406.27382080,0.01339334
3408.20262817,0.01335346
3410.13143555,0.01338205
3412.06024292,0.01353711
3413.98905029,0.01353388
3415.91785767,0.01350911
3417.84666504,0.01347582
3419.77547241,0.01342924
3421.70427979,0.01349294
3423.63308716,0.01349150
3425.56189453,0.01366264
3427.49070190,0.01354854
3429.41950928,0.01355542
3431.34831665,0.01370785
3433.27712402,0.01368776
3435.20593140,0.01369063
3437.13473877,0.01356062
3439.06354614,0.01380296
3440.99235352,0.01370039
3442.92116089,0.01353238
3444.84996826,0.01368351
3446.77877563,0.01353428
3448.70758301,0.01364424
3450.63639038,0.01381125
3452.56519775,0.01388506
3454.49400513,0.01383636
3456.42281250,0.01377367
3458.35161987,0.01384424
3460.28042725,0.01384512
3462.20923462,0.01385936
3464.13804199,0.01391045
3466.06684937,0.01389348
3467.99565674,0.01384114
3469.92446411,0.01395923
3471.85327148,0.01386658
3473.78207886,0.01389373
3475.71088623,0.01396195
3477.63969360,0.01398291
3479.56850098,0.01409639
3481.49730835,0.01382022
3483.42611572,0.01397620
3485.35492310,0.01409392
3487.28373047,0.01399278
3489.21253784,0.01403537
3491.14134521,0.01399522
3493.07015259,0.01415448
3494.99895996,0.01411589
3496.92776733,0.01420375
3498.85657471,0.01419097
3500.78538208,0.01408648
3502.71418945,0.01396001
3504.64299683,0.01395889
3506.57180420,0.01439344
3508.50061157,0.01418491
3510.42941895,0.01405963
3512.35822632,0.01427907
3514.28703369,0.01444254
3516.21584106,0.01447743
3518.14464844,0.01428453
3520.07345581,0.01447991
3522.00226318,0.01440622
3523.93107056,0.01419809
3525.85987793,0.01423381
3527.78868530,0.01418426
3529.71749268,0.01424519
3531.64630005,0.01449618
3533.57510742,0.01462089
3535.50391479,0.01442336
3537.43272217,0.01445444
3539.36152954,0.01467354
3541.29033691,0.01464172
3543.21914429,0.01449817
3545.14795166,0.01415143
3547.07675903,0.01387971
3549.00556641,0.01451599
3550.93437378,0.01463435
3552.86318115,0.01419954
3554.79198853,0.01460243
3556.72079590,0.01469966
3558.64960327,0.01480439
3560.57841064,0.01459435
3562.50721802,0.01445833
3564.43602539,0.01466346
3566.36483276,0.01335853
3568.29364014,0.01302015
3570.22244751,0.01447326
3572.15125488,0.01496711
3574.08006226,0.01465969
3576.00886963,0.01486430
3577.93767700,0.01486392
3579.86648437,0.01471095
3581.79529175,0.01488199
3583.72409912,0.01489520
3585.65290649,0.01443747
3587.58171387,0.01304244
3589.51052124,0.01355351
3591.43932861,0.01500148
3593.36813599,0.01449128
3595.29694336,0.01426179
3597.22575073,0.01458035
3599.15455811,0.01479655
3601.08336548,0.01456941
3603.01217285,0.01478921
3604.94098022,0.01523345
3606.86978760,0.01440392
3608.79859497,0.01345818
3610.72740234,0.01398765
3612.65620972,0.01424949
3614.58501709,0.01365191
3616.51382446,0.01488586
3618.44263184,0.01362900
3620.37143921,0.01303575
3622.30024658,0.01514756
3624.22905395,0.01473690
3626.15786133,0.01548649
3628.08666870,0.01276805
3630.01547607,0.01134421
3631.94428345,0.01494781
3633.87309082,0.01457753
3635.80189819,0.01488922
3637.73070557,0.01531809
3639.65951294,0.01501025
3641.58832031,0.01519345
3643.51712769,0.01508129
3645.44593506,0.01520478
3647.37474243,0.01328170
3649.30354980,0.01192018
3651.23235718,0.01214474
3653.16116455,0.01500564
3655.08997192,0.01485311
3657.01877930,0.01300239
3658.94758667,0.01536109
3660.87639404,0.01501147
3662.80520142,0.01528084
3664.73400879,0.01529696
3666.66281616,0.01507810
3668.59162354,0.01464472
3670.52043091,0.01149584
3672.44923828,0.01444002
3674.37804565,0.01372142
3676.30685303,0.01077841
3678.23566040,0.01431669
3680.16446777,0.01482371
3682.09327515,0.01479694
3684.02208252,0.01533164
3685.95088989,0.01508421
3687.87969727,0.01340713
3689.80850464,0.01195341
3691.73731201,0.01397406
3693.66611938,0.01448223
3695.59492676,0.01479583
3697.52373413,0.01486994
3699.45254150,0.01474048
3701.38134888,0.01424686
3703.31015625,0.01355698
3705.23896362,0.01527429
3707.16777100,0.01440259
3709.09657837,0.01393522
3711.02538574,0.01296537
3712.95419312,0.01187663
3714.88300049,0.01445913
3716.81180786,0.01430219
3718.74061523,0.01451411
3720.66942261,0.01412060
3722.59822998,0.01341840
3724.52703735,0.01400471
3726.45584473,0.01271247
3728.38465210,0.01410596
3730.31345947,0.01401095
3732.24226685,0.01258870
3734.17107422,0.01216557
3736.09988159,0.01140390
3738.02868896,0.01236663
3739.95749634,0.01350737
3741.88630371,0.01421959
3743.81511108,0.01064713
3745.74391846,0.00980058
3747.67272583,0.01346930
3749.60153320,0.01127763
3751.53034058,0.01016353
3753.45914795,0.01210966
3755.38795532,0.01308758
3757.31676270,0.01372307
3759.24557007,0.01250045
3761.17437744,0.01298557
3763.10318481,0.01420209
3765.03199219,0.01303373
3766.96079956,0.01322783
3768.88960693,0.01311612
3770.81841431,0.01229045
3772.74722168,0.01355812
3774.67602905,0.01368834
3776.60483643,0.01360047
3778.53364380,0.01310929
3780.46245117,0.01248302
3782.39125854,0.01352429
3784.32006592,0.01319232
3786.24887329,0.01311772
3788.17768066,0.01345881
3790.10648804,0.01328470
3792.03529541,0.01321512
3793.96410278,0.01348056
3795.89291016,0.01250182
3797.82171753,0.01231486
3799.75052490,0.01310819
3801.67933228,0.00999776
3803.60813965,0.01201795
3805.53694702,0.01320832
3807.46575439,0.01037305
3809.39456177,0.01301530
3811.32336914,0.01274902
3813.25217651,0.01327649
3815.18098389,0.01182185
3817.10979126,0.01001270
3819.03859863,0.01322466
3820.96740601,0.01027735
3822.89621338,0.01089437
3824.82502075,0.01323644
3826.75382812,0.01164785
3828.68263550,0.01266549
3830.61144287,0.01214589
3832.54025024,0.01165133
3834.46905762,0.01194596
3836.39786499,0.01124226
3838.32667236,0.01006098
3840.25547974,0.01093542
3842.18428711,0.01197807
3844.11309448,0.01136633
3846.04190186,0.01237557
3847.97070923,0.01226304
3849.89951660,0.01220876
3851.82832397,0.01083522
3853.75713135,0.00765648
3855.68593872,0.00933887
3857.61474609,0.01221213
3859.54355347,0.01188089
3861.47236084,0.01181507
3863.40116821,0.01136645
3865.32997559,0.01039691
3867.25878296,0.01191378
3869.18759033,0.01073337
3871.11639770,0.00978720
3873.04520508,0.01183611
3874.97401245,0.01082728
3876.90281982,0.01195202
3878.83162720,0.01214883
3880.76043457,0.01004719
3882.68924194,0.01184898
3884.61804932,0.01104310
3886.54685669,0.00993946
3888.47566406,0.01198052
3890.40447144,0.01121326
3892.33327881,0.01033212
3894.26208618,0.01156842
3896.19089355,0.01184572
3898.11970093,0.01115058
3900.04850830,0.01039719
3901.97731567,0.01028000
3903.90612305,0.01005546
3905.83493042,0.01022953
3907.76373779,0.01152910
3909.69254517,0.01154832
3911.62135254,0.01137008
3913.55015991,0.01156522
3915.47896728,0.01116723
3917.40777466,0.01082974
3919.33658203,0.01071685
3921.26538940,0.01118933
3923.19419678,0.01107375
3925.12300415,0.01080923
3927.05181152,0.01105083
3928.98061890,0.01119074
3930.90942627,0.01091535
3932.83823364,0.01050073
3934.76704102,0.01109874
3936.69584839,0.01113209
3938.62465576,0.01097223
3940.55346313,0.01115938
3942.48227051,0.01056483
3944.41107788,0.01073425
3946.33988525,0.01100466
3948.26869263,0.01060862
3950.19750000,0.01073811
3952.12630737,0.01096195
3954.05511475,0.01089152
3955.98392212,0.01083805
3957.91272949,0.01078121
3959.84153687,0.01079043
3961.77034424,0.01071292
3963.69915161,0.01070599
3965.62795898,0.01082259
3967.55676636,0.01070212
3969.48557373,0.01068353
3971.41438110,0.01065271
3973.34318848,0.01065663
3975.27199585,0.01058711
3977.20080322,0.01050876
3979.12961060,0.01064074
3981.05841797,0.01052548
3982.98722534,0.01049529
3984.91603271,0.01045413
3986.84484009,0.01055010
3988.77364746,0.01052548
3990.70245483,0.01034580
3992.63126221,0.01044112
3994.56006958,0.01032483
3996.48887695,0.01039571
3998.41768433,0.01033582
4000.34649170,0.01032599
4002.27529907,0.01039706
4004.20410645,0.01021454
4006.13291382,0.01034578
4008.06172119,0.01024399
4009.99052856,0.01011499
4011.91933594,0.01018983
4013.84814331,0.01021277
4015.77695068,0.01015265
4017.70575806,0.01013478
4019.63456543,0.01015406
4021.56337280,0.01002310
4023.49218018,0.01004029
4025.42098755,0.00997821
4027.34979492,0.00998740
4029.27860229,0.00998570
4031.20740967,0.00987049
4033.13621704,0.00991375
4035.06502441,0.00997089
4036.99383179,0.00994644
4038.92263916,0.00982344
4040.85144653,0.00980785
4042.78025391,0.00972433
4044.70906128,0.00974658
4046.63786865,0.00972654
4048.56667603,0.00971590
4050.49548340,0.00975666
4052.42429077,0.00962768
4054.35309814,0.00977589
4056.28190552,0.00964615
4058.21071289,0.00958752
4060.13952026,0.00958652
4062.06832764,0.00947826
4063.99713501,0.00963004
4065.92594238,0.00950621
4067.85474976,0.00948996
4069.78355713,0.00945601
4071.71236450,0.00950345
4073.64117187,0.00949512
4075.56997925,0.00934683
4077.49878662,0.00938954
4079.42759399,0.00930134
4081.35640137,0.00938077
4083.28520874,0.00930490
4085.21401611,0.00932762
4087.14282349,0.00934636
4089.07163086,0.00924652
4091.00043823,0.00931206
4092.92924561,0.00914701
4094.85805298,0.00926987
4096.78686035,0.00924165
4098.71566772,0.00912362
4100.64447510,0.00921940
4102.57328247,0.00912500
4104.50208984,0.00910966
4106.43089722,0.00907222
4108.35970459,0.00903940
4110.28851196,0.00904767
4112.21731934,0.00909176
4114.14612671,0.00901201
4116.07493408,0.00894810
4118.00374145,0.00895667
4119.93254883,0.00883167
4121.86135620,0.00885461
4123.79016357,0.00894999
4125.71897095,0.00896190
4127.64777832,0.00878986
4129.57658569,0.00872660
4131.50539307,0.00882007
4133.43420044,0.00883471
4135.36300781,0.00874913
4137.29181519,0.00867826
4139.22062256,0.00876508
4141.14942993,0.00867567
4143.07823730,0.00864245
4145.00704468,0.00864944
4146.93585205,0.00862976
4148.86465942,0.00865224
4150.79346680,0.00857402
4152.72227417,0.00856047
4154.65108154,0.00847681
4156.57988892,0.00852405
4158.50869629,0.00854868
4160.43750366,0.00849950
4162.36631103,0.00849158
4164.29511841,0.00841689
4166.22392578,0.00841046
4168.15273315,0.00834471
4170.08154053,0.00838316
4172.01034790,0.00835415
4173.93915527,0.00831133
4175.86796265,0.00834311
4177.79677002,0.00833739
4179.72557739,0.00835061
4181.65438477,0.00820646
4183.58319214,0.00818728
4185.51199951,0.00814843
4187.44080688,0.00811488
4189.36961426,0.00815962
4191.29842163,0.00812314
4193.22722900,0.00815048
4195.15603638,0.00811245
4197.08484375,0.00805849
4199.01365112,0.00800016
4200.94245850,0.00804849
4202.87126587,0.00802263
4204.80007324,0.00794705
4206.72888062,0.00802797
4208.65768799,0.00798670
4210.58649536,0.00796465
4212.51530273,0.00796102
4214.44411011,0.00795705
4216.37291748,0.00791613
4218.30172485,0.00785183
4220.23053223,0.00785790
4222.15933960,0.00784520
4224.08814697,0.00786251
4226.01695435,0.00777548
4227.94576172,0.00772039
4229.87456909,0.00778346
4231.80337646,0.00781370
4233.73218384,0.00775716
4235.66099121,0.00765954
4237.58979858,0.00771393
4239.51860596,0.00776519
4241.44741333,0.00769580
4243.37622070,0.00770314
4245.30502808,0.00762910
4247.23383545,0.00747210
4249.16264282,0.00756304
4251.09145020,0.00757445
4253.02025757,0.00750345
4254.94906494,0.00750719
4256.87787231,0.00743510
4258.80667969,0.00749638
4260.73548706,0.00751132
4262.66429443,0.00742105
4264.59310181,0.00739998
4266.52190918,0.00744224
4268.45071655,0.00742857
4270.37952393,0.00741025
4272.30833130,0.00742195
4274.23713867,0.00733441
4276.16594604,0.00736146
4278.09475342,0.00730563
4280.02356079,0.00721082
4281.95236816,0.00724383
4283.88117554,0.00725523
4285.80998291,0.00724707
4287.73879028,0.00724646
4289.66759766,0.00724051
4291.59640503,0.00709993
4293.52521240,0.00714744
4295.45401978,0.00716156
4297.38282715,0.00710252
4299.31163452,0.00710116
4301.24044189,0.00703120
4303.16924927,0.00716083
4305.09805664,0.00706429
4307.02686401,0.00701015
4308.95567139,0.00704989
4310.88447876,0.00703118
4312.81328613,0.00707131
4314.74209351,0.00689541
4316.67090088,0.00697040
4318.59970825,0.00699952
4320.52851562,0.00691831
4322.45732300,0.00691904
4324.38613037,0.00686651
4326.31493774,0.00684771
4328.24374512,0.00675934
4330.17255249,0.00682882
4332.10135986,0.00681458
4334.03016724,0.00677031
4335.95897461,0.00681372
4337.88778198,0.00681745
4339.81658936,0.00674418
4341.74539673,0.00667205
4343.67420410,0.00675548
4345.60301147,0.00664013
4347.53181885,0.00663964
4349.46062622,0.00668793
4351.38943359,0.00666597
4353.31824097,0.00666660
4355.24704834,0.00656432
4357.17585571,0.00659798
4359.10466309,0.00649122
4361.03347046,0.00651727
4362.96227783,0.00661908
4364.89108520,0.00654465
4366.81989258,0.00654220
4368.74869995,0.00650355
4370.67750732,0.00651776
4372.60631470,0.00650071
4374.53512207,0.00647242
4376.46392944,0.00644641
4378.39273682,0.00645547
4380.32154419,0.00646108
4382.25035156,0.00642989
4384.17915894,0.00640890
4386.10796631,0.00631938
4388.03677368,0.00634464
4389.96558105,0.00627683
4391.89438843,0.00625298
4393.82319580,0.00633524
4395.75200317,0.00631881
4397.68081055,0.00629709
4399.60961792,0.00619347
4401.53842529,0.00618801
4403.46723267,0.00621187
4405.39604004,0.00622750
4407.32484741,0.00622786
4409.25365478,0.00613833
4411.18246216,0.00612720
4413.11126953,0.00616504
4415.04007690,0.00613657
4416.96888428,0.00611798
4418.89769165,0.00613535
4420.82649902,0.00605763
4422.75530640,0.00608522
4424.68411377,0.00602229
4426.61292114,0.00597015
4428.54172852,0.00607349
4430.47053589,0.00599887
4432.39934326,0.00606001
4434.32815063,0.00602556
4436.25695801,0.00589532
4438.18576538,0.00591814
4440.11457275,0.00595291
4442.04338013,0.00597227
4443.97218750,0.00588306
4445.90099487,0.00588494
4447.82980225,0.00580020
4449.75860962,0.00578077
4451.68741699,0.00586637
4453.61622437,0.00575423
4455.54503174,0.00575281
4457.47383911,0.00576974
4459.40264648,0.00579301
4461.33145386,0.00583776
4463.26026123,0.00570221
4465.18906860,0.00563406
4467.11787598,0.00570542
4469.04668335,0.00572082
4470.97549072,0.00569329
4472.90429810,0.00562273
4474.83310547,0.00567996
4476.76191284,0.00570878
4478.69072021,0.00554695
4480.61952759,0.00563352
4482.54833496,0.00561806
4484.47714233,0.00552482
4486.40594971,0.00557821
4488.33475708,0.00550107
4490.26356445,0.00552515
4492.19237183,0.00552781
4494.12117920,0.00550171
4496.04998657,0.00547455
4497.97879395,0.00543911
4499.90760132,0.00544122
4501.83640869,0.00546783
4503.76521606,0.00548988
4505.69402344,0.00539246
4507.62283081,0.00542430
4509.55163818,0.00535322
4511.48044556,0.00538277
4513.40925293,0.00546705
4515.33806030,0.00533055
4517.26686768,0.00538621
4519.19567505,0.00531778
4521.12448242,0.00531177
4523.05328979,0.00536108
4524.98209717,0.00529316
4526.91090454,0.00530629
4528.83971191,0.00530075
4530.76851929,0.00534224
4532.69732666,0.00522332
4534.62613403,0.00519781
4536.55494141,0.00520434
4538.48374878,0.00513119
4540.41255615,0.00521218
4542.34136353,0.00520498
4544.27017090,0.00512715
4546.19897827,0.00502862
4548.12778564,0.00513584
4550.05659302,0.00516943
4551.98540039,0.00502128
4553.91420776,0.00507758
4555.84301514,0.00504047
4557.77182251,0.00503116
4559.70062988,0.00510063
4561.62943726,0.00504923
4563.55824463,0.00499721
4565.48705200,0.00497626
4567.41585937,0.00499214
4569.34466675,0.00491670
4571.27347412,0.00486912
4573.20228149,0.00496282
4575.13108887,0.00495265
4577.05989624,0.00490074
4578.98870361,0.00486693
4580.91751099,0.00483544
4582.84631836,0.00487108
4584.77512573,0.00480698
4586.70393311,0.00476939
4588.63274048,0.00482083
4590.56154785,0.00482231
4592.49035522,0.00478819
4594.41916260,0.00479095
4596.34796997,0.00485667
4598.27677734,0.00477377
4600.20558472,0.00479069
4602.13439209,0.00484326
4604.06319946,0.00470194
4605.99200684,0.00471010
4607.92081421,0.00474445
4609.84962158,0.00472454
4611.77842895,0.00467536
4613.70723633,0.00461999
4615.63604370,0.00462283
4617.56485107,0.00460828
4619.49365845,0.00461740
4621.42246582,0.00464791
4623.35127319,0.00469323
4625.28008057,0.00464471
4627.20888794,0.00455361
4629.13769531,0.00452108
4631.06650269,0.00452831
4632.99531006,0.00454492
4634.92411743,0.00456752
4636.85292480,0.00457103
4638.78173218,0.00447349
4640.71053955,0.00445452
4642.63934692,0.00447781
4644.56815430,0.00448123
4646.49696167,0.00445412
4648.42576904,0.00442124
4650.35457642,0.00447759
4652.28338379,0.00445572
4654.21219116,0.00437256
4656.14099853,0.00432194
4658.06980591,0.00440823
4659.99861328,0.00439419
4661.92742065,0.00430197
4663.85622803,0.00438686
4665.78503540,0.00437676
4667.71384277,0.00432580
4669.64265015,0.00428193
4671.57145752,0.00426737
4673.50026489,0.00424751
4675.42907227,0.00423302
4677.35787964,0.00426525
4679.28668701,0.00423292
4681.21549438,0.00425948
4683.14430176,0.00417595
4685.07310913,0.00421859
4687.00191650,0.00434296
4688.93072388,0.00421872
4690.85953125,0.00421989
4692.78833862,0.00422726
4694.71714600,0.00413839
4696.64595337,0.00414452
4698.57476074,0.00412801
4700.50356812,0.00410764
4702.43237549,0.00419354
4704.36118286,0.00414535
4706.28999023,0.00410091
4708.21879761,0.00416992
4710.14760498,0.00406606
4712.07641235,0.00406482
4714.00521973,0.00408136
4715.93402710,0.00405690
4717.86283447,0.00411158
4719.79164185,0.00407276
4721.72044922,0.00404129
4723.64925659,0.00398686
4725.57806396,0.00395346
4727.50687134,0.00398437
4729.43567871,0.00404519
4731.36448608,0.00404219
4733.29329346,0.00397945
4735.22210083,0.00398285
4737.15090820,0.00400095
4739.07971558,0.00397796
4741.00852295,0.00388775
4742.93733032,0.00391588
4744.86613770,0.00392696
4746.79494507,0.00390797
4748.72375244,0.00391672
4750.65255981,0.00385443
4752.58136719,0.00390606
4754.51017456,0.00387928
4756.43898193,0.00383424
4758.36778931,0.00383420
4760.29659668,0.00380396
4762.22540405,0.00382461
4764.15421143,0.00383010
4766.08301880,0.00381566
4768.01182617,0.00375480
4769.94063354,0.00379211
4771.86944092,0.00374655
4773.79824829,0.00369681
4775.72705566,0.00378006
4777.65586304,0.00375369
4779.58467041,0.00379992
4781.51347778,0.00374845
4783.44228516,0.00363872
4785.37109253,0.00370752
4787.29989990,0.00371829
4789.22870728,0.00367838
4791.15751465,0.00368410
4793.08632202,0.00365613
4795.01512939,0.00361219
4796.94393677,0.00363091
4798.87274414,0.00366943
4800.80155151,0.00369220
4802.73035889,0.00362597
4804.65916626,0.00359402
4806.58797363,0.00361367
4808.51678101,0.00360030
4810.44558838,0.00361931
4812.37439575,0.00356125
4814.30320312,0.00351615
4816.23201050,0.00351196
4818.16081787,0.00353251
4820.08962524,0.00352861
4822.01843262,0.00352711
4823.94723999,0.00356297
4825.87604736,0.00344398
4827.80485474,0.00345083
4829.73366211,0.00348075
4831.66246948,0.00342430
4833.59127686,0.00349744
4835.52008423,0.00345292
4837.44889160,0.00340328
4839.37769897,0.00343848
4841.30650635,0.00339685
4843.23531372,0.00341095
4845.16412109,0.00344604
4847.09292847,0.00337509
4849.02173584,0.00341057
4850.95054321,0.00345367
4852.87935059,0.00334495
4854.80815796,0.00332850
4856.73696533,0.00335396
4858.66577270,0.00334328
4860.59458008,0.00329613
4862.52338745,0.00327942
4864.45219482,0.00335239
4866.38100220,0.00331302
4868.30980957,0.00323269
4870.23861694,0.00328270
4872.16742432,0.00328290
4874.09623169,0.00327259
4876.02503906,0.00334402
4877.95384644,0.00321213
4879.88265381,0.00319917
4881.81146118,0.00331316
4883.74026855,0.00318684
4885.66907593,0.00319811
4887.59788330,0.00321166
4889.52669067,0.00311960
4891.45549805,0.00310868
4893.38430542,0.00313987
4895.31311279,0.00323017
4897.24192017,0.00320830
4899.17072754,0.00317554
4901.09953491,0.00318206
4903.02834228,0.00309797
4904.95714966,0.00315247
4906.88595703,0.00323268
4908.81476440,0.00311414
4910.74357178,0.00312852
4912.67237915,0.00314667
4914.60118652,0.00304723
4916.52999390,0.00303651
4918.45880127,0.00303475
4920.38760864,0.00312038
4922.31641602,0.00307745
4924.24522339,0.00303324
4926.17403076,0.00304678
4928.10283813,0.00294812
4930.03164551,0.00299108
4931.96045288,0.00295363
4933.88926025,0.00299287
4935.81806763,0.00306644
4937.74687500,0.00301202
4939.67568237,0.00300260
4941.60448975,0.00292486
4943.53329712,0.00292748
4945.46210449,0.00290031
4947.39091187,0.00289650
4949.31971924,0.00291980
4951.24852661,0.00288670
4953.17733398,0.00290458
4955.10614136,0.00286441
4957.03494873,0.00285253
4958.96375610,0.00283314
4960.89256348,0.00285060
4962.82137085,0.00290314
4964.75017822,0.00290083
4966.67898560,0.00281432
4968.60779297,0.00280864
4970.53660034,0.00288869
4972.46540771,0.00281471
4974.39421509,0.00284641
4976.32302246,0.00279002
4978.25182983,0.00273446
4980.18063721,0.00279058
4982.10944458,0.00270525
4984.03825195,0.00276255
4985.96705933,0.00277003
4987.89586670,0.00274509
4989.82467407,0.00275955
4991.75348145,0.00272547
4993.68228882,0.00272153
4995.61109619,0.00265579
4997.53990356,0.00267100
4999.46871094,0.00268994
5001.39751831,0.00268461
5003.32632568,0.00272714
5005.25513306,0.00269233
5007.18394043,0.00261020
5009.11274780,0.00262181
5011.04155518,0.00267662
5012.97036255,0.00268089
5014.89916992,0.00270255
5016.82797729,0.00268238
5018.75678467,0.00262592
5020.68559204,0.00265218
5022.61439941,0.00273229
5024.54320679,0.00266499
5026.47201416,0.00259902
5028.40082153,0.00261258
5030.32962891,0.00258192
5032.25843628,0.00259561
5034.18724365,0.00253817
5036.11605103,0.00252902
5038.04485840,0.00250442
5039.97366577,0.00253895
5041.90247314,0.00263735
5043.83128052,0.00256262
5045.76008789,0.00257450
5047.68889526,0.00246737
5049.61770264,0.00247127
5051.54651001,0.00258632
5053.47531738,0.00250864
5055.40412476,0.00253162
5057.33293213,0.00250780
5059.26173950,0.00247023
5061.19054687,0.00243704
5063.11935425,0.00245186
5065.04816162,0.00242434
5066.97696899,0.00240617
5068.90577637,0.00248061
5070.83458374,0.00241415
5072.76339111,0.00250802
5074.69219849,0.00240665
5076.62100586,0.00227252
5078.54981323,0.00243030
5080.47862061,0.00238485
5082.40742798,0.00237753
5084.33623535,0.00242085
5086.26504272,0.00241776
5088.19385010,0.00239258
5090.12265747,0.00232150
5092.05146484,0.00230622
5093.98027222,0.00232393
5095.90907959,0.00230301
5097.83788696,0.00228871
5099.76669434,0.00238008
5101.69550171,0.00231705
5103.62430908,0.00230023
5105.55311645,0.00236095
5107.48192383,0.00226801
5109.41073120,0.00225200
5111.33953857,0.00223074
5113.26834595,0.00224635
5115.19715332,0.00229663
5117.12596069,0.00228263
5119.05476807,0.00222922
5120.98357544,0.00221758
5122.91238281,0.00227331
5124.84119019,0.00224307
5126.76999756,0.00226876
5128.69880493,0.00227506
5130.62761230,0.00225991
5132.55641968,0.00223795
5134.48522705,0.00212451
5136.41403442,0.00221624
5138.34284180,0.00229217
5140.27164917,0.00219495
5142.20045654,0.00217884
5144.12926392,0.00219478
5146.05807129,0.00218532
5147.98687866,0.00217462
5149.91568603,0.00216347
5151.84449341,0.00214417
5153.77330078,0.00216498
5155.70210815,0.00216981
5157.63091553,0.00212611
5159.55972290,0.00218460
5161.48853027,0.00221733
5163.41733765,0.00211069
5165.34614502,0.00209781
5167.27495239,0.00211844
5169.20375977,0.00203492
5171.13256714,0.00207219
5173.06137451,0.00215756
5174.99018188,0.00215833
5176.91898926,0.00214155
5178.84779663,0.00206576
5180.77660400,0.00210694
5182.70541138,0.00213074
5184.63421875,0.00199423
5186.56302612,0.00193495
5188.49183350,0.00193440
5190.42064087,0.00206492
5192.34944824,0.00210823
5194.27825562,0.00200974
5196.20706299,0.00206963
5198.13587036,0.00209147
5200.06467773,0.00205975
5201.99348511,0.00206528
5203.92229248,0.00206595
5205.85109985,0.00194225
5207.77990723,0.00189105
5209.70871460,0.00201415
5211.63752197,0.00200192
5213.56632935,0.00200833
5215.49513672,0.00196758
5217.42394409,0.00197174
5219.35275146,0.00200927
5221.28155884,0.00194780
5223.21036621,0.00197073
5225.13917358,0.00185777
5227.06798096,0.00189549
5228.99678833,0.00196038
5230.92559570,0.00194521
5232.85440308,0.00199367
5234.78321045,0.00185120
5236.71201782,0.00192324
5238.64082520,0.00197752
5240.56963257,0.00195867
5242.49843994,0.00198125
5244.42724731,0.00180944
5246.35605469,0.00186992
5248.28486206,0.00191398
5250.21366943,0.00180591
5252.14247681,0.00184347
5254.07128418,0.00179856
5256.00009155,0.00169592
5257.92889893,0.00178391
5259.85770630,0.00186101
5261.78651367,0.00182755
5263.71532104,0.00183704
5265.64412842,0.00180709
5267.57293579,0.00181835
5269.50174316,0.00181276
5271.43055054,0.00182378
5273.35935791,0.00185814
5275.28816528,0.00177922
5277.21697266,0.00178650
5279.14578003,0.00175559
5281.07458740,0.00172984
5283.00339478,0.00177716
5284.93220215,0.00175217
5286.86100952,0.00175266
5288.78981689,0.00175630
5290.71862427,0.00171850
5292.64743164,0.00174113
5294.57623901,0.00179822
5296.50504639,0.00172363
5298.43385376,0.00172843
5300.36266113,0.00176835
5302.29146851,0.00172232
5304.22027588,0.00176669
5306.14908325,0.00171662
5308.07789062,0.00166566
5310.00669800,0.00171727
5311.93550537,0.00171917
5313.86431274,0.00170976
5315.79312012,0.00171464
5317.72192749,0.00170722
5319.65073486,0.00173293
5321.57954224,0.00171388
5323.50834961,0.00164460
5325.43715698,0.00168137
5327.36596436,0.00166244
5329.29477173,0.00168096
5331.22357910,0.00170871
5333.15238647,0.00167906
5335.08119385,0.00170992
5337.01000122,0.00160543
5338.93880859,0.00159525
5340.86761597,0.00164269
5342.79642334,0.00164269
5344.72523071,0.00163197
5346.65403809,0.00155209
5348.58284546,0.00160954
5350.51165283,0.00161408
5352.44046020,0.00154163
5354.36926758,0.00155232
5356.29807495,0.00159963
5358.22688232,0.00155444
5360.15568970,0.00156199
5362.08449707,0.00164602
5364.01330444,0.00157641
5365.94211182,0.00161962
5367.87091919,0.00162007
5369.79972656,0.00158251
5371.72853394,0.00161150
5373.65734131,0.00155814
5375.58614868,0.00150277
5377.51495605,0.00141863
5379.44376343,0.00155095
5381.37257080,0.00159929
5383.30137817,0.00153949
5385.23018555,0.00154655
5387.15899292,0.00143201
5389.08780029,0.00152079
5391.01660767,0.00152095
5392.94541504,0.00146731
5394.87422241,0.00156367
5396.80302978,0.00150857
5398.73183716,0.00150640
5400.66064453,0.00148944
5402.58945190,0.00141057
5404.51825928,0.00146126
5406.44706665,0.00148870
5408.37587402,0.00145852
5410.30468140,0.00146557
5412.23348877,0.00139003
5414.16229614,0.00135564
5416.09110352,0.00144862
5418.01991089,0.00144361
5419.94871826,0.00142637
5421.87752563,0.00144959
5423.80633301,0.00142308
5425.73514038,0.00140318
5427.66394775,0.00140556
5429.59275513,0.00133431
5431.52156250,0.00136626
5433.45036987,0.00145064
5435.37917725,0.00135734
5437.30798462,0.00138354
5439.23679199,0.00138509
5441.16559936,0.00136712
5443.09440674,0.00144956
5445.02321411,0.00137906
5446.95202148,0.00135159
5448.88082886,0.00131768
5450.80963623,0.00131861
5452.73844360,0.00140732
5454.66725098,0.00138184
5456.59605835,0.00135786
5458.52486572,0.00141394
5460.45367310,0.00141351
5462.38248047,0.00125945
5464.31128784,0.00129643
5466.24009521,0.00137148
5468.16890259,0.00127039
5470.09770996,0.00132045
5472.02651733,0.00131833
5473.95532471,0.00128578
5475.88413208,0.00131357
5477.81293945,0.00126464
5479.74174683,0.00129016
5481.67055420,0.00132755
5483.59936157,0.00129987
5485.52816895,0.00130121
5487.45697632,0.00131068
5489.38578369,0.00129190
5491.31459106,0.00130048
5493.24339844,0.00125565
5495.17220581,0.00123405
5497.10101318,0.00133240
5499.02982056,0.00129065
5500.95862793,0.00123986
5502.88743530,0.00129590
5504.81624268,0.00128617
5506.74505005,0.00128682
5508.67385742,0.00126569
5510.60266479,0.00124005
5512.53147217,0.00126593
5514.46027954,0.00127146
5516.38908691,0.00127408
5518.31789429,0.00124805
5520.24670166,0.00123122
5522.17550903,0.00124653
5524.10431641,0.00123422
5526.03312378,0.00123454
5527.96193115,0.00125161
5529.89073853,0.00123154
5531.81954590,0.00122672
5533.74835327,0.00125716
5535.67716064,0.00122928
5537.60596802,0.00123098
5539.53477539,0.00125339
5541.46358276,0.00120937
5543.39239014,0.00116774
5545.32119751,0.00112854
5547.25000488,0.00119661
5549.17881226,0.00123486
5551.10761963,0.00116699
5553.03642700,0.00118289
5554.96523437,0.00116196
5556.89404175,0.00115354
5558.82284912,0.00120461
5560.75165649,0.00122445
5562.68046387,0.00121497
5564.60927124,0.00118393
5566.53807861,0.00118773
5568.46688599,0.00115642
5570.39569336,0.00113650
5572.32450073,0.00115767
5574.25330811,0.00114529
5576.18211548,0.00110385
5578.11092285,0.00109089
5580.03973022,0.00115204
5581.96853760,0.00112736
5583.89734497,0.00105601
5585.82615234,0.00109152
5587.75495972,0.00113170
5589.68376709,0.00110512
5591.61257446,0.00113133
5593.54138184,0.00114811
5595.47018921,0.00108218
5597.39899658,0.00111895
5599.32780395,0.00110807
5601.25661133,0.00110104
5603.18541870,0.00115540
5605.11422607,0.00106317
5607.04303345,0.00108055
5608.97184082,0.00109829
5610.90064819,0.00103645
5612.82945557,0.00106613
5614.75826294,0.00105630
5616.68707031,0.00108665
5618.61587769,0.00109428
5620.54468506,0.00104371
5622.47349243,0.00104899
5624.40229980,0.00104935
5626.33110718,0.00105321
5628.25991455,0.00103984
5630.18872192,0.00101134
5632.11752930,0.00102824
5634.04633667,0.00105607
5635.97514404,0.00105208
5637.90395142,0.00102523
5639.83275879,0.00100744
5641.76156616,0.00103807
5643.69037353,0.00101387
5645.61918091,0.00097101
5647.54798828,0.00102850
5649.47679565,0.00101512
5651.40560303,0.00099853
5653.33441040,0.00103071
5655.26321777,0.00101999
5657.19202515,0.00101638
5659.12083252,0.00100972
5661.04963989,0.00102813
5662.97844727,0.00099890
5664.90725464,0.00099887
5666.83606201,0.00095634
5668.76486938,0.00089424
5670.69367676,0.00104559
5672.62248413,0.00100032
5674.55129150,0.00093519
5676.48009888,0.00100876
5678.40890625,0.00090418
5680.33771362,0.00094062
5682.26652100,0.00098360
5684.19532837,0.00094301
5686.12413574,0.00096917
5688.05294311,0.00094409
5689.98175049,0.00094813
5691.91055786,0.00093190
5693.83936523,0.00095693
5695.76817261,0.00098292
5697.69697998,0.00095727
5699.62578735,0.00095999
5701.55459473,0.00089494
5703.48340210,0.00090888
5705.41220947,0.00091289
5707.34101685,0.00089793
5709.26982422,0.00100978
5711.19863159,0.00097547
5713.12743896,0.00091033
5715.05624634,0.00091228
5716.98505371,0.00088991
5718.91386108,0.00093235
5720.84266846,0.00092173
5722.77147583,0.00089545
5724.70028320,0.00087684
5726.62909058,0.00085640
5728.55789795,0.00087165
5730.48670532,0.00086538
5732.41551270,0.00092799
5734.34432007,0.00090735
5736.27312744,0.00090341
5738.20193481,0.00097128
5740.13074219,0.00085703
5742.05954956,0.00086402
5743.98835693,0.00091208
5745.91716431,0.00087509
5747.84597168,0.00090325
5749.77477905,0.00086941
5751.70358643,0.00087059
5753.63239380,0.00087850
5755.56120117,0.00087678
5757.49000854,0.00082544
5759.41881592,0.00080166
5761.34762329,0.00088427
5763.27643066,0.00077363
5765.20523804,0.00080940
5767.13404541,0.00092816
5769.06285278,0.00079354
5770.99166016,0.00079161
5772.92046753,0.00086617
5774.84927490,0.00089292
5776.77808228,0.00085659
5778.70688965,0.00079501
5780.63569702,0.00081276
5782.56450439,0.00083560
5784.49331177,0.00086831
5786.42211914,0.00077991
5788.35092651,0.00075712
5790.27973389,0.00081916
5792.20854126,0.00077679
5794.13734863,0.00081300
5796.06615601,0.00079588
5797.99496338,0.00077043
5799.92377075,0.00081246
5801.85257812,0.00080305
5803.78138550,0.00077945
5805.71019287,0.00077563
5807.63900024,0.00080061
5809.56780762,0.00071293
5811.49661499,0.00073130
5813.42542236,0.00080270
5815.35422974,0.00075762
5817.28303711,0.00080620
5819.21184448,0.00076927
5821.14065186,0.00075486
5823.06945923,0.00074412
5824.99826660,0.00071126
5826.92707397,0.00081586
5828.85588135,0.00077890
5830.78468872,0.00076066
5832.71349609,0.00077310
5834.64230347,0.00069677
5836.57111084,0.00069885
5838.49991821,0.00073068
5840.42872559,0.00074071
5842.35753296,0.00069277
5844.28634033,0.00069857
5846.21514770,0.00069557
5848.14395508,0.00066823
5850.07276245,0.00075315
5852.00156982,0.00076586
5853.93037720,0.00070985
5855.85918457,0.00070916
5857.78799194,0.00072775
5859.71679932,0.00070726
5861.64560669,0.00072837
5863.57441406,0.00080091
5865.50322144,0.00073996
5867.43202881,0.00068460
5869.36083618,0.00071523
5871.28964355,0.00069237
5873.21845093,0.00067542
5875.14725830,0.00067239
5877.07606567,0.00072540
5879.00487305,0.00070733
5880.93368042,0.00057305
5882.86248779,0.00064305
5884.79129517,0.00071413
5886.72010254,0.00068875
5888.64890991,0.00067365
5890.57771728,0.00066208
5892.50652466,0.00075896
5894.43533203,0.00068711
5896.36413940,0.00064214
5898.29294678,0.00072553
5900.22175415,0.00067273
5902.15056152,0.00064259
5904.07936890,0.00062560
5906.00817627,0.00067324
5907.93698364,0.00065184
5909.86579102,0.00060591
5911.79459839,0.00068655
5913.72340576,0.00068488
5915.65221313,0.00063451
5917.58102051,0.00061118
5919.50982788,0.00066694
5921.43863525,0.00066302
5923.36744263,0.00065703
5925.29625000,0.00065674
5927.22505737,0.00064702
5929.15386475,0.00070172
5931.08267212,0.00059254
5933.01147949,0.00060118
5934.94028686,0.00064981
5936.86909424,0.00062998
5938.79790161,0.00063521
5940.72670898,0.00055876
5942.65551636,0.00058826
5944.58432373,0.00055269
5946.51313110,0.00059198
5948.44193848,0.00062984
5950.37074585,0.00057570
5952.29955322,0.00064766
5954.22836060,0.00059298
5956.15716797,0.00059615
5958.08597534,0.00062002
5960.01478271,0.00059931
5961.94359009,0.00061823
5963.87239746,0.00057138
5965.80120483,0.00057984
5967.73001221,0.00058608
5969.65881958,0.00059324
5971.58762695,0.00060094
5973.51643433,0.00057912
5975.44524170,0.00058548
5977.37404907,0.00061211
5979.30285645,0.00057232
5981.23166382,0.00053444
5983.16047119,0.00055525
5985.08927856,0.00058813
5987.01808594,0.00060989
5988.94689331,0.00051746
5990.87570068,0.00055901
5992.80450806,0.00054419
5994.73331543,0.00050446
5996.66212280,0.00062575
5998.59093018,0.00054431
6000.51973755,0.00055637
