399.26312622,0.00044096
401.19193359,0.00034626
403.12074097,0.00095332
405.04954834,0.00070943
406.97835571,0.00038639
408.90716309,0.00100734
410.83597046,0.00080924
412.76477783,0.00087193
414.69358521,0.00112337
416.62239258,0.00095094
418.55119995,0.00077618
420.48000732,0.00081685
422.40881470,0.00122487
424.33762207,0.00111731
426.26642944,0.00064159
428.19523682,0.00073478
430.12404419,0.00120676
432.05285156,0.00094349
433.98165894,0.00077931
435.91046631,0.00120679
437.83927368,0.00101261
439.76808105,0.00110941
441.69688843,0.00115795
443.62569580,0.00091338
445.55450317,0.00071792
447.48331055,0.00057720
449.41211792,0.00125266
451.34092529,0.00084285
453.26973267,0.00070192
455.19854004,0.00092577
457.12734741,0.00017370
459.05615479,0.00080281
460.98496216,0.00048444
462.91376953,0.00048046
464.84257690,0.00099777
466.77138428,-0.00001093
468.70019165,0.00062268
470.62899902,0.00055133
472.55780640,0.00009018
474.48661377,0.00040330
476.41542114,0.00003175
478.34422852,0.00029132
480.27303589,0.00014162
482.20184326,0.00031125
484.13065063,0.00048858
486.05945801,0.00029788
487.98826538,0.00049102
489.91707275,0.00012105
491.84588013,0.00030002
493.77468750,0.00040027
495.70349487,0.00008547
497.63230225,0.00005854
499.56110962,0.00001145
501.48991699,0.00015926
503.41872437,0.00024733
505.34753174,0.00036989
507.27633911,0.00034516
509.20514648,0.00006340
511.13395386,0.00005775
513.06276123,0.00030223
514.99156860,0.00054700
516.92037598,0.00032677
518.84918335,-0.00007553
520.77799072,0.00020778
522.70679810,0.00007373
524.63560547,-0.00000620
526.56441284,0.00039082
528.49322021,0.00010036
530.42202759,0.00021313
532.35083496,0.00005125
534.27964233,0.00004329
536.20844971,0.00059737
538.13725708,0.00019195
540.06606445,-0.00001309
541.99487183,-0.00011909
543.92367920,0.00004432
545.85248657,0.00043350
547.78129395,0.00006878
549.71010132,-0.00016550
551.63890869,0.00030840
553.56771606,0.00035636
555.49652344,0.00004211
557.42533081,0.00013722
559.35413818,0.00018569
561.28294556,0.00011253
563.21175293,0.00010264
565.14056030,0.00042963
567.06936768,0.00047874
568.99817505,0.00016205
570.92698242,0.00019016
572.85578979,0.00020475
574.78459717,0.00039996
576.71340454,0.00048144
578.64221191,0.00024973
580.57101929,0.00021196
582.49982666,0.00022519
584.42863403,-0.00006145
586.35744141,-0.00009129
588.28624878,0.00009403
590.21505615,0.00009244
592.14386353,0.00043615
594.07267090,0.00031800
596.00147827,0.00026641
597.93028564,0.00014058
599.85909302,0.00017329
601.78790039,0.00076847
603.71670776,0.00012983
605.64551514,0.00029899
607.57432251,0.00063061
609.50312988,-0.00018135
611.43193726,-0.00005257
613.36074463,0.00019117
615.28955200,0.00005858
617.21835938,-0.00000327
619.14716675,-0.00008078
621.07597412,0.00016724
623.00478149,0.00041926
624.93358887,0.00009605
626.86239624,-0.00001948
628.79120361,0.00025241
630.72001099,0.00055190
632.64881836,0.00060432
634.57762573,0.00034018
636.50643311,0.00083798
638.43524048,0.00083860
640.36404785,0.00060703
642.29285522,0.00102388
644.22166260,0.00080719
646.15046997,0.00116671
648.07927734,0.00147226
650.00808472,0.00108615
651.93689209,0.00115233
653.86569946,0.00128507
655.79450684,0.00130467
657.72331421,0.00136634
659.65212158,0.00156790
661.58092896,0.00146439
663.50973633,0.00158703
665.43854370,0.00146682
667.36735107,0.00110447
669.29615845,0.00176801
671.22496582,0.00195281
673.15377319,0.00171448
675.08258057,0.00179030
677.01138794,0.00188268
678.94019531,0.00191486
680.86900269,0.00214167
682.79781006,0.00233607
684.72661743,0.00191819
686.65542480,0.00223678
688.58423218,0.00208104
690.51303955,0.00178160
692.44184692,0.00236756
694.37065430,0.00225027
696.29946167,0.00265597
698.22826904,0.00302837
700.15707642,0.00311975
702.08588379,0.00308326
704.01469116,0.00278025
705.94349854,0.00277936
707.87230591,0.00195247
709.80111328,0.00164911
711.72992065,0.00133251
713.65872803,0.00077766
715.58753540,0.00078754
717.51634277,0.00023867
719.44515015,0.00020592
721.37395752,0.00016899
723.30276489,0.00005119
725.23157227,0.00010122
727.16037964,0.00013217
729.08918701,0.00029866
731.01799438,-0.00002772
732.94680176,0.00023852
734.87560913,0.00022891
736.80441650,-0.00012531
738.73322388,0.00017964
740.66203125,0.00035955
742.59083862,0.00023351
744.51964600,-0.00004698
746.44845337,0.00025730
748.37726074,0.00036884
750.30606812,0.00026334
752.23487549,0.00032238
754.16368286,0.00007022
756.09249023,0.00043462
758.02129761,0.00043988
759.95010498,0.00007827
761.87891235,0.00033955
763.80771973,0.00017190
765.73652710,0.00007941
767.66533447,0.00036074
769.59414185,0.00037594
771.52294922,0.00043183
773.45175659,0.00036362
775.38056396,0.00015519
777.30937134,0.00028476
779.23817871,0.00037343
781.16698608,0.00010550
783.09579346,0.00018815
785.02460083,0.00055584
786.95340820,0.00032195
788.88221558,0.00021220
790.81102295,0.00040836
792.73983032,0.00023112
794.66863770,0.00048396
796.59744507,0.00057833
798.52625244,0.00044846
800.45505981,0.00053853
802.38386719,0.00038270
804.31267456,0.00056986
806.24148193,0.00048979
808.17028931,0.00032011
810.09909668,0.00024980
812.02790405,0.00015438
813.95671143,0.00039535
815.88551880,0.00020746
817.81432617,0.00023965
819.74313354,0.00032794
821.67194092,0.00034326
823.60074829,0.00055837
825.52955566,0.00032041
827.45836304,0.00039161
829.38717041,0.00052819
831.31597778,0.00032913
833.24478516,0.00056580
835.17359253,0.00105809
837.10239990,0.00087110
839.03120728,0.00058076
840.96001465,0.00076584
842.88882202,0.00060287
844.81762939,0.00068932
846.74643677,0.00068891
848.67524414,0.00048564
850.60405151,0.00081958
852.53285889,0.00077803
854.46166626,0.00053437
856.39047363,0.00045944
858.31928101,0.00060018
860.24808838,0.00071657
862.17689575,0.00046313
864.10570313,0.00037885
866.03451050,0.00030445
867.96331787,0.00043356
869.89212524,0.00040558
871.82093262,0.00010670
873.74973999,0.00042114
875.67854736,0.00032683
877.60735474,0.00015125
879.53616211,0.00027755
881.46496948,0.00014059
883.39377686,0.00052568
885.32258423,0.00046067
887.25139160,0.00027901
889.18019897,0.00043262
891.10900635,0.00039758
893.03781372,0.00063240
894.96662109,0.00029665
896.89542847,0.00033411
898.82423584,0.00059531
900.75304321,0.00026693
902.68185059,0.00043732
904.61065796,0.00044997
906.53946533,0.00042740
908.46827271,0.00052165
910.39708008,0.00063025
912.32588745,0.00059303
914.25469482,0.00042683
916.18350220,0.00060436
918.11230957,0.00053362
920.04111694,0.00097705
921.96992432,0.00081668
923.89873169,0.00022871
925.82753906,0.00087710
927.75634644,0.00086454
929.68515381,0.00078678
931.61396118,0.00119409
933.54276855,0.00118831
935.47157593,0.00111774
937.40038330,0.00114123
939.32919067,0.00120141
941.25799805,0.00103433
943.18680542,0.00115281
945.11561279,0.00129930
947.04442017,0.00134582
948.97322754,0.00140778
950.90203491,0.00131624
952.83084229,0.00132728
954.75964966,0.00116342
956.68845703,0.00112857
958.61726440,0.00111712
960.54607178,0.00125451
962.47487915,0.00156164
964.40368652,0.00133030
966.33249390,0.00119187
968.26130127,0.00132555
970.19010864,0.00147015
972.11891602,0.00158301
974.04772339,0.00156760
975.97653076,0.00167414
977.90533813,0.00161654
979.83414551,0.00158620
981.76295288,0.00203197
983.69176025,0.00223427
985.62056763,0.00234075
987.54937500,0.00273803
989.47818237,0.00289935
991.40698975,0.00307495
993.33579712,0.00346075
995.26460449,0.00388331
997.19341187,0.00412455
999.12221924,0.00448946
1001.05102661,0.00488215
1002.97983398,0.00487867
1004.90864136,0.00530868
1006.83744873,0.00559513
1008.76625610,0.00574332
1010.69506348,0.00643481
1012.62387085,0.00667760
1014.55267822,0.00687693
1016.48148560,0.00749301
1018.41029297,0.00787412
1020.33910034,0.00803099
1022.26790771,0.00832024
1024.19671509,0.00868928
1026.12552246,0.00916538
1028.05432983,0.00959507
1029.98313721,0.00977113
1031.91194458,0.00999127
1033.84075195,0.01006573
1035.76955933,0.01014507
1037.69836670,0.01039675
1039.62717407,0.01061338
1041.55598145,0.01052366
1043.48478882,0.01022547
1045.41359619,0.01024064
1047.34240356,0.01019494
1049.27121094,0.01018424
1051.20001831,0.01005559
1053.12882568,0.00968580
1055.05763306,0.00961700
1056.98644043,0.00916529
1058.91524780,0.00868165
1060.84405518,0.00888622
1062.77286255,0.00870858
1064.70166992,0.00833842
1066.63047729,0.00812666
1068.55928467,0.00742134
1070.48809204,0.00731774
1072.41689941,0.00721859
1074.34570679,0.00661212
1076.27451416,0.00655467
1078.20332153,0.00613024
1080.13212891,0.00582271
1082.06093628,0.00566282
1083.98974365,0.00542877
1085.91855103,0.00521025
1087.84735840,0.00472980
1089.77616577,0.00487601
1091.70497314,0.00455517
1093.63378052,0.00416576
1095.56258789,0.00418552
1097.49139526,0.00395294
1099.42020264,0.00390673
1101.34901001,0.00382309
1103.27781738,0.00410727
1105.20662476,0.00384338
1107.13543213,0.00335412
1109.06423950,0.00351641
1110.99304687,0.00346149
1112.92185425,0.00345467
1114.85066162,0.00345771
1116.77946899,0.00334525
1118.70827637,0.00335127
1120.63708374,0.00360855
1122.56589111,0.00341183
1124.49469849,0.00336232
1126.42350586,0.00376149
1128.35231323,0.00361650
1130.28112061,0.00380232
1132.20992798,0.00385389
1134.13873535,0.00390072
1136.06754272,0.00422842
1137.99635010,0.00420603
1139.92515747,0.00451986
1141.85396484,0.00486728
1143.78277222,0.00520277
1145.71157959,0.00560311
1147.64038696,0.00582806
1149.56919434,0.00609229
1151.49800171,0.00638382
1153.42680908,0.00647054
1155.35561646,0.00680599
1157.28442383,0.00740250
1159.21323120,0.00753265
1161.14203857,0.00774518
1163.07084595,0.00803801
1164.99965332,0.00838269
1166.92846069,0.00876371
1168.85726807,0.00919224
1170.78607544,0.00956561
1172.71488281,0.00943805
1174.64369019,0.00993873
1176.57249756,0.01055551
1178.50130493,0.01090875
1180.43011230,0.01118930
1182.35891968,0.01142672
1184.28772705,0.01223037
1186.21653442,0.01258669
1188.14534180,0.01307851
1190.07414917,0.01379893
1192.00295654,0.01421686
1193.93176392,0.01494619
1195.86057129,0.01571837
1197.78937866,0.01664652
1199.71818604,0.01742531
1201.64699341,0.01803761
1203.57580078,0.01878265
1205.50460815,0.01970472
1207.43341553,0.02040411
1209.36222290,0.02076674
1211.29103027,0.02147113
1213.21983765,0.02216774
1215.14864502,0.02274653
1217.07745239,0.02316567
1219.00625977,0.02345281
1220.93506714,0.02375446
1222.86387451,0.02412851
1224.79268188,0.02437563
1226.72148926,0.02440818
1228.65029663,0.02473252
1230.57910400,0.02475373
1232.50791138,0.02501787
1234.43671875,0.02507878
1236.36552612,0.02458622
1238.29433350,0.02499996
1240.22314087,0.02508347
1242.15194824,0.02482867
1244.08075562,0.02483566
1246.00956299,0.02485739
1247.93837036,0.02480594
1249.86717773,0.02431195
1251.79598511,0.02429723
1253.72479248,0.02414852
1255.65359985,0.02369059
1257.58240723,0.02355077
1259.51121460,0.02320288
1261.44002197,0.02286699
1263.36882935,0.02246150
1265.29763672,0.02220868
1267.22644409,0.02213086
1269.15525146,0.02172915
1271.08405884,0.02132070
1273.01286621,0.02090697
1274.94167358,0.02052947
1276.87048096,0.02020003
1278.79928833,0.01971843
1280.72809570,0.01957414
1282.65690308,0.01925029
1284.58571045,0.01868081
1286.51451782,0.01872475
1288.44332520,0.01831549
1290.37213257,0.01772698
1292.30093994,0.01780518
1294.22974731,0.01780412
1296.15855469,0.01762549
1298.08736206,0.01757682
1300.01616943,0.01778265
1301.94497681,0.01762026
1303.87378418,0.01779747
1305.80259155,0.01839447
1307.73139893,0.01836492
1309.66020630,0.01861079
1311.58901367,0.01887199
1313.51782104,0.01900171
1315.44662842,0.01950624
1317.37543579,0.02012992
1319.30424316,0.02067891
1321.23305054,0.02120319
1323.16185791,0.02200666
1325.09066528,0.02243561
1327.01947266,0.02298373
1328.94828003,0.02378876
1330.87708740,0.02422993
1332.80589478,0.02497362
1334.73470215,0.02564911
1336.66350952,0.02568072
1338.59231689,0.02511771
1340.52112427,0.02544744
1342.44993164,0.02673429
1344.37873901,0.02700299
1346.30754639,0.02703704
1348.23635376,0.02705366
1350.16516113,0.02683247
1352.09396851,0.02682355
1354.02277588,0.02641460
1355.95158325,0.02617690
1357.88039062,0.02615784
1359.80919800,0.02563733
1361.73800537,0.02413658
1363.66681274,0.02378970
1365.59562012,0.02540070
1367.52442749,0.02484662
1369.45323486,0.02442498
1371.38204224,0.02492943
1373.31084961,0.02341701
1375.23965698,0.02351838
1377.16846436,0.02427090
1379.09727173,0.02424482
1381.02607910,0.02454913
1382.95488647,0.02446517
1384.88369385,0.02439184
1386.81250122,0.02314127
1388.74130859,0.02341918
1390.67011597,0.02590530
1392.59892334,0.02496177
1394.52773071,0.02295743
1396.45653809,0.02443306
1398.38534546,0.02425358
1400.31415283,0.02399898
1402.24296021,0.02638250
1404.17176758,0.02491419
1406.10057495,0.02473278
1408.02938232,0.02602085
1409.95818970,0.02509778
1411.88699707,0.02538904
1413.81580444,0.02471075
1415.74461182,0.02514739
1417.67341919,0.02221486
1419.60222656,0.01948235
1421.53103394,0.02303842
1423.45984131,0.02247475
1425.38864868,0.02178894
1427.31745605,0.02253005
1429.24626343,0.02055332
1431.17507080,0.01983895
1433.10387817,0.02045711
1435.03268555,0.01849169
1436.96149292,0.01532883
1438.89030029,0.01773674
1440.81910767,0.01853778
1442.74791504,0.01705796
1444.67672241,0.01796728
1446.60552979,0.01637633
1448.53433716,0.01653513
1450.46314453,0.01730367
1452.39195190,0.01769509
1454.32075928,0.01832833
1456.24956665,0.01441245
1458.17837402,0.01477249
1460.10718140,0.02065443
1462.03598877,0.02237840
1463.96479614,0.02200901
1465.89360352,0.02254149
1467.82241089,0.02624412
1469.75121826,0.02833775
1471.68002563,0.02429137
1473.60883301,0.02561081
1475.53764038,0.02955354
1477.46644775,0.03200546
1479.39525513,0.03564097
1481.32406250,0.03595309
1483.25286987,0.03845893
1485.18167725,0.03974079
1487.11048462,0.03848241
1489.03929199,0.03775197
1490.96809937,0.03767424
1492.89690674,0.04508470
1494.82571411,0.04408522
1496.75452148,0.03841629
1498.68332886,0.04401253
1500.61213623,0.04578027
1502.54094360,0.04968808
1504.46975098,0.04668146
1506.39855835,0.03141339
1508.32736572,0.03933205
1510.25617310,0.04811154
1512.18498047,0.04658686
1514.11378784,0.05111899
1516.04259521,0.04495384
1517.97140259,0.04712492
1519.90020996,0.04576625
1521.82901733,0.03791279
1523.75782471,0.04831422
1525.68663208,0.04772169
1527.61543945,0.04706008
1529.54424683,0.05316034
1531.47305420,0.05072128
1533.40186157,0.04554999
1535.33066895,0.04877983
1537.25947632,0.05328043
1539.18828369,0.03560140
1541.11709106,0.03701798
1543.04589844,0.04654910
1544.97470581,0.04402874
1546.90351318,0.05430319
1548.83232056,0.05005304
1550.76112793,0.05153952
1552.68993530,0.05188935
1554.61874268,0.04584613
1556.54755005,0.05001777
1558.47635742,0.03253186
1560.40516479,0.03532959
1562.33397217,0.05494466
1564.26277954,0.05129176
1566.19158691,0.05311232
1568.12039429,0.05231450
1570.04920166,0.04505585
1571.97800903,0.05368758
1573.90681641,0.05470543
1575.83562378,0.04147940
1577.76443115,0.04776673
1579.69323853,0.05563463
1581.62204590,0.05262406
1583.55085327,0.05430740
1585.47966064,0.05389945
1587.40846802,0.05393265
1589.33727539,0.05333767
1591.26608276,0.05340294
1593.19489014,0.05344390
1595.12369751,0.05264361
1597.05250488,0.05360165
1598.98131226,0.05325397
1600.91011963,0.05361263
1602.83892700,0.05238342
1604.76773437,0.05348704
1606.69654175,0.05281276
1608.62534912,0.05223063
1610.55415649,0.05226400
1612.48296387,0.05271531
1614.41177124,0.05369246
1616.34057861,0.04235049
1618.26938599,0.04593900
1620.19819336,0.05547242
1622.12700073,0.04820483
1624.05580811,0.04824989
1625.98461548,0.05136489
1627.91342285,0.05085420
1629.84223022,0.05068074
1631.77103760,0.05490570
1633.69984497,0.05014797
1635.62865234,0.03955837
1637.55745972,0.04732873
1639.48626709,0.05358076
1641.41507446,0.05212215
1643.34388184,0.05399054
1645.27268921,0.04800393
1647.20149658,0.04047538
1649.13030396,0.05257868
1651.05911133,0.05064696
1652.98791870,0.02936235
1654.91672607,0.04198380
1656.84553345,0.05604739
1658.77434082,0.05357161
1660.70314819,0.05531115
1662.63195557,0.04932942
1664.56076294,0.05238445
1666.48957031,0.05769093
1668.41837769,0.04883704
1670.34718506,0.04675891
1672.27599243,0.05491865
1674.20479980,0.05011386
1676.13360718,0.04743530
1678.06241455,0.05649539
1679.99122192,0.05429623
1681.92002930,0.05339301
1683.84883667,0.04200747
1685.77764404,0.04121307
1687.70645142,0.06015430
1689.63525879,0.05100987
1691.56406616,0.05683039
1693.49287354,0.05903426
1695.42168091,0.04021282
1697.35048828,0.05171956
1699.27929565,0.04474705
1701.20810303,0.03848255
1703.13691040,0.05655378
1705.06571777,0.05133225
1706.99452515,0.05154340
1708.92333252,0.05723692
1710.85213989,0.05466155
1712.78094727,0.05593111
1714.70975464,0.05114502
1716.63856201,0.04490048
1718.56736938,0.04387756
1720.49617676,0.05383281
1722.42498413,0.05680966
1724.35379150,0.05196263
1726.28259888,0.05770039
1728.21140625,0.05269860
1730.14021362,0.05276985
1732.06902100,0.05169433
1733.99782837,0.03690790
1735.92663574,0.04797590
1737.85544312,0.05458914
1739.78425049,0.04722940
1741.71305786,0.05208824
1743.64186523,0.05302747
1745.57067261,0.05308788
1747.49947998,0.05332700
1749.42828735,0.05060171
1751.35709473,0.04798235
1753.28590210,0.05418500
1755.21470947,0.05751884
1757.14351685,0.05113578
1759.07232422,0.05739645
1761.00113159,0.05339748
1762.92993896,0.05070326
1764.85874634,0.06019643
1766.78755371,0.05300260
1768.71636108,0.05341887
1770.64516846,0.05322502
1772.57397583,0.04650009
1774.50278320,0.05335739
1776.43159058,0.05717468
1778.36039795,0.05622840
1780.28920532,0.05516742
1782.21801270,0.05574937
1784.14682007,0.05588312
1786.07562744,0.05434781
1788.00443481,0.05787127
1789.93324219,0.05626793
1791.86204956,0.04954201
1793.79085693,0.05205693
1795.71966431,0.05685574
1797.64847168,0.05594467
1799.57727905,0.05490503
1801.50608643,0.05361962
1803.43489380,0.05579411
1805.36370117,0.05747934
1807.29250854,0.05639422
1809.22131592,0.05663265
1811.15012329,0.05468541
1813.07893066,0.05699584
1815.00773804,0.05755684
1816.93654541,0.05649949
1818.86535278,0.05711865
1820.79416016,0.05678830
1822.72296753,0.05799568
1824.65177490,0.05322890
1826.58058228,0.05545512
1828.50938965,0.05603822
1830.43819702,0.05145450
1832.36700439,0.05707290
1834.29581177,0.05679402
1836.22461914,0.05660937
1838.15342651,0.05649006
1840.08223389,0.05682327
1842.01104126,0.05708772
1843.93984863,0.04932857
1845.86865601,0.05325170
1847.79746338,0.05684500
1849.72627075,0.05541486
1851.65507812,0.05757967
1853.58388550,0.05606265
1855.51269287,0.05675681
1857.44150024,0.05644279
1859.37030762,0.05603494
1861.29911499,0.05649264
1863.22792236,0.05559830
1865.15672974,0.05641365
1867.08553711,0.05425917
1869.01434448,0.05134930
1870.94315186,0.05383734
1872.87195923,0.05660905
1874.80076660,0.05549343
1876.72957397,0.05590341
1878.65838135,0.05578158
1880.58718872,0.05528802
1882.51599609,0.05597663
1884.44480347,0.05491288
1886.37361084,0.05576508
1888.30241821,0.05429474
1890.23122559,0.05300389
1892.16003296,0.05552744
1894.08884033,0.05464285
1896.01764771,0.05414310
1897.94645508,0.05518639
1899.87526245,0.05498793
1901.80406982,0.05490404
1903.73287720,0.05471091
1905.66168457,0.05481934
1907.59049194,0.05418298
1909.51929932,0.05395781
1911.44810669,0.05412684
1913.37691406,0.05430319
1915.30572144,0.05501275
1917.23452881,0.05214972
1919.16333618,0.05202749
1921.09214355,0.05436616
1923.02095093,0.05235698
1924.94975830,0.05366565
1926.87856567,0.05453137
1928.80737305,0.05381210
1930.73618042,0.05460867
1932.66498779,0.05357373
1934.59379517,0.05426335
1936.52260254,0.05373837
1938.45140991,0.05389064
1940.38021729,0.05403867
1942.30902466,0.05179400
1944.23783203,0.05306384
1946.16663940,0.05369300
1948.09544678,0.05359196
1950.02425415,0.05387760
1951.95306152,0.05351212
1953.88186890,0.05377735
1955.81067627,0.05347033
1957.73948364,0.05361284
1959.66829102,0.05351534
1961.59709839,0.05344597
1963.52590576,0.05369821
1965.45471313,0.05314931
1967.38352051,0.05248919
1969.31232788,0.05316657
1971.24113525,0.05357395
1973.16994263,0.05302887
1975.09875000,0.05352861
1977.02755737,0.05315948
1978.95636475,0.05323160
1980.88517212,0.05334203
1982.81397949,0.05270221
1984.74278687,0.05309737
1986.67159424,0.05271681
1988.60040161,0.05286637
1990.52920898,0.05238995
1992.45801636,0.05147706
1994.38682373,0.05248062
1996.31563110,0.05270717
1998.24443848,0.05234892
2000.17324585,0.05246385
2002.10205322,0.05232349
2004.03086060,0.05219246
2005.95966797,0.05215197
2007.88847534,0.05205903
2009.81728271,0.05204848
2011.74609009,0.05187108
2013.67489746,0.05190272
2015.60370483,0.05147517
2017.53251221,0.05092680
2019.46131958,0.05150427
2021.39012695,0.05131998
2023.31893433,0.05109435
2025.24774170,0.05117595
2027.17654907,0.05090297
2029.10535645,0.05092136
2031.03416382,0.05071816
2032.96297119,0.05084027
2034.89177856,0.05071414
2036.82058594,0.05057609
2038.74939331,0.05061278
2040.67820068,0.05027320
2042.60700806,0.05021209
2044.53581543,0.05022013
2046.46462280,0.05020428
2048.39343018,0.04993535
2050.32223755,0.04983903
2052.25104492,0.04982284
2054.17985229,0.04969097
2056.10865967,0.04981826
2058.03746704,0.04971878
2059.96627441,0.04955972
2061.89508179,0.04949943
2063.82388916,0.04919855
2065.75269653,0.04897954
2067.68150391,0.04931933
2069.61031128,0.04926479
2071.53911865,0.04900140
2073.46792603,0.04899904
2075.39673340,0.04886298
2077.32554077,0.04882247
2079.25434814,0.04866478
2081.18315552,0.04875273
2083.11196289,0.04860299
2085.04077026,0.04840947
2086.96957764,0.04840302
2088.89838501,0.04810434
2090.82719238,0.04813002
2092.75599976,0.04804961
2094.68480713,0.04806051
2096.61361450,0.04795326
2098.54242187,0.04776005
2100.47122925,0.04795004
2102.40003662,0.04785277
2104.32884399,0.04768036
2106.25765137,0.04767784
2108.18645874,0.04759862
2110.11526611,0.04740897
2112.04407349,0.04753596
2113.97288086,0.04742331
2115.90168823,0.04730190
2117.83049561,0.04735504
2119.75930298,0.04717918
2121.68811035,0.04732082
2123.61691772,0.04712557
2125.54572510,0.04713541
2127.47453247,0.04715128
2129.40333984,0.04686383
2131.33214722,0.04694638
2133.26095459,0.04682382
2135.18976196,0.04683346
2137.11856934,0.04671586
2139.04737671,0.04659930
2140.97618408,0.04663631
2142.90499146,0.04659041
2144.83379883,0.04656625
2146.76260620,0.04641164
2148.69141357,0.04649469
2150.62022095,0.04647298
2152.54902832,0.04640108
2154.47783569,0.04639556
2156.40664307,0.04630186
2158.33545044,0.04626414
2160.26425781,0.04629287
2162.19306519,0.04619230
2164.12187256,0.04597975
2166.05067993,0.04600683
2167.97948730,0.04605493
2169.90829468,0.04605311
2171.83710205,0.04580020
2173.76590942,0.04579977
2175.69471680,0.04585786
2177.62352417,0.04569402
2179.55233154,0.04580788
2181.48113892,0.04566572
2183.40994629,0.04572868
2185.33875366,0.04569538
2187.26756104,0.04555018
2189.19636841,0.04551636
2191.12517578,0.04544023
2193.05398315,0.04558938
2194.98279053,0.04537553
2196.91159790,0.04534257
2198.84040527,0.04524717
2200.76921265,0.04527786
2202.69802002,0.04532700
2204.62682739,0.04494491
2206.55563477,0.04511746
2208.48444214,0.04511747
2210.41324951,0.04493264
2212.34205688,0.04487014
2214.27086426,0.04499340
2216.19967163,0.04498189
2218.12847900,0.04473638
2220.05728638,0.04474942
2221.98609375,0.04453671
2223.91490112,0.04459300
2225.84370850,0.04457746
2227.77251587,0.04460063
2229.70132324,0.04473220
2231.63013062,0.04442585
2233.55893799,0.04442278
2235.48774536,0.04436956
2237.41655273,0.04420385
2239.34536011,0.04419974
2241.27416748,0.04408100
2243.20297485,0.04381374
2245.13178223,0.04390046
2247.06058960,0.04400226
2248.98939697,0.04382922
2250.91820435,0.04389388
2252.84701172,0.04371071
2254.77581909,0.04367518
2256.70462646,0.04373953
2258.63343384,0.04359357
2260.56224121,0.04352149
2262.49104858,0.04348721
2264.41985596,0.04352766
2266.34866333,0.04335276
2268.27747070,0.04324146
2270.20627808,0.04316891
2272.13508545,0.04322090
2274.06389282,0.04322705
2275.99270020,0.04317296
2277.92150757,0.04329777
2279.85031494,0.04309093
2281.77912231,0.04303430
2283.70792969,0.04301710
2285.63673706,0.04297463
2287.56554443,0.04303963
2289.49435181,0.04279675
2291.42315918,0.04259350
2293.35196655,0.04265874
2295.28077393,0.04259541
2297.20958130,0.04231527
2299.13838867,0.04228074
2301.06719604,0.04219670
2302.99600342,0.04209025
2304.92481079,0.04186006
2306.85361816,0.04150936
2308.78242554,0.04138550
2310.71123291,0.04098995
2312.64004028,0.04056633
2314.56884766,0.04025223
2316.49765503,0.03996447
2318.42646240,0.03947155
2320.35526978,0.03895071
2322.28407715,0.03852838
2324.21288452,0.03802505
2326.14169189,0.03772895
2328.07049927,0.03720892
2329.99930664,0.03679048
2331.92811401,0.03651189
2333.85692139,0.03644951
2335.78572876,0.03638512
2337.71453613,0.03613349
2339.64334351,0.03628816
2341.57215088,0.03630421
2343.50095825,0.03683339
2345.42976562,0.03757483
2347.35857300,0.03879131
2349.28738037,0.03997605
2351.21618774,0.03872768
2353.14499512,0.03699774
2355.07380249,0.03590238
2357.00260986,0.03491355
2358.93141724,0.03427942
2360.86022461,0.03383584
2362.78903198,0.03374269
2364.71783936,0.03388808
2366.64664673,0.03426471
2368.57545410,0.03494192
2370.50426147,0.03589179
2372.43306885,0.03664447
2374.36187622,0.03755191
2376.29068359,0.03843044
2378.21949097,0.03899718
2380.14829834,0.03980044
2382.07710571,0.04013483
2384.00591309,0.04028934
2385.93472046,0.04048861
2387.86352783,0.04049585
2389.79233521,0.04046330
2391.72114258,0.04048043
2393.64994995,0.04052398
2395.57875732,0.04030684
2397.50756470,0.04029843
2399.43637207,0.04021972
2401.36517944,0.04013079
2403.29398682,0.04014278
2405.22279419,0.03996284
2407.15160156,0.04011484
2409.08040894,0.04012237
2411.00921631,0.03987202
2412.93802368,0.03988158
2414.86683105,0.03993253
2416.79563843,0.03983925
2418.72444580,0.03977621
2420.65325317,0.03978436
2422.58206055,0.03969098
2424.51086792,0.03955105
2426.43967529,0.03959231
2428.36848267,0.03958266
2430.29729004,0.03943681
2432.22609741,0.03942595
2434.15490479,0.03940772
2436.08371216,0.03949197
2438.01251953,0.03936662
2439.94132690,0.03929844
2441.87013428,0.03929516
2443.79894165,0.03903949
2445.72774902,0.03916935
2447.65655640,0.03899701
2449.58536377,0.03897981
2451.51417114,0.03907216
2453.44297852,0.03884422
2455.37178589,0.03896372
2457.30059326,0.03887446
2459.22940063,0.03884103
2461.15820801,0.03867047
2463.08701538,0.03870812
2465.01582275,0.03881021
2466.94463013,0.03854801
2468.87343750,0.03863207
2470.80224487,0.03854711
2472.73105225,0.03857756
2474.65985962,0.03846548
2476.58866699,0.03837191
2478.51747437,0.03844052
2480.44628174,0.03829713
2482.37508911,0.03828296
2484.30389648,0.03813776
2486.23270386,0.03825921
2488.16151123,0.03814967
2490.09031860,0.03808038
2492.01912598,0.03806083
2493.94793335,0.03779110
2495.87674072,0.03798157
2497.80554810,0.03787531
2499.73435547,0.03780976
2501.66316284,0.03783957
2503.59197021,0.03774954
2505.52077759,0.03768171
2507.44958496,0.03757757
2509.37839233,0.03768522
2511.30719971,0.03768992
2513.23600708,0.03756554
2515.16481445,0.03731072
2517.09362183,0.03739095
2519.02242920,0.03734700
2520.95123657,0.03724184
2522.88004395,0.03745259
2524.80885132,0.03728982
2526.73765869,0.03720263
2528.66646606,0.03710773
2530.59527344,0.03720477
2532.52408081,0.03726951
2534.45288818,0.03705980
2536.38169556,0.03697269
2538.31050293,0.03685480
2540.23931030,0.03693457
2542.16811768,0.03690488
2544.09692505,0.03690842
2546.02573242,0.03676780
2547.95453979,0.03665853
2549.88334717,0.03674929
2551.81215454,0.03654860
2553.74096191,0.03659365
2555.66976929,0.03658491
2557.59857666,0.03650652
2559.52738403,0.03649215
2561.45619141,0.03643373
2563.38499878,0.03642794
2565.31380615,0.03633342
2567.24261353,0.03627769
2569.17142090,0.03626902
2571.10022827,0.03625119
2573.02903564,0.03605755
2574.95784302,0.03607915
2576.88665039,0.03610338
2578.81545776,0.03596675
2580.74426514,0.03590957
2582.67307251,0.03586821
2584.60187988,0.03594705
2586.53068726,0.03574405
2588.45949463,0.03581702
2590.38830200,0.03585513
2592.31710937,0.03562904
2594.24591675,0.03568579
2596.17472412,0.03560979
2598.10353149,0.03564798
2600.03233887,0.03542525
2601.96114624,0.03538910
2603.88995361,0.03562520
2605.81876099,0.03532995
2607.74756836,0.03526147
2609.67637573,0.03530907
2611.60518311,0.03517519
2613.53399048,0.03517199
2615.46279785,0.03516176
2617.39160522,0.03499268
2619.32041260,0.03499773
2621.24921997,0.03499442
2623.17802734,0.03484016
2625.10683472,0.03493541
2627.03564209,0.03482017
2628.96444946,0.03470032
2630.89325684,0.03483312
2632.82206421,0.03474829
2634.75087158,0.03462869
2636.67967895,0.03466957
2638.60848633,0.03460884
2640.53729370,0.03452525
2642.46610107,0.03456204
2644.39490845,0.03444221
2646.32371582,0.03439164
2648.25252319,0.03440239
2650.18133057,0.03436177
2652.11013794,0.03431722
2654.03894531,0.03420672
2655.96775269,0.03420523
2657.89656006,0.03410829
2659.82536743,0.03403044
2661.75417480,0.03406998
2663.68298218,0.03404069
2665.61178955,0.03393354
2667.54059692,0.03385554
2669.46940430,0.03386463
2671.39821167,0.03378415
2673.32701904,0.03372473
2675.25582642,0.03370894
2677.18463379,0.03367339
2679.11344116,0.03353696
2681.04224854,0.03352403
2682.97105591,0.03357570
2684.89986328,0.03339125
2686.82867065,0.03336610
2688.75747803,0.03331187
2690.68628540,0.03328378
2692.61509277,0.03336960
2694.54390015,0.03322101
2696.47270752,0.03315742
2698.40151489,0.03315228
2700.33032227,0.03308013
2702.25912964,0.03302122
2704.18793701,0.03289388
2706.11674438,0.03287207
2708.04555176,0.03288213
2709.97435913,0.03272562
2711.90316650,0.03270590
2713.83197388,0.03267477
2715.76078125,0.03263514
2717.68958862,0.03271086
2719.61839600,0.03254505
2721.54720337,0.03249584
2723.47601074,0.03255047
2725.40481812,0.03248100
2727.33362549,0.03238290
2729.26243286,0.03233634
2731.19124023,0.03231362
2733.12004761,0.03217719
2735.04885498,0.03217137
2736.97766235,0.03211163
2738.90646973,0.03209827
2740.83527710,0.03200249
2742.76408447,0.03187208
2744.69289185,0.03196148
2746.62169922,0.03179867
2748.55050659,0.03180877
2750.47931396,0.03187211
2752.40812134,0.03185666
2754.33692871,0.03173266
2756.26573608,0.03145240
2758.19454346,0.03147466
2760.12335083,0.03146781
2762.05215820,0.03150038
2763.98096558,0.03134459
2765.90977295,0.03125421
2767.83858032,0.03134366
2769.76738770,0.03124106
2771.69619507,0.03128733
2773.62500244,0.03108052
2775.55380981,0.03097140
2777.48261719,0.03097971
2779.41142456,0.03090160
2781.34023193,0.03083263
2783.26903931,0.03066164
2785.19784668,0.03084650
2787.12665405,0.03087920
2789.05546143,0.03077388
2790.98426880,0.03059586
2792.91307617,0.03045061
2794.84188354,0.03059515
2796.77069092,0.03039721
2798.69949829,0.03036534
2800.62830566,0.03034138
2802.55711304,0.03018408
2804.48592041,0.03030180
2806.41472778,0.03018270
2808.34353516,0.03005845
2810.27234253,0.02997115
2812.20114990,0.02991393
2814.12995728,0.02992552
2816.05876465,0.02977270
2817.98757202,0.02972512
2819.91637939,0.02964460
2821.84518677,0.02960753
2823.77399414,0.02957465
2825.70280151,0.02946601
2827.63160889,0.02946904
2829.56041626,0.02922654
2831.48922363,0.02922672
2833.41803101,0.02928171
2835.34683838,0.02898783
2837.27564575,0.02891207
2839.20445312,0.02876073
2841.13326050,0.02872637
2843.06206787,0.02862605
2844.99087524,0.02830365
2846.91968262,0.02811596
2848.84848999,0.02782509
2850.77729736,0.02787456
2852.70610474,0.02804467
2854.63491211,0.02808503
2856.56371948,0.02809750
2858.49252686,0.02808349
2860.42133423,0.02820558
2862.35014160,0.02816085
2864.27894897,0.02809284
2866.20775635,0.02795398
2868.13656372,0.02793319
2870.06537109,0.02799640
2871.99417847,0.02782900
2873.92298584,0.02786996
2875.85179321,0.02785133
2877.78060059,0.02771045
2879.70940796,0.02774748
2881.63821533,0.02772026
2883.56702270,0.02749043
2885.49583008,0.02739803
2887.42463745,0.02738571
2889.35344482,0.02728001
2891.28225220,0.02725995
2893.21105957,0.02706158
2895.13986694,0.02695414
2897.06867432,0.02697540
2898.99748169,0.02693795
2900.92628906,0.02685867
2902.85509644,0.02664845
2904.78390381,0.02665685
2906.71271118,0.02658119
2908.64151855,0.02636914
2910.57032593,0.02623092
2912.49913330,0.02612332
2914.42794067,0.02600060
2916.35674805,0.02574294
2918.28555542,0.02578922
2920.21436279,0.02592479
2922.14317017,0.02581026
2924.07197754,0.02582542
2926.00078491,0.02601345
2927.92959229,0.02605758
2929.85839966,0.02608313
2931.78720703,0.02623856
2933.71601440,0.02617304
2935.64482178,0.02606305
2937.57362915,0.02620038
2939.50243652,0.02630872
2941.43124390,0.02617041
2943.36005127,0.02612911
2945.28885864,0.02612127
2947.21766602,0.02593773
2949.14647339,0.02592098
2951.07528076,0.02592442
2953.00408813,0.02586293
2954.93289551,0.02574912
2956.86170288,0.02570988
2958.79051025,0.02569966
2960.71931763,0.02557215
2962.64812500,0.02556338
2964.57693237,0.02549463
2966.50573975,0.02553174
2968.43454712,0.02559082
2970.36335449,0.02558675
2972.29216187,0.02562168
2974.22096924,0.02550649
2976.14977661,0.02551330
2978.07858398,0.02547249
2980.00739136,0.02545117
2981.93619873,0.02548331
2983.86500610,0.02536648
2985.79381348,0.02538459
2987.72262085,0.02536348
2989.65142822,0.02523085
2991.58023560,0.02518648
2993.50904297,0.02512697
2995.43785034,0.02501394
2997.36665771,0.02505752
2999.29546509,0.02506531
3001.22427246,0.02492991
3003.15307983,0.02480675
3005.08188721,0.02466999
3007.01069458,0.02468813
3008.93950195,0.02471247
3010.86830933,0.02454053
3012.79711670,0.02436970
3014.72592407,0.02446409
3016.65473145,0.02443922
3018.58353882,0.02420278
3020.51234619,0.02422085
3022.44115356,0.02420007
3024.36996094,0.02418049
3026.29876831,0.02414878
3028.22757568,0.02396452
3030.15638306,0.02383296
3032.08519043,0.02379103
3034.01399780,0.02377935
3035.94280518,0.02367843
3037.87161255,0.02372577
3039.80041992,0.02372886
3041.72922729,0.02356924
3043.65803467,0.02340183
3045.58684204,0.02340848
3047.51564941,0.02349542
3049.44445679,0.02328324
3051.37326416,0.02329482
3053.30207153,0.02326175
3055.23087891,0.02301997
3057.15968628,0.02296519
3059.08849365,0.02295171
3061.01730103,0.02289316
3062.94610840,0.02270213
3064.87491577,0.02278877
3066.80372314,0.02276186
3068.73253052,0.02264953
3070.66133789,0.02272180
3072.59014526,0.02251307
3074.51895264,0.02251744
3076.44776001,0.02249170
3078.37656738,0.02223931
3080.30537476,0.02214145
3082.23418213,0.02219165
3084.16298950,0.02215824
3086.09179687,0.02201752
3088.02060425,0.02211753
3089.94941162,0.02196614
3091.87821899,0.02185482
3093.80702637,0.02192733
3095.73583374,0.02167316
3097.66464111,0.02165947
3099.59344849,0.02168851
3101.52225586,0.02149256
3103.45106323,0.02145178
3105.37987061,0.02147634
3107.30867798,0.02134741
3109.23748535,0.02118507
3111.16629272,0.02113926
3113.09510010,0.02115472
3115.02390747,0.02114340
3116.95271484,0.02088783
3118.88152222,0.02081253
3120.81032959,0.02090505
3122.73913696,0.02065867
3124.66794434,0.02061947
3126.59675171,0.02059505
3128.52555908,0.02043947
3130.45436645,0.02050245
3132.38317383,0.02030983
3134.31198120,0.02017152
3136.24078857,0.02018270
3138.16959595,0.02010399
3140.09840332,0.02010423
3142.02721069,0.01996664
3143.95601807,0.01998886
3145.88482544,0.01998588
3147.81363281,0.01975292
3149.74244019,0.01967969
3151.67124756,0.01965589
3153.60005493,0.01966217
3155.52886230,0.01947247
3157.45766968,0.01929142
3159.38647705,0.01939357
3161.31528442,0.01930075
3163.24409180,0.01913826
3165.17289917,0.01918487
3167.10170654,0.01904790
3169.03051392,0.01882403
3170.95932129,0.01887890
3172.88812866,0.01880967
3174.81693604,0.01870546
3176.74574341,0.01870025
3178.67455078,0.01867667
3180.60335815,0.01860543
3182.53216553,0.01842097
3184.46097290,0.01846772
3186.38978027,0.01831472
3188.31858765,0.01824688
3190.24739502,0.01839629
3192.17620239,0.01815009
3194.10500977,0.01813198
3196.03381714,0.01811402
3197.96262451,0.01806607
3199.89143188,0.01811985
3201.82023926,0.01787307
3203.74904663,0.01776325
3205.67785400,0.01784602
3207.60666138,0.01782371
3209.53546875,0.01768712
3211.46427612,0.01766285
3213.39308350,0.01759847
3215.32189087,0.01751100
3217.25069824,0.01752418
3219.17950562,0.01749003
3221.10831299,0.01750098
3223.03712036,0.01743912
3224.96592773,0.01744877
3226.89473511,0.01741521
3228.82354248,0.01731285
3230.75234985,0.01728600
3232.68115723,0.01722562
3234.60996460,0.01726150
3236.53877197,0.01724093
3238.46757935,0.01720705
3240.39638672,0.01713618
3242.32519409,0.01708875
3244.25400146,0.01710923
3246.18280884,0.01711509
3248.11161621,0.01716136
3250.04042358,0.01704754
3251.96923096,0.01702967
3253.89803833,0.01708919
3255.82684570,0.01702475
3257.75565308,0.01692062
3259.68446045,0.01696370
3261.61326782,0.01701000
3263.54207520,0.01680028
3265.47088257,0.01683930
3267.39968994,0.01692797
3269.32849731,0.01688168
3271.25730469,0.01686196
3273.18611206,0.01672071
3275.11491943,0.01671618
3277.04372681,0.01678931
3278.97253418,0.01675746
3280.90134155,0.01683666
3282.83014893,0.01689257
3284.75895630,0.01665751
3286.68776367,0.01666397
3288.61657104,0.01678782
3290.54537842,0.01665236
3292.47418579,0.01660525
3294.40299316,0.01666936
3296.33180054,0.01671157
3298.26060791,0.01650193
3300.18941528,0.01656955
3302.11822266,0.01676527
3304.04703003,0.01663076
3305.97583740,0.01664573
3307.90464478,0.01659567
3309.83345215,0.01659919
3311.76225952,0.01658175
3313.69106689,0.01648055
3315.61987427,0.01656673
3317.54868164,0.01660061
3319.47748901,0.01649847
3321.40629639,0.01645090
3323.33510376,0.01660461
3325.26391113,0.01647303
3327.19271851,0.01636298
3329.12152588,0.01644352
3331.05033325,0.01636917
3332.97914062,0.01643823
3334.90794800,0.01637186
3336.83675537,0.01627767
3338.76556274,0.01632300
3340.69437012,0.01626210
3342.62317749,0.01623892
3344.55198486,0.01625845
3346.48079224,0.01623361
3348.40959961,0.01625227
3350.33840698,0.01622804
3352.26721436,0.01622489
3354.19602173,0.01623270
3356.12482910,0.01610704
3358.05363647,0.01617763
3359.98244385,0.01609921
3361.91125122,0.01611229
3363.84005859,0.01624409
3365.76886597,0.01603667
3367.69767334,0.01606589
3369.62648071,0.01600492
3371.55528809,0.01603085
3373.48409546,0.01611899
3375.41290283,0.01613496
3377.34171020,0.01616299
3379.27051758,0.01591313
3381.19932495,0.01605353
3383.12813232,0.01604386
3385.05693970,0.01591223
3386.98574707,0.01597243
3388.91455444,0.01596671
3390.84336182,0.01599966
3392.77216919,0.01588993
3394.70097656,0.01593950
3396.62978394,0.01585004
3398.55859131,0.01591079
3400.48739868,0.01601973
3402.41620605,0.01595228
3404.34501343,0.01596197
3406.27382080,0.01578641
3408.20262817,0.01591260
3410.13143555,0.01603004
3412.06024292,0.01606827
3413.98905029,0.01598519
3415.91785767,0.01592622
3417.84666504,0.01601601
3419.77547241,0.01581289
3421.70427979,0.01583832
3423.63308716,0.01589211
3425.56189453,0.01596851
3427.49070190,0.01591472
3429.41950928,0.01593205
3431.34831665,0.01605348
3433.27712402,0.01590170
3435.20593140,0.01601678
3437.13473877,0.01589838
3439.06354614,0.01594700
3440.99235352,0.01598184
3442.92116089,0.01580353
3444.84996826,0.01588382
3446.77877563,0.01567916
3448.70758301,0.01582144
3450.63639038,0.01602730
3452.56519775,0.01593478
3454.49400513,0.01594578
3456.42281250,0.01596796
3458.35161987,0.01594450
3460.28042725,0.01588576
3462.20923462,0.01593620
3464.13804199,0.01595974
3466.06684937,0.01597469
3467.99565674,0.01593237
3469.92446411,0.01601196
3471.85327148,0.01613080
3473.78207886,0.01604659
3475.71088623,0.01586949
3477.63969360,0.01597064
3479.56850098,0.01614031
3481.49730835,0.01575553
3483.42611572,0.01577608
3485.35492310,0.01600032
3487.28373047,0.01593030
3489.21253784,0.01595268
3491.14134521,0.01602595
3493.07015259,0.01618319
3494.99895996,0.01607857
3496.92776733,0.01602211
3498.85657471,0.01606805
3500.78538208,0.01613910
3502.71418945,0.01589041
3504.64299683,0.01581868
3506.57180420,0.01628703
3508.50061157,0.01603012
3510.42941895,0.01587099
3512.35822632,0.01604830
3514.28703369,0.01620663
3516.21584106,0.01624199
3518.14464844,0.01604964
3520.07345581,0.01627833
3522.00226318,0.01616684
3523.93107056,0.01591050
3525.85987793,0.01594616
3527.78868530,0.01592423
3529.71749268,0.01599340
3531.64630005,0.01627073
3533.57510742,0.01645309
3535.50391479,0.01622547
3537.43272217,0.01612090
3539.36152954,0.01634199
3541.29033691,0.01640522
3543.21914429,0.01617682
3545.14795166,0.01587256
3547.07675903,0.01554258
3549.00556641,0.01613161
3550.93437378,0.01641301
3552.86318115,0.01586482
3554.79198853,0.01641200
3556.72079590,0.01654050
3558.64960327,0.01645235
3560.57841064,0.01629138
3562.50721802,0.01604854
3564.43602539,0.01626360
3566.36483276,0.01492779
3568.29364014,0.01459976
3570.22244751,0.01607650
3572.15125488,0.01655793
3574.08006226,0.01643252
3576.00886963,0.01646402
3577.93767700,0.01640799
3579.86648437,0.01634213
3581.79529175,0.01639252
3583.72409912,0.01653437
3585.65290649,0.01614593
3587.58171387,0.01450952
3589.51052124,0.01504505
3591.43932861,0.01671247
3593.36813599,0.01605628
3595.29694336,0.01572972
3597.22575073,0.01610794
3599.15455811,0.01637196
3601.08336548,0.01616264
3603.01217285,0.01624784
3604.94098022,0.01674661
3606.86978760,0.01598549
3608.79859497,0.01486882
3610.72740234,0.01539710
3612.65620972,0.01573326
3614.58501709,0.01512333
3616.51382446,0.01647687
3618.44263184,0.01499315
3620.37143921,0.01440395
3622.30024658,0.01673859
3624.22905395,0.01614727
3626.15786133,0.01713547
3628.08666870,0.01410707
3630.01547607,0.01252637
3631.94428345,0.01656122
3633.87309082,0.01601187
3635.80189819,0.01639013
3637.73070557,0.01674003
3639.65951294,0.01651677
3641.58832031,0.01667257
3643.51712769,0.01639658
3645.44593506,0.01675635
3647.37474243,0.01457451
3649.30354980,0.01321924
3651.23235718,0.01345755
3653.16116455,0.01653854
3655.08997192,0.01636771
3657.01877930,0.01416499
3658.94758667,0.01693862
3660.87639404,0.01651107
3662.80520142,0.01675378
3664.73400879,0.01684202
3666.66281616,0.01656329
3668.59162354,0.01593491
3670.52043091,0.01247713
3672.44923828,0.01573461
3674.37804565,0.01480784
3676.30685303,0.01190397
3678.23566040,0.01566093
3680.16446777,0.01601993
3682.09327515,0.01620023
3684.02208252,0.01669588
3685.95088989,0.01630056
3687.87969727,0.01445663
3689.80850464,0.01307699
3691.73731201,0.01515174
3693.66611938,0.01579952
3695.59492676,0.01632008
3697.52373413,0.01618930
3699.45254150,0.01620582
3701.38134888,0.01561277
3703.31015625,0.01481623
3705.23896362,0.01670550
3707.16777100,0.01576690
3709.09657837,0.01533241
3711.02538574,0.01418742
3712.95419312,0.01304725
3714.88300049,0.01582612
3716.81180786,0.01564223
3718.74061523,0.01575631
3720.66942261,0.01538381
3722.59822998,0.01468889
3724.52703735,0.01526599
3726.45584473,0.01404121
3728.38465210,0.01546318
3730.31345947,0.01533595
3732.24226685,0.01378581
3734.17107422,0.01340044
3736.09988159,0.01255757
3738.02868896,0.01341134
3739.95749634,0.01490830
3741.88630371,0.01563580
3743.81511108,0.01170729
3745.74391846,0.01083261
3747.67272583,0.01470960
3749.60153320,0.01246341
3751.53034058,0.01119599
3753.45914795,0.01333129
3755.38795532,0.01442796
3757.31676270,0.01503097
3759.24557007,0.01387338
3761.17437744,0.01436962
3763.10318481,0.01540836
3765.03199219,0.01421617
3766.96079956,0.01461326
3768.88960693,0.01438463
3770.81841431,0.01351716
3772.74722168,0.01498123
3774.67602905,0.01504940
3776.60483643,0.01503413
3778.53364380,0.01455503
3780.46245117,0.01377219
3782.39125854,0.01498053
3784.32006592,0.01467466
3786.24887329,0.01444475
3788.17768066,0.01488266
3790.10648804,0.01483017
3792.03529541,0.01465441
3793.96410278,0.01495131
3795.89291016,0.01392220
3797.82171753,0.01362974
3799.75052490,0.01455350
3801.67933228,0.01108402
3803.60813965,0.01326159
3805.53694702,0.01468559
3807.46575439,0.01151918
3809.39456177,0.01452282
3811.32336914,0.01422365
3813.25217651,0.01471875
3815.18098389,0.01323590
3817.10979126,0.01120514
3819.03859863,0.01473347
3820.96740601,0.01154191
3822.89621338,0.01215271
3824.82502075,0.01460108
3826.75382812,0.01296831
3828.68263550,0.01416615
3830.61144287,0.01347065
3832.54025024,0.01304340
3834.46905762,0.01337897
3836.39786499,0.01252850
3838.32667236,0.01122243
3840.25547974,0.01219445
3842.18428711,0.01331194
3844.11309448,0.01264620
3846.04190186,0.01382288
3847.97070923,0.01362036
3849.89951660,0.01366764
3851.82832397,0.01219642
3853.75713135,0.00865788
3855.68593872,0.01047859
3857.61474609,0.01365720
3859.54355347,0.01339929
3861.47236084,0.01316455
3863.40116821,0.01271092
3865.32997559,0.01168814
3867.25878296,0.01340491
3869.18759033,0.01209879
3871.11639770,0.01090297
3873.04520508,0.01334545
3874.97401245,0.01213112
3876.90281982,0.01334317
3878.83162720,0.01369039
3880.76043457,0.01130326
3882.68924194,0.01333559
3884.61804932,0.01239060
3886.54685669,0.01116979
3888.47566406,0.01345044
3890.40447144,0.01263420
3892.33327881,0.01168081
3894.26208618,0.01300270
3896.19089355,0.01328942
3898.11970093,0.01251262
3900.04850830,0.01167589
3901.97731567,0.01152566
3903.90612305,0.01140983
3905.83493042,0.01160174
3907.76373779,0.01296617
3909.69254517,0.01302355
3911.62135254,0.01284311
3913.55015991,0.01314692
3915.47896728,0.01268522
3917.40777466,0.01217692
3919.33658203,0.01195152
3921.26538940,0.01257722
3923.19419678,0.01258211
3925.12300415,0.01223741
3927.05181152,0.01246042
3928.98061890,0.01264930
3930.90942627,0.01239216
3932.83823364,0.01187070
3934.76704102,0.01248556
3936.69584839,0.01262437
3938.62465576,0.01250657
3940.55346313,0.01266099
3942.48227051,0.01207457
3944.41107788,0.01219393
3946.33988525,0.01242258
3948.26869263,0.01208172
3950.19750000,0.01205261
3952.12630737,0.01233441
3954.05511475,0.01232452
3955.98392212,0.01230618
3957.91272949,0.01234451
3959.84153687,0.01222659
3961.77034424,0.01217317
3963.69915161,0.01212734
3965.62795898,0.01235850
3967.55676636,0.01222070
3969.48557373,0.01209051
3971.41438110,0.01215051
3973.34318848,0.01199925
3975.27199585,0.01205230
3977.20080322,0.01199043
3979.12961060,0.01210275
3981.05841797,0.01207001
3982.98722534,0.01193171
3984.91603271,0.01194705
3986.84484009,0.01191617
3988.77364746,0.01194597
3990.70245483,0.01178668
3992.63126221,0.01173673
3994.56006958,0.01176318
3996.48887695,0.01180170
3998.41768433,0.01178362
4000.34649170,0.01179716
4002.27529907,0.01177503
4004.20410645,0.01170051
4006.13291382,0.01172283
4008.06172119,0.01159680
4009.99052856,0.01170587
4011.91933594,0.01161327
4013.84814331,0.01152790
4015.77695068,0.01158456
4017.70575806,0.01141957
4019.63456543,0.01149320
4021.56337280,0.01149837
4023.49218018,0.01148511
4025.42098755,0.01147384
4027.34979492,0.01149182
4029.27860229,0.01143922
4031.20740967,0.01134645
4033.13621704,0.01137999
4035.06502441,0.01132230
4036.99383179,0.01132843
4038.92263916,0.01126652
4040.85144653,0.01130957
4042.78025391,0.01127208
4044.70906128,0.01123453
4046.63786865,0.01123746
4048.56667603,0.01113758
4050.49548340,0.01117455
4052.42429077,0.01108677
4054.35309814,0.01113531
4056.28190552,0.01113237
4058.21071289,0.01110576
4060.13952026,0.01101392
4062.06832764,0.01091205
4063.99713501,0.01098385
4065.92594238,0.01095349
4067.85474976,0.01104789
4069.78355713,0.01084573
4071.71236450,0.01087516
4073.64117187,0.01091620
4075.56997925,0.01073456
4077.49878662,0.01082406
4079.42759399,0.01072137
4081.35640137,0.01081122
4083.28520874,0.01073746
4085.21401611,0.01071976
4087.14282349,0.01076255
4089.07163086,0.01068744
4091.00043823,0.01074968
4092.92924561,0.01058946
4094.85805298,0.01065552
4096.78686035,0.01051187
4098.71566772,0.01049089
4100.64447510,0.01059372
4102.57328247,0.01044807
4104.50208984,0.01048603
4106.43089722,0.01038968
4108.35970459,0.01050327
4110.28851196,0.01044653
4112.21731934,0.01036992
4114.14612671,0.01054786
4116.07493408,0.01041429
4118.00374145,0.01029559
4119.93254883,0.01028359
4121.86135620,0.01026176
4123.79016357,0.01025923
4125.71897095,0.01028642
4127.64777832,0.01020419
4129.57658569,0.01022951
4131.50539307,0.01020104
4133.43420044,0.01011841
4135.36300781,0.01016677
4137.29181519,0.01006943
4139.22062256,0.01014731
4141.14942993,0.01010412
4143.07823730,0.01002281
4145.00704468,0.01009129
4146.93585205,0.01002366
4148.86465942,0.00998496
4150.79346680,0.00997651
4152.72227417,0.00997865
4154.65108154,0.00991514
4156.57988892,0.00989936
4158.50869629,0.00984158
4160.43750366,0.00987912
4162.36631103,0.00985875
4164.29511841,0.00975874
4166.22392578,0.00984878
4168.15273315,0.00975239
4170.08154053,0.00976718
4172.01034790,0.00970761
4173.93915527,0.00963259
4175.86796265,0.00964921
4177.79677002,0.00958689
4179.72557739,0.00972131
4181.65438477,0.00962328
4183.58319214,0.00955371
4185.51199951,0.00958195
4187.44080688,0.00954140
4189.36961426,0.00953156
4191.29842163,0.00952400
4193.22722900,0.00955029
4195.15603638,0.00942313
4197.08484375,0.00947899
4199.01365112,0.00946149
4200.94245850,0.00929389
4202.87126587,0.00941143
4204.80007324,0.00945350
4206.72888062,0.00934697
4208.65768799,0.00937379
4210.58649536,0.00934684
4212.51530273,0.00925115
4214.44411011,0.00928989
4216.37291748,0.00921714
4218.30172485,0.00917472
4220.23053223,0.00917394
4222.15933960,0.00918583
4224.08814697,0.00922640
4226.01695435,0.00913249
4227.94576172,0.00909535
4229.87456909,0.00906019
4231.80337646,0.00914718
4233.73218384,0.00912676
4235.66099121,0.00902766
4237.58979858,0.00903579
4239.51860596,0.00898811
4241.44741333,0.00899557
4243.37622070,0.00894210
4245.30502808,0.00900062
4247.23383545,0.00892743
4249.16264282,0.00886523
4251.09145020,0.00894057
4253.02025757,0.00887960
4254.94906494,0.00888305
4256.87787231,0.00881249
4258.80667969,0.00885334
4260.73548706,0.00879314
4262.66429443,0.00874409
4264.59310181,0.00878074
4266.52190918,0.00872735
4268.45071655,0.00879587
4270.37952393,0.00862068
4272.30833130,0.00857913
4274.23713867,0.00868122
4276.16594604,0.00865572
4278.09475342,0.00861845
4280.02356079,0.00858549
4281.95236816,0.00859985
4283.88117554,0.00858143
4285.80998291,0.00858343
4287.73879028,0.00844290
4289.66759766,0.00852578
4291.59640503,0.00858789
4293.52521240,0.00847202
4295.45401978,0.00845355
4297.38282715,0.00832499
4299.31163452,0.00844536
4301.24044189,0.00844208
4303.16924927,0.00833803
4305.09805664,0.00838368
4307.02686401,0.00834323
4308.95567139,0.00835101
4310.88447876,0.00832611
4312.81328613,0.00832331
4314.74209351,0.00831045
4316.67090088,0.00830545
4318.59970825,0.00826952
4320.52851562,0.00824835
4322.45732300,0.00819194
4324.38613037,0.00812743
4326.31493774,0.00819795
4328.24374512,0.00815270
4330.17255249,0.00812195
4332.10135986,0.00807234
4334.03016724,0.00805084
4335.95897461,0.00808340
4337.88778198,0.00808807
4339.81658936,0.00800326
4341.74539673,0.00791996
4343.67420410,0.00801977
4345.60301147,0.00795806
4347.53181885,0.00796908
4349.46062622,0.00788602
4351.38943359,0.00779354
4353.31824097,0.00793207
4355.24704834,0.00786265
4357.17585571,0.00785946
4359.10466309,0.00784351
4361.03347046,0.00778876
4362.96227783,0.00778551
4364.89108520,0.00784719
4366.81989258,0.00781227
4368.74869995,0.00768042
4370.67750732,0.00775758
4372.60631470,0.00767709
4374.53512207,0.00764059
4376.46392944,0.00767349
4378.39273682,0.00766109
4380.32154419,0.00764244
4382.25035156,0.00758407
4384.17915894,0.00762735
4386.10796631,0.00760257
4388.03677368,0.00758001
4389.96558105,0.00747092
4391.89438843,0.00749117
4393.82319580,0.00751039
4395.75200317,0.00738881
4397.68081055,0.00743760
4399.60961792,0.00744693
4401.53842529,0.00749781
4403.46723267,0.00745007
4405.39604004,0.00737976
4407.32484741,0.00734253
4409.25365478,0.00732721
4411.18246216,0.00738501
4413.11126953,0.00734400
4415.04007690,0.00735050
4416.96888428,0.00725891
4418.89769165,0.00725511
4420.82649902,0.00727013
4422.75530640,0.00723937
4424.68411377,0.00722398
4426.61292114,0.00716308
4428.54172852,0.00726925
4430.47053589,0.00718153
4432.39934326,0.00716154
4434.32815063,0.00723156
4436.25695801,0.00713655
4438.18576538,0.00713347
4440.11457275,0.00711901
4442.04338013,0.00707814
4443.97218750,0.00708807
4445.90099487,0.00714890
4447.82980225,0.00702944
4449.75860962,0.00703467
4451.68741699,0.00711327
4453.61622437,0.00692900
4455.54503174,0.00692632
4457.47383911,0.00703774
4459.40264648,0.00701553
4461.33145386,0.00692345
4463.26026123,0.00689621
4465.18906860,0.00684578
4467.11787598,0.00688803
4469.04668335,0.00694339
4470.97549072,0.00683942
4472.90429810,0.00687647
4474.83310547,0.00688408
4476.76191284,0.00687399
4478.69072021,0.00683714
4480.61952759,0.00681919
4482.54833496,0.00676150
4484.47714233,0.00668666
4486.40594971,0.00682238
4488.33475708,0.00670592
4490.26356445,0.00668267
4492.19237183,0.00676045
4494.12117920,0.00668247
4496.04998657,0.00671757
4497.97879395,0.00664571
4499.90760132,0.00660660
4501.83640869,0.00659912
4503.76521606,0.00657522
4505.69402344,0.00660768
4507.62283081,0.00662407
4509.55163818,0.00659803
4511.48044556,0.00655345
4513.40925293,0.00653935
4515.33806030,0.00648772
4517.26686768,0.00646085
4519.19567505,0.00646850
4521.12448242,0.00649185
4523.05328979,0.00639829
4524.98209717,0.00633997
4526.91090454,0.00635348
4528.83971191,0.00631839
4530.76851929,0.00643239
4532.69732666,0.00642876
4534.62613403,0.00635876
4536.55494141,0.00632071
4538.48374878,0.00625269
4540.41255615,0.00627894
4542.34136353,0.00627769
4544.27017090,0.00624558
4546.19897827,0.00623390
4548.12778564,0.00622760
4550.05659302,0.00617535
4551.98540039,0.00622320
4553.91420776,0.00622062
4555.84301514,0.00615053
4557.77182251,0.00613567
4559.70062988,0.00607068
4561.62943726,0.00617982
4563.55824463,0.00612360
4565.48705200,0.00605971
4567.41585937,0.00616500
4569.34466675,0.00604813
4571.27347412,0.00607218
4573.20228149,0.00611552
4575.13108887,0.00603723
4577.05989624,0.00605697
4578.98870361,0.00603400
4580.91751099,0.00596572
4582.84631836,0.00599740
4584.77512573,0.00601576
4586.70393311,0.00603343
4588.63274048,0.00606978
4590.56154785,0.00586810
4592.49035522,0.00586129
4594.41916260,0.00596546
4596.34796997,0.00581660
4598.27677734,0.00584224
4600.20558472,0.00592305
4602.13439209,0.00590858
4604.06319946,0.00584317
4605.99200684,0.00583957
4607.92081421,0.00589158
4609.84962158,0.00576635
4611.77842895,0.00570509
4613.70723633,0.00570218
4615.63604370,0.00573016
4617.56485107,0.00580950
4619.49365845,0.00571534
4621.42246582,0.00566667
4623.35127319,0.00568078
4625.28008057,0.00566139
4627.20888794,0.00568064
4629.13769531,0.00561864
4631.06650269,0.00558844
4632.99531006,0.00560060
4634.92411743,0.00558761
4636.85292480,0.00558759
4638.78173218,0.00557508
4640.71053955,0.00555217
4642.63934692,0.00549108
4644.56815430,0.00551521
4646.49696167,0.00550221
4648.42576904,0.00539181
4650.35457642,0.00544218
4652.28338379,0.00556424
4654.21219116,0.00549584
4656.14099853,0.00536271
4658.06980591,0.00543854
4659.99861328,0.00546492
4661.92742065,0.00540504
4663.85622803,0.00540742
4665.78503540,0.00544431
4667.71384277,0.00546348
4669.64265015,0.00534398
4671.57145752,0.00534211
4673.50026489,0.00538335
4675.42907227,0.00539256
4677.35787964,0.00535207
4679.28668701,0.00526057
4681.21549438,0.00531171
4683.14430176,0.00525777
4685.07310913,0.00524975
4687.00191650,0.00525699
4688.93072388,0.00518674
4690.85953125,0.00518437
4692.78833862,0.00521674
4694.71714600,0.00528315
4696.64595337,0.00518321
4698.57476074,0.00519196
4700.50356812,0.00520039
4702.43237549,0.00509934
4704.36118286,0.00513785
4706.28999023,0.00513540
4708.21879761,0.00512405
4710.14760498,0.00504240
4712.07641235,0.00507016
4714.00521973,0.00514165
4715.93402710,0.00506816
4717.86283447,0.00500830
4719.79164185,0.00494570
4721.72044922,0.00504416
4723.64925659,0.00509235
4725.57806396,0.00505498
4727.50687134,0.00506141
4729.43567871,0.00497073
4731.36448608,0.00498281
4733.29329346,0.00497674
4735.22210083,0.00489858
4737.15090820,0.00499103
4739.07971558,0.00497840
4741.00852295,0.00491313
4742.93733032,0.00497537
4744.86613770,0.00485704
4746.79494507,0.00482297
4748.72375244,0.00490444
4750.65255981,0.00485193
4752.58136719,0.00483414
4754.51017456,0.00482050
4756.43898193,0.00481453
4758.36778931,0.00479637
4760.29659668,0.00483330
4762.22540405,0.00477125
4764.15421143,0.00467774
4766.08301880,0.00479324
4768.01182617,0.00479189
4769.94063354,0.00473891
4771.86944092,0.00469843
4773.79824829,0.00472728
4775.72705566,0.00470938
4777.65586304,0.00458943
4779.58467041,0.00467364
4781.51347778,0.00469871
4783.44228516,0.00469826
4785.37109253,0.00468837
4787.29989990,0.00462708
4789.22870728,0.00466778
4791.15751465,0.00465164
4793.08632202,0.00460494
4795.01512939,0.00458639
4796.94393677,0.00457118
4798.87274414,0.00453093
4800.80155151,0.00456975
4802.73035889,0.00458104
4804.65916626,0.00452510
4806.58797363,0.00456177
4808.51678101,0.00450571
4810.44558838,0.00450131
4812.37439575,0.00455587
4814.30320312,0.00446210
4816.23201050,0.00444434
4818.16081787,0.00450767
4820.08962524,0.00452963
4822.01843262,0.00451118
4823.94723999,0.00441113
4825.87604736,0.00444576
4827.80485474,0.00450128
4829.73366211,0.00438255
4831.66246948,0.00438839
4833.59127686,0.00441307
4835.52008423,0.00445820
4837.44889160,0.00441645
4839.37769897,0.00426966
4841.30650635,0.00433254
4843.23531372,0.00428929
4845.16412109,0.00427257
4847.09292847,0.00430730
4849.02173584,0.00428085
4850.95054321,0.00428992
4852.87935059,0.00421802
4854.80815796,0.00427691
4856.73696533,0.00430462
4858.66577270,0.00427768
4860.59458008,0.00428417
4862.52338745,0.00431163
4864.45219482,0.00430252
4866.38100220,0.00416759
4868.30980957,0.00425033
4870.23861694,0.00422980
4872.16742432,0.00408938
4874.09623169,0.00415511
4876.02503906,0.00412641
4877.95384644,0.00406711
4879.88265381,0.00408170
4881.81146118,0.00407450
4883.74026855,0.00405780
4885.66907593,0.00406794
4887.59788330,0.00405896
4889.52669067,0.00407421
4891.45549805,0.00410169
4893.38430542,0.00406451
4895.31311279,0.00406020
4897.24192017,0.00408785
4899.17072754,0.00406978
4901.09953491,0.00402576
4903.02834228,0.00407918
4904.95714966,0.00405228
4906.88595703,0.00397892
4908.81476440,0.00400660
4910.74357178,0.00392874
4912.67237915,0.00392538
4914.60118652,0.00395559
4916.52999390,0.00393177
4918.45880127,0.00397445
4920.38760864,0.00392822
4922.31641602,0.00389193
4924.24522339,0.00392630
4926.17403076,0.00390805
4928.10283813,0.00389085
4930.03164551,0.00392204
4931.96045288,0.00389001
4933.88926025,0.00382130
4935.81806763,0.00383277
4937.74687500,0.00380530
4939.67568237,0.00377592
4941.60448975,0.00385853
4943.53329712,0.00385721
4945.46210449,0.00378854
4947.39091187,0.00377833
4949.31971924,0.00375839
4951.24852661,0.00381835
4953.17733398,0.00382701
4955.10614136,0.00373107
4957.03494873,0.00372103
4958.96375610,0.00371793
4960.89256348,0.00371871
4962.82137085,0.00371894
4964.75017822,0.00365955
4966.67898560,0.00364068
4968.60779297,0.00373353
4970.53660034,0.00369379
4972.46540771,0.00360377
4974.39421509,0.00362236
4976.32302246,0.00355927
4978.25182983,0.00365487
4980.18063721,0.00367888
4982.10944458,0.00358911
4984.03825195,0.00361718
4985.96705933,0.00357876
4987.89586670,0.00364629
4989.82467407,0.00353163
4991.75348145,0.00348824
4993.68228882,0.00366399
4995.61109619,0.00359548
4997.53990356,0.00359229
4999.46871094,0.00354381
5001.39751831,0.00347804
5003.32632568,0.00348398
5005.25513306,0.00346687
5007.18394043,0.00348117
5009.11274780,0.00341886
5011.04155518,0.00348675
5012.97036255,0.00344783
5014.89916992,0.00336461
5016.82797729,0.00345135
5018.75678467,0.00342100
5020.68559204,0.00342062
5022.61439941,0.00343180
5024.54320679,0.00342505
5026.47201416,0.00337691
5028.40082153,0.00335157
5030.32962891,0.00343474
5032.25843628,0.00338315
5034.18724365,0.00338470
5036.11605103,0.00341038
5038.04485840,0.00336568
5039.97366577,0.00334613
5041.90247314,0.00336333
5043.83128052,0.00344619
5045.76008789,0.00332964
5047.68889526,0.00325027
5049.61770264,0.00329647
5051.54651001,0.00324145
5053.47531738,0.00323515
5055.40412476,0.00326983
5057.33293213,0.00328109
5059.26173950,0.00318382
5061.19054687,0.00322542
5063.11935425,0.00329244
5065.04816162,0.00323017
5066.97696899,0.00323498
5068.90577637,0.00313361
5070.83458374,0.00318657
5072.76339111,0.00321737
5074.69219849,0.00315712
5076.62100586,0.00321804
5078.54981323,0.00318741
5080.47862061,0.00327671
5082.40742798,0.00324521
5084.33623535,0.00313014
5086.26504272,0.00312446
5088.19385010,0.00309116
5090.12265747,0.00313408
5092.05146484,0.00315666
5093.98027222,0.00316585
5095.90907959,0.00310756
5097.83788696,0.00311740
5099.76669434,0.00312336
5101.69550171,0.00305972
5103.62430908,0.00309132
5105.55311645,0.00302598
5107.48192383,0.00301992
5109.41073120,0.00305851
5111.33953857,0.00306447
5113.26834595,0.00304453
5115.19715332,0.00302357
5117.12596069,0.00306073
5119.05476807,0.00301589
5120.98357544,0.00303218
5122.91238281,0.00300147
5124.84119019,0.00292286
5126.76999756,0.00292069
5128.69880493,0.00292548
5130.62761230,0.00294123
5132.55641968,0.00293882
5134.48522705,0.00295973
5136.41403442,0.00293851
5138.34284180,0.00297323
5140.27164917,0.00293779
5142.20045654,0.00284415
5144.12926392,0.00294869
5146.05807129,0.00297979
5147.98687866,0.00290324
5149.91568603,0.00285441
5151.84449341,0.00288098
5153.77330078,0.00288906
5155.70210815,0.00281160
5157.63091553,0.00283024
5159.55972290,0.00285992
5161.48853027,0.00284352
5163.41733765,0.00286613
5165.34614502,0.00281404
5167.27495239,0.00272675
5169.20375977,0.00281794
5171.13256714,0.00288494
5173.06137451,0.00281406
5174.99018188,0.00279702
5176.91898926,0.00278925
5178.84779663,0.00275816
5180.77660400,0.00274929
5182.70541138,0.00275893
5184.63421875,0.00274650
5186.56302612,0.00270293
5188.49183350,0.00268720
5190.42064087,0.00272560
5192.34944824,0.00274536
5194.27825562,0.00277385
5196.20706299,0.00275046
5198.13587036,0.00264949
5200.06467773,0.00266242
5201.99348511,0.00266860
5203.92229248,0.00267672
5205.85109985,0.00261558
5207.77990723,0.00254560
5209.70871460,0.00265131
5211.63752197,0.00267368
5213.56632935,0.00268250
5215.49513672,0.00265238
5217.42394409,0.00262779
5219.35275146,0.00258544
5221.28155884,0.00258710
5223.21036621,0.00268101
5225.13917358,0.00252138
5227.06798096,0.00256440
5228.99678833,0.00262414
5230.92559570,0.00250164
5232.85440308,0.00254700
5234.78321045,0.00261720
5236.71201782,0.00263383
5238.64082520,0.00246766
5240.56963257,0.00256596
5242.49843994,0.00266410
5244.42724731,0.00251247
5246.35605469,0.00253819
5248.28486206,0.00247075
5250.21366943,0.00253200
5252.14247681,0.00262524
5254.07128418,0.00249609
5256.00009155,0.00243606
5257.92889893,0.00254886
5259.85770630,0.00258114
5261.78651367,0.00240140
5263.71532104,0.00242649
5265.64412842,0.00248968
5267.57293579,0.00244320
5269.50174316,0.00242245
5271.43055054,0.00242746
5273.35935791,0.00248212
5275.28816528,0.00243231
5277.21697266,0.00242684
5279.14578003,0.00245270
5281.07458740,0.00243063
5283.00339478,0.00241896
5284.93220215,0.00239063
5286.86100952,0.00244796
5288.78981689,0.00246025
5290.71862427,0.00233995
5292.64743164,0.00234995
5294.57623901,0.00244727
5296.50504639,0.00237183
5298.43385376,0.00233939
5300.36266113,0.00238002
5302.29146851,0.00234558
5304.22027588,0.00236138
5306.14908325,0.00235751
5308.07789062,0.00235985
5310.00669800,0.00237676
5311.93550537,0.00236993
5313.86431274,0.00242250
5315.79312012,0.00236514
5317.72192749,0.00225829
5319.65073486,0.00231841
5321.57954224,0.00233882
5323.50834961,0.00231342
5325.43715698,0.00235192
5327.36596436,0.00228554
5329.29477173,0.00223668
5331.22357910,0.00231131
5333.15238647,0.00229818
5335.08119385,0.00225008
5337.01000122,0.00228093
5338.93880859,0.00218819
5340.86761597,0.00216544
5342.79642334,0.00222831
5344.72523071,0.00209584
5346.65403809,0.00213932
5348.58284546,0.00219080
5350.51165283,0.00216484
5352.44046020,0.00221614
5354.36926758,0.00210957
5356.29807495,0.00216586
5358.22688232,0.00224553
5360.15568970,0.00218852
5362.08449707,0.00214213
5364.01330444,0.00210257
5365.94211182,0.00217996
5367.87091919,0.00218883
5369.79972656,0.00217096
5371.72853394,0.00214895
5373.65734131,0.00213124
5375.58614868,0.00211889
5377.51495605,0.00203965
5379.44376343,0.00212784
5381.37257080,0.00222813
5383.30137817,0.00215069
5385.23018555,0.00204132
5387.15899292,0.00203071
5389.08780029,0.00208567
5391.01660767,0.00210034
5392.94541504,0.00204826
5394.87422241,0.00201862
5396.80302978,0.00209614
5398.73183716,0.00210288
5400.66064453,0.00207697
5402.58945190,0.00209536
5404.51825928,0.00206701
5406.44706665,0.00209777
5408.37587402,0.00211703
5410.30468140,0.00203107
5412.23348877,0.00197432
5414.16229614,0.00192455
5416.09110352,0.00194629
5418.01991089,0.00200605
5419.94871826,0.00196725
5421.87752563,0.00202035
5423.80633301,0.00196636
5425.73514038,0.00193560
5427.66394775,0.00204131
5429.59275513,0.00191853
5431.52156250,0.00195264
5433.45036987,0.00201265
5435.37917725,0.00191788
5437.30798462,0.00195424
5439.23679199,0.00194954
5441.16559936,0.00190585
5443.09440674,0.00190274
5445.02321411,0.00191859
5446.95202148,0.00189811
5448.88082886,0.00191421
5450.80963623,0.00189131
5452.73844360,0.00185879
5454.66725098,0.00191475
5456.59605835,0.00188913
5458.52486572,0.00186525
5460.45367310,0.00186160
5462.38248047,0.00193164
5464.31128784,0.00189667
5466.24009521,0.00185823
5468.16890259,0.00193103
5470.09770996,0.00183563
5472.02651733,0.00188017
5473.95532471,0.00187209
5475.88413208,0.00176890
5477.81293945,0.00182016
5479.74174683,0.00187061
5481.67055420,0.00185264
5483.59936157,0.00177917
5485.52816895,0.00183547
5487.45697632,0.00181710
5489.38578369,0.00184806
5491.31459106,0.00189306
5493.24339844,0.00177852
5495.17220581,0.00181685
5497.10101318,0.00180066
5499.02982056,0.00180410
5500.95862793,0.00184859
5502.88743530,0.00177911
5504.81624268,0.00177353
5506.74505005,0.00183132
5508.67385742,0.00179733
5510.60266479,0.00173427
5512.53147217,0.00181983
5514.46027954,0.00178747
5516.38908691,0.00171529
5518.31789429,0.00175036
5520.24670166,0.00175794
5522.17550903,0.00177435
5524.10431641,0.00177228
5526.03312378,0.00176466
5527.96193115,0.00171852
5529.89073853,0.00171658
5531.81954590,0.00172095
5533.74835327,0.00171916
5535.67716064,0.00172930
5537.60596802,0.00169000
5539.53477539,0.00172121
5541.46358276,0.00169164
5543.39239014,0.00167595
5545.32119751,0.00173225
5547.25000488,0.00174977
5549.17881226,0.00176996
5551.10761963,0.00172663
5553.03642700,0.00169301
5554.96523437,0.00169127
5556.89404175,0.00164519
5558.82284912,0.00161563
5560.75165649,0.00167565
5562.68046387,0.00169799
5564.60927124,0.00166874
5566.53807861,0.00167572
5568.46688599,0.00163302
5570.39569336,0.00164312
5572.32450073,0.00170686
5574.25330811,0.00165698
5576.18211548,0.00159484
5578.11092285,0.00165055
5580.03973022,0.00165559
5581.96853760,0.00160892
5583.89734497,0.00162642
5585.82615234,0.00159767
5587.75495972,0.00156927
5589.68376709,0.00154390
5591.61257446,0.00152690
5593.54138184,0.00157210
5595.47018921,0.00162786
5597.39899658,0.00165013
5599.32780395,0.00160359
5601.25661133,0.00156159
5603.18541870,0.00158440
5605.11422607,0.00162197
5607.04303345,0.00155432
5608.97184082,0.00152365
5610.90064819,0.00157299
5612.82945557,0.00158399
5614.75826294,0.00157911
5616.68707031,0.00151045
5618.61587769,0.00153596
5620.54468506,0.00152373
5622.47349243,0.00145394
5624.40229980,0.00152668
5626.33110718,0.00155963
5628.25991455,0.00156581
5630.18872192,0.00151214
5632.11752930,0.00150342
5634.04633667,0.00155382
5635.97514404,0.00149537
5637.90395142,0.00148302
5639.83275879,0.00147678
5641.76156616,0.00148737
5643.69037353,0.00148382
5645.61918091,0.00145696
5647.54798828,0.00154729
5649.47679565,0.00150710
5651.40560303,0.00142229
5653.33441040,0.00151585
5655.26321777,0.00151687
5657.19202515,0.00145300
5659.12083252,0.00145488
5661.04963989,0.00142035
5662.97844727,0.00140496
5664.90725464,0.00145021
5666.83606201,0.00145871
5668.76486938,0.00140306
5670.69367676,0.00137578
5672.62248413,0.00135342
5674.55129150,0.00142174
5676.48009888,0.00152488
5678.40890625,0.00142414
5680.33771362,0.00139771
5682.26652100,0.00142474
5684.19532837,0.00133702
5686.12413574,0.00138820
5688.05294311,0.00144313
5689.98175049,0.00131811
5691.91055786,0.00131756
5693.83936523,0.00145582
5695.76817261,0.00139066
5697.69697998,0.00135377
5699.62578735,0.00138448
5701.55459473,0.00133512
5703.48340210,0.00140506
5705.41220947,0.00141125
5707.34101685,0.00137799
5709.26982422,0.00140117
5711.19863159,0.00136898
5713.12743896,0.00133756
5715.05624634,0.00136232
5716.98505371,0.00140739
5718.91386108,0.00137563
5720.84266846,0.00137833
5722.77147583,0.00130658
5724.70028320,0.00125199
5726.62909058,0.00139033
5728.55789795,0.00132192
5730.48670532,0.00126537
5732.41551270,0.00138187
5734.34432007,0.00128094
5736.27312744,0.00126149
5738.20193481,0.00140003
5740.13074219,0.00133868
5742.05954956,0.00129091
5743.98835693,0.00130777
5745.91716431,0.00125347
5747.84597168,0.00121729
5749.77477905,0.00119146
5751.70358643,0.00124576
5753.63239380,0.00128190
5755.56120117,0.00127212
5757.49000854,0.00136970
5759.41881592,0.00131153
5761.34762329,0.00117647
5763.27643066,0.00124127
5765.20523804,0.00121637
5767.13404541,0.00120410
5769.06285278,0.00128239
5770.99166016,0.00123447
5772.92046753,0.00126677
5774.84927490,0.00124992
5776.77808228,0.00120390
5778.70688965,0.00122420
5780.63569702,0.00124388
5782.56450439,0.00130782
5784.49331177,0.00115871
5786.42211914,0.00118832
5788.35092651,0.00131043
5790.27973389,0.00115671
5792.20854126,0.00119218
5794.13734863,0.00123702
5796.06615601,0.00114857
5797.99496338,0.00115008
5799.92377075,0.00120573
5801.85257812,0.00119963
5803.78138550,0.00124583
5805.71019287,0.00124629
5807.63900024,0.00113915
5809.56780762,0.00120824
5811.49661499,0.00114895
5813.42542236,0.00114684
5815.35422974,0.00123105
5817.28303711,0.00115372
5819.21184448,0.00117512
5821.14065186,0.00114613
5823.06945923,0.00118957
5824.99826660,0.00119466
5826.92707397,0.00113672
5828.85588135,0.00115453
5830.78468872,0.00111913
5832.71349609,0.00115921
5834.64230347,0.00112268
5836.57111084,0.00109870
5838.49991821,0.00109142
5840.42872559,0.00107083
5842.35753296,0.00112047
5844.28634033,0.00111174
5846.21514770,0.00110397
5848.14395508,0.00109148
5850.07276245,0.00111946
5852.00156982,0.00108875
5853.93037720,0.00109083
5855.85918457,0.00114212
5857.78799194,0.00109995
5859.71679932,0.00109494
5861.64560669,0.00106096
5863.57441406,0.00109086
5865.50322144,0.00110356
5867.43202881,0.00112575
5869.36083618,0.00116025
5871.28964355,0.00104146
5873.21845093,0.00107893
5875.14725830,0.00109658
5877.07606567,0.00100322
5879.00487305,0.00103989
5880.93368042,0.00105242
5882.86248779,0.00104525
5884.79129517,0.00110908
5886.72010254,0.00110233
5888.64890991,0.00101919
5890.57771728,0.00103030
5892.50652466,0.00104622
5894.43533203,0.00102513
5896.36413940,0.00105268
5898.29294678,0.00104397
5900.22175415,0.00097650
5902.15056152,0.00098270
5904.07936890,0.00104097
5906.00817627,0.00102248
5907.93698364,0.00101936
5909.86579102,0.00103092
5911.79459839,0.00101672
5913.72340576,0.00098134
5915.65221313,0.00096497
5917.58102051,0.00104805
5919.50982788,0.00104806
5921.43863525,0.00103821
5923.36744263,0.00103743
5925.29625000,0.00092462
5927.22505737,0.00096573
5929.15386475,0.00100684
5931.08267212,0.00096238
5933.01147949,0.00101147
5934.94028686,0.00100775
5936.86909424,0.00099307
5938.79790161,0.00094226
5940.72670898,0.00097543
5942.65551636,0.00106329
5944.58432373,0.00097405
5946.51313110,0.00098437
5948.44193848,0.00098414
5950.37074585,0.00093367
5952.29955322,0.00090731
5954.22836060,0.00087963
5956.15716797,0.00092577
5958.08597534,0.00092106
5960.01478271,0.00106228
5961.94359009,0.00099113
5963.87239746,0.00081996
5965.80120483,0.00094957
5967.73001221,0.00090518
5969.65881958,0.00096111
5971.58762695,0.00099686
5973.51643433,0.00085031
5975.44524170,0.00088686
5977.37404907,0.00091342
5979.30285645,0.00088076
5981.23166382,0.00087612
5983.16047119,0.00094767
5985.08927856,0.00092786
5987.01808594,0.00087723
5988.94689331,0.00090494
5990.87570068,0.00088493
5992.80450806,0.00090246
5994.73331543,0.00092768
5996.66212280,0.00092409
5998.59093018,0.00086019
6000.51973755,0.00086142
