399.26312622,0.00083289
401.19193359,0.00078422
403.12074097,0.00075793
405.04954834,0.00107646
406.97835571,0.00130655
408.90716309,0.00116965
410.83597046,0.00146204
412.76477783,0.00140519
414.69358521,0.00101324
416.62239258,0.00125257
418.55119995,0.00138006
420.48000732,0.00138452
422.40881470,0.00123449
424.33762207,0.00075787
426.26642944,0.00112499
428.19523682,0.00136617
430.12404419,0.00094594
432.05285156,0.00118437
433.98165894,0.00132676
435.91046631,0.00138712
437.83927368,0.00135694
439.76808105,0.00115470
441.69688843,0.00107614
443.62569580,0.00079140
445.55450317,0.00114885
447.48331055,0.00124682
449.41211792,0.00102918
451.34092529,0.00115246
453.26973267,0.00082027
455.19854004,0.00075106
457.12734741,0.00070404
459.05615479,0.00054772
460.98496216,0.00101715
462.91376953,0.00112327
464.84257690,0.00043089
466.77138428,0.00009992
468.70019165,0.00053975
470.62899902,0.00089281
472.55780640,0.00060357
474.48661377,0.00042854
476.41542114,0.00080612
478.34422852,0.00034930
480.27303589,-0.00006943
482.20184326,0.00066387
484.13065063,0.00029046
486.05945801,-0.00014039
487.98826538,0.00049957
489.91707275,0.00028253
491.84588013,0.00002111
493.77468750,0.00007640
495.70349487,0.00023189
497.63230225,0.00035829
499.56110962,-0.00006797
501.48991699,0.00015269
503.41872437,0.00056346
505.34753174,0.00044626
507.27633911,0.00046207
509.20514648,0.00037835
511.13395386,0.00021533
513.06276123,-0.00004286
514.99156860,-0.00010012
516.92037598,0.00053628
518.84918335,0.00054365
520.77799072,0.00032440
522.70679810,0.00056567
524.63560547,0.00028035
526.56441284,0.00023766
528.49322021,0.00046374
530.42202759,0.00057236
532.35083496,0.00042754
534.27964233,0.00043445
536.20844971,0.00052634
538.13725708,-0.00001393
540.06606445,0.00005126
541.99487183,-0.00000843
543.92367920,-0.00024480
545.85248657,0.00026530
547.78129395,0.00006608
549.71010132,0.00021642
551.63890869,0.00020635
553.56771606,-0.00020836
555.49652344,0.00037020
557.42533081,0.00028529
559.35413818,0.00010388
561.28294556,0.00037651
563.21175293,0.00024908
565.14056030,0.00005974
567.06936768,0.00009474
568.99817505,0.00006893
570.92698242,-0.00001520
572.85578979,-0.00013665
574.78459717,0.00007854
576.71340454,0.00029643
578.64221191,-0.00001795
580.57101929,0.00032672
582.49982666,0.00023396
584.42863403,0.00011570
586.35744141,0.00040599
588.28624878,-0.00009619
590.21505615,0.00003681
592.14386353,0.00027828
594.07267090,0.00011492
596.00147827,0.00033267
597.93028564,0.00028503
599.85909302,0.00014420
601.78790039,0.00026797
603.71670776,0.00014943
605.64551514,0.00013197
607.57432251,0.00041956
609.50312988,0.00026342
611.43193726,-0.00003530
613.36074463,0.00010531
615.28955200,0.00036260
617.21835938,0.00008735
619.14716675,0.00014871
621.07597412,0.00035842
623.00478149,0.00014779
624.93358887,0.00007084
626.86239624,-0.00038774
628.79120361,-0.00008125
630.72001099,0.00037184
632.64881836,0.00061438
634.57762573,0.00093343
636.50643311,0.00075399
638.43524048,0.00113346
640.36404785,0.00108659
642.29285522,0.00119442
644.22166260,0.00116416
646.15046997,0.00084619
648.07927734,0.00169364
650.00808472,0.00183706
651.93689209,0.00156956
653.86569946,0.00166578
655.79450684,0.00179007
657.72331421,0.00191530
659.65212158,0.00188100
661.58092896,0.00196000
663.50973633,0.00208939
665.43854370,0.00214659
667.36735107,0.00169847
669.29615845,0.00188012
671.22496582,0.00242825
673.15377319,0.00224688
675.08258057,0.00222031
677.01138794,0.00231115
678.94019531,0.00256807
680.86900269,0.00253791
682.79781006,0.00234452
684.72661743,0.00251564
686.65542480,0.00240069
688.58423218,0.00248968
690.51303955,0.00267368
692.44184692,0.00257553
694.37065430,0.00266221
696.29946167,0.00296385
698.22826904,0.00353585
700.15707642,0.00409069
702.08588379,0.00411032
704.01469116,0.00380631
705.94349854,0.00353257
707.87230591,0.00269241
709.80111328,0.00164663
711.72992065,0.00142440
713.65872803,0.00113067
715.58753540,0.00065046
717.51634277,0.00039589
719.44515015,0.00016434
721.37395752,0.00027902
723.30276489,0.00032186
725.23157227,0.00034311
727.16037964,-0.00004380
729.08918701,-0.00036242
731.01799438,0.00012050
732.94680176,0.00001985
734.87560913,0.00011070
736.80441650,0.00026794
738.73322388,0.00027750
740.66203125,0.00043690
742.59083862,0.00017855
744.51964600,0.00032241
746.44845337,0.00017998
748.37726074,0.00008296
750.30606812,0.00038944
752.23487549,0.00032236
754.16368286,0.00014718
756.09249023,0.00023372
758.02129761,0.00061059
759.95010498,0.00039106
761.87891235,0.00016876
763.80771973,0.00030754
765.73652710,0.00033588
767.66533447,0.00022339
769.59414185,0.00038272
771.52294922,0.00071829
773.45175659,0.00023335
775.38056396,0.00002870
777.30937134,0.00014041
779.23817871,0.00034045
781.16698608,0.00072314
783.09579346,0.00066519
785.02460083,0.00056511
786.95340820,0.00008917
788.88221558,0.00023280
790.81102295,0.00040830
792.73983032,0.00018635
794.66863770,0.00053597
796.59744507,0.00039584
798.52625244,0.00067306
800.45505981,0.00080983
802.38386719,0.00037214
804.31267456,0.00045745
806.24148193,0.00037110
808.17028931,0.00028245
810.09909668,0.00017351
812.02790405,0.00029401
813.95671143,0.00049828
815.88551880,0.00024480
817.81432617,0.00014437
819.74313354,0.00028501
821.67194092,0.00033244
823.60074829,0.00031552
825.52955566,0.00045935
827.45836304,0.00051329
829.38717041,0.00056169
831.31597778,0.00074749
833.24478516,0.00095857
835.17359253,0.00100446
837.10239990,0.00089341
839.03120728,0.00086562
840.96001465,0.00075200
842.88882202,0.00070989
844.81762939,0.00078218
846.74643677,0.00081507
848.67524414,0.00053226
850.60405151,0.00047303
852.53285889,0.00071954
854.46166626,0.00058179
856.39047363,0.00057191
858.31928101,0.00066599
860.24808838,0.00064514
862.17689575,0.00043271
864.10570313,0.00048539
866.03451050,0.00056408
867.96331787,0.00039724
869.89212524,0.00042972
871.82093262,0.00022063
873.74973999,0.00044859
875.67854736,0.00038135
877.60735474,0.00004906
879.53616211,0.00019855
881.46496948,0.00012080
883.39377686,0.00039130
885.32258423,0.00040535
887.25139160,0.00009126
889.18019897,0.00024941
891.10900635,0.00058974
893.03781372,0.00047229
894.96662109,0.00040566
896.89542847,0.00049043
898.82423584,0.00023077
900.75304321,0.00051058
902.68185059,0.00031033
904.61065796,0.00036948
906.53946533,0.00068952
908.46827271,0.00040492
910.39708008,0.00086590
912.32588745,0.00064020
914.25469482,0.00042721
916.18350220,0.00070643
918.11230957,0.00064316
920.04111694,0.00082880
921.96992432,0.00068275
923.89873169,0.00073565
925.82753906,0.00082004
927.75634644,0.00095388
929.68515381,0.00112346
931.61396118,0.00105970
933.54276855,0.00116539
935.47157593,0.00104882
937.40038330,0.00127849
939.32919067,0.00145061
941.25799805,0.00128941
943.18680542,0.00116273
945.11561279,0.00124917
947.04442017,0.00144487
948.97322754,0.00119996
950.90203491,0.00121262
952.83084229,0.00123986
954.75964966,0.00148063
956.68845703,0.00150567
958.61726440,0.00117097
960.54607178,0.00145392
962.47487915,0.00121965
964.40368652,0.00118670
966.33249390,0.00136955
968.26130127,0.00137903
970.19010864,0.00157353
972.11891602,0.00144457
974.04772339,0.00183275
975.97653076,0.00183387
977.90533813,0.00181837
979.83414551,0.00221895
981.76295288,0.00200455
983.69176025,0.00222419
985.62056763,0.00249148
987.54937500,0.00289887
989.47818237,0.00338281
991.40698975,0.00347277
993.33579712,0.00394449
995.26460449,0.00420597
997.19341187,0.00448895
999.12221924,0.00491206
1001.05102661,0.00516167
1002.97983398,0.00555632
1004.90864136,0.00592085
1006.83744873,0.00630151
1008.76625610,0.00675037
1010.69506348,0.00727107
1012.62387085,0.00759784
1014.55267822,0.00792371
1016.48148560,0.00838940
1018.41029297,0.00860251
1020.33910034,0.00876233
1022.26790771,0.00933218
1024.19671509,0.01015189
1026.12552246,0.01036978
1028.05432983,0.01029862
1029.98313721,0.01053402
1031.91194458,0.01099013
1033.84075195,0.01130615
1035.76955933,0.01139940
1037.69836670,0.01148960
1039.62717407,0.01133575
1041.55598145,0.01147806
1043.48478882,0.01158081
1045.41359619,0.01141467
1047.34240356,0.01129793
1049.27121094,0.01090273
1051.20001831,0.01069248
1053.12882568,0.01050618
1055.05763306,0.01042318
1056.98644043,0.01015687
1058.91524780,0.00977091
1060.84405518,0.00966861
1062.77286255,0.00934901
1064.70166992,0.00927487
1066.63047729,0.00880574
1068.55928467,0.00823484
1070.48809204,0.00816864
1072.41689941,0.00779615
1074.34570679,0.00718081
1076.27451416,0.00673857
1078.20332153,0.00659822
1080.13212891,0.00612648
1082.06093628,0.00601753
1083.98974365,0.00594564
1085.91855103,0.00539569
1087.84735840,0.00533032
1089.77616577,0.00509543
1091.70497314,0.00484022
1093.63378052,0.00467536
1095.56258789,0.00451387
1097.49139526,0.00427064
1099.42020264,0.00397693
1101.34901001,0.00407539
1103.27781738,0.00397601
1105.20662476,0.00383317
1107.13543213,0.00369715
1109.06423950,0.00374378
1110.99304687,0.00375165
1112.92185425,0.00375809
1114.85066162,0.00391143
1116.77946899,0.00360292
1118.70827637,0.00363084
1120.63708374,0.00366684
1122.56589111,0.00371311
1124.49469849,0.00377036
1126.42350586,0.00363964
1128.35231323,0.00389966
1130.28112061,0.00392087
1132.20992798,0.00394238
1134.13873535,0.00394117
1136.06754272,0.00426549
1137.99635010,0.00461901
1139.92515747,0.00464736
1141.85396484,0.00520520
1143.78277222,0.00548373
1145.71157959,0.00575668
1147.64038696,0.00613143
1149.56919434,0.00644580
1151.49800171,0.00686268
1153.42680908,0.00713226
1155.35561646,0.00743157
1157.28442383,0.00752657
1159.21323120,0.00783910
1161.14203857,0.00821401
1163.07084595,0.00854784
1164.99965332,0.00877487
1166.92846069,0.00911921
1168.85726807,0.00959426
1170.78607544,0.00951042
1172.71488281,0.01010097
1174.64369019,0.01079739
1176.57249756,0.01099414
1178.50130493,0.01137536
1180.43011230,0.01178737
1182.35891968,0.01233062
1184.28772705,0.01263430
1186.21653442,0.01327884
1188.14534180,0.01411136
1190.07414917,0.01461379
1192.00295654,0.01521831
1193.93176392,0.01600565
1195.86057129,0.01678448
1197.78937866,0.01742816
1199.71818604,0.01837271
1201.64699341,0.01903317
1203.57580078,0.01970520
1205.50460815,0.02070568
1207.43341553,0.02143488
1209.36222290,0.02208922
1211.29103027,0.02251024
1213.21983765,0.02324677
1215.14864502,0.02380857
1217.07745239,0.02425730
1219.00625977,0.02501622
1220.93506714,0.02503744
1222.86387451,0.02535313
1224.79268188,0.02562986
1226.72148926,0.02556745
1228.65029663,0.02608678
1230.57910400,0.02602337
1232.50791138,0.02598149
1234.43671875,0.02634552
1236.36552612,0.02619733
1238.29433350,0.02603200
1240.22314087,0.02591774
1242.15194824,0.02592768
1244.08075562,0.02598741
1246.00956299,0.02579427
1247.93837036,0.02562425
1249.86717773,0.02532193
1251.79598511,0.02502485
1253.72479248,0.02484012
1255.65359985,0.02443198
1257.58240723,0.02409564
1259.51121460,0.02390522
1261.44002197,0.02360972
1263.36882935,0.02321430
1265.29763672,0.02287003
1267.22644409,0.02271454
1269.15525146,0.02236073
1271.08405884,0.02189056
1273.01286621,0.02160111
1274.94167358,0.02129246
1276.87048096,0.02099341
1278.79928833,0.02047822
1280.72809570,0.01999195
1282.65690308,0.01970200
1284.58571045,0.01927363
1286.51451782,0.01886630
1288.44332520,0.01857078
1290.37213257,0.01843040
1292.30093994,0.01819352
1294.22974731,0.01809729
1296.15855469,0.01797221
1298.08736206,0.01776610
1300.01616943,0.01800822
1301.94497681,0.01800115
1303.87378418,0.01818111
1305.80259155,0.01840281
1307.73139893,0.01852663
1309.66020630,0.01905674
1311.58901367,0.01922314
1313.51782104,0.01960121
1315.44662842,0.02006426
1317.37543579,0.02033303
1319.30424316,0.02074814
1321.23305054,0.02159549
1323.16185791,0.02269910
1325.09066528,0.02308014
1327.01947266,0.02355891
1328.94828003,0.02409492
1330.87708740,0.02474991
1332.80589478,0.02551462
1334.73470215,0.02589093
1336.66350952,0.02617232
1338.59231689,0.02555871
1340.52112427,0.02598941
1342.44993164,0.02733500
1344.37873901,0.02735969
1346.30754639,0.02747312
1348.23635376,0.02739424
1350.16516113,0.02709895
1352.09396851,0.02706541
1354.02277588,0.02662560
1355.95158325,0.02657505
1357.88039062,0.02651186
1359.80919800,0.02586113
1361.73800537,0.02453617
1363.66681274,0.02423524
1365.59562012,0.02585352
1367.52442749,0.02541105
1369.45323486,0.02467098
1371.38204224,0.02499126
1373.31084961,0.02375126
1375.23965698,0.02393079
1377.16846436,0.02458442
1379.09727173,0.02452569
1381.02607910,0.02473882
1382.95488647,0.02462124
1384.88369385,0.02459152
1386.81250122,0.02317321
1388.74130859,0.02332191
1390.67011597,0.02592465
1392.59892334,0.02504519
1394.52773071,0.02298070
1396.45653809,0.02452841
1398.38534546,0.02429085
1400.31415283,0.02425270
1402.24296021,0.02662270
1404.17176758,0.02461414
1406.10057495,0.02511589
1408.02938232,0.02647428
1409.95818970,0.02525734
1411.88699707,0.02589609
1413.81580444,0.02453746
1415.74461182,0.02514144
1417.67341919,0.02228451
1419.60222656,0.01952391
1421.53103394,0.02360769
1423.45984131,0.02241511
1425.38864868,0.02164797
1427.31745605,0.02240174
1429.24626343,0.02028713
1431.17507080,0.01986277
1433.10387817,0.02050275
1435.03268555,0.01853875
1436.96149292,0.01521815
1438.89030029,0.01766613
1440.81910767,0.01849925
1442.74791504,0.01700494
1444.67672241,0.01784885
1446.60552979,0.01618817
1448.53433716,0.01642367
1450.46314453,0.01715466
1452.39195190,0.01760272
1454.32075928,0.01822635
1456.24956665,0.01434272
1458.17837402,0.01476134
1460.10718140,0.02083098
1462.03598877,0.02225991
1463.96479614,0.02143803
1465.89360352,0.02231983
1467.82241089,0.02612380
1469.75121826,0.02809779
1471.68002563,0.02394406
1473.60883301,0.02529560
1475.53764038,0.02926745
1477.46644775,0.03154638
1479.39525513,0.03509998
1481.32406250,0.03539817
1483.25286987,0.03790830
1485.18167725,0.03884429
1487.11048462,0.03772096
1489.03929199,0.03712543
1490.96809937,0.03707599
1492.89690674,0.04447002
1494.82571411,0.04290368
1496.75452148,0.03759532
1498.68332886,0.04329066
1500.61213623,0.04487418
1502.54094360,0.04863911
1504.46975098,0.04511786
1506.39855835,0.03058102
1508.32736572,0.03872955
1510.25617310,0.04692972
1512.18498047,0.04521529
1514.11378784,0.04951624
1516.04259521,0.04363085
1517.97140259,0.04570477
1519.90020996,0.04419033
1521.82901733,0.03682449
1523.75782471,0.04692869
1525.68663208,0.04602427
1527.61543945,0.04548896
1529.54424683,0.05162932
1531.47305420,0.04920902
1533.40186157,0.04412475
1535.33066895,0.04754422
1537.25947632,0.05143113
1539.18828369,0.03439948
1541.11709106,0.03641510
1543.04589844,0.04496470
1544.97470581,0.04268895
1546.90351318,0.05245613
1548.83232056,0.04811300
1550.76112793,0.04975250
1552.68993530,0.04963092
1554.61874268,0.04413689
1556.54755005,0.04776580
1558.47635742,0.03119782
1560.40516479,0.03449213
1562.33397217,0.05268532
1564.26277954,0.04907301
1566.19158691,0.05084942
1568.12039429,0.05004963
1570.04920166,0.04310835
1571.97800903,0.05164642
1573.90681641,0.05192845
1575.83562378,0.03945729
1577.76443115,0.04582046
1579.69323853,0.05185597
1581.62204590,0.04993850
1583.55085327,0.05178662
1585.47966064,0.05043761
1587.40846802,0.05111741
1589.33727539,0.05051867
1591.26608276,0.05044890
1593.19489014,0.05031423
1595.12369751,0.04959834
1597.05250488,0.05042848
1598.98131226,0.04983416
1600.91011963,0.05024823
1602.83892700,0.04926839
1604.76773437,0.05039192
1606.69654175,0.04938761
1608.62534912,0.04909708
1610.55415649,0.04925867
1612.48296387,0.04971845
1614.41177124,0.05034679
1616.34057861,0.03972522
1618.26938599,0.04395629
1620.19819336,0.05252592
1622.12700073,0.04565006
1624.05580811,0.04583131
1625.98461548,0.04894117
1627.91342285,0.04870614
1629.84223022,0.04849138
1631.77103760,0.05285154
1633.69984497,0.04786439
1635.62865234,0.03811252
1637.55745972,0.04608851
1639.48626709,0.05196691
1641.41507446,0.05074456
1643.34388184,0.05246779
1645.27268921,0.04653322
1647.20149658,0.03959377
1649.13030396,0.05183589
1651.05911133,0.04902000
1652.98791870,0.02866565
1654.91672607,0.04202740
1656.84553345,0.05522151
1658.77434082,0.05292974
1660.70314819,0.05456474
1662.63195557,0.04885994
1664.56076294,0.05205283
1666.48957031,0.05688726
1668.41837769,0.04833489
1670.34718506,0.04661121
1672.27599243,0.05466175
1674.20479980,0.04957218
1676.13360718,0.04729409
1678.06241455,0.05615861
1679.99122192,0.05383638
1681.92002930,0.05293041
1683.84883667,0.04122394
1685.77764404,0.04129640
1687.70645142,0.05979467
1689.63525879,0.05055767
1691.56406616,0.05676304
1693.49287354,0.05793014
1695.42168091,0.04001817
1697.35048828,0.05148190
1699.27929565,0.04373655
1701.20810303,0.03866259
1703.13691040,0.05622971
1705.06571777,0.05055565
1706.99452515,0.05128722
1708.92333252,0.05661589
1710.85213989,0.05405494
1712.78094727,0.05517808
1714.70975464,0.05016120
1716.63856201,0.04416420
1718.56736938,0.04338889
1720.49617676,0.05331194
1722.42498413,0.05601920
1724.35379150,0.05125652
1726.28259888,0.05670869
1728.21140625,0.05159596
1730.14021362,0.05189240
1732.06902100,0.05052643
1733.99782837,0.03625292
1735.92663574,0.04748768
1737.85544312,0.05347233
1739.78425049,0.04636991
1741.71305786,0.05128476
1743.64186523,0.05191660
1745.57067261,0.05203075
1747.49947998,0.05228069
1749.42828735,0.04940962
1751.35709473,0.04688021
1753.28590210,0.05311033
1755.21470947,0.05610962
1757.14351685,0.04997195
1759.07232422,0.05624449
1761.00113159,0.05210548
1762.92993896,0.04967498
1764.85874634,0.05870202
1766.78755371,0.05167357
1768.71636108,0.05216914
1770.64516846,0.05149042
1772.57397583,0.04543303
1774.50278320,0.05210809
1776.43159058,0.05519623
1778.36039795,0.05441913
1780.28920532,0.05334531
1782.21801270,0.05385913
1784.14682007,0.05399023
1786.07562744,0.05258881
1788.00443481,0.05607653
1789.93324219,0.05409532
1791.86204956,0.04769018
1793.79085693,0.05052114
1795.71966431,0.05494975
1797.64847168,0.05398319
1799.57727905,0.05305377
1801.50608643,0.05179264
1803.43489380,0.05395357
1805.36370117,0.05547143
1807.29250854,0.05430772
1809.22131592,0.05456280
1811.15012329,0.05274036
1813.07893066,0.05478054
1815.00773804,0.05509049
1816.93654541,0.05421614
1818.86535278,0.05498105
1820.79416016,0.05455699
1822.72296753,0.05532746
1824.65177490,0.05092137
1826.58058228,0.05319055
1828.50938965,0.05330244
1830.43819702,0.04925137
1832.36700439,0.05478795
1834.29581177,0.05430728
1836.22461914,0.05424239
1838.15342651,0.05401246
1840.08223389,0.05434313
1842.01104126,0.05444235
1843.93984863,0.04696303
1845.86865601,0.05091782
1847.79746338,0.05430130
1849.72627075,0.05287787
1851.65507812,0.05489690
1853.58388550,0.05348624
1855.51269287,0.05406041
1857.44150024,0.05371790
1859.37030762,0.05330311
1861.29911499,0.05355223
1863.22792236,0.05305570
1865.15672974,0.05387075
1867.08553711,0.05146145
1869.01434448,0.04891571
1870.94315186,0.05126090
1872.87195923,0.05360178
1874.80076660,0.05255598
1876.72957397,0.05304644
1878.65838135,0.05280603
1880.58718872,0.05241930
1882.51599609,0.05321652
1884.44480347,0.05190960
1886.37361084,0.05291032
1888.30241821,0.05139109
1890.23122559,0.04999842
1892.16003296,0.05270404
1894.08884033,0.05151866
1896.01764771,0.05124957
1897.94645508,0.05204411
1899.87526245,0.05162124
1901.80406982,0.05203603
1903.73287720,0.05145283
1905.66168457,0.05168506
1907.59049194,0.05096935
1909.51929932,0.05052774
1911.44810669,0.05121639
1913.37691406,0.05116844
1915.30572144,0.05170682
1917.23452881,0.04900408
1919.16333618,0.04904500
1921.09214355,0.05142177
1923.02095093,0.04939090
1924.94975830,0.05060769
1926.87856567,0.05118739
1928.80737305,0.05033617
1930.73618042,0.05099598
1932.66498779,0.05022769
1934.59379517,0.05095205
1936.52260254,0.05034138
1938.45140991,0.05061261
1940.38021729,0.05053899
1942.30902466,0.04841467
1944.23783203,0.04976366
1946.16663940,0.05035663
1948.09544678,0.05014315
1950.02425415,0.05035757
1951.95306152,0.05014656
1953.88186890,0.05019610
1955.81067627,0.04993612
1957.73948364,0.05021059
1959.66829102,0.05004780
1961.59709839,0.04997136
1963.52590576,0.05008905
1965.45471313,0.04964567
1967.38352051,0.04903202
1969.31232788,0.04938624
1971.24113525,0.04980818
1973.16994263,0.04942898
1975.09875000,0.04969397
1977.02755737,0.04941127
1978.95636475,0.04954228
1980.88517212,0.04949026
1982.81397949,0.04921680
1984.74278687,0.04956800
1986.67159424,0.04883968
1988.60040161,0.04899101
1990.52920898,0.04857073
1992.45801636,0.04784086
1994.38682373,0.04875577
1996.31563110,0.04885442
1998.24443848,0.04845401
2000.17324585,0.04845838
2002.10205322,0.04850633
2004.03086060,0.04826506
2005.95966797,0.04811752
2007.88847534,0.04820139
2009.81728271,0.04811694
2011.74609009,0.04784130
2013.67489746,0.04778063
2015.60370483,0.04763953
2017.53251221,0.04702792
2019.46131958,0.04723609
2021.39012695,0.04735538
2023.31893433,0.04712957
2025.24774170,0.04728386
2027.17654907,0.04709731
2029.10535645,0.04696633
2031.03416382,0.04681530
2032.96297119,0.04666562
2034.89177856,0.04664205
2036.82058594,0.04653858
2038.74939331,0.04634566
2040.67820068,0.04611564
2042.60700806,0.04600699
2044.53581543,0.04604203
2046.46462280,0.04605326
2048.39343018,0.04587865
2050.32223755,0.04579154
2052.25104492,0.04569779
2054.17985229,0.04568915
2056.10865967,0.04560394
2058.03746704,0.04543674
2059.96627441,0.04537143
2061.89508179,0.04536745
2063.82388916,0.04522670
2065.75269653,0.04473037
2067.68150391,0.04480330
2069.61031128,0.04473037
2071.53911865,0.04459210
2073.46792603,0.04478344
2075.39673340,0.04460917
2077.32554077,0.04467645
2079.25434814,0.04441464
2081.18315552,0.04432584
2083.11196289,0.04436427
2085.04077026,0.04423735
2086.96957764,0.04427166
2088.89838501,0.04387550
2090.82719238,0.04394485
2092.75599976,0.04395540
2094.68480713,0.04384138
2096.61361450,0.04385810
2098.54242187,0.04354275
2100.47122925,0.04352117
2102.40003662,0.04351169
2104.32884399,0.04338951
2106.25765137,0.04314233
2108.18645874,0.04312844
2110.11526611,0.04327688
2112.04407349,0.04314750
2113.97288086,0.04307405
2115.90168823,0.04294780
2117.83049561,0.04289848
2119.75930298,0.04288808
2121.68811035,0.04273851
2123.61691772,0.04269202
2125.54572510,0.04273053
2127.47453247,0.04253671
2129.40333984,0.04240362
2131.33214722,0.04245372
2133.26095459,0.04237288
2135.18976196,0.04230856
2137.11856934,0.04232581
2139.04737671,0.04231986
2140.97618408,0.04216698
2142.90499146,0.04222340
2144.83379883,0.04219487
2146.76260620,0.04207558
2148.69141357,0.04208215
2150.62022095,0.04186720
2152.54902832,0.04197148
2154.47783569,0.04195694
2156.40664307,0.04184874
2158.33545044,0.04186916
2160.26425781,0.04170971
2162.19306519,0.04166742
2164.12187256,0.04158211
2166.05067993,0.04162277
2167.97948730,0.04157426
2169.90829468,0.04142250
2171.83710205,0.04135526
2173.76590942,0.04147445
2175.69471680,0.04146235
2177.62352417,0.04118972
2179.55233154,0.04133998
2181.48113892,0.04127119
2183.40994629,0.04121932
2185.33875366,0.04128946
2187.26756104,0.04118482
2189.19636841,0.04114123
2191.12517578,0.04102711
2193.05398315,0.04110280
2194.98279053,0.04095528
2196.91159790,0.04094313
2198.84040527,0.04086707
2200.76921265,0.04076656
2202.69802002,0.04100832
2204.62682739,0.04075429
2206.55563477,0.04065430
2208.48444214,0.04060178
2210.41324951,0.04059476
2212.34205688,0.04064892
2214.27086426,0.04044900
2216.19967163,0.04054982
2218.12847900,0.04040988
2220.05728638,0.04035562
2221.98609375,0.04047005
2223.91490112,0.04039020
2225.84370850,0.04035512
2227.77251587,0.04017683
2229.70132324,0.04019845
2231.63013062,0.04015521
2233.55893799,0.03994317
2235.48774536,0.04004095
2237.41655273,0.03998505
2239.34536011,0.03981318
2241.27416748,0.03981749
2243.20297485,0.03976440
2245.13178223,0.03973148
2247.06058960,0.03964463
2248.98939697,0.03953607
2250.91820435,0.03941459
2252.84701172,0.03941995
2254.77581909,0.03953984
2256.70462646,0.03936720
2258.63343384,0.03943227
2260.56224121,0.03941796
2262.49104858,0.03924619
2264.41985596,0.03924283
2266.34866333,0.03902983
2268.27747070,0.03907473
2270.20627808,0.03902671
2272.13508545,0.03899468
2274.06389282,0.03910121
2275.99270020,0.03890216
2277.92150757,0.03890374
2279.85031494,0.03893428
2281.77912231,0.03882275
2283.70792969,0.03871696
2285.63673706,0.03879661
2287.56554443,0.03872235
2289.49435181,0.03846456
2291.42315918,0.03847470
2293.35196655,0.03838161
2295.28077393,0.03831590
2297.20958130,0.03823928
2299.13838867,0.03808066
2301.06719604,0.03800726
2302.99600342,0.03783823
2304.92481079,0.03761519
2306.85361816,0.03741564
2308.78242554,0.03723179
2310.71123291,0.03693264
2312.64004028,0.03651885
2314.56884766,0.03613517
2316.49765503,0.03586202
2318.42646240,0.03542310
2320.35526978,0.03501662
2322.28407715,0.03470630
2324.21288452,0.03420499
2326.14169189,0.03379400
2328.07049927,0.03340546
2329.99930664,0.03321112
2331.92811401,0.03298386
2333.85692139,0.03276107
2335.78572876,0.03272515
2337.71453613,0.03257915
2339.64334351,0.03264970
2341.57215088,0.03274053
2343.50095825,0.03317986
2345.42976562,0.03384033
2347.35857300,0.03490711
2349.28738037,0.03596695
2351.21618774,0.03490021
2353.14499512,0.03332153
2355.07380249,0.03238608
2357.00260986,0.03128898
2358.93141724,0.03077638
2360.86022461,0.03056727
2362.78903198,0.03040999
2364.71783936,0.03063977
2366.64664673,0.03098163
2368.57545410,0.03137070
2370.50426147,0.03215132
2372.43306885,0.03302893
2374.36187622,0.03371628
2376.29068359,0.03456090
2378.21949097,0.03526072
2380.14829834,0.03565542
2382.07710571,0.03601988
2384.00591309,0.03625070
2385.93472046,0.03637853
2387.86352783,0.03646128
2389.79233521,0.03639363
2391.72114258,0.03635681
2393.64994995,0.03632697
2395.57875732,0.03623002
2397.50756470,0.03617426
2399.43637207,0.03616605
2401.36517944,0.03622160
2403.29398682,0.03612775
2405.22279419,0.03605079
2407.15160156,0.03599477
2409.08040894,0.03589410
2411.00921631,0.03591746
2412.93802368,0.03589672
2414.86683105,0.03594159
2416.79563843,0.03587001
2418.72444580,0.03577256
2420.65325317,0.03570070
2422.58206055,0.03556965
2424.51086792,0.03564357
2426.43967529,0.03556252
2428.36848267,0.03549514
2430.29729004,0.03552677
2432.22609741,0.03543981
2434.15490479,0.03544849
2436.08371216,0.03541587
2438.01251953,0.03523140
2439.94132690,0.03516731
2441.87013428,0.03526101
2443.79894165,0.03520795
2445.72774902,0.03521787
2447.65655640,0.03523552
2449.58536377,0.03508065
2451.51417114,0.03498389
2453.44297852,0.03499325
2455.37178589,0.03500186
2457.30059326,0.03490083
2459.22940063,0.03490202
2461.15820801,0.03484036
2463.08701538,0.03477489
2465.01582275,0.03476673
2466.94463013,0.03472392
2468.87343750,0.03478708
2470.80224487,0.03464998
2472.73105225,0.03462974
2474.65985962,0.03456700
2476.58866699,0.03442375
2478.51747437,0.03453731
2480.44628174,0.03439878
2482.37508911,0.03432900
2484.30389648,0.03439270
2486.23270386,0.03430090
2488.16151123,0.03420064
2490.09031860,0.03417858
2492.01912598,0.03419438
2493.94793335,0.03404422
2495.87674072,0.03395074
2497.80554810,0.03399908
2499.73435547,0.03407168
2501.66316284,0.03404102
2503.59197021,0.03382431
2505.52077759,0.03376552
2507.44958496,0.03387575
2509.37839233,0.03380639
2511.30719971,0.03375607
2513.23600708,0.03373575
2515.16481445,0.03363434
2517.09362183,0.03370430
2519.02242920,0.03358903
2520.95123657,0.03346821
2522.88004395,0.03355018
2524.80885132,0.03355401
2526.73765869,0.03355180
2528.66646606,0.03338861
2530.59527344,0.03335056
2532.52408081,0.03331866
2534.45288818,0.03327147
2536.38169556,0.03333068
2538.31050293,0.03317410
2540.23931030,0.03320472
2542.16811768,0.03314696
2544.09692505,0.03298592
2546.02573242,0.03302979
2547.95453979,0.03303029
2549.88334717,0.03306984
2551.81215454,0.03289744
2553.74096191,0.03277014
2555.66976929,0.03280264
2557.59857666,0.03263917
2559.52738403,0.03263625
2561.45619141,0.03265465
2563.38499878,0.03260331
2565.31380615,0.03269000
2567.24261353,0.03249443
2569.17142090,0.03237224
2571.10022827,0.03253835
2573.02903564,0.03244359
2574.95784302,0.03237693
2576.88665039,0.03242366
2578.81545776,0.03243379
2580.74426514,0.03231262
2582.67307251,0.03212442
2584.60187988,0.03212019
2586.53068726,0.03202698
2588.45949463,0.03205620
2590.38830200,0.03211739
2592.31710937,0.03205410
2594.24591675,0.03202767
2596.17472412,0.03190650
2598.10353149,0.03197432
2600.03233887,0.03191370
2601.96114624,0.03173548
2603.88995361,0.03174955
2605.81876099,0.03164141
2607.74756836,0.03164271
2609.67637573,0.03167450
2611.60518311,0.03150789
2613.53399048,0.03143359
2615.46279785,0.03145912
2617.39160522,0.03140305
2619.32041260,0.03141726
2621.24921997,0.03146105
2623.17802734,0.03134669
2625.10683472,0.03125053
2627.03564209,0.03117088
2628.96444946,0.03115130
2630.89325684,0.03111514
2632.82206421,0.03098579
2634.75087158,0.03105952
2636.67967895,0.03109317
2638.60848633,0.03090090
2640.53729370,0.03087744
2642.46610107,0.03100097
2644.39490845,0.03094707
2646.32371582,0.03084059
2648.25252319,0.03079949
2650.18133057,0.03069506
2652.11013794,0.03062977
2654.03894531,0.03065936
2655.96775269,0.03058783
2657.89656006,0.03047450
2659.82536743,0.03049286
2661.75417480,0.03044025
2663.68298218,0.03031980
2665.61178955,0.03028439
2667.54059692,0.03027040
2669.46940430,0.03021686
2671.39821167,0.03013553
2673.32701904,0.03020556
2675.25582642,0.03015734
2677.18463379,0.02994618
2679.11344116,0.02991780
2681.04224854,0.02990157
2682.97105591,0.02989316
2684.89986328,0.02982169
2686.82867065,0.02973204
2688.75747803,0.02971393
2690.68628540,0.02967811
2692.61509277,0.02974982
2694.54390015,0.02958644
2696.47270752,0.02946463
2698.40151489,0.02956443
2700.33032227,0.02943229
2702.25912964,0.02939807
2704.18793701,0.02934300
2706.11674438,0.02926298
2708.04555176,0.02928808
2709.97435913,0.02916753
2711.90316650,0.02916994
2713.83197388,0.02917545
2715.76078125,0.02908793
2717.68958862,0.02902165
2719.61839600,0.02897010
2721.54720337,0.02897015
2723.47601074,0.02890768
2725.40481812,0.02887348
2727.33362549,0.02884221
2729.26243286,0.02872015
2731.19124023,0.02856798
2733.12004761,0.02850128
2735.04885498,0.02846310
2736.97766235,0.02845684
2738.90646973,0.02847932
2740.83527710,0.02831547
2742.76408447,0.02833586
2744.69289185,0.02835892
2746.62169922,0.02814870
2748.55050659,0.02812657
2750.47931396,0.02809565
2752.40812134,0.02801278
2754.33692871,0.02795843
2756.26573608,0.02799182
2758.19454346,0.02798692
2760.12335083,0.02779749
2762.05215820,0.02773262
2763.98096558,0.02769663
2765.90977295,0.02761934
2767.83858032,0.02755140
2769.76738770,0.02753846
2771.69619507,0.02754892
2773.62500244,0.02747036
2775.55380981,0.02737518
2777.48261719,0.02730558
2779.41142456,0.02725023
2781.34023193,0.02702800
2783.26903931,0.02704990
2785.19784668,0.02713578
2787.12665405,0.02685415
2789.05546143,0.02688909
2790.98426880,0.02688627
2792.91307617,0.02671068
2794.84188354,0.02670680
2796.77069092,0.02658768
2798.69949829,0.02661657
2800.62830566,0.02659295
2802.55711304,0.02637365
2804.48592041,0.02631193
2806.41472778,0.02631201
2808.34353516,0.02622708
2810.27234253,0.02615406
2812.20114990,0.02617778
2814.12995728,0.02605448
2816.05876465,0.02593750
2817.98757202,0.02588224
2819.91637939,0.02577618
2821.84518677,0.02579878
2823.77399414,0.02566908
2825.70280151,0.02556943
2827.63160889,0.02556713
2829.56041626,0.02541052
2831.48922363,0.02539414
2833.41803101,0.02535299
2835.34683838,0.02515194
2837.27564575,0.02500351
2839.20445312,0.02504871
2841.13326050,0.02501037
2843.06206787,0.02475821
2844.99087524,0.02466514
2846.91968262,0.02448750
2848.84848999,0.02425462
2850.77729736,0.02422587
2852.70610474,0.02421721
2854.63491211,0.02419905
2856.56371948,0.02430560
2858.49252686,0.02434693
2860.42133423,0.02415275
2862.35014160,0.02419242
2864.27894897,0.02412576
2866.20775635,0.02391399
2868.13656372,0.02404713
2870.06537109,0.02397776
2871.99417847,0.02378741
2873.92298584,0.02380103
2875.85179321,0.02377922
2877.78060059,0.02353756
2879.70940796,0.02345725
2881.63821533,0.02355616
2883.56702270,0.02345205
2885.49583008,0.02335366
2887.42463745,0.02311698
2889.35344482,0.02306139
2891.28225220,0.02306733
2893.21105957,0.02290677
2895.13986694,0.02293923
2897.06867432,0.02279566
2898.99748169,0.02272779
2900.92628906,0.02263796
2902.85509644,0.02252281
2904.78390381,0.02255575
2906.71271118,0.02241410
2908.64151855,0.02229771
2910.57032593,0.02215216
2912.49913330,0.02209685
2914.42794067,0.02184081
2916.35674805,0.02160275
2918.28555542,0.02170943
2920.21436279,0.02170614
2922.14317017,0.02178876
2924.07197754,0.02171906
2926.00078491,0.02172509
2927.92959229,0.02180967
2929.85839966,0.02172403
2931.78720703,0.02176400
2933.71601440,0.02167467
2935.64482178,0.02173170
2937.57362915,0.02174463
2939.50243652,0.02160334
2941.43124390,0.02166325
2943.36005127,0.02162216
2945.28885864,0.02147940
2947.21766602,0.02134534
2949.14647339,0.02129224
2951.07528076,0.02123145
2953.00408813,0.02105669
2954.93289551,0.02093241
2956.86170288,0.02090029
2958.79051025,0.02079404
2960.71931763,0.02070367
2962.64812500,0.02068359
2964.57693237,0.02060472
2966.50573975,0.02056258
2968.43454712,0.02043622
2970.36335449,0.02044568
2972.29216187,0.02042194
2974.22096924,0.02029135
2976.14977661,0.02040269
2978.07858398,0.02021826
2980.00739136,0.02012315
2981.93619873,0.02024595
2983.86500610,0.02010162
2985.79381348,0.02001889
2987.72262085,0.01996638
2989.65142822,0.01984756
2991.58023560,0.01977186
2993.50904297,0.01981169
2995.43785034,0.01961966
2997.36665771,0.01946119
2999.29546509,0.01954893
3001.22427246,0.01929433
3003.15307983,0.01919917
3005.08188721,0.01923236
3007.01069458,0.01909546
3008.93950195,0.01900008
3010.86830933,0.01879887
3012.79711670,0.01878443
3014.72592407,0.01870903
3016.65473145,0.01855373
3018.58353882,0.01857155
3020.51234619,0.01838467
3022.44115356,0.01833627
3024.36996094,0.01833224
3026.29876831,0.01810748
3028.22757568,0.01805641
3030.15638306,0.01793841
3032.08519043,0.01774712
3034.01399780,0.01770830
3035.94280518,0.01771063
3037.87161255,0.01763672
3039.80041992,0.01749269
3041.72922729,0.01746231
3043.65803467,0.01733574
3045.58684204,0.01722722
3047.51564941,0.01715071
3049.44445679,0.01699379
3051.37326416,0.01704551
3053.30207153,0.01687350
3055.23087891,0.01664900
3057.15968628,0.01663798
3059.08849365,0.01653484
3061.01730103,0.01643116
3062.94610840,0.01630988
3064.87491577,0.01633465
3066.80372314,0.01627002
3068.73253052,0.01612142
3070.66133789,0.01612927
3072.59014526,0.01605714
3074.51895264,0.01595212
3076.44776001,0.01575625
3078.37656738,0.01567783
3080.30537476,0.01563857
3082.23418213,0.01554804
3084.16298950,0.01553748
3086.09179687,0.01537623
3088.02060425,0.01529998
3089.94941162,0.01521297
3091.87821899,0.01516018
3093.80702637,0.01511271
3095.73583374,0.01491215
3097.66464111,0.01494653
3099.59344849,0.01482345
3101.52225586,0.01474129
3103.45106323,0.01479437
3105.37987061,0.01451633
3107.30867798,0.01447311
3109.23748535,0.01441158
3111.16629272,0.01420479
3113.09510010,0.01428073
3115.02390747,0.01419235
3116.95271484,0.01405393
3118.88152222,0.01400466
3120.81032959,0.01386250
3122.73913696,0.01383691
3124.66794434,0.01381386
3126.59675171,0.01375791
3128.52555908,0.01368690
3130.45436645,0.01353540
3132.38317383,0.01349761
3134.31198120,0.01343228
3136.24078857,0.01328887
3138.16959595,0.01325740
3140.09840332,0.01322200
3142.02721069,0.01313455
3143.95601807,0.01303069
3145.88482544,0.01298668
3147.81363281,0.01297027
3149.74244019,0.01284671
3151.67124756,0.01277998
3153.60005493,0.01270177
3155.52886230,0.01257188
3157.45766968,0.01253774
3159.38647705,0.01243201
3161.31528442,0.01239517
3163.24409180,0.01242330
3165.17289917,0.01233387
3167.10170654,0.01229860
3169.03051392,0.01227180
3170.95932129,0.01220750
3172.88812866,0.01215211
3174.81693604,0.01216507
3176.74574341,0.01212348
3178.67455078,0.01195823
3180.60335815,0.01196667
3182.53216553,0.01200137
3184.46097290,0.01186816
3186.38978027,0.01177853
3188.31858765,0.01177567
3190.24739502,0.01174374
3192.17620239,0.01174580
3194.10500977,0.01169413
3196.03381714,0.01162767
3197.96262451,0.01173725
3199.89143188,0.01160001
3201.82023926,0.01146877
3203.74904663,0.01160959
3205.67785400,0.01152639
3207.60666138,0.01148854
3209.53546875,0.01153283
3211.46427612,0.01146591
3213.39308350,0.01146899
3215.32189087,0.01143104
3217.25069824,0.01138744
3219.17950562,0.01143462
3221.10831299,0.01140383
3223.03712036,0.01138920
3224.96592773,0.01151856
3226.89473511,0.01143916
3228.82354248,0.01128993
3230.75234985,0.01140765
3232.68115723,0.01132688
3234.60996460,0.01118085
3236.53877197,0.01139723
3238.46757935,0.01139643
3240.39638672,0.01130711
3242.32519409,0.01138367
3244.25400146,0.01122318
3246.18280884,0.01125498
3248.11161621,0.01134352
3250.04042358,0.01138856
3251.96923096,0.01148272
3253.89803833,0.01132307
3255.82684570,0.01139019
3257.75565308,0.01135798
3259.68446045,0.01135294
3261.61326782,0.01150373
3263.54207520,0.01123971
3265.47088257,0.01128229
3267.39968994,0.01145182
3269.32849731,0.01140284
3271.25730469,0.01139591
3273.18611206,0.01127733
3275.11491943,0.01125091
3277.04372681,0.01138625
3278.97253418,0.01144548
3280.90134155,0.01140090
3282.83014893,0.01142194
3284.75895630,0.01136540
3286.68776367,0.01138178
3288.61657104,0.01146921
3290.54537842,0.01138550
3292.47418579,0.01137860
3294.40299316,0.01140811
3296.33180054,0.01146389
3298.26060791,0.01143630
3300.18941528,0.01142014
3302.11822266,0.01152039
3304.04703003,0.01146560
3305.97583740,0.01143329
3307.90464478,0.01142741
3309.83345215,0.01140096
3311.76225952,0.01146413
3313.69106689,0.01144004
3315.61987427,0.01137241
3317.54868164,0.01153562
3319.47748901,0.01156417
3321.40629639,0.01148011
3323.33510376,0.01159123
3325.26391113,0.01149279
3327.19271851,0.01143094
3329.12152588,0.01152035
3331.05033325,0.01154721
3332.97914062,0.01151912
3334.90794800,0.01140627
3336.83675537,0.01143578
3338.76556274,0.01157556
3340.69437012,0.01157897
3342.62317749,0.01145563
3344.55198486,0.01150039
3346.48079224,0.01151763
3348.40959961,0.01155336
3350.33840698,0.01163316
3352.26721436,0.01159130
3354.19602173,0.01164057
3356.12482910,0.01153741
3358.05363647,0.01159507
3359.98244385,0.01163184
3361.91125122,0.01159837
3363.84005859,0.01166667
3365.76886597,0.01152773
3367.69767334,0.01167944
3369.62648071,0.01167048
3371.55528809,0.01161603
3373.48409546,0.01174829
3375.41290283,0.01164983
3377.34171020,0.01164909
3379.27051758,0.01171841
3381.19932495,0.01178560
3383.12813232,0.01174889
3385.05693970,0.01173945
3386.98574707,0.01169311
3388.91455444,0.01181498
3390.84336182,0.01190846
3392.77216919,0.01174098
3394.70097656,0.01182904
3396.62978394,0.01174945
3398.55859131,0.01181617
3400.48739868,0.01188739
3402.41620605,0.01187099
3404.34501343,0.01196040
3406.27382080,0.01184809
3408.20262817,0.01200397
3410.13143555,0.01201034
3412.06024292,0.01201985
3413.98905029,0.01208672
3415.91785767,0.01210685
3417.84666504,0.01213498
3419.77547241,0.01196460
3421.70427979,0.01205985
3423.63308716,0.01208212
3425.56189453,0.01213636
3427.49070190,0.01209381
3429.41950928,0.01208301
3431.34831665,0.01221007
3433.27712402,0.01210749
3435.20593140,0.01221572
3437.13473877,0.01219798
3439.06354614,0.01230527
3440.99235352,0.01219447
3442.92116089,0.01203385
3444.84996826,0.01232177
3446.77877563,0.01215995
3448.70758301,0.01220467
3450.63639038,0.01240543
3452.56519775,0.01239908
3454.49400513,0.01251360
3456.42281250,0.01241369
3458.35161987,0.01235554
3460.28042725,0.01249208
3462.20923462,0.01241847
3464.13804199,0.01244982
3466.06684937,0.01259284
3467.99565674,0.01244929
3469.92446411,0.01253321
3471.85327148,0.01257754
3473.78207886,0.01251571
3475.71088623,0.01251981
3477.63969360,0.01253024
3479.56850098,0.01258674
3481.49730835,0.01241884
3483.42611572,0.01258659
3485.35492310,0.01266768
3487.28373047,0.01269254
3489.21253784,0.01280702
3491.14134521,0.01271366
3493.07015259,0.01285968
3494.99895996,0.01274323
3496.92776733,0.01271377
3498.85657471,0.01285711
3500.78538208,0.01284963
3502.71418945,0.01264728
3504.64299683,0.01266840
3506.57180420,0.01302984
3508.50061157,0.01276609
3510.42941895,0.01274166
3512.35822632,0.01296209
3514.28703369,0.01304371
3516.21584106,0.01308190
3518.14464844,0.01298468
3520.07345581,0.01318950
3522.00226318,0.01298935
3523.93107056,0.01277366
3525.85987793,0.01295815
3527.78868530,0.01294991
3529.71749268,0.01286796
3531.64630005,0.01310933
3533.57510742,0.01335818
3535.50391479,0.01318336
3537.43272217,0.01311787
3539.36152954,0.01320055
3541.29033691,0.01329453
3543.21914429,0.01323684
3545.14795166,0.01286023
3547.07675903,0.01268945
3549.00556641,0.01328495
3550.93437378,0.01344119
3552.86318115,0.01303552
3554.79198853,0.01342641
3556.72079590,0.01349350
3558.64960327,0.01342393
3560.57841064,0.01333963
3562.50721802,0.01330079
3564.43602539,0.01341848
3566.36483276,0.01223637
3568.29364014,0.01200895
3570.22244751,0.01323848
3572.15125488,0.01370935
3574.08006226,0.01364291
3576.00886963,0.01354883
3577.93767700,0.01349612
3579.86648437,0.01355882
3581.79529175,0.01354503
3583.72409912,0.01367104
3585.65290649,0.01335407
3587.58171387,0.01189785
3589.51052124,0.01245778
3591.43932861,0.01389628
3593.36813599,0.01328863
3595.29694336,0.01305153
3597.22575073,0.01342175
3599.15455811,0.01359816
3601.08336548,0.01337605
3603.01217285,0.01354892
3604.94098022,0.01394854
3606.86978760,0.01326166
3608.79859497,0.01240004
3610.72740234,0.01281450
3612.65620972,0.01308245
3614.58501709,0.01264011
3616.51382446,0.01377637
3618.44263184,0.01259348
3620.37143921,0.01210431
3622.30024658,0.01398897
3624.22905395,0.01360995
3626.15786133,0.01438805
3628.08666870,0.01175453
3630.01547607,0.01047783
3631.94428345,0.01382458
3633.87309082,0.01342898
3635.80189819,0.01379811
3637.73070557,0.01414161
3639.65951294,0.01397241
3641.58832031,0.01408374
3643.51712769,0.01380543
3645.44593506,0.01401679
3647.37474243,0.01232350
3649.30354980,0.01118967
3651.23235718,0.01132392
3653.16116455,0.01393985
3655.08997192,0.01389259
3657.01877930,0.01221009
3658.94758667,0.01444084
3660.87639404,0.01412508
3662.80520142,0.01437828
3664.73400879,0.01425147
3666.66281616,0.01410974
3668.59162354,0.01366979
3670.52043091,0.01065074
3672.44923828,0.01356466
3674.37804565,0.01269472
3676.30685303,0.00992871
3678.23566040,0.01334588
3680.16446777,0.01368437
3682.09327515,0.01375108
3684.02208252,0.01429240
3685.95088989,0.01393503
3687.87969727,0.01244693
3689.80850464,0.01116980
3691.73731201,0.01293762
3693.66611938,0.01356312
3695.59492676,0.01401429
3697.52373413,0.01390478
3699.45254150,0.01375170
3701.38134888,0.01341861
3703.31015625,0.01277449
3705.23896362,0.01430802
3707.16777100,0.01355528
3709.09657837,0.01307561
3711.02538574,0.01206910
3712.95419312,0.01112736
3714.88300049,0.01355892
3716.81180786,0.01337338
3718.74061523,0.01348915
3720.66942261,0.01308493
3722.59822998,0.01248398
3724.52703735,0.01309053
3726.45584473,0.01195811
3728.38465210,0.01320100
3730.31345947,0.01304923
3732.24226685,0.01183286
3734.17107422,0.01143294
3736.09988159,0.01061865
3738.02868896,0.01152800
3739.95749634,0.01256536
3741.88630371,0.01326543
3743.81511108,0.01001213
3745.74391846,0.00913372
3747.67272583,0.01249173
3749.60153320,0.01053527
3751.53034058,0.00951342
3753.45914795,0.01129785
3755.38795532,0.01224388
3757.31676270,0.01274996
3759.24557007,0.01172361
3761.17437744,0.01225314
3763.10318481,0.01310442
3765.03199219,0.01201770
3766.96079956,0.01234994
3768.88960693,0.01228124
3770.81841431,0.01150243
3772.74722168,0.01263469
3774.67602905,0.01270030
3776.60483643,0.01267951
3778.53364380,0.01234122
3780.46245117,0.01162348
3782.39125854,0.01260683
3784.32006592,0.01235479
3786.24887329,0.01213835
3788.17768066,0.01250273
3790.10648804,0.01240575
3792.03529541,0.01226368
3793.96410278,0.01255632
3795.89291016,0.01165903
3797.82171753,0.01135488
3799.75052490,0.01221129
3801.67933228,0.00931310
3803.60813965,0.01113388
3805.53694702,0.01234356
3807.46575439,0.00964481
3809.39456177,0.01217976
3811.32336914,0.01189625
3813.25217651,0.01234635
3815.18098389,0.01102560
3817.10979126,0.00933798
3819.03859863,0.01240933
3820.96740601,0.00954005
3822.89621338,0.01010210
3824.82502075,0.01230496
3826.75382812,0.01085903
3828.68263550,0.01185626
3830.61144287,0.01133430
3832.54025024,0.01087523
3834.46905762,0.01103771
3836.39786499,0.01047802
3838.32667236,0.00942094
3840.25547974,0.01015533
3842.18428711,0.01113863
3844.11309448,0.01049249
3846.04190186,0.01143956
3847.97070923,0.01148417
3849.89951660,0.01147312
3851.82832397,0.01004560
3853.75713135,0.00713430
3855.68593872,0.00863760
3857.61474609,0.01130270
3859.54355347,0.01108231
3861.47236084,0.01089009
3863.40116821,0.01067595
3865.32997559,0.00977623
3867.25878296,0.01107830
3869.18759033,0.00995719
3871.11639770,0.00897600
3873.04520508,0.01104048
3874.97401245,0.00998645
3876.90281982,0.01095224
3878.83162720,0.01136836
3880.76043457,0.00942641
3882.68924194,0.01100172
3884.61804932,0.01029067
3886.54685669,0.00920458
3888.47566406,0.01106712
3890.40447144,0.01045479
3892.33327881,0.00959590
3894.26208618,0.01075645
3896.19089355,0.01094186
3898.11970093,0.01037161
3900.04850830,0.00967166
3901.97731567,0.00941650
3903.90612305,0.00941446
3905.83493042,0.00953666
3907.76373779,0.01073167
3909.69254517,0.01070283
3911.62135254,0.01048021
3913.55015991,0.01083656
3915.47896728,0.01035742
3917.40777466,0.01003932
3919.33658203,0.00992013
3921.26538940,0.01036584
3923.19419678,0.01034619
3925.12300415,0.01005051
3927.05181152,0.01029741
3928.98061890,0.01044472
3930.90942627,0.01021522
3932.83823364,0.00978656
3934.76704102,0.01036362
3936.69584839,0.01046575
3938.62465576,0.01032181
3940.55346313,0.01042667
3942.48227051,0.00980477
3944.41107788,0.00998297
3946.33988525,0.01015230
3948.26869263,0.00980671
3950.19750000,0.00991235
3952.12630737,0.01007471
3954.05511475,0.01011699
3955.98392212,0.01008546
3957.91272949,0.00997414
3959.84153687,0.00993684
3961.77034424,0.00989173
3963.69915161,0.00987205
3965.62795898,0.00999674
3967.55676636,0.00990980
3969.48557373,0.00988764
3971.41438110,0.00984033
3973.34318848,0.00981870
3975.27199585,0.00983256
3977.20080322,0.00975070
3979.12961060,0.00987760
3981.05841797,0.00975052
3982.98722534,0.00973785
3984.91603271,0.00971714
3986.84484009,0.00970771
3988.77364746,0.00971404
3990.70245483,0.00951784
3992.63126221,0.00965768
3994.56006958,0.00957634
3996.48887695,0.00964337
3998.41768433,0.00966774
4000.34649170,0.00951162
4002.27529907,0.00958222
4004.20410645,0.00950686
4006.13291382,0.00952421
4008.06172119,0.00940401
4009.99052856,0.00941593
4011.91933594,0.00941582
4013.84814331,0.00937667
4015.77695068,0.00943616
4017.70575806,0.00930075
4019.63456543,0.00931948
4021.56337280,0.00929850
4023.49218018,0.00928753
4025.42098755,0.00920924
4027.34979492,0.00924829
4029.27860229,0.00930860
4031.20740967,0.00918602
4033.13621704,0.00919308
4035.06502441,0.00911415
4036.99383179,0.00917102
4038.92263916,0.00914415
4040.85144653,0.00911946
4042.78025391,0.00917443
4044.70906128,0.00906792
4046.63786865,0.00900695
4048.56667603,0.00893517
4050.49548340,0.00894961
4052.42429077,0.00897267
4054.35309814,0.00899782
4056.28190552,0.00892091
4058.21071289,0.00889630
4060.13952026,0.00894665
4062.06832764,0.00887178
4063.99713501,0.00882080
4065.92594238,0.00880305
4067.85474976,0.00880434
4069.78355713,0.00870353
4071.71236450,0.00882416
4073.64117187,0.00879174
4075.56997925,0.00864153
4077.49878662,0.00871956
4079.42759399,0.00864084
4081.35640137,0.00864119
4083.28520874,0.00858750
4085.21401611,0.00865521
4087.14282349,0.00861600
4089.07163086,0.00848892
4091.00043823,0.00854610
4092.92924561,0.00846205
4094.85805298,0.00854373
4096.78686035,0.00847904
4098.71566772,0.00843345
4100.64447510,0.00844581
4102.57328247,0.00840598
4104.50208984,0.00843705
4106.43089722,0.00833806
4108.35970459,0.00843059
4110.28851196,0.00840233
4112.21731934,0.00831841
4114.14612671,0.00833281
4116.07493408,0.00824255
4118.00374145,0.00822618
4119.93254883,0.00830588
4121.86135620,0.00825880
4123.79016357,0.00817590
4125.71897095,0.00816421
4127.64777832,0.00803578
4129.57658569,0.00818874
4131.50539307,0.00816527
4133.43420044,0.00807940
4135.36300781,0.00813997
4137.29181519,0.00793576
4139.22062256,0.00805325
4141.14942993,0.00806095
4143.07823730,0.00803880
4145.00704468,0.00805748
4146.93585205,0.00796876
4148.86465942,0.00794450
4150.79346680,0.00785654
4152.72227417,0.00801590
4154.65108154,0.00789448
4156.57988892,0.00783544
4158.50869629,0.00792731
4160.43750366,0.00782830
4162.36631103,0.00783534
4164.29511841,0.00775418
4166.22392578,0.00776535
4168.15273315,0.00771878
4170.08154053,0.00770206
4172.01034790,0.00772078
4173.93915527,0.00774160
4175.86796265,0.00765371
4177.79677002,0.00752309
4179.72557739,0.00769393
4181.65438477,0.00759708
4183.58319214,0.00757114
4185.51199951,0.00753679
4187.44080688,0.00747996
4189.36961426,0.00762477
4191.29842163,0.00749804
4193.22722900,0.00751717
4195.15603638,0.00754714
4197.08484375,0.00750043
4199.01365112,0.00742573
4200.94245850,0.00743791
4202.87126587,0.00752816
4204.80007324,0.00733573
4206.72888062,0.00733687
4208.65768799,0.00735639
4210.58649536,0.00725886
4212.51530273,0.00725375
4214.44411011,0.00726094
4216.37291748,0.00733127
4218.30172485,0.00728757
4220.23053223,0.00721214
4222.15933960,0.00721415
4224.08814697,0.00720278
4226.01695435,0.00722732
4227.94576172,0.00719610
4229.87456909,0.00712069
4231.80337646,0.00720318
4233.73218384,0.00719354
4235.66099121,0.00710370
4237.58979858,0.00708305
4239.51860596,0.00708732
4241.44741333,0.00714045
4243.37622070,0.00705029
4245.30502808,0.00700737
4247.23383545,0.00697269
4249.16264282,0.00697355
4251.09145020,0.00702062
4253.02025757,0.00691251
4254.94906494,0.00691083
4256.87787231,0.00693876
4258.80667969,0.00696281
4260.73548706,0.00686680
4262.66429443,0.00678277
4264.59310181,0.00676343
4266.52190918,0.00674493
4268.45071655,0.00682649
4270.37952393,0.00669331
4272.30833130,0.00679829
4274.23713867,0.00686559
4276.16594604,0.00670961
4278.09475342,0.00682052
4280.02356079,0.00675803
4281.95236816,0.00667083
4283.88117554,0.00669173
4285.80998291,0.00671373
4287.73879028,0.00666783
4289.66759766,0.00661353
4291.59640503,0.00663538
4293.52521240,0.00654327
4295.45401978,0.00656070
4297.38282715,0.00654684
4299.31163452,0.00653888
4301.24044189,0.00659418
4303.16924927,0.00649089
4305.09805664,0.00647643
4307.02686401,0.00649478
4308.95567139,0.00645135
4310.88447876,0.00643323
4312.81328613,0.00643128
4314.74209351,0.00643331
4316.67090088,0.00642081
4318.59970825,0.00640202
4320.52851562,0.00638008
4322.45732300,0.00637730
4324.38613037,0.00634863
4326.31493774,0.00628146
4328.24374512,0.00629435
4330.17255249,0.00633320
4332.10135986,0.00626411
4334.03016724,0.00619884
4335.95897461,0.00624683
4337.88778198,0.00632568
4339.81658936,0.00625507
4341.74539673,0.00615595
4343.67420410,0.00616824
4345.60301147,0.00614679
4347.53181885,0.00611056
4349.46062622,0.00610684
4351.38943359,0.00611557
4353.31824097,0.00609059
4355.24704834,0.00608534
4357.17585571,0.00604100
4359.10466309,0.00599318
4361.03347046,0.00599995
4362.96227783,0.00595940
4364.89108520,0.00609091
4366.81989258,0.00609982
4368.74869995,0.00593776
4370.67750732,0.00590066
4372.60631470,0.00590657
4374.53512207,0.00597458
4376.46392944,0.00590842
4378.39273682,0.00588981
4380.32154419,0.00589877
4382.25035156,0.00581491
4384.17915894,0.00581403
4386.10796631,0.00582217
4388.03677368,0.00588711
4389.96558105,0.00583018
4391.89438843,0.00578373
4393.82319580,0.00580028
4395.75200317,0.00569920
4397.68081055,0.00570678
4399.60961792,0.00573893
4401.53842529,0.00572226
4403.46723267,0.00574427
4405.39604004,0.00571702
4407.32484741,0.00566123
4409.25365478,0.00565218
4411.18246216,0.00562413
4413.11126953,0.00563454
4415.04007690,0.00559552
4416.96888428,0.00556776
4418.89769165,0.00562859
4420.82649902,0.00553950
4422.75530640,0.00553972
4424.68411377,0.00556839
4426.61292114,0.00555477
4428.54172852,0.00556521
4430.47053589,0.00547737
4432.39934326,0.00544227
4434.32815063,0.00542318
4436.25695801,0.00547353
4438.18576538,0.00549426
4440.11457275,0.00548772
4442.04338013,0.00545628
4443.97218750,0.00537879
4445.90099487,0.00543040
4447.82980225,0.00539053
4449.75860962,0.00535746
4451.68741699,0.00533132
4453.61622437,0.00531737
4455.54503174,0.00535281
4457.47383911,0.00534753
4459.40264648,0.00539701
4461.33145386,0.00530726
4463.26026123,0.00527710
4465.18906860,0.00531960
4467.11787598,0.00522514
4469.04668335,0.00515020
4470.97549072,0.00512399
4472.90429810,0.00514596
4474.83310547,0.00519406
4476.76191284,0.00518734
4478.69072021,0.00515109
4480.61952759,0.00515779
4482.54833496,0.00508899
4484.47714233,0.00510685
4486.40594971,0.00515818
4488.33475708,0.00516468
4490.26356445,0.00517092
4492.19237183,0.00501142
4494.12117920,0.00504668
4496.04998657,0.00508210
4497.97879395,0.00503277
4499.90760132,0.00500729
4501.83640869,0.00493308
4503.76521606,0.00504360
4505.69402344,0.00496940
4507.62283081,0.00493397
4509.55163818,0.00494159
4511.48044556,0.00480896
4513.40925293,0.00490020
4515.33806030,0.00491749
4517.26686768,0.00494071
4519.19567505,0.00491060
4521.12448242,0.00478197
4523.05328979,0.00489827
4524.98209717,0.00489039
4526.91090454,0.00477927
4528.83971191,0.00481553
4530.76851929,0.00472934
4532.69732666,0.00469053
4534.62613403,0.00476378
4536.55494141,0.00471417
4538.48374878,0.00479885
4540.41255615,0.00483950
4542.34136353,0.00468779
4544.27017090,0.00469921
4546.19897827,0.00470822
4548.12778564,0.00463703
4550.05659302,0.00465616
4551.98540039,0.00462904
4553.91420776,0.00462247
4555.84301514,0.00468869
4557.77182251,0.00464102
4559.70062988,0.00463202
4561.62943726,0.00464154
4563.55824463,0.00462007
4565.48705200,0.00460740
4567.41585937,0.00459872
4569.34466675,0.00462274
4571.27347412,0.00448085
4573.20228149,0.00450163
4575.13108887,0.00461445
4577.05989624,0.00454652
4578.98870361,0.00446972
4580.91751099,0.00440577
4582.84631836,0.00445596
4584.77512573,0.00439760
4586.70393311,0.00441947
4588.63274048,0.00444233
4590.56154785,0.00441517
4592.49035522,0.00452744
4594.41916260,0.00438574
4596.34796997,0.00435322
4598.27677734,0.00440657
4600.20558472,0.00436088
4602.13439209,0.00429853
4604.06319946,0.00426038
4605.99200684,0.00433420
4607.92081421,0.00428157
4609.84962158,0.00431739
4611.77842895,0.00425196
4613.70723633,0.00419216
4615.63604370,0.00434925
4617.56485107,0.00436775
4619.49365845,0.00431899
4621.42246582,0.00424989
4623.35127319,0.00419203
4625.28008057,0.00412745
4627.20888794,0.00417086
4629.13769531,0.00419054
4631.06650269,0.00421963
4632.99531006,0.00423817
4634.92411743,0.00411304
4636.85292480,0.00419195
4638.78173218,0.00415889
4640.71053955,0.00414614
4642.63934692,0.00415505
4644.56815430,0.00405563
4646.49696167,0.00411995
4648.42576904,0.00408229
4650.35457642,0.00409534
4652.28338379,0.00406779
4654.21219116,0.00407593
4656.14099853,0.00413209
4658.06980591,0.00404574
4659.99861328,0.00407733
4661.92742065,0.00397114
4663.85622803,0.00389047
4665.78503540,0.00398191
4667.71384277,0.00396203
4669.64265015,0.00392902
4671.57145752,0.00389895
4673.50026489,0.00385929
4675.42907227,0.00392691
4677.35787964,0.00390010
4679.28668701,0.00382842
4681.21549438,0.00396344
4683.14430176,0.00392907
4685.07310913,0.00386978
4687.00191650,0.00393416
4688.93072388,0.00388932
4690.85953125,0.00387606
4692.78833862,0.00384031
4694.71714600,0.00379991
4696.64595337,0.00380375
4698.57476074,0.00381522
4700.50356812,0.00374109
4702.43237549,0.00372463
4704.36118286,0.00380676
4706.28999023,0.00374498
4708.21879761,0.00374250
4710.14760498,0.00375856
4712.07641235,0.00369344
4714.00521973,0.00365668
4715.93402710,0.00368363
4717.86283447,0.00372281
4719.79164185,0.00367523
4721.72044922,0.00366371
4723.64925659,0.00367885
4725.57806396,0.00366177
4727.50687134,0.00363599
4729.43567871,0.00362248
4731.36448608,0.00363512
4733.29329346,0.00361514
4735.22210083,0.00355028
4737.15090820,0.00359138
4739.07971558,0.00364262
4741.00852295,0.00358334
4742.93733032,0.00360199
4744.86613770,0.00358483
4746.79494507,0.00356875
4748.72375244,0.00355490
4750.65255981,0.00351910
4752.58136719,0.00355954
4754.51017456,0.00353116
4756.43898193,0.00354625
4758.36778931,0.00353378
4760.29659668,0.00350119
4762.22540405,0.00352105
4764.15421143,0.00351412
4766.08301880,0.00349341
4768.01182617,0.00347102
4769.94063354,0.00345713
4771.86944092,0.00336004
4773.79824829,0.00342806
4775.72705566,0.00346775
4777.65586304,0.00337910
4779.58467041,0.00341594
4781.51347778,0.00337559
4783.44228516,0.00336179
4785.37109253,0.00336390
4787.29989990,0.00331967
4789.22870728,0.00328320
4791.15751465,0.00333134
4793.08632202,0.00338758
4795.01512939,0.00332783
4796.94393677,0.00330656
4798.87274414,0.00330800
4800.80155151,0.00332388
4802.73035889,0.00326011
4804.65916626,0.00330877
4806.58797363,0.00334107
4808.51678101,0.00322486
4810.44558838,0.00325178
4812.37439575,0.00324500
4814.30320312,0.00331123
4816.23201050,0.00326440
4818.16081787,0.00317423
4820.08962524,0.00324768
4822.01843262,0.00319335
4823.94723999,0.00318278
4825.87604736,0.00313204
4827.80485474,0.00310282
4829.73366211,0.00316211
4831.66246948,0.00316246
4833.59127686,0.00322034
4835.52008423,0.00318196
4837.44889160,0.00307364
4839.37769897,0.00312335
4841.30650635,0.00308594
4843.23531372,0.00304665
4845.16412109,0.00313893
4847.09292847,0.00302926
4849.02173584,0.00305263
4850.95054321,0.00307962
4852.87935059,0.00298967
4854.80815796,0.00301094
4856.73696533,0.00296995
4858.66577270,0.00305636
4860.59458008,0.00300747
4862.52338745,0.00302587
4864.45219482,0.00308377
4866.38100220,0.00298029
4868.30980957,0.00300488
4870.23861694,0.00295012
4872.16742432,0.00300317
4874.09623169,0.00291368
4876.02503906,0.00292685
4877.95384644,0.00302953
4879.88265381,0.00290038
4881.81146118,0.00296574
4883.74026855,0.00289813
4885.66907593,0.00293864
4887.59788330,0.00294200
4889.52669067,0.00288216
4891.45549805,0.00296113
4893.38430542,0.00286059
4895.31311279,0.00292366
4897.24192017,0.00286114
4899.17072754,0.00277996
4901.09953491,0.00285197
4903.02834228,0.00286235
4904.95714966,0.00284734
4906.88595703,0.00277777
4908.81476440,0.00285613
4910.74357178,0.00285403
4912.67237915,0.00276463
4914.60118652,0.00277721
4916.52999390,0.00284358
4918.45880127,0.00279669
4920.38760864,0.00273956
4922.31641602,0.00276777
4924.24522339,0.00265925
4926.17403076,0.00267360
4928.10283813,0.00270347
4930.03164551,0.00268905
4931.96045288,0.00274743
4933.88926025,0.00271224
4935.81806763,0.00263600
4937.74687500,0.00267764
4939.67568237,0.00274258
4941.60448975,0.00261941
4943.53329712,0.00264202
4945.46210449,0.00265094
4947.39091187,0.00257677
4949.31971924,0.00267729
4951.24852661,0.00267181
4953.17733398,0.00261466
4955.10614136,0.00259639
4957.03494873,0.00264134
4958.96375610,0.00266988
4960.89256348,0.00263937
4962.82137085,0.00262391
4964.75017822,0.00262758
4966.67898560,0.00255250
4968.60779297,0.00251192
4970.53660034,0.00265752
4972.46540771,0.00254456
4974.39421509,0.00252523
4976.32302246,0.00267065
4978.25182983,0.00258700
4980.18063721,0.00257000
4982.10944458,0.00252840
4984.03825195,0.00251668
4985.96705933,0.00251939
4987.89586670,0.00247341
4989.82467407,0.00246611
4991.75348145,0.00243600
4993.68228882,0.00239616
4995.61109619,0.00244112
4997.53990356,0.00253347
4999.46871094,0.00247734
5001.39751831,0.00249896
5003.32632568,0.00244995
5005.25513306,0.00237929
5007.18394043,0.00245859
5009.11274780,0.00239278
5011.04155518,0.00234971
5012.97036255,0.00236428
5014.89916992,0.00244580
5016.82797729,0.00247220
5018.75678467,0.00242090
5020.68559204,0.00236298
5022.61439941,0.00235655
5024.54320679,0.00243559
5026.47201416,0.00234726
5028.40082153,0.00238886
5030.32962891,0.00234882
5032.25843628,0.00225725
5034.18724365,0.00233981
5036.11605103,0.00236912
5038.04485840,0.00247652
5039.97366577,0.00232877
5041.90247314,0.00226686
5043.83128052,0.00233211
5045.76008789,0.00225953
5047.68889526,0.00232106
5049.61770264,0.00225228
5051.54651001,0.00225069
5053.47531738,0.00223889
5055.40412476,0.00225815
5057.33293213,0.00238137
5059.26173950,0.00225721
5061.19054687,0.00225295
5063.11935425,0.00226447
5065.04816162,0.00220215
5066.97696899,0.00223576
5068.90577637,0.00216616
5070.83458374,0.00213827
5072.76339111,0.00219147
5074.69219849,0.00219921
5076.62100586,0.00221110
5078.54981323,0.00217718
5080.47862061,0.00218246
5082.40742798,0.00224525
5084.33623535,0.00214032
5086.26504272,0.00209953
5088.19385010,0.00215818
5090.12265747,0.00212732
5092.05146484,0.00212986
5093.98027222,0.00207538
5095.90907959,0.00210785
5097.83788696,0.00219662
5099.76669434,0.00207641
5101.69550171,0.00201428
5103.62430908,0.00207933
5105.55311645,0.00208836
5107.48192383,0.00207486
5109.41073120,0.00205474
5111.33953857,0.00203114
5113.26834595,0.00204885
5115.19715332,0.00204180
5117.12596069,0.00204928
5119.05476807,0.00206539
5120.98357544,0.00201063
5122.91238281,0.00204221
5124.84119019,0.00208335
5126.76999756,0.00201323
5128.69880493,0.00198091
5130.62761230,0.00200689
5132.55641968,0.00198554
5134.48522705,0.00194795
5136.41403442,0.00199384
5138.34284180,0.00200888
5140.27164917,0.00200309
5142.20045654,0.00202768
5144.12926392,0.00198529
5146.05807129,0.00198544
5147.98687866,0.00202680
5149.91568603,0.00203417
5151.84449341,0.00200701
5153.77330078,0.00195419
5155.70210815,0.00196683
5157.63091553,0.00196585
5159.55972290,0.00192119
5161.48853027,0.00189811
5163.41733765,0.00184988
5165.34614502,0.00183621
5167.27495239,0.00189953
5169.20375977,0.00188462
5171.13256714,0.00184291
5173.06137451,0.00189362
5174.99018188,0.00187247
5176.91898926,0.00184752
5178.84779663,0.00187191
5180.77660400,0.00186930
5182.70541138,0.00188297
5184.63421875,0.00186558
5186.56302612,0.00185420
5188.49183350,0.00177816
5190.42064087,0.00177094
5192.34944824,0.00189663
5194.27825562,0.00184048
5196.20706299,0.00180184
5198.13587036,0.00190036
5200.06467773,0.00185870
5201.99348511,0.00175093
5203.92229248,0.00179941
5205.85109985,0.00184392
5207.77990723,0.00178582
5209.70871460,0.00174692
5211.63752197,0.00179782
5213.56632935,0.00191121
5215.49513672,0.00182395
5217.42394409,0.00177471
5219.35275146,0.00181777
5221.28155884,0.00175807
5223.21036621,0.00179468
5225.13917358,0.00172737
5227.06798096,0.00168441
5228.99678833,0.00174779
5230.92559570,0.00174931
5232.85440308,0.00171580
5234.78321045,0.00166569
5236.71201782,0.00171175
5238.64082520,0.00167620
5240.56963257,0.00173633
5242.49843994,0.00175734
5244.42724731,0.00159929
5246.35605469,0.00164711
5248.28486206,0.00160506
5250.21366943,0.00159127
5252.14247681,0.00171944
5254.07128418,0.00169400
5256.00009155,0.00168429
5257.92889893,0.00166570
5259.85770630,0.00158501
5261.78651367,0.00159490
5263.71532104,0.00159359
5265.64412842,0.00157481
5267.57293579,0.00167990
5269.50174316,0.00166129
5271.43055054,0.00156854
5273.35935791,0.00158829
5275.28816528,0.00163841
5277.21697266,0.00166271
5279.14578003,0.00156626
5281.07458740,0.00159413
5283.00339478,0.00163552
5284.93220215,0.00157304
5286.86100952,0.00163049
5288.78981689,0.00162091
5290.71862427,0.00156367
5292.64743164,0.00155585
5294.57623901,0.00158197
5296.50504639,0.00157853
5298.43385376,0.00155260
5300.36266113,0.00155128
5302.29146851,0.00152523
5304.22027588,0.00158996
5306.14908325,0.00154472
5308.07789062,0.00147528
5310.00669800,0.00156664
5311.93550537,0.00153456
5313.86431274,0.00152567
5315.79312012,0.00154574
5317.72192749,0.00152875
5319.65073486,0.00155509
5321.57954224,0.00148392
5323.50834961,0.00149754
5325.43715698,0.00151771
5327.36596436,0.00144129
5329.29477173,0.00149154
5331.22357910,0.00153702
5333.15238647,0.00148740
5335.08119385,0.00142723
5337.01000122,0.00147317
5338.93880859,0.00141908
5340.86761597,0.00135832
5342.79642334,0.00153480
5344.72523071,0.00145707
5346.65403809,0.00137068
5348.58284546,0.00147149
5350.51165283,0.00147591
5352.44046020,0.00143869
5354.36926758,0.00132898
5356.29807495,0.00140732
5358.22688232,0.00144592
5360.15568970,0.00136747
5362.08449707,0.00139896
5364.01330444,0.00136910
5365.94211182,0.00140521
5367.87091919,0.00143591
5369.79972656,0.00143626
5371.72853394,0.00140547
5373.65734131,0.00138929
5375.58614868,0.00140537
5377.51495605,0.00132854
5379.44376343,0.00136715
5381.37257080,0.00142018
5383.30137817,0.00144512
5385.23018555,0.00139348
5387.15899292,0.00129360
5389.08780029,0.00130694
5391.01660767,0.00130627
5392.94541504,0.00138169
5394.87422241,0.00133002
5396.80302978,0.00126473
5398.73183716,0.00140762
5400.66064453,0.00138959
5402.58945190,0.00133763
5404.51825928,0.00135386
5406.44706665,0.00135156
5408.37587402,0.00133190
5410.30468140,0.00122768
5412.23348877,0.00126154
5414.16229614,0.00129333
5416.09110352,0.00121094
5418.01991089,0.00130408
5419.94871826,0.00131801
5421.87752563,0.00128800
5423.80633301,0.00130815
5425.73514038,0.00124540
5427.66394775,0.00128540
5429.59275513,0.00121818
5431.52156250,0.00125623
5433.45036987,0.00132394
5435.37917725,0.00111600
5437.30798462,0.00117439
5439.23679199,0.00125169
5441.16559936,0.00122936
5443.09440674,0.00129655
5445.02321411,0.00121916
5446.95202148,0.00119608
5448.88082886,0.00119081
5450.80963623,0.00117147
5452.73844360,0.00124063
5454.66725098,0.00119764
5456.59605835,0.00116268
5458.52486572,0.00124004
5460.45367310,0.00122977
5462.38248047,0.00117701
5464.31128784,0.00121191
5466.24009521,0.00126856
5468.16890259,0.00118641
5470.09770996,0.00112276
5472.02651733,0.00120280
5473.95532471,0.00115761
5475.88413208,0.00114037
5477.81293945,0.00119928
5479.74174683,0.00120181
5481.67055420,0.00117542
5483.59936157,0.00112132
5485.52816895,0.00118617
5487.45697632,0.00115503
5489.38578369,0.00114379
5491.31459106,0.00122167
5493.24339844,0.00114927
5495.17220581,0.00114525
5497.10101318,0.00114805
5499.02982056,0.00114023
5500.95862793,0.00111964
5502.88743530,0.00110362
5504.81624268,0.00114422
5506.74505005,0.00110614
5508.67385742,0.00108587
5510.60266479,0.00107420
5512.53147217,0.00112231
5514.46027954,0.00114692
5516.38908691,0.00106793
5518.31789429,0.00105254
5520.24670166,0.00112341
5522.17550903,0.00114510
5524.10431641,0.00103585
5526.03312378,0.00107459
5527.96193115,0.00108505
5529.89073853,0.00101889
5531.81954590,0.00112366
5533.74835327,0.00109419
5535.67716064,0.00106509
5537.60596802,0.00108160
5539.53477539,0.00100532
5541.46358276,0.00104440
5543.39239014,0.00107176
5545.32119751,0.00108644
5547.25000488,0.00112106
5549.17881226,0.00104626
5551.10761963,0.00103270
5553.03642700,0.00106460
5554.96523437,0.00105503
5556.89404175,0.00106448
5558.82284912,0.00101835
5560.75165649,0.00098947
5562.68046387,0.00100866
5564.60927124,0.00101099
5566.53807861,0.00100353
5568.46688599,0.00099475
5570.39569336,0.00102684
5572.32450073,0.00104099
5574.25330811,0.00101028
5576.18211548,0.00101499
5578.11092285,0.00106290
5580.03973022,0.00100269
5581.96853760,0.00095726
5583.89734497,0.00102153
5585.82615234,0.00100199
5587.75495972,0.00100780
5589.68376709,0.00101703
5591.61257446,0.00099415
5593.54138184,0.00095500
5595.47018921,0.00089314
5597.39899658,0.00093697
5599.32780395,0.00098022
5601.25661133,0.00097301
5603.18541870,0.00095531
5605.11422607,0.00097701
5607.04303345,0.00095356
5608.97184082,0.00096161
5610.90064819,0.00099757
5612.82945557,0.00091227
5614.75826294,0.00097835
5616.68707031,0.00094522
5618.61587769,0.00090309
5620.54468506,0.00104487
5622.47349243,0.00095770
5624.40229980,0.00094166
5626.33110718,0.00101888
5628.25991455,0.00093922
5630.18872192,0.00092133
5632.11752930,0.00098138
5634.04633667,0.00091746
5635.97514404,0.00091528
5637.90395142,0.00100098
5639.83275879,0.00086624
5641.76156616,0.00085803
5643.69037353,0.00094940
5645.61918091,0.00094079
5647.54798828,0.00090811
5649.47679565,0.00082020
5651.40560303,0.00088414
5653.33441040,0.00088388
5655.26321777,0.00084747
5657.19202515,0.00084553
5659.12083252,0.00082125
5661.04963989,0.00090428
5662.97844727,0.00081385
5664.90725464,0.00082873
5666.83606201,0.00091755
5668.76486938,0.00083359
5670.69367676,0.00090636
5672.62248413,0.00087087
5674.55129150,0.00078770
5676.48009888,0.00082232
5678.40890625,0.00079080
5680.33771362,0.00083657
5682.26652100,0.00090664
5684.19532837,0.00093293
5686.12413574,0.00087737
5688.05294311,0.00083472
5689.98175049,0.00086685
5691.91055786,0.00079124
5693.83936523,0.00077582
5695.76817261,0.00082284
5697.69697998,0.00082918
5699.62578735,0.00081556
5701.55459473,0.00081044
5703.48340210,0.00086393
5705.41220947,0.00082647
5707.34101685,0.00081699
5709.26982422,0.00080599
5711.19863159,0.00078089
5713.12743896,0.00087329
5715.05624634,0.00083315
5716.98505371,0.00076713
5718.91386108,0.00078710
5720.84266846,0.00081860
5722.77147583,0.00084498
5724.70028320,0.00083376
5726.62909058,0.00083192
5728.55789795,0.00078556
5730.48670532,0.00077458
5732.41551270,0.00078091
5734.34432007,0.00077183
5736.27312744,0.00076221
5738.20193481,0.00072405
5740.13074219,0.00079020
5742.05954956,0.00080790
5743.98835693,0.00074654
5745.91716431,0.00076100
5747.84597168,0.00072877
5749.77477905,0.00073157
5751.70358643,0.00078768
5753.63239380,0.00075671
5755.56120117,0.00079116
5757.49000854,0.00076545
5759.41881592,0.00071129
5761.34762329,0.00081108
5763.27643066,0.00073100
5765.20523804,0.00067822
5767.13404541,0.00074006
5769.06285278,0.00068861
5770.99166016,0.00069299
5772.92046753,0.00071201
5774.84927490,0.00077972
5776.77808228,0.00079144
5778.70688965,0.00073625
5780.63569702,0.00072609
5782.56450439,0.00066659
5784.49331177,0.00066260
5786.42211914,0.00069666
5788.35092651,0.00072349
5790.27973389,0.00068643
5792.20854126,0.00065344
5794.13734863,0.00073332
5796.06615601,0.00079332
5797.99496338,0.00070830
5799.92377075,0.00059214
5801.85257812,0.00064003
5803.78138550,0.00067168
5805.71019287,0.00069378
5807.63900024,0.00071759
5809.56780762,0.00071131
5811.49661499,0.00073105
5813.42542236,0.00072326
5815.35422974,0.00072168
5817.28303711,0.00058891
5819.21184448,0.00062376
5821.14065186,0.00072539
5823.06945923,0.00066480
5824.99826660,0.00071849
5826.92707397,0.00068491
5828.85588135,0.00071338
5830.78468872,0.00072183
5832.71349609,0.00063926
5834.64230347,0.00066564
5836.57111084,0.00065663
5838.49991821,0.00066295
5840.42872559,0.00063343
5842.35753296,0.00067561
5844.28634033,0.00063632
5846.21514770,0.00059964
5848.14395508,0.00069762
5850.07276245,0.00057842
5852.00156982,0.00059176
5853.93037720,0.00067390
5855.85918457,0.00059021
5857.78799194,0.00056319
5859.71679932,0.00062527
5861.64560669,0.00066301
5863.57441406,0.00061012
5865.50322144,0.00066489
5867.43202881,0.00064421
5869.36083618,0.00055942
5871.28964355,0.00060644
5873.21845093,0.00058671
5875.14725830,0.00057100
5877.07606567,0.00062593
5879.00487305,0.00062001
5880.93368042,0.00059595
5882.86248779,0.00064909
5884.79129517,0.00062782
5886.72010254,0.00058617
5888.64890991,0.00060574
5890.57771728,0.00056518
5892.50652466,0.00057842
5894.43533203,0.00059852
5896.36413940,0.00054393
5898.29294678,0.00057602
5900.22175415,0.00067719
5902.15056152,0.00061593
5904.07936890,0.00053064
5906.00817627,0.00055995
5907.93698364,0.00056717
5909.86579102,0.00056047
5911.79459839,0.00049333
5913.72340576,0.00050285
5915.65221313,0.00053506
5917.58102051,0.00050451
5919.50982788,0.00055110
5921.43863525,0.00060366
5923.36744263,0.00060900
5925.29625000,0.00047747
5927.22505737,0.00050307
5929.15386475,0.00061483
5931.08267212,0.00054328
5933.01147949,0.00053766
5934.94028686,0.00054201
5936.86909424,0.00058090
5938.79790161,0.00055379
5940.72670898,0.00051811
5942.65551636,0.00054254
5944.58432373,0.00048585
5946.51313110,0.00055424
5948.44193848,0.00057365
5950.37074585,0.00054333
5952.29955322,0.00055607
5954.22836060,0.00054605
5956.15716797,0.00049000
5958.08597534,0.00044871
5960.01478271,0.00054440
5961.94359009,0.00047724
5963.87239746,0.00047375
5965.80120483,0.00053416
5967.73001221,0.00046685
5969.65881958,0.00052227
5971.58762695,0.00050940
5973.51643433,0.00053848
5975.44524170,0.00058332
5977.37404907,0.00055463
5979.30285645,0.00052299
5981.23166382,0.00041984
5983.16047119,0.00047378
5985.08927856,0.00052061
5987.01808594,0.00046496
5988.94689331,0.00046365
5990.87570068,0.00049751
5992.80450806,0.00051784
5994.73331543,0.00048132
5996.66212280,0.00052509
5998.59093018,0.00050178
6000.51973755,0.00040948
