399.26312622,0.00024571
401.19193359,0.00013639
403.12074097,0.00030610
405.04954834,0.00004344
406.97835571,-0.00003261
408.90716309,0.00006669
410.83597046,0.00019744
412.76477783,0.00009290
414.69358521,0.00008652
416.62239258,0.00018862
418.55119995,-0.00024092
420.48000732,0.00005909
422.40881470,0.00004294
424.33762207,-0.00002312
426.26642944,0.00027071
428.19523682,0.00008262
430.12404419,0.00007185
432.05285156,0.00014068
433.98165894,0.00007227
435.91046631,0.00005204
437.83927368,0.00013082
439.76808105,0.00010000
441.69688843,0.00024770
443.62569580,0.00021672
445.55450317,0.00008983
447.48331055,0.00029108
449.41211792,0.00005829
451.34092529,0.00014704
453.26973267,0.00012678
455.19854004,-0.00001043
457.12734741,0.00046438
459.05615479,0.00017906
460.98496216,0.00002866
462.91376953,0.00010038
464.84257690,0.00002236
466.77138428,0.00025470
468.70019165,-0.00006844
470.62899902,-0.00002386
472.55780640,0.00013309
474.48661377,0.00001483
476.41542114,0.00009495
478.34422852,0.00008213
480.27303589,0.00027678
482.20184326,0.00020569
484.13065063,0.00011427
486.05945801,0.00011227
487.98826538,0.00023719
489.91707275,0.00032684
491.84588013,-0.00000080
493.77468750,0.00003828
495.70349487,0.00016572
497.63230225,0.00015640
499.56110962,0.00005972
501.48991699,0.00016685
503.41872437,0.00027208
505.34753174,-0.00003434
507.27633911,0.00020304
509.20514648,0.00029856
511.13395386,-0.00002715
513.06276123,0.00013703
514.99156860,0.00011772
516.92037598,0.00007181
518.84918335,0.00021162
520.77799072,0.00014743
522.70679810,0.00013787
524.63560547,0.00009003
526.56441284,-0.00000700
528.49322021,-0.00000128
530.42202759,0.00014981
532.35083496,0.00007291
534.27964233,-0.00003150
536.20844971,0.00018226
538.13725708,0.00025226
540.06606445,0.00026319
541.99487183,0.00006556
543.92367920,-0.00011231
545.85248657,0.00020573
547.78129395,0.00029962
549.71010132,0.00012302
551.63890869,0.00013006
553.56771606,0.00002617
555.49652344,-0.00006816
557.42533081,0.00020694
559.35413818,0.00020598
561.28294556,-0.00004506
563.21175293,0.00005196
565.14056030,-0.00009507
567.06936768,-0.00024405
568.99817505,-0.00011190
570.92698242,-0.00003805
572.85578979,0.00007770
574.78459717,0.00006807
576.71340454,0.00009342
578.64221191,0.00012880
580.57101929,-0.00002423
582.49982666,0.00014031
584.42863403,0.00011144
586.35744141,0.00020850
588.28624878,0.00040954
590.21505615,0.00007851
592.14386353,0.00021963
594.07267090,0.00019676
596.00147827,0.00011190
597.93028564,0.00011603
599.85909302,-0.00028856
601.78790039,-0.00003760
603.71670776,0.00022665
605.64551514,0.00014365
607.57432251,-0.00010573
609.50312988,-0.00002535
611.43193726,0.00022611
613.36074463,0.00000586
615.28955200,0.00012459
617.21835938,0.00005822
619.14716675,0.00011906
621.07597412,0.00019094
623.00478149,0.00009569
624.93358887,0.00004212
626.86239624,0.00002545
628.79120361,0.00018559
630.72001099,0.00029670
632.64881836,0.00029539
634.57762573,-0.00010673
636.50643311,0.00014591
638.43524048,0.00008468
640.36404785,0.00001123
642.29285522,0.00021408
644.22166260,0.00007905
646.15046997,0.00019226
648.07927734,0.00018631
650.00808472,0.00011869
651.93689209,0.00000968
653.86569946,-0.00007232
655.79450684,0.00016616
657.72331421,0.00027998
659.65212158,0.00011921
661.58092896,0.00014685
663.50973633,0.00023990
665.43854370,0.00013461
667.36735107,0.00015448
669.29615845,0.00009742
671.22496582,0.00029185
673.15377319,0.00042756
675.08258057,0.00016809
677.01138794,0.00011032
678.94019531,0.00012480
680.86900269,0.00020659
682.79781006,0.00016397
684.72661743,0.00010986
686.65542480,0.00020498
688.58423218,0.00024775
690.51303955,0.00018976
692.44184692,0.00008050
694.37065430,0.00030208
696.29946167,0.00044263
698.22826904,0.00028258
700.15707642,0.00035640
702.08588379,0.00042697
704.01469116,0.00008085
705.94349854,0.00007579
707.87230591,0.00037413
709.80111328,0.00016399
711.72992065,0.00007054
713.65872803,0.00013291
715.58753540,0.00002293
717.51634277,-0.00003913
719.44515015,0.00004098
721.37395752,0.00031421
723.30276489,0.00019230
725.23157227,0.00014537
727.16037964,0.00034379
729.08918701,-0.00005132
731.01799438,0.00006030
732.94680176,0.00034359
734.87560913,-0.00006830
736.80441650,0.00000270
738.73322388,0.00003084
740.66203125,-0.00005087
742.59083862,0.00014660
744.51964600,-0.00001045
746.44845337,0.00003130
748.37726074,0.00029304
750.30606812,0.00026266
752.23487549,0.00009295
754.16368286,0.00013951
756.09249023,0.00029324
758.02129761,0.00018224
759.95010498,0.00009229
761.87891235,0.00016042
763.80771973,0.00026834
765.73652710,0.00027470
767.66533447,0.00027453
769.59414185,0.00030594
771.52294922,0.00016892
773.45175659,0.00005197
775.38056396,0.00001390
777.30937134,0.00010717
779.23817871,0.00018549
781.16698608,0.00019458
783.09579346,0.00013964
785.02460083,0.00005147
786.95340820,0.00023420
788.88221558,0.00012006
790.81102295,0.00010430
792.73983032,0.00037134
794.66863770,0.00016564
796.59744507,0.00011604
798.52625244,0.00012584
800.45505981,0.00022133
802.38386719,0.00034618
804.31267456,0.00013546
806.24148193,0.00027677
808.17028931,0.00024465
810.09909668,0.00017880
812.02790405,0.00027492
813.95671143,0.00006872
815.88551880,0.00022165
817.81432617,0.00038407
819.74313354,0.00024079
821.67194092,0.00017524
823.60074829,0.00016849
825.52955566,0.00013740
827.45836304,0.00015037
829.38717041,0.00019365
831.31597778,0.00019147
833.24478516,0.00026758
835.17359253,0.00024367
837.10239990,0.00018554
839.03120728,0.00009169
840.96001465,0.00021973
842.88882202,0.00037057
844.81762939,0.00012065
846.74643677,0.00037716
848.67524414,0.00048885
850.60405151,0.00019322
852.53285889,0.00024582
854.46166626,0.00014141
856.39047363,0.00015602
858.31928101,0.00035160
860.24808838,0.00027153
862.17689575,0.00010217
864.10570313,0.00020564
866.03451050,0.00021525
867.96331787,0.00008642
869.89212524,0.00020038
871.82093262,0.00020865
873.74973999,0.00034704
875.67854736,0.00037845
877.60735474,0.00024703
879.53616211,0.00034169
881.46496948,0.00023472
883.39377686,0.00004714
885.32258423,0.00011339
887.25139160,0.00033003
889.18019897,0.00019718
891.10900635,0.00020732
893.03781372,0.00024620
894.96662109,-0.00008849
896.89542847,0.00023049
898.82423584,0.00033696
900.75304321,0.00016301
902.68185059,0.00032634
904.61065796,0.00021473
906.53946533,0.00034406
908.46827271,0.00027856
910.39708008,0.00011270
912.32588745,0.00024072
914.25469482,0.00025934
916.18350220,0.00037955
918.11230957,0.00021248
920.04111694,0.00010191
921.96992432,0.00029429
923.89873169,0.00051326
925.82753906,0.00056971
927.75634644,0.00038018
929.68515381,0.00042900
931.61396118,0.00025862
933.54276855,0.00033226
935.47157593,0.00062758
937.40038330,0.00036194
939.32919067,0.00030155
941.25799805,0.00028558
943.18680542,0.00031276
945.11561279,0.00031656
947.04442017,0.00022118
948.97322754,0.00039936
950.90203491,0.00040142
952.83084229,0.00052877
954.75964966,0.00049319
956.68845703,0.00039990
958.61726440,0.00056932
960.54607178,0.00038216
962.47487915,0.00039361
964.40368652,0.00038474
966.33249390,0.00026162
968.26130127,0.00042789
970.19010864,0.00043692
972.11891602,0.00030886
974.04772339,0.00023192
975.97653076,0.00033328
977.90533813,0.00041435
979.83414551,0.00046713
981.76295288,0.00053749
983.69176025,0.00056536
985.62056763,0.00053954
987.54937500,0.00047220
989.47818237,0.00053016
991.40698975,0.00049038
993.33579712,0.00051211
995.26460449,0.00054847
997.19341187,0.00063810
999.12221924,0.00067940
1001.05102661,0.00060414
1002.97983398,0.00076145
1004.90864136,0.00068050
1006.83744873,0.00082323
1008.76625610,0.00082250
1010.69506348,0.00064527
1012.62387085,0.00088105
1014.55267822,0.00075130
1016.48148560,0.00093685
1018.41029297,0.00088802
1020.33910034,0.00084544
1022.26790771,0.00131323
1024.19671509,0.00103348
1026.12552246,0.00110263
1028.05432983,0.00116080
1029.98313721,0.00101709
1031.91194458,0.00129754
1033.84075195,0.00116116
1035.76955933,0.00108479
1037.69836670,0.00103579
1039.62717407,0.00103027
1041.55598145,0.00120996
1043.48478882,0.00123352
1045.41359619,0.00123474
1047.34240356,0.00124859
1049.27121094,0.00129821
1051.20001831,0.00114138
1053.12882568,0.00115746
1055.05763306,0.00123700
1056.98644043,0.00109821
1058.91524780,0.00116069
1060.84405518,0.00106409
1062.77286255,0.00101377
1064.70166992,0.00106354
1066.63047729,0.00087554
1068.55928467,0.00086891
1070.48809204,0.00093951
1072.41689941,0.00100919
1074.34570679,0.00105085
1076.27451416,0.00086403
1078.20332153,0.00075165
1080.13212891,0.00074447
1082.06093628,0.00081466
1083.98974365,0.00083575
1085.91855103,0.00070700
1087.84735840,0.00077301
1089.77616577,0.00070450
1091.70497314,0.00060262
1093.63378052,0.00079029
1095.56258789,0.00072651
1097.49139526,0.00060158
1099.42020264,0.00072690
1101.34901001,0.00072856
1103.27781738,0.00066964
1105.20662476,0.00075180
1107.13543213,0.00068786
1109.06423950,0.00072918
1110.99304687,0.00083538
1112.92185425,0.00071498
1114.85066162,0.00078453
1116.77946899,0.00069072
1118.70827637,0.00065632
1120.63708374,0.00087599
1122.56589111,0.00073942
1124.49469849,0.00074355
1126.42350586,0.00075006
1128.35231323,0.00056145
1130.28112061,0.00077838
1132.20992798,0.00091570
1134.13873535,0.00079350
1136.06754272,0.00091108
1137.99635010,0.00088921
1139.92515747,0.00080356
1141.85396484,0.00086722
1143.78277222,0.00085791
1145.71157959,0.00101525
1147.64038696,0.00106182
1149.56919434,0.00100220
1151.49800171,0.00097374
1153.42680908,0.00097169
1155.35561646,0.00114617
1157.28442383,0.00109285
1159.21323120,0.00107819
1161.14203857,0.00112152
1163.07084595,0.00110764
1164.99965332,0.00121343
1166.92846069,0.00116992
1168.85726807,0.00122920
1170.78607544,0.00126440
1172.71488281,0.00124678
1174.64369019,0.00145029
1176.57249756,0.00146929
1178.50130493,0.00131576
1180.43011230,0.00142056
1182.35891968,0.00155888
1184.28772705,0.00142523
1186.21653442,0.00150621
1188.14534180,0.00171457
1190.07414917,0.00174535
1192.00295654,0.00186977
1193.93176392,0.00182070
1195.86057129,0.00174565
1197.78937866,0.00192275
1199.71818604,0.00188941
1201.64699341,0.00194334
1203.57580078,0.00226012
1205.50460815,0.00225887
1207.43341553,0.00217680
1209.36222290,0.00236248
1211.29103027,0.00256400
1213.21983765,0.00255882
1215.14864502,0.00259089
1217.07745239,0.00254390
1219.00625977,0.00234802
1220.93506714,0.00253960
1222.86387451,0.00259391
1224.79268188,0.00259931
1226.72148926,0.00274928
1228.65029663,0.00273718
1230.57910400,0.00286694
1232.50791138,0.00268255
1234.43671875,0.00270885
1236.36552612,0.00277951
1238.29433350,0.00261450
1240.22314087,0.00277012
1242.15194824,0.00253125
1244.08075562,0.00269227
1246.00956299,0.00288283
1247.93837036,0.00266704
1249.86717773,0.00281553
1251.79598511,0.00260951
1253.72479248,0.00262280
1255.65359985,0.00259554
1257.58240723,0.00242695
1259.51121460,0.00263869
1261.44002197,0.00248286
1263.36882935,0.00254470
1265.29763672,0.00265862
1267.22644409,0.00253772
1269.15525146,0.00258426
1271.08405884,0.00237088
1273.01286621,0.00225542
1274.94167358,0.00242680
1276.87048096,0.00229954
1278.79928833,0.00212072
1280.72809570,0.00223383
1282.65690308,0.00224980
1284.58571045,0.00222579
1286.51451782,0.00212778
1288.44332520,0.00200955
1290.37213257,0.00209067
1292.30093994,0.00205937
1294.22974731,0.00211174
1296.15855469,0.00206157
1298.08736206,0.00208483
1300.01616943,0.00216425
1301.94497681,0.00189160
1303.87378418,0.00206343
1305.80259155,0.00212517
1307.73139893,0.00205103
1309.66020630,0.00211975
1311.58901367,0.00192749
1313.51782104,0.00233700
1315.44662842,0.00237816
1317.37543579,0.00200221
1319.30424316,0.00232268
1321.23305054,0.00251244
1323.16185791,0.00257798
1325.09066528,0.00259286
1327.01947266,0.00260691
1328.94828003,0.00268277
1330.87708740,0.00265743
1332.80589478,0.00277109
1334.73470215,0.00277218
1336.66350952,0.00282998
1338.59231689,0.00277461
1340.52112427,0.00273639
1342.44993164,0.00303406
1344.37873901,0.00288931
1346.30754639,0.00278999
1348.23635376,0.00294011
1350.16516113,0.00284854
1352.09396851,0.00289237
1354.02277588,0.00284659
1355.95158325,0.00277656
1357.88039062,0.00283415
1359.80919800,0.00275380
1361.73800537,0.00269890
1363.66681274,0.00260695
1365.59562012,0.00265265
1367.52442749,0.00275096
1369.45323486,0.00272452
1371.38204224,0.00276249
1373.31084961,0.00256141
1375.23965698,0.00249088
1377.16846436,0.00264431
1379.09727173,0.00268599
1381.02607910,0.00277406
1382.95488647,0.00271925
1384.88369385,0.00269550
1386.81250122,0.00269296
1388.74130859,0.00265504
1390.67011597,0.00272719
1392.59892334,0.00268100
1394.52773071,0.00256917
1396.45653809,0.00262366
1398.38534546,0.00272819
1400.31415283,0.00270116
1402.24296021,0.00289699
1404.17176758,0.00280842
1406.10057495,0.00257616
1408.02938232,0.00286886
1409.95818970,0.00276930
1411.88699707,0.00263552
1413.81580444,0.00278948
1415.74461182,0.00276902
1417.67341919,0.00248351
1419.60222656,0.00220007
1421.53103394,0.00257285
1423.45984131,0.00267507
1425.38864868,0.00244593
1427.31745605,0.00252851
1429.24626343,0.00243618
1431.17507080,0.00234521
1433.10387817,0.00239094
1435.03268555,0.00213592
1436.96149292,0.00184598
1438.89030029,0.00215895
1440.81910767,0.00223386
1442.74791504,0.00208761
1444.67672241,0.00227541
1446.60552979,0.00208066
1448.53433716,0.00201741
1450.46314453,0.00216036
1452.39195190,0.00212481
1454.32075928,0.00211782
1456.24956665,0.00190093
1458.17837402,0.00196314
1460.10718140,0.00244197
1462.03598877,0.00256296
1463.96479614,0.00248648
1465.89360352,0.00261843
1467.82241089,0.00290288
1469.75121826,0.00307272
1471.68002563,0.00278771
1473.60883301,0.00287958
1475.53764038,0.00323726
1477.46644775,0.00320455
1479.39525513,0.00349865
1481.32406250,0.00375452
1483.25286987,0.00387088
1485.18167725,0.00394564
1487.11048462,0.00381869
1489.03929199,0.00380253
1490.96809937,0.00388359
1492.89690674,0.00437107
1494.82571411,0.00429739
1496.75452148,0.00387537
1498.68332886,0.00419453
1500.61213623,0.00433469
1502.54094360,0.00481949
1504.46975098,0.00449890
1506.39855835,0.00323614
1508.32736572,0.00403825
1510.25617310,0.00453911
1512.18498047,0.00439303
1514.11378784,0.00499220
1516.04259521,0.00440830
1517.97140259,0.00461209
1519.90020996,0.00457904
1521.82901733,0.00386853
1523.75782471,0.00462269
1525.68663208,0.00456944
1527.61543945,0.00462768
1529.54424683,0.00505825
1531.47305420,0.00482627
1533.40186157,0.00453180
1535.33066895,0.00471999
1537.25947632,0.00488452
1539.18828369,0.00361618
1541.11709106,0.00393116
1543.04589844,0.00449529
1544.97470581,0.00433792
1546.90351318,0.00524789
1548.83232056,0.00479299
1550.76112793,0.00492755
1552.68993530,0.00496286
1554.61874268,0.00457288
1556.54755005,0.00475243
1558.47635742,0.00331291
1560.40516479,0.00374912
1562.33397217,0.00517073
1564.26277954,0.00485602
1566.19158691,0.00510208
1568.12039429,0.00504104
1570.04920166,0.00446043
1571.97800903,0.00517413
1573.90681641,0.00526517
1575.83562378,0.00417827
1577.76443115,0.00477699
1579.69323853,0.00522474
1581.62204590,0.00485549
1583.55085327,0.00521704
1585.47966064,0.00506273
1587.40846802,0.00501496
1589.33727539,0.00515615
1591.26608276,0.00500280
1593.19489014,0.00507994
1595.12369751,0.00519761
1597.05250488,0.00512711
1598.98131226,0.00518548
1600.91011963,0.00512974
1602.83892700,0.00493648
1604.76773437,0.00521224
1606.69654175,0.00514185
1608.62534912,0.00515605
1610.55415649,0.00511539
1612.48296387,0.00515792
1614.41177124,0.00523509
1616.34057861,0.00415654
1618.26938599,0.00464735
1620.19819336,0.00539967
1622.12700073,0.00467920
1624.05580811,0.00482323
1625.98461548,0.00516582
1627.91342285,0.00507361
1629.84223022,0.00487164
1631.77103760,0.00521875
1633.69984497,0.00483490
1635.62865234,0.00396003
1637.55745972,0.00477462
1639.48626709,0.00528346
1641.41507446,0.00499862
1643.34388184,0.00510277
1645.27268921,0.00473184
1647.20149658,0.00416849
1649.13030396,0.00509856
1651.05911133,0.00487901
1652.98791870,0.00309576
1654.91672607,0.00420568
1656.84553345,0.00531434
1658.77434082,0.00507412
1660.70314819,0.00534244
1662.63195557,0.00476081
1664.56076294,0.00493657
1666.48957031,0.00533005
1668.41837769,0.00455456
1670.34718506,0.00453183
1672.27599243,0.00515983
1674.20479980,0.00475265
1676.13360718,0.00454694
1678.06241455,0.00525999
1679.99122192,0.00516280
1681.92002930,0.00487265
1683.84883667,0.00397212
1685.77764404,0.00399025
1687.70645142,0.00534405
1689.63525879,0.00476641
1691.56406616,0.00525009
1693.49287354,0.00533091
1695.42168091,0.00385328
1697.35048828,0.00476239
1699.27929565,0.00427368
1701.20810303,0.00382213
1703.13691040,0.00516338
1705.06571777,0.00450179
1706.99452515,0.00461296
1708.92333252,0.00524676
1710.85213989,0.00495306
1712.78094727,0.00505652
1714.70975464,0.00455003
1716.63856201,0.00409761
1718.56736938,0.00411896
1720.49617676,0.00477441
1722.42498413,0.00505056
1724.35379150,0.00462226
1726.28259888,0.00515736
1728.21140625,0.00475620
1730.14021362,0.00452516
1732.06902100,0.00465276
1733.99782837,0.00363964
1735.92663574,0.00447832
1737.85544312,0.00494229
1739.78425049,0.00427996
1741.71305786,0.00468468
1743.64186523,0.00463920
1745.57067261,0.00470366
1747.49947998,0.00478356
1749.42828735,0.00452232
1751.35709473,0.00435608
1753.28590210,0.00474289
1755.21470947,0.00510043
1757.14351685,0.00462302
1759.07232422,0.00496779
1761.00113159,0.00466915
1762.92993896,0.00449483
1764.85874634,0.00526330
1766.78755371,0.00452525
1768.71636108,0.00459255
1770.64516846,0.00477782
1772.57397583,0.00416753
1774.50278320,0.00459200
1776.43159058,0.00479463
1778.36039795,0.00488649
1780.28920532,0.00486596
1782.21801270,0.00470615
1784.14682007,0.00484856
1786.07562744,0.00480342
1788.00443481,0.00495795
1789.93324219,0.00486552
1791.86204956,0.00444858
1793.79085693,0.00455767
1795.71966431,0.00488876
1797.64847168,0.00493519
1799.57727905,0.00471864
1801.50608643,0.00463726
1803.43489380,0.00486461
1805.36370117,0.00490920
1807.29250854,0.00484328
1809.22131592,0.00478822
1811.15012329,0.00473950
1813.07893066,0.00488134
1815.00773804,0.00488348
1816.93654541,0.00497395
1818.86535278,0.00483744
1820.79416016,0.00478858
1822.72296753,0.00501336
1824.65177490,0.00460819
1826.58058228,0.00474987
1828.50938965,0.00475464
1830.43819702,0.00445323
1832.36700439,0.00491654
1834.29581177,0.00487644
1836.22461914,0.00479853
1838.15342651,0.00475972
1840.08223389,0.00481889
1842.01104126,0.00476133
1843.93984863,0.00417419
1845.86865601,0.00453345
1847.79746338,0.00473073
1849.72627075,0.00468126
1851.65507812,0.00489757
1853.58388550,0.00470536
1855.51269287,0.00482641
1857.44150024,0.00470197
1859.37030762,0.00466840
1861.29911499,0.00481610
1863.22792236,0.00464713
1865.15672974,0.00483732
1867.08553711,0.00467770
1869.01434448,0.00441678
1870.94315186,0.00464878
1872.87195923,0.00477660
1874.80076660,0.00469089
1876.72957397,0.00463209
1878.65838135,0.00467950
1880.58718872,0.00463264
1882.51599609,0.00467093
1884.44480347,0.00468677
1886.37361084,0.00460541
1888.30241821,0.00450570
1890.23122559,0.00446330
1892.16003296,0.00465181
1894.08884033,0.00446371
1896.01764771,0.00439770
1897.94645508,0.00467879
1899.87526245,0.00460740
1901.80406982,0.00456877
1903.73287720,0.00451827
1905.66168457,0.00449804
1907.59049194,0.00450321
1909.51929932,0.00443739
1911.44810669,0.00450190
1913.37691406,0.00449763
1915.30572144,0.00445290
1917.23452881,0.00431861
1919.16333618,0.00440194
1921.09214355,0.00447793
1923.02095093,0.00438387
1924.94975830,0.00451329
1926.87856567,0.00443786
1928.80737305,0.00443131
1930.73618042,0.00443644
1932.66498779,0.00444060
1934.59379517,0.00462455
1936.52260254,0.00450121
1938.45140991,0.00451441
1940.38021729,0.00440844
1942.30902466,0.00417286
1944.23783203,0.00434330
1946.16663940,0.00439786
1948.09544678,0.00432597
1950.02425415,0.00437805
1951.95306152,0.00439462
1953.88186890,0.00429094
1955.81067627,0.00436814
1957.73948364,0.00439953
1959.66829102,0.00426020
1961.59709839,0.00436553
1963.52590576,0.00437565
1965.45471313,0.00435601
1967.38352051,0.00439031
1969.31232788,0.00431926
1971.24113525,0.00432844
1973.16994263,0.00427353
1975.09875000,0.00420318
1977.02755737,0.00428510
1978.95636475,0.00444150
1980.88517212,0.00440299
1982.81397949,0.00424149
1984.74278687,0.00416477
1986.67159424,0.00415579
1988.60040161,0.00426009
1990.52920898,0.00424680
1992.45801636,0.00418325
1994.38682373,0.00421172
1996.31563110,0.00422546
1998.24443848,0.00419848
2000.17324585,0.00419054
2002.10205322,0.00418517
2004.03086060,0.00406236
2005.95966797,0.00415062
2007.88847534,0.00418101
2009.81728271,0.00407047
2011.74609009,0.00415663
2013.67489746,0.00408258
2015.60370483,0.00411026
2017.53251221,0.00407558
2019.46131958,0.00395945
2021.39012695,0.00416622
2023.31893433,0.00411452
2025.24774170,0.00401808
2027.17654907,0.00408182
2029.10535645,0.00405968
2031.03416382,0.00415842
2032.96297119,0.00418195
2034.89177856,0.00405104
2036.82058594,0.00403529
2038.74939331,0.00406419
2040.67820068,0.00402964
2042.60700806,0.00394413
2044.53581543,0.00383844
2046.46462280,0.00398982
2048.39343018,0.00400163
2050.32223755,0.00380035
2052.25104492,0.00389388
2054.17985229,0.00382977
2056.10865967,0.00385455
2058.03746704,0.00399950
2059.96627441,0.00385006
2061.89508179,0.00386742
2063.82388916,0.00384852
2065.75269653,0.00380706
2067.68150391,0.00391392
2069.61031128,0.00387115
2071.53911865,0.00382184
2073.46792603,0.00382160
2075.39673340,0.00385881
2077.32554077,0.00390673
2079.25434814,0.00377679
2081.18315552,0.00377536
2083.11196289,0.00391622
2085.04077026,0.00374676
2086.96957764,0.00371543
2088.89838501,0.00379301
2090.82719238,0.00371151
2092.75599976,0.00378968
2094.68480713,0.00372271
2096.61361450,0.00368308
2098.54242187,0.00369957
2100.47122925,0.00361375
2102.40003662,0.00369444
2104.32884399,0.00365722
2106.25765137,0.00369546
2108.18645874,0.00387912
2110.11526611,0.00378193
2112.04407349,0.00372034
2113.97288086,0.00375513
2115.90168823,0.00352557
2117.83049561,0.00353227
2119.75930298,0.00375520
2121.68811035,0.00370796
2123.61691772,0.00371533
2125.54572510,0.00365182
2127.47453247,0.00363691
2129.40333984,0.00366964
2131.33214722,0.00349278
2133.26095459,0.00349698
2135.18976196,0.00356574
2137.11856934,0.00366601
2139.04737671,0.00367650
2140.97618408,0.00357574
2142.90499146,0.00360221
2144.83379883,0.00352099
2146.76260620,0.00344909
2148.69141357,0.00351450
2150.62022095,0.00356651
2152.54902832,0.00352115
2154.47783569,0.00347616
2156.40664307,0.00350925
2158.33545044,0.00354477
2160.26425781,0.00343803
2162.19306519,0.00336711
2164.12187256,0.00345849
2166.05067993,0.00339745
2167.97948730,0.00341867
2169.90829468,0.00349472
2171.83710205,0.00353632
2173.76590942,0.00354310
2175.69471680,0.00345469
2177.62352417,0.00354303
2179.55233154,0.00341767
2181.48113892,0.00333579
2183.40994629,0.00349536
2185.33875366,0.00349244
2187.26756104,0.00342797
2189.19636841,0.00333930
2191.12517578,0.00335773
2193.05398315,0.00332673
2194.98279053,0.00334724
2196.91159790,0.00342846
2198.84040527,0.00337108
2200.76921265,0.00333118
2202.69802002,0.00333677
2204.62682739,0.00339747
2206.55563477,0.00332920
2208.48444214,0.00335736
2210.41324951,0.00338962
2212.34205688,0.00333316
2214.27086426,0.00342573
2216.19967163,0.00335328
2218.12847900,0.00323370
2220.05728638,0.00321860
2221.98609375,0.00333344
2223.91490112,0.00336355
2225.84370850,0.00327583
2227.77251587,0.00325635
2229.70132324,0.00317513
2231.63013062,0.00330776
2233.55893799,0.00340160
2235.48774536,0.00324382
2237.41655273,0.00314949
2239.34536011,0.00316744
2241.27416748,0.00316907
2243.20297485,0.00311729
2245.13178223,0.00314340
2247.06058960,0.00315721
2248.98939697,0.00321754
2250.91820435,0.00320525
2252.84701172,0.00316669
2254.77581909,0.00325234
2256.70462646,0.00320927
2258.63343384,0.00314730
2260.56224121,0.00314378
2262.49104858,0.00318233
2264.41985596,0.00317814
2266.34866333,0.00318528
2268.27747070,0.00319882
2270.20627808,0.00308550
2272.13508545,0.00308694
2274.06389282,0.00305286
2275.99270020,0.00301358
2277.92150757,0.00314935
2279.85031494,0.00309479
2281.77912231,0.00301797
2283.70792969,0.00321749
2285.63673706,0.00318252
2287.56554443,0.00306704
2289.49435181,0.00320609
2291.42315918,0.00308507
2293.35196655,0.00303245
2295.28077393,0.00311130
2297.20958130,0.00301664
2299.13838867,0.00311114
2301.06719604,0.00306843
2302.99600342,0.00289700
2304.92481079,0.00297826
2306.85361816,0.00301773
2308.78242554,0.00300819
2310.71123291,0.00297826
2312.64004028,0.00284373
2314.56884766,0.00286394
2316.49765503,0.00282064
2318.42646240,0.00273413
2320.35526978,0.00280795
2322.28407715,0.00270518
2324.21288452,0.00269476
2326.14169189,0.00264027
2328.07049927,0.00252342
2329.99930664,0.00266654
2331.92811401,0.00262410
2333.85692139,0.00258290
2335.78572876,0.00261400
2337.71453613,0.00260124
2339.64334351,0.00260694
2341.57215088,0.00253912
2343.50095825,0.00261239
2345.42976562,0.00275962
2347.35857300,0.00280646
2349.28738037,0.00273788
2351.21618774,0.00272024
2353.14499512,0.00265393
2355.07380249,0.00250705
2357.00260986,0.00251014
2358.93141724,0.00241245
2360.86022461,0.00232402
2362.78903198,0.00238571
2364.71783936,0.00240581
2366.64664673,0.00239419
2368.57545410,0.00244645
2370.50426147,0.00252955
2372.43306885,0.00253025
2374.36187622,0.00255510
2376.29068359,0.00261457
2378.21949097,0.00269975
2380.14829834,0.00278344
2382.07710571,0.00277875
2384.00591309,0.00276681
2385.93472046,0.00279135
2387.86352783,0.00278837
2389.79233521,0.00279723
2391.72114258,0.00283120
2393.64994995,0.00278028
2395.57875732,0.00278597
2397.50756470,0.00276830
2399.43637207,0.00272794
2401.36517944,0.00277401
2403.29398682,0.00272191
2405.22279419,0.00271038
2407.15160156,0.00269507
2409.08040894,0.00269489
2411.00921631,0.00277424
2412.93802368,0.00272237
2414.86683105,0.00265638
2416.79563843,0.00271634
2418.72444580,0.00273655
2420.65325317,0.00265355
2422.58206055,0.00269031
2424.51086792,0.00272462
2426.43967529,0.00274274
2428.36848267,0.00271003
2430.29729004,0.00261745
2432.22609741,0.00261259
2434.15490479,0.00248488
2436.08371216,0.00259960
2438.01251953,0.00264463
2439.94132690,0.00249055
2441.87013428,0.00258583
2443.79894165,0.00251604
2445.72774902,0.00261111
2447.65655640,0.00266404
2449.58536377,0.00260964
2451.51417114,0.00276256
2453.44297852,0.00259413
2455.37178589,0.00257378
2457.30059326,0.00262238
2459.22940063,0.00248276
2461.15820801,0.00257149
2463.08701538,0.00256530
2465.01582275,0.00247158
2466.94463013,0.00257450
2468.87343750,0.00263297
2470.80224487,0.00247786
2472.73105225,0.00249483
2474.65985962,0.00261529
2476.58866699,0.00250032
2478.51747437,0.00246014
2480.44628174,0.00255033
2482.37508911,0.00256416
2484.30389648,0.00250559
2486.23270386,0.00248888
2488.16151123,0.00244705
2490.09031860,0.00237574
2492.01912598,0.00249352
2493.94793335,0.00257495
2495.87674072,0.00243772
2497.80554810,0.00238508
2499.73435547,0.00247947
2501.66316284,0.00241897
2503.59197021,0.00239420
2505.52077759,0.00248572
2507.44958496,0.00239923
2509.37839233,0.00245328
2511.30719971,0.00250159
2513.23600708,0.00239949
2515.16481445,0.00244899
2517.09362183,0.00242570
2519.02242920,0.00243177
2520.95123657,0.00242587
2522.88004395,0.00236927
2524.80885132,0.00243502
2526.73765869,0.00239235
2528.66646606,0.00239186
2530.59527344,0.00243175
2532.52408081,0.00236719
2534.45288818,0.00232760
2536.38169556,0.00236600
2538.31050293,0.00239251
2540.23931030,0.00231794
2542.16811768,0.00233742
2544.09692505,0.00238727
2546.02573242,0.00240467
2547.95453979,0.00241084
2549.88334717,0.00237829
2551.81215454,0.00236611
2553.74096191,0.00229535
2555.66976929,0.00227795
2557.59857666,0.00231243
2559.52738403,0.00237852
2561.45619141,0.00228484
2563.38499878,0.00213950
2565.31380615,0.00227810
2567.24261353,0.00229454
2569.17142090,0.00232268
2571.10022827,0.00230762
2573.02903564,0.00220138
2574.95784302,0.00231740
2576.88665039,0.00232226
2578.81545776,0.00235476
2580.74426514,0.00227963
2582.67307251,0.00219804
2584.60187988,0.00228972
2586.53068726,0.00220927
2588.45949463,0.00228455
2590.38830200,0.00227419
2592.31710937,0.00215283
2594.24591675,0.00221230
2596.17472412,0.00222553
2598.10353149,0.00222272
2600.03233887,0.00221248
2601.96114624,0.00225845
2603.88995361,0.00220497
2605.81876099,0.00212381
2607.74756836,0.00215860
2609.67637573,0.00219385
2611.60518311,0.00220214
2613.53399048,0.00207848
2615.46279785,0.00216395
2617.39160522,0.00223215
2619.32041260,0.00211946
2621.24921997,0.00217841
2623.17802734,0.00211954
2625.10683472,0.00215717
2627.03564209,0.00222788
2628.96444946,0.00210437
2630.89325684,0.00211015
2632.82206421,0.00201439
2634.75087158,0.00198785
2636.67967895,0.00210750
2638.60848633,0.00202430
2640.53729370,0.00208354
2642.46610107,0.00216721
2644.39490845,0.00201500
2646.32371582,0.00204088
2648.25252319,0.00211659
2650.18133057,0.00204075
2652.11013794,0.00209235
2654.03894531,0.00217452
2655.96775269,0.00209911
2657.89656006,0.00205200
2659.82536743,0.00206938
2661.75417480,0.00202025
2663.68298218,0.00203448
2665.61178955,0.00206101
2667.54059692,0.00205019
2669.46940430,0.00209998
2671.39821167,0.00203392
2673.32701904,0.00192986
2675.25582642,0.00194605
2677.18463379,0.00202864
2679.11344116,0.00199944
2681.04224854,0.00193144
2682.97105591,0.00204802
2684.89986328,0.00210468
2686.82867065,0.00208116
2688.75747803,0.00196778
2690.68628540,0.00189880
2692.61509277,0.00199896
2694.54390015,0.00192528
2696.47270752,0.00192672
2698.40151489,0.00203917
2700.33032227,0.00198226
2702.25912964,0.00186608
2704.18793701,0.00190772
2706.11674438,0.00199823
2708.04555176,0.00197205
2709.97435913,0.00206695
2711.90316650,0.00199485
2713.83197388,0.00190372
2715.76078125,0.00194956
2717.68958862,0.00187563
2719.61839600,0.00200103
2721.54720337,0.00199655
2723.47601074,0.00193395
2725.40481812,0.00199429
2727.33362549,0.00191956
2729.26243286,0.00194442
2731.19124023,0.00195893
2733.12004761,0.00194032
2735.04885498,0.00182922
2736.97766235,0.00175813
2738.90646973,0.00190763
2740.83527710,0.00191734
2742.76408447,0.00189118
2744.69289185,0.00192952
2746.62169922,0.00189315
2748.55050659,0.00181891
2750.47931396,0.00181216
2752.40812134,0.00184542
2754.33692871,0.00181591
2756.26573608,0.00180001
2758.19454346,0.00185278
2760.12335083,0.00189296
2762.05215820,0.00182744
2763.98096558,0.00182789
2765.90977295,0.00186275
2767.83858032,0.00181480
2769.76738770,0.00181353
2771.69619507,0.00176382
2773.62500244,0.00178942
2775.55380981,0.00184175
2777.48261719,0.00173646
2779.41142456,0.00176618
2781.34023193,0.00179990
2783.26903931,0.00176796
2785.19784668,0.00179038
2787.12665405,0.00174620
2789.05546143,0.00177316
2790.98426880,0.00173836
2792.91307617,0.00176490
2794.84188354,0.00185883
2796.77069092,0.00173340
2798.69949829,0.00177461
2800.62830566,0.00177419
2802.55711304,0.00171532
2804.48592041,0.00181623
2806.41472778,0.00176062
2808.34353516,0.00163913
2810.27234253,0.00155987
2812.20114990,0.00164012
2814.12995728,0.00168750
2816.05876465,0.00173225
2817.98757202,0.00178313
2819.91637939,0.00167036
2821.84518677,0.00169655
2823.77399414,0.00164172
2825.70280151,0.00159290
2827.63160889,0.00154962
2829.56041626,0.00156270
2831.48922363,0.00170551
2833.41803101,0.00160237
2835.34683838,0.00163799
2837.27564575,0.00162702
2839.20445312,0.00158898
2841.13326050,0.00167542
2843.06206787,0.00158369
2844.99087524,0.00154112
2846.91968262,0.00156991
2848.84848999,0.00164713
2850.77729736,0.00157129
2852.70610474,0.00156162
2854.63491211,0.00163341
2856.56371948,0.00162561
2858.49252686,0.00160692
2860.42133423,0.00140686
2862.35014160,0.00152769
2864.27894897,0.00160427
2866.20775635,0.00151270
2868.13656372,0.00159269
2870.06537109,0.00151774
2871.99417847,0.00156228
2873.92298584,0.00157191
2875.85179321,0.00152432
2877.78060059,0.00160301
2879.70940796,0.00165115
2881.63821533,0.00158921
2883.56702270,0.00149054
2885.49583008,0.00154943
2887.42463745,0.00155503
2889.35344482,0.00150844
2891.28225220,0.00148717
2893.21105957,0.00152586
2895.13986694,0.00150923
2897.06867432,0.00146434
2898.99748169,0.00153571
2900.92628906,0.00146267
2902.85509644,0.00143823
2904.78390381,0.00143890
2906.71271118,0.00139510
2908.64151855,0.00142734
2910.57032593,0.00146728
2912.49913330,0.00151386
2914.42794067,0.00148663
2916.35674805,0.00147712
2918.28555542,0.00148509
2920.21436279,0.00152225
2922.14317017,0.00146870
2924.07197754,0.00146493
2926.00078491,0.00157389
2927.92959229,0.00149201
2929.85839966,0.00146353
2931.78720703,0.00141626
2933.71601440,0.00141308
2935.64482178,0.00144632
2937.57362915,0.00138280
2939.50243652,0.00147098
2941.43124390,0.00147084
2943.36005127,0.00147548
2945.28885864,0.00149854
2947.21766602,0.00139892
2949.14647339,0.00139186
2951.07528076,0.00140950
2953.00408813,0.00142884
2954.93289551,0.00140907
2956.86170288,0.00134535
2958.79051025,0.00136950
2960.71931763,0.00135224
2962.64812500,0.00131790
2964.57693237,0.00139076
2966.50573975,0.00134658
2968.43454712,0.00139247
2970.36335449,0.00149028
2972.29216187,0.00135861
2974.22096924,0.00137827
2976.14977661,0.00140734
2978.07858398,0.00140557
2980.00739136,0.00141032
2981.93619873,0.00134922
2983.86500610,0.00143172
2985.79381348,0.00134901
2987.72262085,0.00127436
2989.65142822,0.00133294
2991.58023560,0.00130367
2993.50904297,0.00136465
2995.43785034,0.00139838
2997.36665771,0.00133560
2999.29546509,0.00136124
3001.22427246,0.00141993
3003.15307983,0.00133253
3005.08188721,0.00129577
3007.01069458,0.00133078
3008.93950195,0.00131408
3010.86830933,0.00133727
3012.79711670,0.00133370
3014.72592407,0.00134367
3016.65473145,0.00126777
3018.58353882,0.00122671
3020.51234619,0.00128823
3022.44115356,0.00119726
3024.36996094,0.00121908
3026.29876831,0.00135856
3028.22757568,0.00136019
3030.15638306,0.00124923
3032.08519043,0.00123603
3034.01399780,0.00137054
3035.94280518,0.00130847
3037.87161255,0.00119413
3039.80041992,0.00126132
3041.72922729,0.00134169
3043.65803467,0.00133590
3045.58684204,0.00124806
3047.51564941,0.00128077
3049.44445679,0.00129334
3051.37326416,0.00124324
3053.30207153,0.00129872
3055.23087891,0.00119346
3057.15968628,0.00123701
3059.08849365,0.00134748
3061.01730103,0.00122033
3062.94610840,0.00128867
3064.87491577,0.00125292
3066.80372314,0.00118318
3068.73253052,0.00126428
3070.66133789,0.00123368
3072.59014526,0.00130291
3074.51895264,0.00122854
3076.44776001,0.00112612
3078.37656738,0.00127401
3080.30537476,0.00131703
3082.23418213,0.00119391
3084.16298950,0.00114828
3086.09179687,0.00127158
3088.02060425,0.00127206
3089.94941162,0.00116054
3091.87821899,0.00116988
3093.80702637,0.00119935
3095.73583374,0.00116331
3097.66464111,0.00119474
3099.59344849,0.00121052
3101.52225586,0.00115033
3103.45106323,0.00128728
3105.37987061,0.00123904
3107.30867798,0.00111021
3109.23748535,0.00123823
3111.16629272,0.00116249
3113.09510010,0.00118035
3115.02390747,0.00122503
3116.95271484,0.00109446
3118.88152222,0.00116906
3120.81032959,0.00123173
3122.73913696,0.00121295
3124.66794434,0.00116043
3126.59675171,0.00116017
3128.52555908,0.00115964
3130.45436645,0.00106267
3132.38317383,0.00116317
3134.31198120,0.00123080
3136.24078857,0.00112869
3138.16959595,0.00110304
3140.09840332,0.00114586
3142.02721069,0.00110801
3143.95601807,0.00105073
3145.88482544,0.00116350
3147.81363281,0.00116269
3149.74244019,0.00104601
3151.67124756,0.00106727
3153.60005493,0.00111504
3155.52886230,0.00112475
3157.45766968,0.00109857
3159.38647705,0.00111068
3161.31528442,0.00111786
3163.24409180,0.00109035
3165.17289917,0.00108006
3167.10170654,0.00108450
3169.03051392,0.00109155
3170.95932129,0.00108599
3172.88812866,0.00114993
3174.81693604,0.00112969
3176.74574341,0.00102947
3178.67455078,0.00104617
3180.60335815,0.00112103
3182.53216553,0.00107961
3184.46097290,0.00097542
3186.38978027,0.00107631
3188.31858765,0.00110670
3190.24739502,0.00107042
3192.17620239,0.00115836
3194.10500977,0.00110794
3196.03381714,0.00103926
3197.96262451,0.00102907
3199.89143188,0.00103820
3201.82023926,0.00100875
3203.74904663,0.00099387
3205.67785400,0.00102804
3207.60666138,0.00102813
3209.53546875,0.00113017
3211.46427612,0.00106283
3213.39308350,0.00099972
3215.32189087,0.00108637
3217.25069824,0.00100079
3219.17950562,0.00103547
3221.10831299,0.00104263
3223.03712036,0.00104393
3224.96592773,0.00115895
3226.89473511,0.00104637
3228.82354248,0.00104757
3230.75234985,0.00108440
3232.68115723,0.00100891
3234.60996460,0.00105180
3236.53877197,0.00105391
3238.46757935,0.00108084
3240.39638672,0.00100223
3242.32519409,0.00096812
3244.25400146,0.00107786
3246.18280884,0.00103653
3248.11161621,0.00109249
3250.04042358,0.00106169
3251.96923096,0.00103659
3253.89803833,0.00108742
3255.82684570,0.00099567
3257.75565308,0.00103012
3259.68446045,0.00101271
3261.61326782,0.00110833
3263.54207520,0.00110740
3265.47088257,0.00094446
3267.39968994,0.00104574
3269.32849731,0.00101924
3271.25730469,0.00104126
3273.18611206,0.00109729
3275.11491943,0.00102208
3277.04372681,0.00097062
3278.97253418,0.00102113
3280.90134155,0.00113745
3282.83014893,0.00109178
3284.75895630,0.00113741
3286.68776367,0.00106520
3288.61657104,0.00102566
3290.54537842,0.00108148
3292.47418579,0.00100406
3294.40299316,0.00114415
3296.33180054,0.00110860
3298.26060791,0.00106280
3300.18941528,0.00110483
3302.11822266,0.00103131
3304.04703003,0.00107516
3305.97583740,0.00113835
3307.90464478,0.00114737
3309.83345215,0.00102953
3311.76225952,0.00111796
3313.69106689,0.00116804
3315.61987427,0.00107351
3317.54868164,0.00115505
3319.47748901,0.00115053
3321.40629639,0.00109590
3323.33510376,0.00099350
3325.26391113,0.00105987
3327.19271851,0.00106026
3329.12152588,0.00097718
3331.05033325,0.00114669
3332.97914062,0.00115092
3334.90794800,0.00113881
3336.83675537,0.00111911
3338.76556274,0.00110262
3340.69437012,0.00117758
3342.62317749,0.00110100
3344.55198486,0.00101247
3346.48079224,0.00104580
3348.40959961,0.00113777
3350.33840698,0.00107857
3352.26721436,0.00103506
3354.19602173,0.00111465
3356.12482910,0.00116339
3358.05363647,0.00111386
3359.98244385,0.00109314
3361.91125122,0.00115492
3363.84005859,0.00108204
3365.76886597,0.00111333
3367.69767334,0.00116054
3369.62648071,0.00109670
3371.55528809,0.00107005
3373.48409546,0.00108304
3375.41290283,0.00108681
3377.34171020,0.00101715
3379.27051758,0.00109180
3381.19932495,0.00109775
3383.12813232,0.00111119
3385.05693970,0.00115010
3386.98574707,0.00106902
3388.91455444,0.00106996
3390.84336182,0.00098883
3392.77216919,0.00104473
3394.70097656,0.00111802
3396.62978394,0.00117317
3398.55859131,0.00120494
3400.48739868,0.00108198
3402.41620605,0.00111401
3404.34501343,0.00112391
3406.27382080,0.00122555
3408.20262817,0.00116546
3410.13143555,0.00111388
3412.06024292,0.00120627
3413.98905029,0.00098464
3415.91785767,0.00109078
3417.84666504,0.00114958
3419.77547241,0.00108255
3421.70427979,0.00121737
3423.63308716,0.00109797
3425.56189453,0.00110112
3427.49070190,0.00115504
3429.41950928,0.00108758
3431.34831665,0.00109304
3433.27712402,0.00112183
3435.20593140,0.00111223
3437.13473877,0.00109954
3439.06354614,0.00109788
3440.99235352,0.00102955
3442.92116089,0.00102103
3444.84996826,0.00101602
3446.77877563,0.00108671
3448.70758301,0.00111961
3450.63639038,0.00098052
3452.56519775,0.00102229
3454.49400513,0.00113321
3456.42281250,0.00108905
3458.35161987,0.00102236
3460.28042725,0.00103426
3462.20923462,0.00102321
3464.13804199,0.00109977
3466.06684937,0.00121253
3467.99565674,0.00115331
3469.92446411,0.00108245
3471.85327148,0.00104458
3473.78207886,0.00110211
3475.71088623,0.00116379
3477.63969360,0.00114608
3479.56850098,0.00106691
3481.49730835,0.00104577
3483.42611572,0.00114589
3485.35492310,0.00107239
3487.28373047,0.00102265
3489.21253784,0.00103751
3491.14134521,0.00101124
3493.07015259,0.00105642
3494.99895996,0.00108963
3496.92776733,0.00105160
3498.85657471,0.00101375
3500.78538208,0.00112719
3502.71418945,0.00114229
3504.64299683,0.00112087
3506.57180420,0.00105194
3508.50061157,0.00093558
3510.42941895,0.00105481
3512.35822632,0.00105143
3514.28703369,0.00103051
3516.21584106,0.00096958
3518.14464844,0.00094916
3520.07345581,0.00109155
3522.00226318,0.00099940
3523.93107056,0.00100970
3525.85987793,0.00099051
3527.78868530,0.00091381
3529.71749268,0.00103496
3531.64630005,0.00108867
3533.57510742,0.00106234
3535.50391479,0.00094627
3537.43272217,0.00096200
3539.36152954,0.00110780
3541.29033691,0.00104387
3543.21914429,0.00097306
3545.14795166,0.00108404
3547.07675903,0.00098066
3549.00556641,0.00090064
3550.93437378,0.00104620
3552.86318115,0.00096712
3554.79198853,0.00097750
3556.72079590,0.00103467
3558.64960327,0.00101980
3560.57841064,0.00096681
3562.50721802,0.00092822
3564.43602539,0.00109490
3566.36483276,0.00090779
3568.29364014,0.00082688
3570.22244751,0.00098542
3572.15125488,0.00089372
3574.08006226,0.00091875
3576.00886963,0.00096497
3577.93767700,0.00103418
3579.86648437,0.00099253
3581.79529175,0.00087471
3583.72409912,0.00095623
3585.65290649,0.00098130
3587.58171387,0.00088237
3589.51052124,0.00089135
3591.43932861,0.00099918
3593.36813599,0.00088421
3595.29694336,0.00089608
3597.22575073,0.00096192
3599.15455811,0.00085803
3601.08336548,0.00097914
3603.01217285,0.00098187
3604.94098022,0.00094634
3606.86978760,0.00096892
3608.79859497,0.00085312
3610.72740234,0.00094406
3612.65620972,0.00095463
3614.58501709,0.00085733
3616.51382446,0.00100419
3618.44263184,0.00092547
3620.37143921,0.00084201
3622.30024658,0.00098347
3624.22905395,0.00090872
3626.15786133,0.00095724
3628.08666870,0.00087553
3630.01547607,0.00074339
3631.94428345,0.00095882
3633.87309082,0.00093812
3635.80189819,0.00094540
3637.73070557,0.00097258
3639.65951294,0.00087670
3641.58832031,0.00093788
3643.51712769,0.00096772
3645.44593506,0.00088898
3647.37474243,0.00079643
3649.30354980,0.00080403
3651.23235718,0.00075083
3653.16116455,0.00084732
3655.08997192,0.00093837
3657.01877930,0.00087752
3658.94758667,0.00095501
3660.87639404,0.00088789
3662.80520142,0.00091406
3664.73400879,0.00093023
3666.66281616,0.00090437
3668.59162354,0.00084761
3670.52043091,0.00068802
3672.44923828,0.00088661
3674.37804565,0.00080152
3676.30685303,0.00064603
3678.23566040,0.00082349
3680.16446777,0.00083924
3682.09327515,0.00087054
3684.02208252,0.00092288
3685.95088989,0.00091167
3687.87969727,0.00073438
3689.80850464,0.00070069
3691.73731201,0.00081323
3693.66611938,0.00080597
3695.59492676,0.00088101
3697.52373413,0.00086593
3699.45254150,0.00091155
3701.38134888,0.00085663
3703.31015625,0.00073566
3705.23896362,0.00082531
3707.16777100,0.00079844
3709.09657837,0.00080311
3711.02538574,0.00072725
3712.95419312,0.00072341
3714.88300049,0.00084608
3716.81180786,0.00073844
3718.74061523,0.00072203
3720.66942261,0.00070796
3722.59822998,0.00076183
3724.52703735,0.00082170
3726.45584473,0.00069585
3728.38465210,0.00073238
3730.31345947,0.00074059
3732.24226685,0.00073062
3734.17107422,0.00068058
3736.09988159,0.00064510
3738.02868896,0.00074148
3739.95749634,0.00069589
3741.88630371,0.00073773
3743.81511108,0.00062325
3745.74391846,0.00056551
3747.67272583,0.00078583
3749.60153320,0.00065985
3751.53034058,0.00057413
3753.45914795,0.00065836
3755.38795532,0.00075241
3757.31676270,0.00075600
3759.24557007,0.00064987
3761.17437744,0.00070016
3763.10318481,0.00064989
3765.03199219,0.00074831
3766.96079956,0.00081702
3768.88960693,0.00064840
3770.81841431,0.00071441
3772.74722168,0.00074142
3774.67602905,0.00075944
3776.60483643,0.00076762
3778.53364380,0.00066640
3780.46245117,0.00073304
3782.39125854,0.00075738
3784.32006592,0.00073134
3786.24887329,0.00079909
3788.17768066,0.00080237
3790.10648804,0.00071211
3792.03529541,0.00068010
3793.96410278,0.00072393
3795.89291016,0.00068206
3797.82171753,0.00070832
3799.75052490,0.00070498
3801.67933228,0.00058292
3803.60813965,0.00072378
3805.53694702,0.00072433
3807.46575439,0.00064072
3809.39456177,0.00075116
3811.32336914,0.00067889
3813.25217651,0.00073401
3815.18098389,0.00066144
3817.10979126,0.00054595
3819.03859863,0.00069516
3820.96740601,0.00062426
3822.89621338,0.00070531
3824.82502075,0.00080247
3826.75382812,0.00068217
3828.68263550,0.00065039
3830.61144287,0.00065181
3832.54025024,0.00067583
3834.46905762,0.00066585
3836.39786499,0.00066461
3838.32667236,0.00057058
3840.25547974,0.00054426
3842.18428711,0.00065979
3844.11309448,0.00067537
3846.04190186,0.00069864
3847.97070923,0.00072297
3849.89951660,0.00069631
3851.82832397,0.00056260
3853.75713135,0.00050078
3855.68593872,0.00057726
3857.61474609,0.00058213
3859.54355347,0.00061854
3861.47236084,0.00064065
3863.40116821,0.00053002
3865.32997559,0.00054628
3867.25878296,0.00060698
3869.18759033,0.00051564
3871.11639770,0.00068543
3873.04520508,0.00071651
3874.97401245,0.00053835
3876.90281982,0.00065750
3878.83162720,0.00056709
3880.76043457,0.00053366
3882.68924194,0.00065730
3884.61804932,0.00058524
3886.54685669,0.00055976
3888.47566406,0.00060672
3890.40447144,0.00065494
3892.33327881,0.00056364
3894.26208618,0.00056428
3896.19089355,0.00060062
3898.11970093,0.00055949
3900.04850830,0.00056204
3901.97731567,0.00047491
3903.90612305,0.00052640
3905.83493042,0.00055904
3907.76373779,0.00050973
3909.69254517,0.00061276
3911.62135254,0.00066795
3913.55015991,0.00062627
3915.47896728,0.00061100
3917.40777466,0.00059906
3919.33658203,0.00055320
3921.26538940,0.00056387
3923.19419678,0.00059647
3925.12300415,0.00058529
3927.05181152,0.00057592
3928.98061890,0.00065436
3930.90942627,0.00065854
3932.83823364,0.00063073
3934.76704102,0.00064964
3936.69584839,0.00055400
3938.62465576,0.00065456
3940.55346313,0.00065432
3942.48227051,0.00053676
3944.41107788,0.00062084
3946.33988525,0.00056349
3948.26869263,0.00057948
3950.19750000,0.00059745
3952.12630737,0.00056625
3954.05511475,0.00060776
3955.98392212,0.00058664
3957.91272949,0.00060770
3959.84153687,0.00060294
3961.77034424,0.00061051
3963.69915161,0.00062927
3965.62795898,0.00064883
3967.55676636,0.00064424
3969.48557373,0.00059445
3971.41438110,0.00057791
3973.34318848,0.00061712
3975.27199585,0.00067193
3977.20080322,0.00053917
3979.12961060,0.00049972
3981.05841797,0.00061987
3982.98722534,0.00059298
3984.91603271,0.00055811
3986.84484009,0.00060876
3988.77364746,0.00060035
3990.70245483,0.00052261
3992.63126221,0.00051753
3994.56006958,0.00051376
3996.48887695,0.00052796
3998.41768433,0.00053434
4000.34649170,0.00053501
4002.27529907,0.00055609
4004.20410645,0.00053987
4006.13291382,0.00062778
4008.06172119,0.00060356
4009.99052856,0.00057340
4011.91933594,0.00061937
4013.84814331,0.00056568
4015.77695068,0.00057726
4017.70575806,0.00055101
4019.63456543,0.00053049
4021.56337280,0.00051374
4023.49218018,0.00054798
4025.42098755,0.00058345
4027.34979492,0.00050976
4029.27860229,0.00058105
4031.20740967,0.00052733
4033.13621704,0.00046791
4035.06502441,0.00059318
4036.99383179,0.00057539
4038.92263916,0.00055178
4040.85144653,0.00054208
4042.78025391,0.00051551
4044.70906128,0.00052860
4046.63786865,0.00049707
4048.56667603,0.00050587
4050.49548340,0.00053801
4052.42429077,0.00054004
4054.35309814,0.00054005
4056.28190552,0.00051172
4058.21071289,0.00053543
4060.13952026,0.00054858
4062.06832764,0.00049569
4063.99713501,0.00049428
4065.92594238,0.00049126
4067.85474976,0.00044545
4069.78355713,0.00040407
4071.71236450,0.00048469
4073.64117187,0.00056090
4075.56997925,0.00049444
4077.49878662,0.00047241
4079.42759399,0.00051320
4081.35640137,0.00054202
4083.28520874,0.00049410
4085.21401611,0.00050776
4087.14282349,0.00056994
4089.07163086,0.00051269
4091.00043823,0.00049614
4092.92924561,0.00045590
4094.85805298,0.00045144
4096.78686035,0.00051916
4098.71566772,0.00043676
4100.64447510,0.00043791
4102.57328247,0.00050800
4104.50208984,0.00048070
4106.43089722,0.00056604
4108.35970459,0.00053679
4110.28851196,0.00044787
4112.21731934,0.00051928
4114.14612671,0.00045434
4116.07493408,0.00047317
4118.00374145,0.00052185
4119.93254883,0.00048481
4121.86135620,0.00051292
4123.79016357,0.00046201
4125.71897095,0.00053544
4127.64777832,0.00053303
4129.57658569,0.00045399
4131.50539307,0.00048381
4133.43420044,0.00045287
4135.36300781,0.00045141
4137.29181519,0.00040740
4139.22062256,0.00044331
4141.14942993,0.00049023
4143.07823730,0.00052267
4145.00704468,0.00054327
4146.93585205,0.00041398
4148.86465942,0.00042626
4150.79346680,0.00044898
4152.72227417,0.00046362
4154.65108154,0.00043847
4156.57988892,0.00035251
4158.50869629,0.00041832
4160.43750366,0.00043223
4162.36631103,0.00044445
4164.29511841,0.00043616
4166.22392578,0.00039254
4168.15273315,0.00042333
4170.08154053,0.00045701
4172.01034790,0.00044679
4173.93915527,0.00045927
4175.86796265,0.00054464
4177.79677002,0.00046124
4179.72557739,0.00038967
4181.65438477,0.00046184
4183.58319214,0.00047223
4185.51199951,0.00044539
4187.44080688,0.00044868
4189.36961426,0.00048588
4191.29842163,0.00043309
4193.22722900,0.00047675
4195.15603638,0.00050377
4197.08484375,0.00037405
4199.01365112,0.00040223
4200.94245850,0.00046052
4202.87126587,0.00049599
4204.80007324,0.00045901
4206.72888062,0.00043228
4208.65768799,0.00050173
4210.58649536,0.00041870
4212.51530273,0.00043251
4214.44411011,0.00046078
4216.37291748,0.00039635
4218.30172485,0.00043877
4220.23053223,0.00039519
4222.15933960,0.00041864
4224.08814697,0.00046854
4226.01695435,0.00041234
4227.94576172,0.00044254
4229.87456909,0.00044624
4231.80337646,0.00042083
4233.73218384,0.00038772
4235.66099121,0.00040169
4237.58979858,0.00045696
4239.51860596,0.00045619
4241.44741333,0.00048991
4243.37622070,0.00042832
4245.30502808,0.00037458
4247.23383545,0.00045719
4249.16264282,0.00046401
4251.09145020,0.00043478
4253.02025757,0.00046040
4254.94906494,0.00042981
4256.87787231,0.00033931
4258.80667969,0.00031942
4260.73548706,0.00039004
4262.66429443,0.00044570
4264.59310181,0.00039952
4266.52190918,0.00039024
4268.45071655,0.00036021
4270.37952393,0.00036063
4272.30833130,0.00047095
4274.23713867,0.00041273
4276.16594604,0.00044259
4278.09475342,0.00042332
4280.02356079,0.00028445
4281.95236816,0.00034319
4283.88117554,0.00033926
4285.80998291,0.00040736
4287.73879028,0.00046219
4289.66759766,0.00041405
4291.59640503,0.00038406
4293.52521240,0.00037741
4295.45401978,0.00045744
4297.38282715,0.00038877
4299.31163452,0.00038536
4301.24044189,0.00038158
4303.16924927,0.00033488
4305.09805664,0.00044439
4307.02686401,0.00040777
4308.95567139,0.00033003
4310.88447876,0.00037561
4312.81328613,0.00045527
4314.74209351,0.00042038
4316.67090088,0.00042228
4318.59970825,0.00044436
4320.52851562,0.00037369
4322.45732300,0.00039675
4324.38613037,0.00034828
4326.31493774,0.00038811
4328.24374512,0.00041588
4330.17255249,0.00035967
4332.10135986,0.00041315
4334.03016724,0.00031215
4335.95897461,0.00028402
4337.88778198,0.00034633
4339.81658936,0.00033687
4341.74539673,0.00035311
4343.67420410,0.00033928
4345.60301147,0.00033995
4347.53181885,0.00038411
4349.46062622,0.00041268
4351.38943359,0.00038004
4353.31824097,0.00042006
4355.24704834,0.00046484
4357.17585571,0.00035892
4359.10466309,0.00027328
4361.03347046,0.00035594
4362.96227783,0.00043661
4364.89108520,0.00035701
4366.81989258,0.00027406
4368.74869995,0.00029685
4370.67750732,0.00036037
4372.60631470,0.00035162
4374.53512207,0.00042877
4376.46392944,0.00041669
4378.39273682,0.00025912
4380.32154419,0.00037557
4382.25035156,0.00038397
4384.17915894,0.00033268
4386.10796631,0.00038434
4388.03677368,0.00026107
4389.96558105,0.00031418
4391.89438843,0.00038815
4393.82319580,0.00026797
4395.75200317,0.00032858
4397.68081055,0.00043578
4399.60961792,0.00035973
4401.53842529,0.00036845
4403.46723267,0.00035876
4405.39604004,0.00027825
4407.32484741,0.00035477
4409.25365478,0.00032169
4411.18246216,0.00030260
4413.11126953,0.00040362
4415.04007690,0.00039693
4416.96888428,0.00036314
4418.89769165,0.00034998
4420.82649902,0.00034935
4422.75530640,0.00030705
4424.68411377,0.00030902
4426.61292114,0.00030706
4428.54172852,0.00029018
4430.47053589,0.00033487
4432.39934326,0.00032026
4434.32815063,0.00034123
4436.25695801,0.00032567
4438.18576538,0.00036024
4440.11457275,0.00045935
4442.04338013,0.00034905
4443.97218750,0.00030624
4445.90099487,0.00037591
4447.82980225,0.00034387
4449.75860962,0.00029512
4451.68741699,0.00031190
4453.61622437,0.00039400
4455.54503174,0.00039784
4457.47383911,0.00034103
4459.40264648,0.00037194
4461.33145386,0.00034331
4463.26026123,0.00025761
4465.18906860,0.00029685
4467.11787598,0.00031314
4469.04668335,0.00030595
4470.97549072,0.00031823
4472.90429810,0.00029106
4474.83310547,0.00030255
4476.76191284,0.00025610
4478.69072021,0.00024627
4480.61952759,0.00029029
4482.54833496,0.00028094
4484.47714233,0.00034897
4486.40594971,0.00032766
4488.33475708,0.00026554
4490.26356445,0.00030242
4492.19237183,0.00030810
4494.12117920,0.00033178
4496.04998657,0.00031160
4497.97879395,0.00031166
4499.90760132,0.00034399
4501.83640869,0.00033185
4503.76521606,0.00032804
4505.69402344,0.00021755
4507.62283081,0.00023941
4509.55163818,0.00030171
4511.48044556,0.00023159
4513.40925293,0.00028868
4515.33806030,0.00029396
4517.26686768,0.00028399
4519.19567505,0.00027118
4521.12448242,0.00027995
4523.05328979,0.00033350
4524.98209717,0.00024115
4526.91090454,0.00028689
4528.83971191,0.00031733
4530.76851929,0.00025145
4532.69732666,0.00025143
4534.62613403,0.00025028
4536.55494141,0.00032190
4538.48374878,0.00025328
4540.41255615,0.00023502
4542.34136353,0.00034506
4544.27017090,0.00032869
4546.19897827,0.00033708
4548.12778564,0.00034970
4550.05659302,0.00032657
4551.98540039,0.00030550
4553.91420776,0.00031864
4555.84301514,0.00030799
4557.77182251,0.00033758
4559.70062988,0.00036371
4561.62943726,0.00028818
4563.55824463,0.00030839
4565.48705200,0.00023122
4567.41585937,0.00027653
4569.34466675,0.00041410
4571.27347412,0.00028764
4573.20228149,0.00024458
4575.13108887,0.00024958
4577.05989624,0.00030809
4578.98870361,0.00029537
4580.91751099,0.00023514
4582.84631836,0.00028727
4584.77512573,0.00024657
4586.70393311,0.00029285
4588.63274048,0.00022831
4590.56154785,0.00025734
4592.49035522,0.00035405
4594.41916260,0.00024698
4596.34796997,0.00034786
4598.27677734,0.00030398
4600.20558472,0.00024379
4602.13439209,0.00031814
4604.06319946,0.00027466
4605.99200684,0.00025901
4607.92081421,0.00025593
4609.84962158,0.00029996
4611.77842895,0.00026509
4613.70723633,0.00034146
4615.63604370,0.00031569
4617.56485107,0.00018791
4619.49365845,0.00032235
4621.42246582,0.00027186
4623.35127319,0.00025721
4625.28008057,0.00029646
4627.20888794,0.00021551
4629.13769531,0.00025429
4631.06650269,0.00031155
4632.99531006,0.00028483
4634.92411743,0.00018339
4636.85292480,0.00022773
4638.78173218,0.00029053
4640.71053955,0.00032439
4642.63934692,0.00030268
4644.56815430,0.00023271
4646.49696167,0.00031668
4648.42576904,0.00028145
4650.35457642,0.00022937
4652.28338379,0.00019690
4654.21219116,0.00022313
4656.14099853,0.00031283
4658.06980591,0.00023881
4659.99861328,0.00024654
4661.92742065,0.00025190
4663.85622803,0.00021587
4665.78503540,0.00018215
4667.71384277,0.00020111
4669.64265015,0.00028094
4671.57145752,0.00019331
4673.50026489,0.00019758
4675.42907227,0.00025479
4677.35787964,0.00022466
4679.28668701,0.00026218
4681.21549438,0.00023216
4683.14430176,0.00018335
4685.07310913,0.00026421
4687.00191650,0.00026760
4688.93072388,0.00018282
4690.85953125,0.00022521
4692.78833862,0.00025058
4694.71714600,0.00024119
4696.64595337,0.00029259
4698.57476074,0.00026546
4700.50356812,0.00022142
4702.43237549,0.00027651
4704.36118286,0.00028456
4706.28999023,0.00025741
4708.21879761,0.00025239
4710.14760498,0.00018932
4712.07641235,0.00023671
4714.00521973,0.00028812
4715.93402710,0.00028886
4717.86283447,0.00028751
4719.79164185,0.00018039
4721.72044922,0.00022996
4723.64925659,0.00023765
4725.57806396,0.00019742
4727.50687134,0.00026519
4729.43567871,0.00021679
4731.36448608,0.00026880
4733.29329346,0.00026429
4735.22210083,0.00017983
4737.15090820,0.00020608
4739.07971558,0.00021669
4741.00852295,0.00026711
4742.93733032,0.00024084
4744.86613770,0.00021885
4746.79494507,0.00027735
4748.72375244,0.00028458
4750.65255981,0.00023313
4752.58136719,0.00020547
4754.51017456,0.00024344
4756.43898193,0.00013843
4758.36778931,0.00014817
4760.29659668,0.00030630
4762.22540405,0.00020729
4764.15421143,0.00014331
4766.08301880,0.00017453
4768.01182617,0.00014546
4769.94063354,0.00018453
4771.86944092,0.00023866
4773.79824829,0.00024773
4775.72705566,0.00020982
4777.65586304,0.00021485
4779.58467041,0.00021281
4781.51347778,0.00023827
4783.44228516,0.00025061
4785.37109253,0.00014289
4787.29989990,0.00016848
4789.22870728,0.00015662
4791.15751465,0.00019769
4793.08632202,0.00029303
4795.01512939,0.00020367
4796.94393677,0.00024193
4798.87274414,0.00026911
4800.80155151,0.00027638
4802.73035889,0.00021084
4804.65916626,0.00014995
4806.58797363,0.00027676
4808.51678101,0.00023397
4810.44558838,0.00019565
4812.37439575,0.00017764
4814.30320312,0.00018028
4816.23201050,0.00023428
4818.16081787,0.00019889
4820.08962524,0.00019285
4822.01843262,0.00020016
4823.94723999,0.00022525
4825.87604736,0.00014422
4827.80485474,0.00017884
4829.73366211,0.00027445
4831.66246948,0.00023263
4833.59127686,0.00024381
4835.52008423,0.00018345
4837.44889160,0.00019976
4839.37769897,0.00020348
4841.30650635,0.00019768
4843.23531372,0.00026813
4845.16412109,0.00020750
4847.09292847,0.00020626
4849.02173584,0.00024564
4850.95054321,0.00022052
4852.87935059,0.00014467
4854.80815796,0.00018693
4856.73696533,0.00025671
4858.66577270,0.00019630
4860.59458008,0.00022375
4862.52338745,0.00023626
4864.45219482,0.00020801
4866.38100220,0.00023319
4868.30980957,0.00026295
4870.23861694,0.00017539
4872.16742432,0.00014742
4874.09623169,0.00025205
4876.02503906,0.00022103
4877.95384644,0.00023975
4879.88265381,0.00023988
4881.81146118,0.00017404
4883.74026855,0.00020754
4885.66907593,0.00019948
4887.59788330,0.00017202
4889.52669067,0.00015688
4891.45549805,0.00014005
4893.38430542,0.00016905
4895.31311279,0.00019126
4897.24192017,0.00014052
4899.17072754,0.00015709
4901.09953491,0.00016728
4903.02834228,0.00017438
4904.95714966,0.00018411
4906.88595703,0.00005481
4908.81476440,0.00015615
4910.74357178,0.00020869
4912.67237915,0.00013920
4914.60118652,0.00020851
4916.52999390,0.00010770
4918.45880127,0.00015182
4920.38760864,0.00020599
4922.31641602,0.00015578
4924.24522339,0.00022091
4926.17403076,0.00012495
4928.10283813,0.00013132
4930.03164551,0.00022066
4931.96045288,0.00014085
4933.88926025,0.00008893
4935.81806763,0.00009772
4937.74687500,0.00021456
4939.67568237,0.00028337
4941.60448975,0.00013543
4943.53329712,0.00010623
4945.46210449,0.00019650
4947.39091187,0.00016777
4949.31971924,0.00011207
4951.24852661,0.00011085
4953.17733398,0.00020526
4955.10614136,0.00017576
4957.03494873,0.00010596
4958.96375610,0.00020699
4960.89256348,0.00019531
4962.82137085,0.00016982
4964.75017822,0.00018968
4966.67898560,0.00016272
4968.60779297,0.00018168
4970.53660034,0.00016316
4972.46540771,0.00011967
4974.39421509,0.00014824
4976.32302246,0.00020352
4978.25182983,0.00017574
4980.18063721,0.00012244
4982.10944458,0.00014500
4984.03825195,0.00017889
4985.96705933,0.00017873
4987.89586670,0.00021525
4989.82467407,0.00021968
4991.75348145,0.00019393
4993.68228882,0.00025267
4995.61109619,0.00020678
4997.53990356,0.00014925
4999.46871094,0.00018888
5001.39751831,0.00012910
5003.32632568,0.00012035
5005.25513306,0.00017022
5007.18394043,0.00011709
5009.11274780,0.00008819
5011.04155518,0.00014071
5012.97036255,0.00016964
5014.89916992,0.00022148
5016.82797729,0.00024109
5018.75678467,0.00014875
5020.68559204,0.00017371
5022.61439941,0.00019010
5024.54320679,0.00012889
5026.47201416,0.00018716
5028.40082153,0.00017236
5030.32962891,0.00011419
5032.25843628,0.00016210
5034.18724365,0.00016795
5036.11605103,0.00016072
5038.04485840,0.00016897
5039.97366577,0.00010023
5041.90247314,0.00012890
5043.83128052,0.00018934
5045.76008789,0.00014596
5047.68889526,0.00020915
5049.61770264,0.00019646
5051.54651001,0.00014317
5053.47531738,0.00018395
5055.40412476,0.00013025
5057.33293213,0.00014042
5059.26173950,0.00009601
5061.19054687,0.00006814
5063.11935425,0.00012601
5065.04816162,0.00005321
5066.97696899,0.00017717
5068.90577637,0.00021078
5070.83458374,0.00008071
5072.76339111,0.00017005
5074.69219849,0.00017458
5076.62100586,0.00017756
5078.54981323,0.00016550
5080.47862061,0.00008321
5082.40742798,0.00019475
5084.33623535,0.00019391
5086.26504272,0.00007793
5088.19385010,0.00016425
5090.12265747,0.00019932
5092.05146484,0.00014389
5093.98027222,0.00013461
5095.90907959,0.00008008
5097.83788696,0.00017726
5099.76669434,0.00021621
5101.69550171,0.00014356
5103.62430908,0.00018212
5105.55311645,0.00009994
5107.48192383,0.00014446
5109.41073120,0.00013489
5111.33953857,0.00005957
5113.26834595,0.00020741
5115.19715332,0.00016028
5117.12596069,0.00015211
5119.05476807,0.00018918
5120.98357544,0.00015640
5122.91238281,0.00016317
5124.84119019,0.00012478
5126.76999756,0.00016040
5128.69880493,0.00008884
5130.62761230,0.00011350
5132.55641968,0.00015858
5134.48522705,0.00006230
5136.41403442,0.00009804
5138.34284180,0.00007105
5140.27164917,0.00010139
5142.20045654,0.00010288
5144.12926392,0.00004543
5146.05807129,0.00016257
5147.98687866,0.00012839
5149.91568603,0.00006175
5151.84449341,0.00010882
5153.77330078,0.00008610
5155.70210815,0.00014062
5157.63091553,0.00017153
5159.55972290,0.00010578
5161.48853027,0.00012744
5163.41733765,0.00009943
5165.34614502,0.00009702
5167.27495239,0.00015068
5169.20375977,0.00015866
5171.13256714,0.00017302
5173.06137451,0.00008520
5174.99018188,0.00010463
5176.91898926,0.00018740
5178.84779663,0.00013471
5180.77660400,0.00010293
5182.70541138,0.00010390
5184.63421875,0.00013388
5186.56302612,0.00013498
5188.49183350,0.00016380
5190.42064087,0.00019335
5192.34944824,0.00015662
5194.27825562,0.00016758
5196.20706299,0.00017756
5198.13587036,0.00010703
5200.06467773,0.00007148
5201.99348511,0.00018624
5203.92229248,0.00017654
5205.85109985,0.00008795
5207.77990723,0.00011790
5209.70871460,0.00012074
5211.63752197,0.00013877
5213.56632935,0.00015710
5215.49513672,0.00014040
5217.42394409,0.00005855
5219.35275146,0.00005813
5221.28155884,0.00016608
5223.21036621,0.00010224
5225.13917358,0.00010028
5227.06798096,0.00018381
5228.99678833,0.00012191
5230.92559570,0.00013553
5232.85440308,0.00022024
5234.78321045,0.00019788
5236.71201782,0.00015406
5238.64082520,0.00012171
5240.56963257,0.00014186
5242.49843994,0.00016656
5244.42724731,0.00007484
5246.35605469,0.00003460
5248.28486206,0.00004066
5250.21366943,0.00008598
5252.14247681,0.00014909
5254.07128418,0.00010684
5256.00009155,0.00013281
5257.92889893,0.00015165
5259.85770630,0.00011765
5261.78651367,0.00015236
5263.71532104,0.00015745
5265.64412842,0.00009117
5267.57293579,0.00005275
5269.50174316,0.00008693
5271.43055054,0.00010080
5273.35935791,0.00009252
5275.28816528,0.00012385
5277.21697266,0.00016187
5279.14578003,0.00010668
5281.07458740,0.00008400
5283.00339478,0.00011500
5284.93220215,0.00011841
5286.86100952,0.00017028
5288.78981689,0.00010275
5290.71862427,0.00004971
5292.64743164,0.00010889
5294.57623901,0.00010284
5296.50504639,0.00012946
5298.43385376,0.00013437
5300.36266113,0.00011171
5302.29146851,0.00010544
5304.22027588,0.00007120
5306.14908325,0.00012967
5308.07789062,0.00020682
5310.00669800,0.00012799
5311.93550537,0.00007495
5313.86431274,0.00010133
5315.79312012,0.00003791
5317.72192749,0.00006041
5319.65073486,0.00008947
5321.57954224,0.00003452
5323.50834961,0.00010755
5325.43715698,0.00013141
5327.36596436,0.00007080
5329.29477173,0.00010044
5331.22357910,0.00015103
5333.15238647,0.00013675
5335.08119385,0.00012465
5337.01000122,0.00012730
5338.93880859,0.00010914
5340.86761597,0.00008477
5342.79642334,0.00006563
5344.72523071,0.00009428
5346.65403809,0.00007061
5348.58284546,0.00007765
5350.51165283,0.00014646
5352.44046020,0.00013249
5354.36926758,0.00013422
5356.29807495,0.00012673
5358.22688232,0.00010960
5360.15568970,0.00009494
5362.08449707,0.00010459
5364.01330444,0.00011523
5365.94211182,0.00006768
5367.87091919,0.00011158
5369.79972656,0.00012128
5371.72853394,0.00009892
5373.65734131,0.00011381
5375.58614868,0.00006167
5377.51495605,0.00006255
5379.44376343,0.00008324
5381.37257080,0.00006871
5383.30137817,0.00008132
5385.23018555,0.00009760
5387.15899292,0.00007905
5389.08780029,0.00007088
5391.01660767,0.00009034
5392.94541504,0.00009610
5394.87422241,0.00008003
5396.80302978,0.00008186
5398.73183716,0.00008232
5400.66064453,0.00006144
5402.58945190,0.00011764
5404.51825928,0.00008603
5406.44706665,0.00005365
5408.37587402,0.00014653
5410.30468140,0.00009367
5412.23348877,0.00007797
5414.16229614,0.00011705
5416.09110352,0.00004750
5418.01991089,0.00009530
5419.94871826,0.00015836
5421.87752563,0.00005770
5423.80633301,-0.00001644
5425.73514038,0.00006744
5427.66394775,0.00014805
5429.59275513,0.00013117
5431.52156250,0.00011108
5433.45036987,0.00011170
5435.37917725,0.00010874
5437.30798462,0.00011162
5439.23679199,0.00014276
5441.16559936,0.00013277
5443.09440674,0.00009842
5445.02321411,0.00008918
5446.95202148,0.00011196
5448.88082886,0.00015245
5450.80963623,0.00006159
5452.73844360,0.00004938
5454.66725098,0.00012226
5456.59605835,0.00006719
5458.52486572,0.00010813
5460.45367310,0.00015411
5462.38248047,0.00011268
5464.31128784,0.00008593
5466.24009521,0.00009321
5468.16890259,0.00012548
5470.09770996,0.00013285
5472.02651733,0.00016018
5473.95532471,0.00011189
5475.88413208,0.00011355
5477.81293945,0.00012119
5479.74174683,0.00002392
5481.67055420,0.00002449
5483.59936157,0.00009659
5485.52816895,0.00019685
5487.45697632,0.00006394
5489.38578369,-0.00004161
5491.31459106,0.00010504
5493.24339844,0.00007150
5495.17220581,0.00002553
5497.10101318,0.00003945
5499.02982056,0.00002127
5500.95862793,0.00005426
5502.88743530,0.00011381
5504.81624268,0.00008582
5506.74505005,0.00004963
5508.67385742,0.00011489
5510.60266479,0.00009361
5512.53147217,0.00005322
5514.46027954,0.00000941
5516.38908691,0.00008009
5518.31789429,0.00016392
5520.24670166,0.00008848
5522.17550903,0.00009186
5524.10431641,0.00004886
5526.03312378,0.00007524
5527.96193115,0.00010217
5529.89073853,0.00005226
5531.81954590,0.00009458
5533.74835327,0.00007685
5535.67716064,0.00008932
5537.60596802,0.00010577
5539.53477539,0.00011701
5541.46358276,0.00007850
5543.39239014,0.00004660
5545.32119751,0.00011531
5547.25000488,0.00004851
5549.17881226,0.00002927
5551.10761963,0.00009643
5553.03642700,0.00010907
5554.96523437,0.00011472
5556.89404175,0.00012962
5558.82284912,0.00011795
5560.75165649,0.00007954
5562.68046387,0.00009418
5564.60927124,0.00007135
5566.53807861,0.00004567
5568.46688599,0.00007258
5570.39569336,0.00010064
5572.32450073,0.00005293
5574.25330811,0.00007641
5576.18211548,0.00014529
5578.11092285,0.00006826
5580.03973022,0.00013417
5581.96853760,0.00012498
5583.89734497,0.00004986
5585.82615234,0.00014438
5587.75495972,0.00008942
5589.68376709,0.00004439
5591.61257446,0.00008116
5593.54138184,0.00006758
5595.47018921,0.00007028
5597.39899658,0.00011139
5599.32780395,0.00009803
5601.25661133,0.00007159
5603.18541870,0.00012040
5605.11422607,0.00010202
5607.04303345,0.00010843
5608.97184082,0.00016933
5610.90064819,0.00013730
5612.82945557,0.00008052
5614.75826294,0.00014157
5616.68707031,0.00017045
5618.61587769,0.00009410
5620.54468506,0.00010470
5622.47349243,0.00008363
5624.40229980,0.00006133
5626.33110718,0.00005847
5628.25991455,0.00008311
5630.18872192,0.00016876
5632.11752930,0.00008240
5634.04633667,0.00004790
5635.97514404,0.00009677
5637.90395142,0.00006128
5639.83275879,0.00002749
5641.76156616,0.00000517
5643.69037353,0.00007286
5645.61918091,0.00009528
5647.54798828,0.00007034
5649.47679565,0.00009648
5651.40560303,0.00009583
5653.33441040,0.00010093
5655.26321777,0.00008797
5657.19202515,0.00004415
5659.12083252,0.00008374
5661.04963989,0.00013520
5662.97844727,0.00011337
5664.90725464,0.00016059
5666.83606201,0.00011952
5668.76486938,0.00001463
5670.69367676,0.00010544
5672.62248413,0.00012521
5674.55129150,0.00009531
5676.48009888,0.00014918
5678.40890625,0.00010733
5680.33771362,0.00012351
5682.26652100,0.00016772
5684.19532837,0.00010869
5686.12413574,0.00004946
5688.05294311,0.00002328
5689.98175049,0.00005413
5691.91055786,0.00008014
5693.83936523,0.00007457
5695.76817261,0.00004723
5697.69697998,0.00005996
5699.62578735,0.00005066
5701.55459473,-0.00000105
5703.48340210,0.00007323
5705.41220947,0.00010030
5707.34101685,0.00007668
5709.26982422,0.00006593
5711.19863159,0.00002821
5713.12743896,0.00005098
5715.05624634,0.00006781
5716.98505371,0.00005109
5718.91386108,0.00002309
5720.84266846,0.00003154
5722.77147583,0.00001783
5724.70028320,0.00004607
5726.62909058,0.00009180
5728.55789795,0.00007419
5730.48670532,0.00008903
5732.41551270,0.00004161
5734.34432007,0.00004686
5736.27312744,0.00006332
5738.20193481,0.00011773
5740.13074219,0.00013711
5742.05954956,0.00000752
5743.98835693,0.00006653
5745.91716431,0.00012051
5747.84597168,0.00010909
5749.77477905,0.00009865
5751.70358643,0.00008438
5753.63239380,0.00008288
5755.56120117,0.00002959
5757.49000854,0.00005949
5759.41881592,0.00000440
5761.34762329,0.00005466
5763.27643066,0.00014088
5765.20523804,0.00008020
5767.13404541,0.00012959
5769.06285278,0.00004656
5770.99166016,-0.00003530
5772.92046753,0.00002237
5774.84927490,0.00006113
5776.77808228,0.00007377
5778.70688965,0.00003606
5780.63569702,0.00005291
5782.56450439,0.00009747
5784.49331177,0.00005444
5786.42211914,0.00003077
5788.35092651,0.00015431
5790.27973389,0.00009106
5792.20854126,-0.00001340
5794.13734863,0.00006467
5796.06615601,0.00003984
5797.99496338,0.00006365
5799.92377075,0.00005247
5801.85257812,0.00003916
5803.78138550,0.00008415
5805.71019287,0.00001690
5807.63900024,0.00004386
5809.56780762,0.00005874
5811.49661499,0.00001867
5813.42542236,0.00009611
5815.35422974,0.00010459
5817.28303711,0.00005101
5819.21184448,0.00010471
5821.14065186,0.00006002
5823.06945923,0.00004078
5824.99826660,0.00011232
5826.92707397,0.00004280
5828.85588135,0.00002021
5830.78468872,0.00001580
5832.71349609,0.00001300
5834.64230347,0.00003212
5836.57111084,0.00002793
5838.49991821,0.00003423
5840.42872559,0.00006210
5842.35753296,0.00011349
5844.28634033,0.00004926
5846.21514770,0.00000781
5848.14395508,-0.00000879
5850.07276245,0.00005605
5852.00156982,0.00010085
5853.93037720,0.00004712
5855.85918457,0.00009501
5857.78799194,0.00001665
5859.71679932,0.00003243
5861.64560669,0.00004389
5863.57441406,0.00002504
5865.50322144,0.00012381
5867.43202881,0.00005969
5869.36083618,0.00006731
5871.28964355,0.00006983
5873.21845093,0.00008728
5875.14725830,0.00010699
5877.07606567,0.00007706
5879.00487305,0.00011225
5880.93368042,0.00005737
5882.86248779,0.00002658
5884.79129517,0.00002609
5886.72010254,0.00008187
5888.64890991,0.00005106
5890.57771728,0.00003854
5892.50652466,0.00012779
5894.43533203,0.00007277
5896.36413940,0.00003537
5898.29294678,0.00002535
5900.22175415,0.00008058
5902.15056152,0.00007925
5904.07936890,0.00007711
5906.00817627,0.00010739
5907.93698364,0.00006728
5909.86579102,0.00010171
5911.79459839,0.00001479
5913.72340576,0.00000892
5915.65221313,0.00006684
5917.58102051,0.00002556
5919.50982788,0.00004730
5921.43863525,0.00005937
5923.36744263,0.00008218
5925.29625000,0.00007170
5927.22505737,0.00006296
5929.15386475,0.00006417
5931.08267212,0.00003386
5933.01147949,0.00005414
5934.94028686,0.00013146
5936.86909424,0.00009006
5938.79790161,-0.00000639
5940.72670898,0.00003192
5942.65551636,0.00005322
5944.58432373,0.00010990
5946.51313110,0.00008027
5948.44193848,0.00001403
5950.37074585,0.00007641
5952.29955322,0.00005521
5954.22836060,0.00005366
5956.15716797,0.00006030
5958.08597534,-0.00001405
5960.01478271,-0.00001512
5961.94359009,0.00009586
5963.87239746,0.00011743
5965.80120483,0.00008210
5967.73001221,0.00006996
5969.65881958,0.00001535
5971.58762695,0.00010669
5973.51643433,0.00007823
5975.44524170,-0.00004553
5977.37404907,0.00006233
5979.30285645,0.00009129
5981.23166382,0.00005785
5983.16047119,0.00005868
5985.08927856,0.00005087
5987.01808594,0.00008026
5988.94689331,0.00004193
5990.87570068,0.00002795
5992.80450806,0.00006684
5994.73331543,0.00004373
5996.66212280,0.00008906
5998.59093018,0.00009141
6000.51973755,0.00000710
