399.2631262207	0.6771988273
401.1919335938	0.5239188671
403.1207409668	0.4785851240
405.0495483398	0.3523880243
406.9783557129	0.3447071612
408.9071630859	0.4566621482
410.8359704590	0.5004008412
412.7647778320	0.4324541390
414.6935852051	0.5080114007
416.6223925781	0.5018497705
418.5511999512	0.3961610794
420.4800073242	0.3885170221
422.4088146973	0.5625574589
424.3376220703	0.5201425552
426.2664294434	0.3489961028
428.1952368164	0.4453268945
430.1240441895	0.5674103498
432.0528515625	0.5667366385
433.9816589355	0.5380205512
435.9104663086	0.4729980528
437.8392736816	0.4196991324
439.7680810547	0.4590851068
441.6968884277	0.5686982274
443.6256958008	0.4676048756
445.5545031738	0.5783204436
447.4833105469	0.6427930593
449.4121179199	0.5227664709
451.3409252930	0.4526948333
453.2697326660	0.3753090203
455.1985400391	0.5992437005
457.1273474121	0.6672040224
459.0561547852	0.6295844913
460.9849621582	0.6147088408
462.9137695313	0.6267069578
464.8425769043	0.6886756420
466.7713842773	0.4342086315
468.7001916504	0.6397139430
470.6289990234	1.0512762070
472.5578063965	0.7788866162
474.4866137695	1.2374259233
476.4154211426	0.6047683358
478.3442285156	0.6119160056
480.2730358887	1.6975256205
482.2018432617	1.3599895239
484.1306506348	2.2513482571
486.0594580078	1.5038197041
487.9882653809	1.9140220881
489.9170727539	1.0965322256
491.8458801270	1.0460593700
493.7746875000	2.3449525833
495.7034948730	0.8138107061
497.6323022461	1.7450071573
499.5611096191	0.7440301776
501.4899169922	0.7451345921
503.4187243652	4.3462386131
505.3475317383	1.8913992643
507.2763391113	2.3411064148
509.2051464844	2.4846251011
511.1339538574	1.2344632149
513.0627612305	0.9724816084
514.9915686035	3.3564975262
516.9203759766	1.8559190035
518.8491833496	1.5001372099
520.7779907227	9.6501617432
522.7067980957	2.5004138947
524.6356054688	2.3836092949
526.5644128418	1.9427813292
528.4932202148	2.2384653091
530.4220275879	1.5201303959
532.3508349609	1.4336079359
534.2796423340	-7.2535238266
536.2084497070	2.9498510361
538.1372570801	2.7149300575
540.0660644531	3.6354467869
541.9948718262	2.3229067326
543.9236791992	2.9914624691
545.8524865723	1.6028611660
547.7812939453	7.3667893410
549.7101013184	10.2141847610
551.6389086914	1.8055886030
553.5677160645	2.7667038441
555.4965234375	1.2231969833
557.4253308105	4.2440247536
559.3541381836	4.0395059586
561.2829455566	1.2389034033
563.2117529297	5.2023801804
565.1405603027	2.5465977192
567.0693676758	5.9681854248
568.9981750488	-4.6146230698
570.9269824219	1.7460451126
572.8557897949	15.9973583221
574.7845971680	19.9579963684
576.7134045410	2.6597299576
578.6422119141	2.9610900879
580.5710192871	2.4158909321
582.4998266602	4.4844274521
584.4286340332	3.9506230354
586.3574414063	3.5452511311
588.2862487793	7.1733231544
590.2150561523	6.2368416786
592.1438635254	2.7774806023
594.0726708984	12.2860431671
596.0014782715	3.0381510258
597.9302856445	1.5912929773
599.8590930176	9.2399673462
601.7879003906	3.9614560604
603.7167077637	8.7533559799
605.6455151367	4.0049862862
607.5743225098	-48.9551391602
609.5031298828	-4.3719153404
611.4319372559	5.7395868301
613.3607446289	4.0388746262
615.2895520020	2.2196168900
617.2183593750	24.3875083923
619.1471667480	9.8993530273
621.0759741211	1.1074914932
623.0047814941	3.1118867397
624.9335888672	14.5516738892
626.8623962402	-6.8437790871
628.7912036133	2.7830052376
630.7200109863	0.8977623582
632.6488183594	0.8787400126
634.5776257324	0.3548865020
636.5064331055	0.5239005089
638.4352404785	0.6546955109
640.3640478516	0.4971276522
642.2928552246	0.5236789584
644.2216625977	0.5566083193
646.1504699707	0.6111832261
648.0792773438	0.6799312830
650.0080847168	0.6338778138
651.9368920898	0.6042447686
653.8656994629	0.6018732190
655.7945068359	0.6263408065
657.7233142090	0.5115496516
659.6521215820	0.5840912461
661.5809289551	0.7443484068
663.5097363281	0.5747072101
665.4385437012	0.5660347939
667.3673510742	0.5415323973
669.2961584473	0.5050333142
671.2249658203	0.5393622518
673.1537731934	0.5307198167
675.0825805664	0.6077484488
677.0113879395	0.5949739814
678.9401953125	0.6364670396
680.8690026855	0.6303664446
682.7978100586	0.5605801344
684.7266174316	0.6567369103
686.6554248047	0.6009762287
688.5842321777	0.5852448940
690.5130395508	0.6131691337
692.4418469238	0.5735931993
694.3706542969	0.6442989707
696.2994616699	0.6438213587
698.2282690430	0.6286731958
700.1570764160	0.6560051441
702.0858837891	0.6360747814
704.0146911621	0.6468278170
705.9434985352	0.6535554528
707.8723059082	0.6032248735
709.8011132813	0.6607867479
711.7299206543	0.7152575254
713.6587280273	0.5913028717
715.5875354004	0.6423048377
717.5163427734	0.4988847673
719.4451501465	0.5675210357
721.3739575195	0.4995508790
723.3027648926	0.4190489948
725.2315722656	2.0253567696
727.1603796387	0.9333961606
729.0891870117	5.2120218277
731.0179943848	-6.6822571754
732.9468017578	3.6293179989
734.8756091309	-2.7012419701
736.8044165039	12.6626596451
738.7332238770	3.9762580395
740.6620312500	-1.7712612152
742.5908386230	4.7936134338
744.5196459961	3.7198143005
746.4484533691	-11.2589397430
748.3772607422	-5.5171737671
750.3060681152	1.4945522547
752.2348754883	1.0572378635
754.1636828613	20.3441352844
756.0924902344	1.9205709696
758.0212976074	3.0963287354
759.9501049805	22.5381736755
761.8789123535	4.0080938339
763.8077197266	1.7359240055
765.7365270996	2.0776889324
767.6653344727	2.6280980110
769.5941418457	0.7674930096
771.5229492188	1.4451336861
773.4517565918	4.8677697182
775.3805639648	1.5553994179
777.3093713379	1.9809086323
779.2381787109	1.3406418562
781.1669860840	0.8777112961
783.0957934570	1.4844799042
785.0246008301	1.4697353840
786.9534082031	1.2626779079
788.8822155762	0.9472863078
790.8110229492	0.8936462402
792.7398303223	0.9032282829
794.6686376953	1.1194038391
796.5974450684	0.9184636474
798.5262524414	0.7950243950
800.4550598145	0.9946315289
802.3838671875	0.7230934501
804.3126745605	0.6631599665
806.2414819336	0.9794586301
808.1702893066	1.0296736956
810.0990966797	1.2472388744
812.0279040527	1.5505485535
813.9567114258	1.5316653252
815.8855187988	0.8690220118
817.8143261719	0.9008292556
819.7431335449	2.3137362003
821.6719409180	1.9731010199
823.6007482910	1.1612085104
825.5295556641	0.7786819339
827.4583630371	0.7591391802
829.3871704102	1.1388133764
831.3159777832	0.9177954793
833.2447851563	0.5384451747
835.1735925293	0.8735654950
837.1023999023	1.1156977415
839.0312072754	0.7712971568
840.9600146484	0.7700910568
842.8888220215	0.8518136740
844.8176293945	0.8710932732
846.7464367676	1.0230537653
848.6752441406	0.9081951380
850.6040515137	0.6929673553
852.5328588867	0.9547639489
854.4616662598	1.1143620014
856.3904736328	0.8847902417
858.3192810059	1.3155512810
860.2480883789	1.5664525032
862.1768957520	0.5791962147
864.1057031250	1.1107938290
866.0345104980	2.0821719170
867.9633178711	1.0313935280
869.8921252441	1.0629327297
871.8209326172	1.9422878027
873.7497399902	2.2885684967
875.6785473633	1.4246622324
877.6073547363	1.0630996227
879.5361621094	1.3794641495
881.4649694824	1.7849352360
883.3937768555	1.5813890696
885.3225842285	3.4326763153
887.2513916016	6.7013082504
889.1801989746	2.6412436962
891.1090063477	2.7728035450
893.0378137207	1.6076083183
894.9666210938	1.4381474257
896.8954284668	1.5851727724
898.8242358398	1.4017205238
900.7530432129	1.2391675711
902.6818505859	1.2528218031
904.6106579590	1.6903129816
906.5394653320	1.1941900253
908.4682727051	0.9871799350
910.3970800781	1.5518268347
912.3258874512	1.6321052313
914.2546948242	1.4456976652
916.1835021973	1.1513663530
918.1123095703	0.8994529843
920.0411169434	1.0654855967
921.9699243164	1.0497115850
923.8987316895	1.0742312670
925.8275390625	0.8895735145
927.7563464355	0.8056415915
929.6851538086	1.0811611414
931.6139611816	0.8488022685
933.5427685547	0.8651863337
935.4715759277	1.1247276068
937.4003833008	0.9714111090
939.3291906738	0.9243584275
941.2579980469	0.9017208219
943.1868054199	0.8985787630
945.1156127930	1.0726119280
947.0444201660	1.0184338093
948.9732275391	0.9235278368
950.9020349121	0.9794051647
952.8308422852	1.0200718641
954.7596496582	1.0158133507
956.6884570313	0.8879320621
958.6172644043	0.8325090408
960.5460717773	0.9381689429
962.4748791504	1.0267331600
964.4036865234	0.8877610564
966.3324938965	0.8802653551
968.2613012695	1.0727516413
970.1901086426	0.9465295076
972.1189160156	0.9838036299
974.0477233887	1.0235773325
975.9765307617	0.9131841063
977.9053381348	0.9790125489
979.8341455078	0.9284465909
981.7629528809	0.9386697412
983.6917602539	0.9515876770
985.6205676270	0.9197691083
987.5493750000	0.9991161227
989.4781823730	1.0193123817
991.4069897461	0.9716739655
993.3357971191	0.9752624035
995.2646044922	0.9911649823
997.1934118652	0.9640460610
999.1222192383	0.9471061826
1001.0510266113	0.9682891965
1002.9798339844	1.0103101730
1004.9086413574	0.9834108949
1006.8374487305	0.9617514014
1008.7662561035	1.0034673214
1010.6950634766	0.9844231009
1012.6238708496	0.9666125178
1014.5526782227	0.9632983804
1016.4814855957	0.9735438228
1018.4102929688	0.9852772951
1020.3391003418	0.9709642529
1022.2679077148	0.9811336994
1024.1967150879	0.9691649079
1026.1255224609	0.9812285900
1028.0543298340	0.9985657334
1029.9831372070	0.9815760851
1031.9119445801	0.9832419753
1033.8407519531	0.9817177653
1035.7695593262	0.9893436432
1037.6983666992	0.9953158498
1039.6271740723	0.9936220050
1041.5559814453	0.9773234129
1043.4847888184	0.9710997343
1045.4135961914	0.9865595102
1047.3424035645	0.9811808467
1049.2712109375	0.9983159900
1051.2000183105	0.9979634881
1053.1288256836	0.9782114029
1055.0576330566	0.9824799895
1056.9864404297	0.9828408957
1058.9152478027	0.9929087758
1060.8440551758	0.9916251898
1062.7728625488	0.9922639132
1064.7016699219	0.9978528619
1066.6304772949	0.9906184077
1068.5592846680	0.9976068139
1070.4880920410	0.9884676933
1072.4168994141	0.9774689674
1074.3457067871	1.0014716387
1076.2745141602	0.9875046611
1078.2033215332	0.9697952271
1080.1321289062	1.0012587309
1082.0609362793	0.9849494696
1083.9897436523	0.9629732370
1085.9185510254	0.9763625860
1087.8473583984	0.9931320548
1089.7761657715	0.9881806970
1091.7049731445	0.9742062092
1093.6337805176	1.0101690292
1095.5625878906	1.0166064501
1097.4913952637	1.0063921213
1099.4202026367	0.9924337268
1101.3490100098	0.9637628794
1103.2778173828	0.9906065464
1105.2066247559	1.0225929022
1107.1354321289	1.0094342232
1109.0642395019	0.9877755642
1110.9930468750	0.9930446744
1112.9218542480	0.9820235372
1114.8506616211	0.9560658932
1116.7794689941	0.9589148164
1118.7082763672	1.0098150969
1120.6370837402	0.9923082590
1122.5658911133	0.9524591565
1124.4946984863	1.0000103712
1126.4235058594	0.9925759435
1128.3523132324	1.0128941536
1130.2811206055	1.0144231319
1132.2099279785	0.9645950198
1134.1387353516	0.9779039621
1136.0675427246	0.9981448054
1137.9963500977	1.0186756849
1139.9251574707	0.9871752858
1141.8539648437	0.9914107919
1143.7827722168	0.9987295866
1145.7115795898	0.9770546556
1147.6403869629	0.9989084005
1149.5691943359	0.9954720736
1151.4980017090	0.9853932858
1153.4268090820	0.9793562889
1155.3556164551	0.9975466728
1157.2844238281	1.0042163134
1159.2132312012	0.9875032902
1161.1420385742	1.0015840530
1163.0708459473	0.9997486472
1164.9996533203	0.9882958531
1166.9284606934	0.9794857502
1168.8572680664	0.9840745926
1170.7860754394	0.9908025861
1172.7148828125	0.9937317967
1174.6436901855	0.9962739944
1176.5724975586	0.9872913361
1178.5013049316	1.0008515120
1180.4301123047	1.0072015524
1182.3589196777	1.0034061670
1184.2877270508	0.9998979568
1186.2165344238	0.9942037463
1188.1453417969	0.9986784458
1190.0741491699	0.9897558093
1192.0029565430	0.9885012507
1193.9317639160	0.9948720932
1195.8605712891	0.9929232597
1197.7893786621	0.9946784377
1199.7181860351	0.9928717017
1201.6469934082	0.9930783510
1203.5758007812	0.9968518019
1205.5046081543	0.9920699000
1207.4334155273	0.9912405610
1209.3622229004	0.9989590049
1211.2910302734	0.9973659515
1213.2198376465	0.9934197068
1215.1486450195	0.9952243567
1217.0774523926	0.9926289916
1219.0062597656	0.9906510115
1220.9350671387	0.9957335591
1222.8638745117	0.9941123128
1224.7926818848	0.9914737344
1226.7214892578	0.9975916147
1228.6502966308	0.9970916510
1230.5791040039	0.9941704273
1232.5079113769	0.9927396774
1234.4367187500	0.9976114035
1236.3655261230	0.9995141029
1238.2943334961	0.9908509851
1240.2231408691	0.9959883690
1242.1519482422	0.9963524938
1244.0807556152	0.9954468608
1246.0095629883	0.9994964600
1247.9383703613	0.9917082191
1249.8671777344	0.9936256409
1251.7959851074	0.9951394200
1253.7247924805	0.9939386845
1255.6535998535	0.9964200258
1257.5824072266	0.9939545989
1259.5112145996	0.9951421618
1261.4400219726	0.9967485070
1263.3688293457	0.9971681237
1265.2976367187	0.9988490343
1267.2264440918	1.0019226074
1269.1552514648	0.9998054504
1271.0840588379	0.9990856647
1273.0128662109	0.9989844561
1274.9416735840	0.9920552969
1276.8704809570	0.9974741936
1278.7992883301	0.9993849993
1280.7280957031	0.9949741364
1282.6569030762	1.0004844666
1284.5857104492	1.0018043518
1286.5145178223	1.0010191202
1288.4433251953	0.9987931252
1290.3721325683	0.9972341061
1292.3009399414	0.9959968328
1294.2297473144	0.9951817393
1296.1585546875	1.0020003319
1298.0873620605	1.0006455183
1300.0161694336	0.9949828982
1301.9449768066	0.9970340729
1303.8737841797	0.9981968999
1305.8025915527	0.9974188209
1307.7313989258	1.0021872520
1309.6602062988	1.0011346340
1311.5890136719	0.9936246276
1313.5178210449	0.9972004890
1315.4466284180	0.9961314201
1317.3754357910	0.9978445172
1319.3042431640	1.0023047924
1321.2330505371	0.9963534474
1323.1618579101	0.9996086955
1325.0906652832	0.9960983992
1327.0194726562	0.9941982627
1328.9482800293	0.9984863400
1330.8770874023	0.9960531592
1332.8058947754	1.0004841089
1334.7347021484	0.9984908104
1336.6635095215	0.9953210354
1338.5923168945	0.9937604070
1340.5211242676	0.9968932867
1342.4499316406	1.0023363829
1344.3787390137	0.9964881539
1346.3075463867	0.9976871610
1348.2363537597	0.9951915145
1350.1651611328	0.9964560866
1352.0939685058	0.9996450543
1354.0227758789	0.9917355180
1355.9515832519	0.9966109395
1357.8803906250	0.9974057674
1359.8091979980	0.9955412745
1361.7380053711	0.9950181246
1363.6668127441	0.9963110685
1365.5956201172	1.0057127476
1367.5244274902	1.0004698038
1369.4532348633	0.9946699142
1371.3820422363	0.9946494699
1373.3108496094	0.9947853088
1375.2396569824	0.9988677502
1377.1684643555	1.0006294250
1379.0972717285	0.9992018342
1381.0260791015	0.9961645603
1382.9548864746	1.0008246899
1384.8836938476	1.0000756979
1386.8125012207	0.9957318902
1388.7413085937	1.0009524822
1390.6701159668	0.9999274015
1392.5989233398	0.9977636933
1394.5277307129	0.9982156754
1396.4565380859	0.9937284589
1398.3853454590	0.9931447506
1400.3141528320	0.9962261915
1402.2429602051	0.9971818924
1404.1717675781	1.0007276535
1406.1005749512	0.9974889159
1408.0293823242	0.9910568595
1409.9581896972	0.9971942306
1411.8869970703	1.0010757446
1413.8158044433	0.9972707629
1415.7446118164	0.9959473014
1417.6734191894	0.9960211515
1419.6022265625	0.9956364036
1421.5310339355	0.9926143289
1423.4598413086	0.9921374917
1425.3886486816	0.9962894320
1427.3174560547	0.9963305593
1429.2462634277	0.9941100478
1431.1750708008	0.9957479835
1433.1038781738	0.9974766374
1435.0326855469	0.9945343137
1436.9614929199	0.9919101000
1438.8903002929	0.9963949919
1440.8191076660	0.9948768616
1442.7479150390	0.9902195930
1444.6767224121	0.9932274222
1446.6055297851	0.9910233021
1448.5343371582	0.9938710928
1450.4631445312	0.9983085394
1452.3919519043	0.9929767847
1454.3207592773	0.9943710566
1456.2495666504	0.9917281270
1458.1783740234	0.9894042015
1460.1071813965	0.9941211939
1462.0359887695	0.9957341552
1463.9647961426	0.9950749278
1465.8936035156	0.9911897182
1467.8224108886	0.9957109094
1469.7512182617	0.9958850145
1471.6800256347	0.9910855293
1473.6088330078	0.9926314950
1475.5376403808	0.9938935637
1477.4664477539	0.9956523776
1479.3952551269	0.9948372841
1481.3240625000	0.9965031147
1483.2528698730	0.9956029058
1485.1816772461	0.9927996397
1487.1104846191	0.9945223331
1489.0392919922	0.9923018217
1490.9680993652	0.9910923243
1492.8969067383	0.9927198291
1494.8257141113	0.9930177331
1496.7545214843	0.9897447824
1498.6833288574	0.9909994602
1500.6121362304	0.9923334122
1502.5409436035	0.9911987185
1504.4697509765	0.9925415516
1506.3985583496	0.9823501110
1508.3273657226	0.9856548905
1510.2561730957	0.9908850193
1512.1849804687	0.9877489805
1514.1137878418	0.9918842316
1516.0425952148	0.9868754148
1517.9714025879	0.9865042567
1519.9002099609	0.9865394235
1521.8290173340	0.9822493196
1523.7578247070	0.9878847599
1525.6866320801	0.9853945971
1527.6154394531	0.9840505719
1529.5442468261	0.9851024151
1531.4730541992	0.9860359430
1533.4018615722	0.9849774837
1535.3306689453	0.9840077162
1537.2594763183	0.9852770567
1539.1882836914	0.9791040421
1541.1170910644	0.9787501693
1543.0458984375	0.9792544246
1544.9747058105	0.9793498516
1546.9035131836	0.9821285605
1548.8323205566	0.9802183509
1550.7611279297	0.9788283110
1552.6899353027	0.9770861268
1554.6187426758	0.9760006070
1556.5475500488	0.9750401378
1558.4763574218	0.9695476890
1560.4051647949	0.9676729441
1562.3339721679	0.9745269418
1564.2627795410	0.9746784568
1566.1915869140	0.9703042507
1568.1203942871	0.9698675275
1570.0492016601	0.9652549624
1571.9780090332	0.9674943686
1573.9068164062	0.9679459929
1575.8356237793	0.9626303911
1577.7644311523	0.9636123776
1579.6932385254	0.9617424011
1581.6220458984	0.9592327476
1583.5508532715	0.9579073191
1585.4796606445	0.9559316635
1587.4084680175	0.9537644982
1589.3372753906	0.9514006972
1591.2660827636	0.9481590390
1593.1948901367	0.9439265728
1595.1236975097	0.9405429959
1597.0525048828	0.9379093647
1598.9813122558	0.9366141558
1600.9101196289	0.9338486791
1602.8389270019	0.9282026887
1604.7677343750	0.9238055348
1606.6965417480	0.9211575985
1608.6253491211	0.9148230553
1610.5541564941	0.9096453190
1612.4829638672	0.9060946107
1614.4117712402	0.8997984529
1616.3405786132	0.8961309195
1618.2693859863	0.8929898739
1620.1981933593	0.8890274167
1622.1270007324	0.8850250244
1624.0558081054	0.8789633512
1625.9846154785	0.8751822114
1627.9134228515	0.8713641167
1629.8422302246	0.8681263924
1631.7710375976	0.8677392006
1633.6998449707	0.8642209768
1635.6286523437	0.8602329493
1637.5574597168	0.8612020016
1639.4862670898	0.8633807302
1641.4150744629	0.8640260696
1643.3438818359	0.8641623259
1645.2726892090	0.8651697040
1647.2014965820	0.8642634749
1649.1303039550	0.8707640171
1651.0591113281	0.8737091422
1652.9879187011	0.8704294562
1654.9167260742	0.8773370981
1656.8455334472	0.8827449679
1658.7743408203	0.8864114285
1660.7031481933	0.8894526958
1662.6319555664	0.8930500746
1664.5607629394	0.8963936567
1666.4895703125	0.9014105201
1668.4183776855	0.9053313136
1670.3471850586	0.9079551101
1672.2759924316	0.9143020511
1674.2047998047	0.9160738587
1676.1336071777	0.9192445874
1678.0624145507	0.9259191751
1679.9912219238	0.9301956892
1681.9200292968	0.9335577488
1683.8488366699	0.9335759282
1685.7776440429	0.9377084970
1687.7064514160	0.9454196095
1689.6352587890	0.9475545883
1691.5640661621	0.9526464343
1693.4928735351	0.9565669298
1695.4216809082	0.9550787210
1697.3504882812	0.9626739025
1699.2792956543	0.9641979337
1701.2081030273	0.9646716714
1703.1369104004	0.9718279839
1705.0657177734	0.9723640680
1706.9945251464	0.9786475301
1708.9233325195	0.9825799465
1710.8521398925	0.9839916229
1712.7809472656	0.9882845879
1714.7097546386	0.9878090024
1716.6385620117	0.9883692861
1718.5673693847	0.9912695289
1720.4961767578	0.9951723218
1722.4249841308	0.9974701405
1724.3537915039	0.9982529879
1726.2825988769	1.0005916357
1728.2114062500	1.0014880896
1730.1402136230	1.0032377243
1732.0690209961	1.0031541586
1733.9978283691	1.0005556345
1735.9266357421	1.0064148903
1737.8554431152	1.0071809292
1739.7842504882	1.0045685768
1741.7130578613	1.0086030960
1743.6418652343	1.0093133450
1745.5706726074	1.0110696554
1747.4994799804	1.0135432482
1749.4282873535	1.0126563311
1751.3570947265	1.0126136541
1753.2859020996	1.0149769783
1755.2147094726	1.0171999931
1757.1435168457	1.0141040087
1759.0723242187	1.0160348415
1761.0011315918	1.0191582441
1762.9299389648	1.0186401606
1764.8587463379	1.0203756094
1766.7875537109	1.0182784796
1768.7163610839	1.0180263519
1770.6451684570	1.0200209618
1772.5739758300	1.0193182230
1774.5027832031	1.0185282230
1776.4315905761	1.0203422308
1778.3603979492	1.0224156380
1780.2892053222	1.0204229355
1782.2180126953	1.0224961042
1784.1468200683	1.0233623981
1786.0756274414	1.0211875439
1788.0044348144	1.0242452621
1789.9332421875	1.0247087479
1791.8620495605	1.0218647718
1793.7908569336	1.0245150328
1795.7196643066	1.0265519619
1797.6484716796	1.0247883797
1799.5772790527	1.0245071650
1801.5060864257	1.0231264830
1803.4348937988	1.0240458250
1805.3637011718	1.0254139900
1807.2925085449	1.0256546736
1809.2213159179	1.0266937017
1811.1501232910	1.0237060785
1813.0789306640	1.0259838104
1815.0077380371	1.0278911591
1816.9365454101	1.0263901949
1818.8653527832	1.0281745195
1820.7941601562	1.0269372463
1822.7229675293	1.0272564888
1824.6517749023	1.0272957087
1826.5805822753	1.0265533924
1828.5093896484	1.0277034044
1830.4381970214	1.0271070004
1832.3670043945	1.0271912813
1834.2958117675	1.0275923014
1836.2246191406	1.0279965401
1838.1534265136	1.0265904665
1840.0822338867	1.0278000832
1842.0110412597	1.0283777714
1843.9398486328	1.0253572464
1845.8686560058	1.0288738012
1847.7974633789	1.0279936790
1849.7262707519	1.0262439251
1851.6550781250	1.0304809809
1853.5838854980	1.0291947126
1855.5126928710	1.0278631449
1857.4415002441	1.0282136202
1859.3703076171	1.0275436640
1861.2991149902	1.0277740955
1863.2279223632	1.0287817717
1865.1567297363	1.0302423239
1867.0855371093	1.0274182558
1869.0143444824	1.0267336369
1870.9431518554	1.0283364058
1872.8719592285	1.0270150900
1874.8007666015	1.0286654234
1876.7295739746	1.0295343399
1878.6583813476	1.0291200876
1880.5871887207	1.0305111408
1882.5159960937	1.0305498838
1884.4448034667	1.0288662910
1886.3736108398	1.0286520720
1888.3024182128	1.0294228792
1890.2312255859	1.0284334421
1892.1600329589	1.0290849209
1894.0888403320	1.0287498236
1896.0176477050	1.0277522802
1897.9464550781	1.0284374952
1899.8752624511	1.0273202658
1901.8040698242	1.0279616117
1903.7328771972	1.0294892788
1905.6616845703	1.0276316404
1907.5904919433	1.0250723362
1909.5192993164	1.0273452997
1911.4481066894	1.0286829472
1913.3769140625	1.0267643929
1915.3057214355	1.0282741785
1917.2345288085	1.0269366503
1919.1633361816	1.0258349180
1921.0921435546	1.0262384415
1923.0209509277	1.0249427557
1924.9497583007	1.0276490450
1926.8785656738	1.0282095671
1928.8073730468	1.0273878574
1930.7361804199	1.0267591476
1932.6649877929	1.0266968012
1934.5937951660	1.0287796259
1936.5226025390	1.0270785093
1938.4514099121	1.0269376040
1940.3802172851	1.0284870863
1942.3090246582	1.0274300575
1944.2378320312	1.0273643732
1946.1666394042	1.0265116692
1948.0954467773	1.0255640745
1950.0242541503	1.0265772343
1951.9530615234	1.0262398720
1953.8818688964	1.0262454748
1955.8106762695	1.0266934633
1957.7394836425	1.0255763531
1959.6682910156	1.0270020962
1961.5970983886	1.0264556408
1963.5259057617	1.0249226093
1965.4547131347	1.0252237320
1967.3835205078	1.0242587328
1969.3123278808	1.0261636972
1971.2411352539	1.0246076584
1973.1699426269	1.0250806808
1975.0987499999	1.0275626183
1977.0275573730	1.0232388973
1978.9563647460	1.0249806643
1980.8851721191	1.0260044336
1982.8139794921	1.0244581699
1984.7427868652	1.0256720781
1986.6715942382	1.0243868828
1988.6004016113	1.0258002281
1990.5292089843	1.0247975588
1992.4580163574	1.0225222111
1994.3868237304	1.0236316919
1996.3156311035	1.0231722593
1998.2444384765	1.0225516558
2000.1732458496	1.0224454403
2002.1020532226	1.0224891901
2004.0308605956	1.0221953392
2005.9596679687	1.0216034651
2007.8884753417	1.0230972767
2009.8172827148	1.0243494511
2011.7460900878	1.0217564106
2013.6748974609	1.0218613148
2015.6037048339	1.0226804018
2017.5325122070	1.0210586786
2019.4613195800	1.0219937563
2021.3901269531	1.0213018656
2023.3189343261	1.0220305920
2025.2477416992	1.0221793652
2027.1765490722	1.0213454962
2029.1053564453	1.0226669312
2031.0341638183	1.0194659233
2032.9629711914	1.0202562809
2034.8917785644	1.0233312845
2036.8205859374	1.0208213329
2038.7493933105	1.0197778940
2040.6782006835	1.0207277536
2042.6070080566	1.0204105377
2044.5358154296	1.0193246603
2046.4646228027	1.0193730593
2048.3934301757	1.0210815668
2050.3222375488	1.0210386515
2052.2510449218	1.0184792280
2054.1798522949	1.0195960999
2056.1086596679	1.0200765133
2058.0374670410	1.0184081793
2059.9662744140	1.0189200640
2061.8950817871	1.0193775892
2063.8238891601	1.0216299295
2065.7526965331	1.0200194120
2067.6815039062	1.0168468952
2069.6103112792	1.0172985792
2071.5391186523	1.0177648067
2073.4679260253	1.0186952353
2075.3967333984	1.0181901455
2077.3255407714	1.0174285173
2079.2543481445	1.0166165829
2081.1831555175	1.0162079334
2083.1119628906	1.0168844461
2085.0407702636	1.0186721087
2086.9695776367	1.0182474852
2088.8983850097	1.0172038078
2090.8271923828	1.0188264847
2092.7559997558	1.0167975426
2094.6848071288	1.0176658630
2096.6136145019	1.0177431107
2098.5424218749	1.0163707733
2100.4712292480	1.0178207159
2102.4000366210	1.0164328814
2104.3288439941	1.0178806782
2106.2576513671	1.0155998468
2108.1864587402	1.0146477222
2110.1152661132	1.0172610283
2112.0440734863	1.0154924393
2113.9728808593	1.0155105591
2115.9016882324	1.0162761211
2117.8304956054	1.0180548429
2119.7593029785	1.0163048506
2121.6881103515	1.0160642862
2123.6169177245	1.0171996355
2125.5457250976	1.0156750679
2127.4745324706	1.0179852247
2129.4033398437	1.0156735182
2131.3321472167	1.0150476694
2133.2609545898	1.0167778730
2135.1897619628	1.0159238577
2137.1185693359	1.0176035166
2139.0473767089	1.0156388283
2140.9761840820	1.0148830414
2142.9049914550	1.0168482065
2144.8337988281	1.0161020756
2146.7626062011	1.0165510178
2148.6914135742	1.0170443058
2150.6202209472	1.0160671473
2152.5490283203	1.0158039331
2154.4778356933	1.0147714615
2156.4066430663	1.0158632994
2158.3354504394	1.0169854164
2160.2642578124	1.0151724815
2162.1930651855	1.0173211098
2164.1218725585	1.0183978081
2166.0506799316	1.0181866884
2167.9794873046	1.0185598135
2169.9082946777	1.0161563158
2171.8371020507	1.0162748098
2173.7659094238	1.0170439482
2175.6947167968	1.0177381039
2177.6235241699	1.0176177025
2179.5523315429	1.0164858103
2181.4811389160	1.0171357393
2183.4099462890	1.0168278217
2185.3387536620	1.0177483559
2187.2675610351	1.0199537277
2189.1963684081	1.0198700428
2191.1251757812	1.0186036825
2193.0539831542	1.0178759098
2194.9827905273	1.0180101395
2196.9115979003	1.0201199055
2198.8404052734	1.0202995539
2200.7692126464	1.0171915293
2202.6980200195	1.0173941851
2204.6268273925	1.0183911324
2206.5556347656	1.0186387300
2208.4844421386	1.0195736885
2210.4132495117	1.0188120604
2212.3420568847	1.0199321508
2214.2708642577	1.0204857588
2216.1996716308	1.0188260078
2218.1284790038	1.0204913616
2220.0572863769	1.0204879045
2221.9860937499	1.0199768543
2223.9149011230	1.0205479860
2225.8437084960	1.0186802149
2227.7725158691	1.0200264454
2229.7013232421	1.0199462175
2231.6301306152	1.0204323530
2233.5589379882	1.0226694345
2235.4877453613	1.0208258629
2237.4165527343	1.0209430456
2239.3453601074	1.0197083950
2241.2741674804	1.0206528902
2243.2029748534	1.0217326880
2245.1317822265	1.0195896626
2247.0605895995	1.0223531723
2248.9893969726	1.0219113827
2250.9182043456	1.0208886862
2252.8470117187	1.0218002796
2254.7758190917	1.0209829807
2256.7046264648	1.0229885578
2258.6334338378	1.0229816437
2260.5622412109	1.0217931271
2262.4910485839	1.0243687630
2264.4198559570	1.0232853889
2266.3486633300	1.0208568573
2268.2774707031	1.0244494677
2270.2062780761	1.0248125792
2272.1350854491	1.0235739946
2274.0638928222	1.0238673687
2275.9927001952	1.0236039162
2277.9215075683	1.0245223045
2279.8503149413	1.0235106945
2281.7791223144	1.0246714354
2283.7079296874	1.0231317282
2285.6367370605	1.0232784748
2287.5655444335	1.0254304409
2289.4943518066	1.0208081007
2291.4231591796	1.0232163668
2293.3519665527	1.0243829489
2295.2807739257	1.0215343237
2297.2095812988	1.0231273174
2299.1383886718	1.0222730637
2301.0671960449	1.0220462084
2302.9960034179	1.0210090876
2304.9248107909	1.0201897621
2306.8536181640	1.0213669538
2308.7824255370	1.0217459202
2310.7112329101	1.0211635828
2312.6400402831	1.0191470385
2314.5688476562	1.0198211670
2316.4976550292	1.0184550285
2318.4264624023	1.0136066675
2320.3552697753	1.0143746138
2322.2840771484	1.0149517059
2324.2128845214	1.0118150711
2326.1416918945	1.0121741295
2328.0704992675	1.0115486383
2329.9993066406	1.0101574659
2331.9281140136	1.0098361969
2333.8569213866	1.0085397959
2335.7857287597	1.0099964142
2337.7145361327	1.0101817846
2339.6433435058	1.0090029240
2341.5721508788	1.0091117620
2343.5009582519	1.0104302168
2345.4297656249	1.0121067762
2347.3585729980	1.0155882835
2349.2873803710	1.0203166008
2351.2161877441	1.0167298317
2353.1449951171	1.0118739605
2355.0738024902	1.0095059872
2357.0026098632	1.0041990280
2358.9314172363	1.0043696165
2360.8602246093	1.0054558516
2362.7890319823	1.0048667192
2364.7178393554	1.0048695803
2366.6466467284	1.0059256554
2368.5754541015	1.0081458092
2370.5042614745	1.0098371506
2372.4330688476	1.0138071775
2374.3618762206	1.0158143044
2376.2906835937	1.0182297230
2378.2194909667	1.0219701529
2380.1482983398	1.0242929459
2382.0771057128	1.0274978876
2384.0059130859	1.0264973640
2385.9347204589	1.0261914730
2387.8635278320	1.0275416374
2389.7923352050	1.0265872478
2391.7211425780	1.0289546251
2393.6499499511	1.0290116072
2395.5787573241	1.0296763182
2397.5075646972	1.0304019451
2399.4363720702	1.0264668465
2401.3651794433	1.0289642811
2403.2939868163	1.0293878317
2405.2227941894	1.0271815062
2407.1516015624	1.0297921896
2409.0804089355	1.0292993784
2411.0092163085	1.0295428038
2412.9380236816	1.0295258760
2414.8668310546	1.0298444033
2416.7956384277	1.0317621231
2418.7244458007	1.0283575058
2420.6532531738	1.0272579193
2422.5820605468	1.0307295322
2424.5108679198	1.0308917761
2426.4396752929	1.0290518999
2428.3684826659	1.0290675163
2430.2972900390	1.0290813446
2432.2260974120	1.0299955606
2434.1549047851	1.0297189951
2436.0837121581	1.0268576145
2438.0125195312	1.0296949148
2439.9413269042	1.0310831070
2441.8701342773	1.0292068720
2443.7989416503	1.0309532881
2445.7277490234	1.0295457840
2447.6565563964	1.0296478271
2449.5853637695	1.0310498476
2451.5141711425	1.0292212963
2453.4429785155	1.0292128325
2455.3717858886	1.0291436911
2457.3005932616	1.0304323435
2459.2294006347	1.0318918228
2461.1582080077	1.0311520100
2463.0870153808	1.0299803019
2465.0158227538	1.0297216177
2466.9446301269	1.0320609808
2468.8734374999	1.0319211483
2470.8022448730	1.0312789679
2472.7310522460	1.0312039852
2474.6598596191	1.0302824974
2476.5886669921	1.0310121775
2478.5174743652	1.0294047594
2480.4462817382	1.0303145647
2482.3750891112	1.0318691730
2484.3038964843	1.0298753977
2486.2327038573	1.0302118063
2488.1615112304	1.0291510820
2490.0903186034	1.0291950703
2492.0191259765	1.0312821865
2493.9479333495	1.0307561159
2495.8767407226	1.0298117399
2497.8055480956	1.0292174816
2499.7343554687	1.0310153961
2501.6631628417	1.0322204828
2503.5919702148	1.0307211876
2505.5207775878	1.0304135084
2507.4495849609	1.0303859711
2509.3783923339	1.0307717323
2511.3071997069	1.0299297571
2513.2360070800	1.0286680460
2515.1648144530	1.0314007998
2517.0936218261	1.0314104557
2519.0224291991	1.0313017368
2520.9512365722	1.0348426104
2522.8800439452	1.0327647924
2524.8088513183	1.0305898190
2526.7376586913	1.0310850143
2528.6664660644	1.0307155848
2530.5952734374	1.0311633348
2532.5240808105	1.0318473577
2534.4528881835	1.0324226618
2536.3816955566	1.0306020975
2538.3105029296	1.0313417912
2540.2393103027	1.0321352482
2542.1681176757	1.0305397511
2544.0969250487	1.0317176580
2546.0257324218	1.0314980745
2547.9545397948	1.0317126513
2549.8833471679	1.0323237181
2551.8121545409	1.0329357386
2553.7409619140	1.0319387913
2555.6697692870	1.0305678844
2557.5985766601	1.0317429304
2559.5273840331	1.0297329426
2561.4561914062	1.0310909748
2563.3849987792	1.0313758850
2565.3138061523	1.0299072266
2567.2426135253	1.0321240425
2569.1714208984	1.0319247246
2571.1002282714	1.0321046114
2573.0290356444	1.0293146372
2574.9578430175	1.0304664373
2576.8866503905	1.0338761806
2578.8154577636	1.0320010185
2580.7442651366	1.0323965549
2582.6730725097	1.0317984819
2584.6018798827	1.0323928595
2586.5306872558	1.0313400030
2588.4594946288	1.0306134224
2590.3883020019	1.0323876143
2592.3171093749	1.0307732821
2594.2459167480	1.0306897163
2596.1747241210	1.0301731825
2598.1035314941	1.0300981998
2600.0323388671	1.0294004679
2601.9611462401	1.0309540033
2603.8899536132	1.0326108932
2605.8187609862	1.0296266079
2607.7475683593	1.0307670832
2609.6763757323	1.0309990644
2611.6051831054	1.0320132971
2613.5339904784	1.0319302082
2615.4627978515	1.0305223465
2617.3916052245	1.0317763090
2619.3204125976	1.0281065702
2621.2492199706	1.0284520388
2623.1780273437	1.0311350822
2625.1068347167	1.0309776068
2627.0356420898	1.0327161551
2628.9644494628	1.0334261656
2630.8932568358	1.0309890509
2632.8220642089	1.0312362909
2634.7508715819	1.0331318378
2636.6796789550	1.0297753811
2638.6084863280	1.0305964947
2640.5372937011	1.0314236879
2642.4661010741	1.0306932926
2644.3949084472	1.0308862925
2646.3237158202	1.0295795202
2648.2525231933	1.0320246220
2650.1813305663	1.0291339159
2652.1101379394	1.0306917429
2654.0389453124	1.0322868824
2655.9677526855	1.0269809961
2657.8965600585	1.0303560495
2659.8253674315	1.0313345194
2661.7541748046	1.0305505991
2663.6829821776	1.0289403200
2665.6117895507	1.0275393724
2667.5405969237	1.0311464071
2669.4694042968	1.0295594931
2671.3982116698	1.0290004015
2673.3270190429	1.0310595036
2675.2558264159	1.0294449329
2677.1846337890	1.0289195776
2679.1134411620	1.0313353539
2681.0422485351	1.0288585424
2682.9710559081	1.0273947716
2684.8998632812	1.0313675404
2686.8286706542	1.0309135914
2688.7574780273	1.0297487974
2690.6862854003	1.0293161869
2692.6150927733	1.0291737318
2694.5439001464	1.0292270184
2696.4727075194	1.0300533772
2698.4015148925	1.0308916569
2700.3303222655	1.0289616585
2702.2591296386	1.0289297104
2704.1879370116	1.0276863575
2706.1167443847	1.0286607742
2708.0455517577	1.0302408934
2709.9743591308	1.0299910307
2711.9031665038	1.0315977335
2713.8319738769	1.0280077457
2715.7607812499	1.0275216103
2717.6895886230	1.0307655334
2719.6183959960	1.0294395685
2721.5472033690	1.0284283161
2723.4760107421	1.0277907848
2725.4048181151	1.0283730030
2727.3336254882	1.0294235945
2729.2624328612	1.0280158520
2731.1912402343	1.0284874439
2733.1200476073	1.0286356211
2735.0488549804	1.0289905071
2736.9776623534	1.0308915377
2738.9064697265	1.0260159969
2740.8352770995	1.0268791914
2742.7640844726	1.0311517715
2744.6928918456	1.0271812677
2746.6216992187	1.0277357101
2748.5505065917	1.0273394585
2750.4793139647	1.0271939039
2752.4081213378	1.0275317430
2754.3369287108	1.0255087614
2756.2657360839	1.0290242434
2758.1945434569	1.0264015198
2760.1233508300	1.0245101452
2762.0521582030	1.0273137093
2763.9809655761	1.0251760483
2765.9097729491	1.0262049437
2767.8385803222	1.0257138014
2769.7673876952	1.0228648186
2771.6961950683	1.0253915787
2773.6250024413	1.0263153315
2775.5538098144	1.0252306461
2777.4826171874	1.0256671906
2779.4114245604	1.0239750147
2781.3402319335	1.0238869190
2783.2690393065	1.0260685682
2785.1978466796	1.0239534378
2787.1266540526	1.0216392279
2789.0554614257	1.0237874985
2790.9842687987	1.0236161947
2792.9130761718	1.0220879316
2794.8418835448	1.0234922171
2796.7706909179	1.0229103565
2798.6994982909	1.0222140551
2800.6283056640	1.0225222111
2802.5571130370	1.0228073597
2804.4859204101	1.0220161676
2806.4147277831	1.0215399265
2808.3435351562	1.0221228600
2810.2723425292	1.0207957029
2812.2011499022	1.0234513283
2814.1299572753	1.0222814083
2816.0587646483	1.0203151703
2817.9875720214	1.0228222609
2819.9163793944	1.0211017132
2821.8451867675	1.0220609903
2823.7739941405	1.0203546286
2825.7028015136	1.0195903778
2827.6316088866	1.0217291117
2829.5604162597	1.0206552744
2831.4892236327	1.0202612877
2833.4180310058	1.0177235603
2835.3468383788	1.0193085670
2837.2756457519	1.0198135376
2839.2044531249	1.0181738138
2841.1332604979	1.0179308653
2843.0620678710	1.0166931152
2844.9908752440	1.0173946619
2846.9196826171	1.0160459280
2848.8484899901	1.0142370462
2850.7772973632	1.0121829510
2852.7061047362	1.0142997503
2854.6349121093	1.0135539770
2856.5637194823	1.0109462738
2858.4925268554	1.0143935680
2860.4213342284	1.0132124424
2862.3501416015	1.0147693157
2864.2789489745	1.0139626265
2866.2077563476	1.0119168758
2868.1365637206	1.0130225420
2870.0653710936	1.0113104582
2871.9941784667	1.0132364035
2873.9229858397	1.0128247738
2875.8517932128	1.0122904778
2877.7806005858	1.0098090172
2879.7094079589	1.0097479820
2881.6382153319	1.0118123293
2883.5670227050	1.0088814497
2885.4958300780	1.0106111765
2887.4246374511	1.0091085434
2889.3534448241	1.0101411343
2891.2822521972	1.0105552673
2893.2110595702	1.0070602894
2895.1398669433	1.0090483427
2897.0686743163	1.0067577362
2898.9974816893	1.0067886114
2900.9262890624	1.0068414211
2902.8550964354	1.0045204163
2904.7839038085	1.0028840303
2906.7127111815	1.0020146370
2908.6415185546	1.0045723915
2910.5703259276	1.0016244650
2912.4991333007	0.9985967278
2914.4279406737	0.9977929592
2916.3567480468	1.0001521111
2918.2855554198	1.0010017157
2920.2143627929	0.9966284037
2922.1431701659	0.9991657734
2924.0719775390	0.9996919036
2926.0007849120	0.9980577230
2927.9295922851	0.9974773526
2929.8583996581	0.9945443273
2931.7872070311	0.9963690042
2933.7160144042	0.9984627962
2935.6448217772	0.9949419498
2937.5736291503	0.9931500554
2939.5024365233	0.9961242080
2941.4312438964	0.9942171574
2943.3600512694	0.9945648313
2945.2888586425	0.9965899587
2947.2176660155	0.9917293787
2949.1464733886	0.9921253324
2951.0752807616	0.9918625355
2953.0040881347	0.9898830056
2954.9328955077	0.9913066626
2956.8617028808	0.9898095131
2958.7905102538	0.9903313518
2960.7193176268	0.9901725650
2962.6481249999	0.9879308343
2964.5769323729	0.9887365699
2966.5057397460	0.9877339005
2968.4345471190	0.9857225418
2970.3633544921	0.9859986305
2972.2921618651	0.9842549562
2974.2209692382	0.9838232994
2976.1497766112	0.9835397005
2978.0785839843	0.9806478024
2980.0073913573	0.9819650054
2981.9361987304	0.9819359779
2983.8650061034	0.9804341197
2985.7938134765	0.9787901044
2987.7226208495	0.9762414694
2989.6514282225	0.9786245227
2991.5802355956	0.9776255488
2993.5090429686	0.9738628864
2995.4378503417	0.9733312130
2997.3666577147	0.9729050398
2999.2954650878	0.9733102322
3001.2242724608	0.9719908834
3003.1530798339	0.9677631259
3005.0818872069	0.9669367671
3007.0106945800	0.9672701359
3008.9395019530	0.9639200568
3010.8683093261	0.9648332000
3012.7971166991	0.9653683901
3014.7259240722	0.9608370066
3016.6547314452	0.9597675800
3018.5835388182	0.9600476623
3020.5123461913	0.9594709277
3022.4411535643	0.9589689374
3024.3699609374	0.9579622149
3026.2987683104	0.9566876888
3028.2275756835	0.9554290771
3030.1563830565	0.9532999396
3032.0851904296	0.9531388283
3034.0139978026	0.9515380859
3035.9428051757	0.9471762180
3037.8716125487	0.9485809803
3039.8004199218	0.9468808770
3041.7292272948	0.9450694323
3043.6580346679	0.9444901943
3045.5868420409	0.9388753772
3047.5156494139	0.9402817488
3049.4444567870	0.9382825494
3051.3732641600	0.9326041937
3053.3020715331	0.9354728460
3055.2308789061	0.9349021912
3057.1596862792	0.9313105941
3059.0884936522	0.9314064980
3061.0173010253	0.9281114936
3062.9461083983	0.9259111881
3064.8749157714	0.9259914160
3066.8037231444	0.9210748672
3068.7325305175	0.9198555946
3070.6613378905	0.9168275595
3072.5901452636	0.9147598147
3074.5189526366	0.9183648825
3076.4477600097	0.9127483368
3078.3765673827	0.9090612531
3080.3053747557	0.9097449183
3082.2341821288	0.9073747993
3084.1629895018	0.9047237039
3086.0917968749	0.9026648998
3088.0206042479	0.9001163840
3089.9494116210	0.8960744739
3091.8782189940	0.8959624767
3093.8070263671	0.8935609460
3095.7358337401	0.8896602392
3097.6646411132	0.8894119859
3099.5934484862	0.8888447285
3101.5222558593	0.8834300637
3103.4510632323	0.8786805272
3105.3798706054	0.8801298141
3107.3086779784	0.8758515716
3109.2374853514	0.8731405735
3111.1662927245	0.8702579737
3113.0951000975	0.8671181202
3115.0239074706	0.8711078763
3116.9527148436	0.8660824299
3118.8815222167	0.8609814048
3120.8103295897	0.8586089015
3122.7391369628	0.8554305434
3124.6679443358	0.8545621634
3126.5967517089	0.8510546684
3128.5255590819	0.8483371139
3130.4543664550	0.8450072408
3132.3831738280	0.8424488306
3134.3119812011	0.8393781781
3136.2407885741	0.8391248584
3138.1695959471	0.8371039629
3140.0984033202	0.8289453387
3142.0272106932	0.8272779584
3143.9560180663	0.8261263371
3145.8848254393	0.8243069649
3147.8136328124	0.8226169944
3149.7424401854	0.8190778494
3151.6712475585	0.8145718575
3153.6000549315	0.8103277087
3155.5288623046	0.8086485267
3157.4576696776	0.8047564626
3159.3864770507	0.8054736257
3161.3152844237	0.8016061783
3163.2440917968	0.7950166464
3165.1728991698	0.7968949676
3167.1017065428	0.7928854823
3169.0305139159	0.7899071574
3170.9593212889	0.7876986861
3172.8881286620	0.7830358744
3174.8169360350	0.7824848294
3176.7457434081	0.7793197632
3178.6745507811	0.7761482000
3180.6033581542	0.7743126750
3182.5321655272	0.7707872391
3184.4609729003	0.7674098611
3186.3897802733	0.7636470795
3188.3185876464	0.7600472569
3190.2473950194	0.7616357803
3192.1762023925	0.7583118081
3194.1050097655	0.7520085573
3196.0338171386	0.7536441088
3197.9626245116	0.7494846582
3199.8914318846	0.7481835485
3201.8202392577	0.7487704158
3203.7490466307	0.7424858809
3205.6778540038	0.7406489253
3207.6066613768	0.7382609248
3209.5354687499	0.7364965081
3211.4642761229	0.7345738411
3213.3930834960	0.7335714102
3215.3218908690	0.7319064736
3217.2506982421	0.7266589403
3219.1795056151	0.7272943854
3221.1083129882	0.7268437147
3223.0371203612	0.7233083248
3224.9659277343	0.7216460109
3226.8947351073	0.7226827145
3228.8235424803	0.7200409174
3230.7523498534	0.7155641317
3232.6811572264	0.7157058716
3234.6099645995	0.7138848901
3236.5387719725	0.7146850824
3238.4675793456	0.7130295038
3240.3963867186	0.7092812657
3242.3251940917	0.7099287510
3244.2540014647	0.7092478871
3246.1828088378	0.7085461020
3248.1116162108	0.7064783573
3250.0404235839	0.7054346204
3251.9692309569	0.7077564597
3253.8980383300	0.7095592618
3255.8268457030	0.7072842717
3257.7556530760	0.7061746716
3259.6844604491	0.7043149471
3261.6132678221	0.7004974484
3263.5420751952	0.7025559545
3265.4708825682	0.7011124492
3267.3996899413	0.6991341710
3269.3284973143	0.6975846291
3271.2573046874	0.6964879036
3273.1861120604	0.6999694109
3275.1149194335	0.6993626356
3277.0437268065	0.6977878213
3278.9725341796	0.6936742663
3280.9013415526	0.6935060024
3282.8301489257	0.6966462135
3284.7589562987	0.6952715516
3286.6877636717	0.6950679421
3288.6165710448	0.6934394240
3290.5453784178	0.6949040890
3292.4741857909	0.6963004470
3294.4029931639	0.6941689253
3296.3318005370	0.6926806569
3298.2606079100	0.6928218007
3300.1894152831	0.6936519742
3302.1182226561	0.6911569238
3304.0470300292	0.6906120181
3305.9758374022	0.6906366944
3307.9046447753	0.6900316477
3309.8334521483	0.6884694695
3311.7622595214	0.6879208684
3313.6910668944	0.6896644831
3315.6198742675	0.6874707341
3317.5486816405	0.6892286539
3319.4774890135	0.6908987761
3321.4062963866	0.6877917051
3323.3351037596	0.6870262027
3325.2639111327	0.6877227426
3327.1927185057	0.6885684133
3329.1215258788	0.6862656474
3331.0503332518	0.6846186519
3332.9791406249	0.6855801940
3334.9079479979	0.6868427396
3336.8367553710	0.6877173185
3338.7655627440	0.6866550446
3340.6943701171	0.6860288978
3342.6231774901	0.6831831932
3344.5519848632	0.6826912761
3346.4807922362	0.6848951578
3348.4095996092	0.6812865138
3350.3384069823	0.6826566458
3352.2672143553	0.6865554452
3354.1960217284	0.6844241023
3356.1248291014	0.6872287393
3358.0536364745	0.6868437529
3359.9824438475	0.6826208234
3361.9112512206	0.6865496635
3363.8400585936	0.6871777177
3365.7688659667	0.6854376197
3367.6976733397	0.6870027781
3369.6264807128	0.6853139400
3371.5552880858	0.6850336790
3373.4840954589	0.6860167980
3375.4129028319	0.6864597797
3377.3417102049	0.6895906329
3379.2705175780	0.6887550950
3381.1993249510	0.6876332760
3383.1281323241	0.6928243041
3385.0569396971	0.6924818158
3386.9857470702	0.6900411844
3388.9145544432	0.6950420737
3390.8433618163	0.6956692338
3392.7721691893	0.6941784620
3394.7009765624	0.6964235902
3396.6297839354	0.6963053942
3398.5585913085	0.6987970471
3400.4873986815	0.7009902000
3402.4162060546	0.7017430663
3404.3450134276	0.7043453455
3406.2738208006	0.7039216161
3408.2026281737	0.7057864666
3410.1314355467	0.7070159316
3412.0602429198	0.7079110742
3413.9890502928	0.7109630108
3415.9178576659	0.7104608417
3417.8466650389	0.7141856551
3419.7754724120	0.7161291242
3421.7042797850	0.7163482308
3423.6330871581	0.7213246226
3425.5618945311	0.7207252383
3427.4907019042	0.7235683799
3429.4195092772	0.7264293432
3431.3483166503	0.7245913148
3433.2771240233	0.7294746637
3435.2059313963	0.7282599211
3437.1347387694	0.7298876047
3439.0635461424	0.7375789285
3440.9923535155	0.7366914749
3442.9211608885	0.7401012778
3444.8499682616	0.7402857542
3446.7787756346	0.7408696413
3448.7075830077	0.7452065349
3450.6363903807	0.7442755103
3452.5651977538	0.7494804263
3454.4940051268	0.7486807108
3456.4228124999	0.7509076595
3458.3516198729	0.7577806115
3460.2804272460	0.7547301650
3462.2092346190	0.7566175461
3464.1380419921	0.7607377768
3466.0668493651	0.7645153999
3467.9956567381	0.7651225328
3469.9244641112	0.7679455876
3471.8532714842	0.7726957798
3473.7820788573	0.7743361592
3475.7108862303	0.7797792554
3477.6396936034	0.7781441212
3479.5685009764	0.7784717083
3481.4973083495	0.7814492583
3483.4261157225	0.7857948542
3485.3549230956	0.7899352312
3487.2837304686	0.7871350646
3489.2125378417	0.7943684459
3491.1413452147	0.7965934277
3493.0701525878	0.7950604558
3494.9989599608	0.8000605106
3496.9277673338	0.8021899462
3498.8565747069	0.8046616316
3500.7853820799	0.8026995659
3502.7141894530	0.8039696217
3504.6429968260	0.8079730272
3506.5718041991	0.8086876273
3508.5006115721	0.8117778897
3510.4294189452	0.8136268258
3512.3582263182	0.8146404028
3514.2870336913	0.8209528327
3516.2158410643	0.8255937099
3518.1446484374	0.8239284754
3520.0734558104	0.8262391090
3522.0022631835	0.8286086917
3523.9310705565	0.8306565285
3525.8598779295	0.8327516317
3527.7886853026	0.8344275355
3529.7174926756	0.8387349844
3531.6463000487	0.8380482197
3533.5751074217	0.8386798501
3535.5039147948	0.8425252438
3537.4327221678	0.8480712771
3539.3615295409	0.8498948812
3541.2903369139	0.8509703279
3543.2191442870	0.8567827940
3545.1479516600	0.8555961251
3547.0767590331	0.8570159674
3549.0055664061	0.8592777252
3550.9343737792	0.8618661165
3552.8631811522	0.8650216460
3554.7919885252	0.8628213406
3556.7207958983	0.8666802645
3558.6496032713	0.8685507178
3560.5784106444	0.8734099269
3562.5072180174	0.8763703108
3564.4360253905	0.8745814562
3566.3648327635	0.8805918694
3568.2936401366	0.8808594942
3570.2224475096	0.8855752349
3572.1512548827	0.8893460035
3574.0800622557	0.8861144185
3576.0088696288	0.8895068765
3577.9376770018	0.8914203644
3579.8664843749	0.8943861723
3581.7952917479	0.8951367736
3583.7240991210	0.8958908319
3585.6529064940	0.9005298615
3587.5817138670	0.8994018435
3589.5105212401	0.9009897709
3591.4393286131	0.9052701592
3593.3681359862	0.9096708298
3595.2969433592	0.9116486311
3597.2257507323	0.9096171260
3599.1545581053	0.9149652719
3601.0833654784	0.9184318781
3603.0121728514	0.9140857458
3604.9409802245	0.9165241122
3606.8697875975	0.9225273132
3608.7985949706	0.9199936390
3610.7274023436	0.9204958677
3612.6562097167	0.9262849689
3614.5850170897	0.9253753424
3616.5138244627	0.9292023778
3618.4426318358	0.9326354861
3620.3714392088	0.9297138453
3622.3002465819	0.9329591990
3624.2290539549	0.9357541800
3626.1578613280	0.9393711090
3628.0866687010	0.9421336651
3630.0154760741	0.9389640093
3631.9442834471	0.9413703084
3633.8730908202	0.9477742314
3635.8018981932	0.9497652054
3637.7307055663	0.9489565492
3639.6595129393	0.9553365707
3641.5883203124	0.9590463638
3643.5171276854	0.9574086070
3645.4459350584	0.9564838409
3647.3747424315	0.9560221434
3649.3035498045	0.9605918527
3651.2323571776	0.9600809813
3653.1611645506	0.9659500122
3655.0899719237	0.9739310145
3657.0187792967	0.9687681198
3658.9475866698	0.9728391767
3660.8763940428	0.9758167863
3662.8052014159	0.9766024947
3664.7340087889	0.9841850996
3666.6628161620	0.9810258150
3668.5916235350	0.9802787304
3670.5204309081	0.9793522358
3672.4492382811	0.9827848673
3674.3780456541	0.9896602631
3676.3068530272	0.9850991964
3678.2356604002	0.9923264980
3680.1644677733	0.9947020411
3682.0932751463	0.9942276478
3684.0220825194	1.0029031038
3685.9508898924	0.9983471036
3687.8796972655	0.9958844781
3689.8085046385	0.9977573156
3691.7373120116	0.9985846877
3693.6661193846	1.0030027628
3695.5949267577	1.0009282827
3697.5237341307	1.0017263889
3699.4525415038	1.0066759586
3701.3813488768	1.0046373606
3703.3101562499	1.0039923191
3705.2389636229	1.0087138414
3707.1677709959	1.0086581707
3709.0965783690	1.0070362091
3711.0253857420	1.0004675388
3712.9541931151	1.0019090176
3714.8830004881	1.0152571201
3716.8118078612	1.0106316805
3718.7406152342	1.0076017380
3720.6694226073	1.0100781918
3722.5982299803	1.0099889040
3724.5270373534	1.0120108128
3726.4558447264	1.0107306242
3728.3846520995	1.0142641068
3730.3134594725	1.0099318027
3732.2422668456	1.0091122389
3734.1710742186	1.0114924908
3736.0998815916	1.0064520836
3738.0286889647	1.0104399920
3739.9574963377	1.0094779730
3741.8863037108	1.0152035952
3743.8151110838	1.0160992146
3745.7439184569	1.0048614740
3747.6727258299	1.0105991364
3749.6015332030	1.0106755495
3751.5303405760	1.0098184347
3753.4591479491	1.0125654936
3755.3879553221	1.0171495676
3757.3167626952	1.0187432766
3759.2455700682	1.0133408308
3761.1743774413	1.0121924877
3763.1031848143	1.0133364201
3765.0319921873	1.0168493986
3766.9607995604	1.0147346258
3768.8896069334	1.0113819838
3770.8184143065	1.0125353336
3772.7472216795	1.0126374960
3774.6760290526	1.0173364878
3776.6048364256	1.0159978867
3778.5336437987	1.0100270510
3780.4624511717	1.0127865076
3782.3912585448	1.0157512426
3784.3200659178	1.0154173374
3786.2488732909	1.0186812878
3788.1776806639	1.0178085566
3790.1064880370	1.0104955435
3792.0352954100	1.0154465437
3793.9641027830	1.0235127211
3795.8929101561	1.0157825947
3797.8217175291	1.0119732618
3799.7505249022	1.0144687891
3801.6793322752	1.0078630447
3803.6081396483	1.0125423670
3805.5369470213	1.0168113708
3807.4657543944	1.0115257502
3809.3945617674	1.0145016909
3811.3233691405	1.0141297579
3813.2521765135	1.0136688948
3815.1809838866	1.0159652233
3817.1097912596	1.0125895739
3819.0385986327	1.0140562057
3820.9674060057	1.0112721920
3822.8962133787	1.0083445311
3824.8250207518	1.0137702227
3826.7538281248	1.0164803267
3828.6826354979	1.0150094032
3830.6114428709	1.0136911869
3832.5402502440	1.0150526762
3834.4690576170	1.0130574703
3836.3978649901	1.0121312141
3838.3266723631	1.0130574703
3840.2554797362	1.0108133554
3842.1842871092	1.0141024590
3844.1130944823	1.0135843754
3846.0419018553	1.0112391710
3847.9707092284	1.0143377781
3849.8995166014	1.0147607327
3851.8283239745	1.0140914917
3853.7571313475	1.0081129074
3855.6859387205	1.0075361729
3857.6147460936	1.0171408653
3859.5435534666	1.0171642303
3861.4723608397	1.0099922419
3863.4011682127	1.0143815279
3865.3299755858	1.0179048777
3867.2587829588	1.0103471279
3869.1875903319	1.0085949898
3871.1163977049	1.0104736090
3873.0452050780	1.0095466375
3874.9740124510	1.0074996948
3876.9028198241	1.0097959042
3878.8316271971	1.0121674538
3880.7604345702	1.0098073483
3882.6892419432	1.0132622719
3884.6180493162	1.0137023926
3886.5468566893	1.0077873468
3888.4756640623	1.0107580423
3890.4044714354	1.0170074701
3892.3332788084	1.0152351856
3894.2620861815	1.0150007010
3896.1908935545	1.0191698074
3898.1197009276	1.0129377842
3900.0485083006	1.0116449594
3901.9773156737	1.0105451345
3903.9061230467	1.0100120306
3905.8349304198	1.0182625055
3907.7637377928	1.0135973692
3909.6925451659	1.0143518448
3911.6213525389	1.0137649775
3913.5501599119	1.0106977224
3915.4789672850	1.0164438486
3917.4077746580	1.0152276754
3919.3365820311	1.0173137188
3921.2653894041	1.0147147179
3923.1941967772	1.0100585222
3925.1230041502	1.0109949112
3927.0518115233	1.0089702606
3928.9806188963	1.0128864050
3930.9094262694	1.0179607868
3932.8382336424	1.0156297684
3934.7670410155	1.0133675337
3936.6958483885	1.0167385340
3938.6246557616	1.0133409500
3940.5534631346	1.0108677149
3942.4822705076	1.0157202482
3944.4110778807	1.0139266253
3946.3398852537	1.0129133463
3948.2686926268	1.0107959509
3950.1974999998	1.0073535442
3952.1263073729	1.0112926960
3954.0551147459	1.0186417103
3955.9839221190	1.0155544281
3957.9127294920	1.0037246943
3959.8415368651	1.0072491169
3961.7703442381	1.0147037506
3963.6991516112	1.0143611431
3965.6279589842	1.0170667171
3967.5567663573	1.0161337852
3969.4855737303	1.0176414251
3971.4143811034	1.0170955658
3973.3431884764	1.0109816790
3975.2719958494	1.0153534412
3977.2008032225	1.0127182007
3979.1296105955	1.0115219355
3981.0584179686	1.0176763535
3982.9872253416	1.0144203901
3984.9160327147	1.0148940086
3986.8448400877	1.0114517212
3988.7736474608	1.0119422674
3990.7024548338	1.0150542259
3992.6312622069	1.0125678778
3994.5600695799	1.0159212351
3996.4888769530	1.0111030340
3998.4176843260	1.0081534386
4000.3464916991	1.0112992525
4002.2752990721	1.0141320229
4004.2041064451	1.0114321709
4006.1329138182	1.0101234913
4008.0617211912	1.0146912336
4009.9905285643	1.0072119236
4011.9193359373	1.0100836754
4013.8481433104	1.0164409876
4015.7769506834	1.0160685778
4017.7057580565	1.0153863430
4019.6345654295	1.0101414919
4021.5633728026	1.0134848356
4023.4921801756	1.0137362480
4025.4209875487	1.0147769451
4027.3497949217	1.0129988194
4029.2786022948	1.0072594881
4031.2074096678	1.0161815882
4033.1362170408	1.0195125341
4035.0650244139	1.0074270964
4036.9938317869	1.0048652887
4038.9226391600	1.0120673180
4040.8514465330	1.0062184334
4042.7802539061	1.0074825287
4044.7090612791	1.0138363838
4046.6378686522	1.0092060566
4048.5666760252	1.0098700523
4050.4954833983	1.0113519430
4052.4242907713	1.0123710632
4054.3530981444	1.0101047754
4056.2819055174	1.0088769197
4058.2107128905	1.0108433962
4060.1395202635	1.0107663870
4062.0683276365	1.0089757442
4063.9971350096	1.0087873936
4065.9259423826	1.0170724392
4067.8547497557	1.0149825811
4069.7835571287	1.0105099678
4071.7123645018	1.0149916410
4073.6411718748	1.0130321980
4075.5699792479	1.0121649504
4077.4987866209	1.0174258947
4079.4275939940	1.0140544176
4081.3564013670	1.0110385418
4083.2852087401	1.0192773342
4085.2140161131	1.0154117346
4087.1428234862	1.0099339485
4089.0716308592	1.0119566917
4091.0004382323	1.0139843225
4092.9292456053	1.0161470175
4094.8580529783	1.0118714571
4096.7868603514	1.0109169483
4098.7156677244	1.0087925196
4100.6444750975	1.0118647814
4102.5732824705	1.0136901140
4104.5020898436	1.0081084967
4106.4308972166	1.0116429329
4108.3597045897	1.0123754740
4110.2885119627	1.0095288754
4112.2173193358	1.0097099543
4114.1461267088	1.0158828497
4116.0749340819	1.0103875399
4118.0037414549	1.0044671297
4119.9325488280	1.0134198666
4121.8613562010	1.0070027113
4123.7901635740	1.0057079792
4125.7189709471	1.0119352341
4127.6477783201	1.0095294714
4129.5765856932	1.0132968426
4131.5053930662	1.0153168440
4133.4342004393	1.0102865696
4135.3630078123	1.0113537312
4137.2918151854	1.0162934065
4139.2206225584	1.0134794712
4141.1494299315	1.0143339634
4143.0782373045	1.0096166134
4145.0070446776	1.0040743351
4146.9358520506	1.0108431578
4148.8646594237	1.0101262331
4150.7934667967	1.0143711567
4152.7222741697	1.0154720545
4154.6510815428	1.0070732832
4156.5798889158	1.0135030746
4158.5086962889	1.0157146454
4160.4375036619	1.0087727308
4162.3663110350	1.0082925558
4164.2951184080	1.0077900887
4166.2239257811	1.0124038458
4168.1527331541	1.0184965134
4170.0815405272	1.0142251253
4172.0103479002	1.0112822056
4173.9391552733	1.0117807388
4175.8679626463	1.0136485100
4177.7967700194	1.0097322464
4179.7255773924	1.0034353733
4181.6543847654	1.0112848282
4183.5831921385	1.0106159449
4185.5119995115	1.0071259737
4187.4408068846	1.0159207582
4189.3696142576	1.0124751329
4191.2984216307	1.0127830505
4193.2272290037	1.0166387558
4195.1560363768	1.0082831383
4197.0848437498	1.0117270947
4199.0136511229	1.0166696310
4200.9424584959	1.0147502422
4202.8712658690	1.0131355524
4204.8000732420	1.0103085041
4206.7288806151	1.0136007071
4208.6576879881	1.0101335049
4210.5864953611	1.0082658529
4212.5153027342	1.0094348192
4214.4441101072	1.0065339804
4216.3729174803	1.0107107162
4218.3017248533	1.0066034794
4220.2305322264	1.0063434839
4222.1593395994	1.0104253292
4224.0881469725	1.0044281483
4226.0169543455	1.0081480742
4227.9457617186	1.0151678324
4229.8745690916	1.0107058287
4231.8033764647	1.0058569908
4233.7321838377	1.0101319551
4235.6609912108	1.0095860958
4237.5897985838	1.0055814981
4239.5186059569	1.0057147741
4241.4474133299	1.0054004192
4243.3762207029	1.0072585344
4245.3050280760	1.0033113956
4247.2338354490	1.0024877787
4249.1626428221	1.0057495832
4251.0914501951	1.0064941645
4253.0202575682	1.0133980513
4254.9490649412	1.0118368864
4256.8778723143	1.0085326433
4258.8066796873	1.0106532574
4260.7354870604	1.0057919025
4262.6642944334	1.0120546818
4264.5931018065	1.0142487288
4266.5219091795	1.0033916235
4268.4507165526	1.0056746006
4270.3795239256	1.0077502728
4272.3083312986	1.0074195862
4274.2371386717	1.0026830435
4276.1659460447	1.0009653568
4278.0947534178	1.0073601007
4280.0235607908	1.0094388723
4281.9523681639	1.0192053318
4283.8811755369	1.0093188286
4285.8099829100	1.0058997869
4287.7387902830	1.0171751976
4289.6675976561	1.0063807964
4291.5964050291	1.0080641508
4293.5252124022	1.0051440001
4295.4540197752	1.0074656010
4297.3828271483	1.0140179396
4299.3116345213	1.0004303455
4301.2404418943	1.0088400841
4303.1692492674	1.0162370205
4305.0980566404	1.0125145912
4307.0268640135	1.0114594698
4308.9556713865	1.0073179007
4310.8844787596	1.0074564219
4312.8132861326	1.0041805506
4314.7420935057	1.0091099739
4316.6709008787	1.0183326006
4318.5997082518	1.0110210180
4320.5285156248	1.0042545795
4322.4573229979	1.0128952265
4324.3861303709	1.0187965631
4326.3149377440	1.0171337128
4328.2437451170	1.0109328032
4330.1725524900	1.0052654743
4332.1013598631	1.0105369091
4334.0301672361	1.0063428879
4335.9589746092	1.0033875704
4337.8877819822	1.0171494484
4339.8165893553	1.0146775246
4341.7453967283	1.0082499981
4343.6742041014	1.0117753744
4345.6030114744	1.0055645704
4347.5318188475	1.0053765774
4349.4606262205	1.0035010576
4351.3894335936	0.9976587892
4353.3182409666	1.0063709021
4355.2470483397	1.0116053820
4357.1758557127	1.0098019838
4359.1046630858	1.0048109293
4361.0334704588	1.0087898970
4362.9622778318	1.0097292662
4364.8910852049	1.0035904646
4366.8198925779	1.0135462284
4368.7486999510	1.0134280920
4370.6775073240	1.0058161020
4372.6063146971	0.9982613921
4374.5351220701	1.0006343126
4376.4639294432	1.0119162798
4378.3927368162	1.0080918074
4380.3215441893	1.0049650669
4382.2503515623	1.0034544468
4384.1791589354	1.0124778748
4386.1079663084	1.0132993460
4388.0367736815	1.0085308552
4389.9655810545	1.0127120018
4391.8943884275	1.0013217926
4393.8231958006	1.0060490370
4395.7520031736	1.0080335140
4397.6808105467	0.9967054129
4399.6096179197	1.0062938929
4401.5384252928	1.0114254951
4403.4672326658	1.0032669306
4405.3960400389	1.0027642250
4407.3248474119	1.0041761398
4409.2536547850	0.9999694228
4411.1824621580	1.0043444633
4413.1112695311	1.0029503107
4415.0400769041	1.0061359406
4416.9688842772	1.0169820786
4418.8976916502	1.0112363100
4420.8264990232	1.0086714029
4422.7553063963	1.0089665651
4424.6841137693	1.0115150213
4426.6129211424	1.0072090626
4428.5417285154	0.9962698817
4430.4705358885	1.0021619797
4432.3993432615	1.0074598789
4434.3281506346	1.0026668310
4436.2569580076	1.0006251335
4438.1857653807	1.0038868189
4440.1145727537	1.0050587654
4442.0433801268	1.0064740181
4443.9721874998	1.0051085949
4445.9009948729	1.0069220066
4447.8298022459	1.0140504837
4449.7586096189	1.0095683336
4451.6874169920	1.0082288980
4453.6162243650	1.0102127790
4455.5450317381	1.0034829378
4457.4738391111	1.0009940863
4459.4026464842	1.0082097054
4461.3314538572	1.0102664232
4463.2602612303	1.0063188076
4465.1890686033	1.0040804148
4467.1178759764	1.0029531717
4469.0466833494	1.0102256536
4470.9754907225	1.0152336359
4472.9042980955	1.0064069033
4474.8331054686	0.9970357418
4476.7619128416	1.0043548346
4478.6907202147	1.0117981434
4480.6195275877	1.0133397579
4482.5483349607	1.0107507706
4484.4771423338	1.0025438070
4486.4059497068	1.0132174492
4488.3347570799	1.0101467371
4490.2635644529	1.0074043274
4492.1923718260	1.0113443136
4494.1211791990	1.0006467104
4496.0499865721	1.0124914646
4497.9787939451	1.0092470646
4499.9076013182	1.0042695999
4501.8364086912	1.0028380156
4503.7652160643	0.9941070676
4505.6940234373	1.0076572895
4507.6228308104	1.0037518740
4509.5516381834	1.0078494549
4511.4804455564	1.0128269196
4513.4092529295	1.0058580637
4515.3380603025	1.0101002455
4517.2668676756	1.0023199320
4519.1956750486	1.0047658682
4521.1244824217	1.0040193796
4523.0532897947	0.9996376634
4524.9820971678	1.0067390203
4526.9109045408	1.0107957125
4528.8397119139	1.0135508776
4530.7685192869	1.0051684380
4532.6973266600	1.0031028986
4534.6261340330	1.0077320337
4536.5549414061	1.0076905489
4538.4837487791	1.0034258366
4540.4125561521	1.0039708614
4542.3413635252	1.0145088434
4544.2701708982	1.0052475929
4546.1989782713	1.0027356148
4548.1277856443	1.0106439590
4550.0565930174	1.0056450367
4551.9854003904	1.0130845308
4553.9142077635	1.0077793598
4555.8430151365	0.9970524907
4557.7718225096	1.0076673031
4559.7006298826	1.0069845915
4561.6294372557	0.9986792207
4563.5582446287	1.0019731522
4565.4870520018	1.0051293373
4567.4158593748	1.0033917427
4569.3446667478	1.0079894066
4571.2734741209	1.0047817230
4573.2022814939	0.9992149472
4575.1310888670	1.0051397085
4577.0598962400	1.0057047606
4578.9887036131	1.0031491518
4580.9175109861	0.9940744042
4582.8463183592	1.0044001341
4584.7751257322	1.0177787542
4586.7039331053	1.0078220367
4588.6327404783	1.0137404203
4590.5615478514	1.0087780952
4592.4903552244	1.0044276714
4594.4191625975	1.0090415478
4596.3479699705	1.0055003166
4598.2767773435	1.0052902699
4600.2055847166	0.9945570230
4602.1343920896	1.0002679825
4604.0631994627	1.0056611300
4605.9920068357	1.0007913113
4607.9208142088	0.9987212420
4609.8496215818	0.9948148727
4611.7784289549	1.0030741692
4613.7072363279	1.0009249449
4615.6360437010	0.9998590350
4617.5648510740	1.0036985874
4619.4936584471	1.0068137646
4621.4224658201	1.0077530146
4623.3512731932	1.0022206306
4625.2800805662	0.9999088645
4627.2088879393	0.9904723167
4629.1376953123	0.9975227714
4631.0665026853	1.0038439035
4632.9953100584	1.0021469593
4634.9241174314	1.0053986311
4636.8529248045	1.0062938929
4638.7817321775	1.0146139860
4640.7105395506	1.0072078705
4642.6393469236	1.0008702278
4644.5681542967	0.9989333153
4646.4969616697	1.0063428879
4648.4257690428	1.0121040344
4650.3545764158	0.9988765717
4652.2833837889	1.0023436546
4654.2121911619	0.9951645136
4656.1409985350	1.0028758049
4658.0698059080	1.0088481903
4659.9986132810	0.9931617379
4661.9274206541	1.0120214224
4663.8562280271	1.0102152824
4665.7850354002	0.9954053164
4667.7138427732	1.0033844709
4669.6426501463	1.0094509125
4671.5714575193	1.0043735504
4673.5002648924	0.9977209568
4675.4290722654	1.0074410439
4677.3578796385	1.0078023672
4679.2866870115	0.9982671142
4681.2154943846	0.9951564074
4683.1443017576	0.9966654778
4685.0731091307	0.9943947792
4687.0019165037	0.9925090075
4688.9307238767	0.9972184300
4690.8595312498	0.9931439161
4692.7883386228	0.9866003990
4694.7171459959	0.9905596972
4696.6459533689	1.0035121441
4698.5747607420	1.0015563965
4700.5035681150	1.0081757307
4702.4323754881	1.0088036060
4704.3611828611	0.9862239957
4706.2899902342	1.0036842823
4708.2187976072	1.0023003817
4710.1476049803	0.9882355332
4712.0764123533	1.0091762543
4714.0052197264	1.0024523735
4715.9340270994	0.9937633872
4717.8628344724	1.0013473034
4719.7916418455	1.0041228533
4721.7204492185	1.0026717186
4723.6492565916	1.0015292168
4725.5780639646	1.0068817139
4727.5068713377	1.0013403893
4729.4356787107	0.9927705526
4731.3644860838	0.9928700328
4733.2932934568	0.9872045517
4735.2221008299	0.9933837652
4737.1509082029	1.0099712610
4739.0797155760	1.0059825182
4741.0085229490	0.9987450242
4742.9373303221	0.9910692573
4744.8661376951	1.0036447048
4746.7949450682	1.0162310600
4748.7237524412	0.9939745665
4750.6525598142	0.9934620261
4752.5813671873	0.9954110980
4754.5101745603	1.0065839291
4756.4389819334	1.0084646940
4758.3677893064	0.9862837195
4760.2965966795	1.0059370995
4762.2254040525	1.0104553699
4764.1542114256	1.0004477501
4766.0830187986	0.9965617061
4768.0118261717	0.9958882928
4769.9406335447	1.0056571960
4771.8694409178	0.9963066578
4773.7982482908	1.0004217625
4775.7270556639	0.9983810186
4777.6558630369	0.9959058762
4779.5846704099	1.0011982918
4781.5134777830	0.9870510101
4783.4422851560	0.9939039350
4785.3710925291	0.9996524453
4787.2998999021	0.9931014776
4789.2287072752	1.0065084696
4791.1575146482	1.0000437498
4793.0863220213	0.9903480411
4795.0151293943	1.0140917301
4796.9439367674	1.0019774437
4798.8727441404	0.9888397455
4800.8015515135	1.0059932470
4802.7303588865	1.0033242702
4804.6591662596	0.9998297691
4806.5879736326	0.9907463193
4808.5167810056	0.9999635220
4810.4455883787	1.0018711090
4812.3743957517	0.9945559502
4814.3032031248	1.0024524927
4816.2320104978	0.9931281209
4818.1608178709	1.0019069910
4820.0896252439	0.9988443255
4822.0184326170	0.9937149882
4823.9472399900	0.9948850274
4825.8760473631	0.9933529496
4827.8048547361	0.9990896583
4829.7336621092	0.9834060669
4831.6624694822	0.9992884994
4833.5912768553	1.0029841661
4835.5200842283	0.9938042164
4837.4488916013	1.0025556087
4839.3776989744	0.9934134483
4841.3065063474	0.9963333607
4843.2353137205	0.9936854243
4845.1641210935	0.9939634204
4847.0929284666	0.9938079715
4849.0217358396	0.9988668561
4850.9505432127	1.0046838522
4852.8793505857	0.9946528077
4854.8081579588	0.9935250282
4856.7369653318	0.9811246395
4858.6657727049	0.9981812835
4860.5945800779	1.0107946396
4862.5233874510	0.9926844239
4864.4521948240	0.9920859933
4866.3810021971	0.9823223948
4868.3098095701	0.9863785505
4870.2386169431	0.9969459772
4872.1674243162	0.9956213236
4874.0962316892	0.9946202040
4876.0250390623	0.9892359376
4877.9538464353	1.0042167902
4879.8826538084	1.0098594427
4881.8114611814	0.9916764498
4883.7402685545	0.9975196123
4885.6690759275	1.0014363527
4887.5978833006	0.9992676973
4889.5266906736	1.0071833134
4891.4554980467	1.0080538988
4893.3843054197	1.0117861032
4895.3131127928	0.9924661517
4897.2419201658	0.9860170484
4899.1707275388	0.9983983636
4901.0995349119	0.9898096323
4903.0283422849	0.9924136400
4904.9571496580	0.9904941916
4906.8859570310	0.9921382070
4908.8147644041	0.9936293960
4910.7435717771	0.9956212640
4912.6723791502	1.0018117428
4914.6011865232	0.9935792685
4916.5299938963	0.9970340133
4918.4588012693	0.9964858890
4920.3876086424	1.0052455664
4922.3164160154	1.0032136440
4924.2452233885	0.9931958914
4926.1740307615	0.9947754145
4928.1028381345	0.9939571023
4930.0316455076	1.0082317591
4931.9604528806	0.9919815660
4933.8892602537	0.9922297001
4935.8180676267	1.0025144815
4937.7468749998	0.9880985618
4939.6756823728	1.0031088591
4941.6044897459	0.9971916080
4943.5332971189	0.9811821580
4945.4621044920	0.9871701598
4947.3909118650	0.9888610244
4949.3197192381	0.9833430648
4951.2485266111	0.9992496967
4953.1773339842	1.0093148947
4955.1061413572	0.9931392074
4957.0349487302	0.9984767437
4958.9637561033	0.9859785438
4960.8925634763	0.9856818318
4962.8213708494	1.0160921812
4964.7501782224	1.0046099424
4966.6789855955	0.9854301810
4968.6077929685	1.0017212629
4970.5366003416	1.0021075010
4972.4654077146	0.9806241989
4974.3942150877	0.9884498119
4976.3230224607	0.9854499698
4978.2518298338	0.9900261760
4980.1806372068	1.0087238550
4982.1094445799	0.9945837259
4984.0382519529	0.9882925749
4985.9670593259	1.0017155409
4987.8958666990	1.0107642412
4989.8246740720	0.9865407348
4991.7534814451	0.9827976227
4993.6822888181	0.9887667298
4995.6110961912	0.9877499938
4997.5399035642	1.0044969320
4999.4687109373	0.9795963168
5001.3975183103	0.9846306443
5003.3263256834	0.9975177050
5005.2551330564	0.9819377661
5007.1839404295	0.9884900451
5009.1127478025	0.9804089069
5011.0415551756	0.9909515381
5012.9703625486	0.9958986640
5014.8991699217	0.9871435761
5016.8279772947	0.9917677045
5018.7567846677	0.9926750660
5020.6855920408	0.9975264072
5022.6143994138	0.9831842184
5024.5432067869	0.9737119675
5026.4720141599	0.9946941137
5028.4008215330	1.0001473427
5030.3296289060	0.9842857718
5032.2584362791	1.0005830526
5034.1872436521	1.0002468824
5036.1160510252	0.9857471585
5038.0448583982	1.0015366077
5039.9736657713	0.9883669615
5041.9024731443	0.9880704284
5043.8312805174	0.9992507100
5045.7600878904	0.9991618395
5047.6888952634	0.9887180328
5049.6177026365	0.9732703567
5051.5465100095	0.9858717918
5053.4753173826	0.9816975594
5055.4041247556	0.9946967959
5057.3329321287	1.0028007030
5059.2617395017	0.9921435118
5061.1905468748	0.9990940094
5063.1193542478	0.9862555265
5065.0481616209	0.9868708849
5066.9769689939	0.9869879484
5068.9057763670	0.9933697581
5070.8345837400	0.9900172353
5072.7633911131	0.9812941551
5074.6921984861	0.9949277043
5076.6210058591	0.9717475772
5078.5498132322	0.9751377702
5080.4786206052	0.9960222244
5082.4074279783	0.9901989698
5084.3362353513	0.9893481731
5086.2650427244	0.9926522374
5088.1938500974	0.9967458248
5090.1226574705	0.9891260266
5092.0514648435	1.0014954805
5093.9802722166	0.9945237637
5095.9090795896	0.9766654372
5097.8378869627	0.9896010756
5099.7666943357	0.9821227193
5101.6955017088	0.9770797491
5103.6243090818	0.9936429262
5105.5531164548	1.0029551983
5107.4819238279	0.9886224270
5109.4107312009	0.9891069531
5111.3395385740	0.9934788346
5113.2683459470	0.9736582637
5115.1971533201	0.9877117872
5117.1259606931	0.9973639250
5119.0547680662	0.9840322733
5120.9835754392	0.9790306687
5122.9123828123	0.9871985316
5124.8411901853	1.0091239214
5126.7699975584	0.9915180802
5128.6988049314	0.9853110909
5130.6276123045	1.0081864595
5132.5564196775	0.9939302206
5134.4852270506	0.9841818810
5136.4140344236	0.9936942458
5138.3428417966	0.9954673648
5140.2716491697	0.9879647493
5142.2004565427	0.9889708757
5144.1292639158	0.9946957827
5146.0580712888	0.9874626994
5147.9868786619	0.9789232612
5149.9156860349	0.9764658213
5151.8444934080	0.9988042712
5153.7733007810	0.9945130944
5155.7021081541	0.9819490910
5157.6309155271	0.9940094948
5159.5597229002	0.9674910307
5161.4885302732	0.9874300361
5163.4173376463	1.0070856810
5165.3461450193	0.9777386785
5167.2749523923	0.9910154343
5169.2037597654	0.9905537963
5171.1325671384	0.9898338914
5173.0613745115	0.9819836020
5174.9901818845	0.9692991972
5176.9189892576	0.9767118096
5178.8477966306	0.9753887653
5180.7766040037	0.9944962263
5182.7054113767	0.9760898352
5184.6342187498	0.9598940611
5186.5630261228	0.9949396253
5188.4918334959	0.9935520291
5190.4206408689	0.9837785959
5192.3494482420	0.9880481362
5194.2782556150	0.9720183611
5196.2070629880	0.9769665599
5198.1358703611	0.9945504665
5200.0646777341	0.9810873866
5201.9934851072	0.9754846692
5203.9222924802	0.9770770073
5205.8510998533	0.9945219159
5207.7799072263	1.0042163134
5209.7087145994	0.9829950333
5211.6375219724	0.9990658760
5213.5663293455	0.9939135909
5215.4951367185	0.9749191403
5217.4239440916	0.9919058084
5219.3527514646	0.9963685870
5221.2815588377	0.9860327840
5223.2103662107	0.9896523356
5225.1391735837	0.9966897368
5227.0679809568	0.9684651494
5228.9967883298	0.9726919532
5230.9255957029	1.0063761473
5232.8544030759	0.9915574193
5234.7832104490	0.9632976651
5236.7120178220	0.9592191577
5238.6408251951	0.9772729278
5240.5696325681	1.0073328018
5242.4984399412	1.0185190439
5244.4272473142	0.9781632423
5246.3560546873	0.9711310863
5248.2848620603	0.9892862439
5250.2136694334	0.9745673537
5252.1424768064	0.9803858399
5254.0712841795	0.9871752262
5256.0000915525	0.9920713902
5257.9288989255	0.9794922471
5259.8577062986	0.9760867357
5261.7865136716	1.0024482012
5263.7153210447	0.9864485264
5265.6441284177	0.9760003090
5267.5729357908	0.9778508544
5269.5017431638	0.9683107734
5271.4305505369	0.9766344428
5273.3593579099	0.9775001407
5275.2881652830	0.9737081528
5277.2169726560	0.9856796861
5279.1457800291	0.9853659272
5281.0745874021	0.9789164066
5283.0033947752	0.9788070917
5284.9322021482	0.9919377565
5286.8610095212	1.0068913698
5288.7898168943	0.9834923744
5290.7186242673	0.9941382408
5292.6474316404	0.9936117530
5294.5762390134	0.9734677672
5296.5050463865	1.0015711784
5298.4338537595	0.9875537753
5300.3626611326	0.9844109416
5302.2914685056	0.9854884148
5304.2202758787	0.9822529554
5306.1490832517	1.0000411272
5308.0778906248	0.9692217708
5310.0066979978	0.9732884765
5311.9355053709	0.9893774390
5313.8643127439	0.9871736765
5315.7931201169	0.9676157832
5317.7219274900	0.9442068934
5319.6507348630	0.9855987430
5321.5795422361	0.9830884337
5323.5083496091	0.9667942524
5325.4371569822	0.9952870011
5327.3659643552	0.9909315109
5329.2947717283	0.9853577018
5331.2235791013	0.9723857641
5333.1523864744	0.9613980055
5335.0811938474	0.9828926921
5337.0100012205	0.9960528612
5338.9388085935	0.9982612133
5340.8676159666	0.9887487888
5342.7964233396	0.9950062633
5344.7252307126	1.0024040937
5346.6540380857	0.9799022675
5348.5828454587	0.9926434755
5350.5116528318	0.9901830554
5352.4404602048	0.9817276597
5354.3692675779	1.0046225786
5356.2980749509	1.0066828728
5358.2268823240	1.0095555782
5360.1556896970	1.0050261021
5362.0844970701	1.0084732771
5364.0133044431	0.9925190210
5365.9421118162	0.9781467319
5367.8709191892	0.9949812293
5369.7997265623	0.9926840663
5371.7285339353	0.9905943274
5373.6573413083	0.9831696153
5375.5861486814	0.9995097518
5377.5149560544	1.0007845163
5379.4437634275	0.9844591618
5381.3725708005	0.9933090806
5383.3013781736	0.9875446558
5385.2301855466	0.9865556955
5387.1589929197	0.9790493846
5389.0878002927	0.9892692566
5391.0166076658	0.9844077826
5392.9454150388	0.9909068942
5394.8742224119	1.0259679556
5396.8030297849	1.0044821501
5398.7318371580	0.9974009395
5400.6606445310	0.9832064509
5402.5894519041	0.9766936302
5404.5182592771	0.9885758162
5406.4470666501	0.9815196395
5408.3758740232	0.9864397645
5410.3046813962	0.9786373973
5412.2334887693	0.9726229310
5414.1622961423	0.9752715826
5416.0911035154	0.9814367890
5418.0199108884	0.9621628523
5419.9487182615	0.9676424265
5421.8775256345	0.9940898418
5423.8063330076	0.9731000066
5425.7351403806	0.9815876484
5427.6639477537	0.9778054953
5429.5927551267	0.9698455930
5431.5215624998	0.9935294390
5433.4503698728	0.9951636195
5435.3791772458	0.9892978668
5437.3079846189	0.9664604068
5439.2367919919	0.9587471485
5441.1655993650	0.9779156446
5443.0944067380	0.9792995453
5445.0232141111	0.9727173448
5446.9520214841	0.9778299928
5448.8808288572	0.9823329449
5450.8096362302	0.9865567088
5452.7384436033	0.9639919400
5454.6672509763	0.9434343576
5456.5960583494	0.9676564932
5458.5248657224	0.9786944389
5460.4536730955	0.9694182873
5462.3824804685	0.9774545431
5464.3112878415	0.9927999377
5466.2400952146	0.9636796713
5468.1689025876	0.9576424360
5470.0977099607	0.9833320379
5472.0265173337	0.9856663346
5473.9553247068	1.0118074417
5475.8841320798	0.9876570106
5477.8129394529	0.9815316200
5479.7417468259	0.9914337993
5481.6705541990	0.9814307690
5483.5993615720	1.0046130419
5485.5281689451	0.9721013904
5487.4569763181	0.9560213089
5489.3857836912	0.9596759081
5491.3145910642	0.9810014367
5493.2433984372	1.0006729364
5495.1722058103	0.9739583731
5497.1010131833	0.9638861418
5499.0298205564	0.9480242729
5500.9586279294	0.9878771305
5502.8874353025	1.0030815601
5504.8162426755	0.9902600050
5506.7450500486	0.9862954617
5508.6738574216	0.9676485658
5510.6026647947	0.9729528427
5512.5314721677	0.9356417060
5514.4602795408	0.9642378092
5516.3890869138	0.9709399343
5518.3178942869	0.9486981034
5520.2467016599	1.0015201569
5522.1755090330	0.9672356844
5524.1043164060	0.9529416561
5526.0331237790	0.9971141815
5527.9619311521	0.9867151380
5529.8907385251	0.9538851976
5531.8195458982	0.9828110933
5533.7483532712	0.9796364903
5535.6771606443	0.9588601589
5537.6059680173	1.0234603882
5539.5347753904	0.9857514501
5541.4635827634	0.9683395624
5543.3923901365	0.9936889410
5545.3211975095	0.9619650245
5547.2500048826	0.9781233668
5549.1788122556	0.9791589975
5551.1076196287	0.9731433988
5553.0364270017	0.9704902768
5554.9652343747	0.9854416847
5556.8940417478	0.9847630262
5558.8228491208	0.9824672341
5560.7516564939	0.9885761738
5562.6804638669	0.9394752979
5564.6092712400	0.9661927223
5566.5380786130	0.9595124125
5568.4668859861	0.9373190999
5570.3956933591	0.9915586114
5572.3245007322	0.9641261697
5574.2533081052	0.9507764578
5576.1821154783	0.9799989462
5578.1109228513	0.9757605195
5580.0397302244	0.9609947801
5581.9685375974	0.9768656492
5583.8973449704	0.9653762579
5585.8261523435	0.9434296489
5587.7549597165	0.9829108119
5589.6837670896	0.9673113227
5591.6125744626	0.9496117234
5593.5413818357	0.9470267296
5595.4701892087	0.9406200647
5597.3989965818	0.9582721591
5599.3278039548	0.9559836388
5601.2566113279	0.9921709299
5603.1854187009	0.9838920236
5605.1142260740	0.9681312442
5607.0430334470	0.9811217189
5608.9718408201	0.9647876024
5610.9006481931	0.9884741902
5612.8294555661	0.9774011374
5614.7582629392	0.9806079865
5616.6870703122	0.9793223739
5618.6158776853	0.9575978518
5620.5446850583	0.9801673889
5622.4734924314	0.9450668097
5624.4022998044	0.9640606046
5626.3311071775	0.9814198017
5628.2599145505	0.9624750018
5630.1887219236	1.0146634579
5632.1175292966	0.9764422774
5634.0463366697	0.9702325463
5635.9751440427	1.0103257895
5637.9039514158	0.9849256277
5639.8327587888	0.9933421612
5641.7615661619	0.9592691064
5643.6903735349	0.9661569595
5645.6191809079	1.0071249008
5647.5479882810	0.9590763450
5649.4767956540	0.9507488608
5651.4056030271	0.9547908902
5653.3344104001	0.9640421271
5655.2632177732	0.9850471020
5657.1920251462	0.9548705816
5659.1208325193	0.9666222930
5661.0496398923	0.9931100607
5662.9784472654	0.9717401266
5664.9072546384	0.9596645832
5666.8360620115	0.9682732821
5668.7648693845	0.9657297730
5670.6936767576	0.9633435607
5672.6224841306	0.9933725595
5674.5512915036	1.0175436735
5676.4800988767	1.0029251575
5678.4089062497	0.9690887332
5680.3377136228	0.9668090343
5682.2665209958	0.9684684873
5684.1953283689	0.9486141205
5686.1241357419	0.9780280590
5688.0529431150	0.9904063940
5689.9817504880	0.9827329516
5691.9105578611	1.0042619705
5693.8393652341	0.9974630475
5695.7681726072	0.9791425467
5697.6969799802	0.9482272863
5699.6257873533	0.9404979944
5701.5545947263	0.9599585533
5703.4834020993	0.9545078278
5705.4122094724	0.9581304789
5707.3410168454	0.9925060868
5709.2698242185	0.9608637691
5711.1986315915	0.9127044082
5713.1274389646	0.9812207818
5715.0562463376	0.9649714828
5716.9850537107	0.9406771660
5718.9138610837	1.0040086508
5720.8426684568	0.9452810287
5722.7714758298	0.9691073298
5724.7002832029	0.9908770919
5726.6290905759	0.9384669065
5728.5578979490	0.9712967277
5730.4867053220	0.9499973059
5732.4155126950	0.9753748775
5734.3443200681	0.9998535514
5736.2731274411	0.9740222096
5738.2019348142	0.9923146367
5740.1307421872	0.9702193141
5742.0595495603	0.9749830961
5743.9883569333	0.9683920145
5745.9171643064	0.9645128250
5747.8459716794	0.9819503427
5749.7747790525	0.9619356394
5751.7035864255	0.9687274098
5753.6323937986	0.9826772213
5755.5612011716	0.9731005430
5757.4900085447	0.9468203187
5759.4188159177	0.9695142508
5761.3476232907	0.9893153906
5763.2764306638	0.9385664463
5765.2052380368	0.9379928708
5767.1340454099	0.9640443325
5769.0628527829	0.9679886699
5770.9916601560	0.9887079000
5772.9204675290	0.9648096561
5774.8492749021	0.9336036444
5776.7780822751	0.9698390961
5778.7068896482	0.9571621418
5780.6356970212	0.9416604042
5782.5645043943	0.9581710100
5784.4933117673	0.9212449193
5786.4221191404	0.9515169263
5788.3509265134	0.9761208892
5790.2797338865	0.9621909261
5792.2085412595	0.9931634068
5794.1373486325	0.9771941900
5796.0661560056	0.9789201617
5797.9949633786	0.9786503911
5799.9237707517	0.9720621109
5801.8525781247	1.0039077997
5803.7813854978	0.9439112544
5805.7101928708	0.9084898829
5807.6390002439	0.9684970379
5809.5678076169	0.9461969733
5811.4966149900	0.9282706976
5813.4254223630	0.9679912925
5815.3542297361	0.9429271817
5817.2830371091	0.9512277246
5819.2118444822	0.9795206785
5821.1406518552	0.9606609344
5823.0694592282	0.9509679079
5824.9982666013	0.9570783377
5826.9270739743	0.9547653198
5828.8558813474	0.9433227777
5830.7846887204	0.9760541320
5832.7134960935	0.9379773736
5834.6423034665	0.9230750203
5836.5711108396	0.9965422750
5838.4999182126	0.9677433968
5840.4287255857	0.9493979216
5842.3575329587	0.9441767931
5844.2863403318	0.9438566566
5846.2151477048	0.9973523021
5848.1439550779	0.9974272251
5850.0727624509	1.0157884359
5852.0015698239	1.0354399681
5853.9303771970	0.9774928689
5855.8591845700	0.9302128553
5857.7879919431	0.9588875175
5859.7167993161	0.9887492061
5861.6456066892	0.9880941510
5863.5744140622	1.0012685061
5865.5032214353	0.9976961017
5867.4320288083	1.0036574602
5869.3608361814	1.0153398514
5871.2896435544	1.0146526098
5873.2184509275	1.0044801235
5875.1472583005	0.9917351007
5877.0760656736	1.0122328997
5879.0048730466	0.9861938357
5880.9336804196	0.9428929687
5882.8624877927	0.9955549836
5884.7912951657	0.9976610541
5886.7201025388	0.9276186824
5888.6489099118	0.9248386621
5890.5777172849	0.9377567768
5892.5065246579	0.9617252350
5894.4353320310	0.9564056993
5896.3641394040	0.9627363682
5898.2929467771	0.9996269941
5900.2217541501	0.9700648785
5902.1505615232	0.9814014435
5904.0793688962	0.9483536482
5906.0081762693	0.9358851910
5907.9369836423	0.9756863713
5909.8657910154	0.9319605231
5911.7945983884	0.9738778472
5913.7234057614	0.9803764820
5915.6522131345	0.9324176908
5917.5810205075	0.9621598125
5919.5098278806	0.9649797082
5921.4386352536	0.9795441031
5923.3674426267	0.9798890948
5925.2962499997	0.9567544460
5927.2250573728	0.9396485686
5929.1538647458	0.9330918789
5931.0826721189	0.9867118597
5933.0114794919	1.0152972937
5934.9402868650	0.9489231706
5936.8690942380	0.9503341913
5938.7979016111	0.9753202796
5940.7267089841	0.9301195145
5942.6555163571	0.9693250060
5944.5843237302	0.9688768387
5946.5131311032	0.9438459873
5948.4419384763	0.9573207498
5950.3707458493	0.9257755876
5952.2995532224	0.9555842280
5954.2283605954	0.9401679039
5956.1571679685	0.9534945488
5958.0859753415	1.0009328127
5960.0147827146	0.9420718551
5961.9435900876	0.9748720527
5963.8723974607	0.9960002303
5965.8012048337	0.9474900961
5967.7300122068	0.9587399364
5969.6588195798	0.9855058193
5971.5876269528	1.0120860338
5973.5164343259	0.9905625582
5975.4452416989	0.9374232888
5977.3740490720	0.9633944035
5979.3028564450	0.9965616465
5981.2316638181	0.9454685450
5983.1604711911	0.9506700635
5985.0892785642	0.9760338664
5987.0180859372	0.9359872937
5988.9468933103	0.9832742214
5990.8757006833	1.0075904131
5992.8045080564	0.9275757074
5994.7333154294	0.9468310475
5996.6621228025	0.9701587558
5998.5909301755	0.9527249932
6000.5197375485	0.9134830236
