399.2631262207	0.3510762453
401.1919335938	0.4918263555
403.1207409668	1.4721251726
405.0495483398	2.0273973942
406.9783557129	-0.0270139109
408.9071630859	-0.1240657270
410.8359704590	0.2719094157
412.7647778320	0.5246260166
414.6935852051	0.6734592915
416.6223925781	0.6361448765
418.5511999512	0.6320178509
420.4800073242	0.0640307069
422.4088146973	0.6659854054
424.3376220703	0.6149992943
426.2664294434	0.0681838766
428.1952368164	-0.1457184106
430.1240441895	0.1838755757
432.0528515625	0.5796290636
433.9816589355	0.5929534435
435.9104663086	0.4399939775
437.8392736816	0.2484846562
439.7680810547	0.2112746537
441.6968884277	-0.0328350887
443.6256958008	-0.0904519036
445.5545031738	0.3426176608
447.4833105469	0.3356165886
449.4121179199	0.9458249211
451.3409252930	0.5825960040
453.2697326660	0.4123337567
455.1985400391	0.4425452948
457.1273474121	0.1937107146
459.0561547852	0.3532612622
460.9849621582	0.4844438136
462.9137695313	0.6072882414
464.8425769043	0.1084440276
466.7713842773	-0.0177155100
468.7001916504	-0.5378292203
470.6289990234	-0.4143354297
472.5578063965	1.5031563044
474.4866137695	9.4790401459
476.4154211426	9.7512807846
478.3442285156	0.6801872253
480.2730358887	0.1727909595
482.2018432617	-0.4748185873
484.1306506348	0.8918108344
486.0594580078	-0.3080593944
487.9882653809	1.4064806700
489.9170727539	1.2524074316
491.8458801270	1.1685268879
493.7746875000	1.5571322441
495.7034948730	-0.2728966475
497.6323022461	-0.5548332334
499.5611096191	-1.2030259371
501.4899169922	0.3600482643
503.4187243652	0.9186378121
505.3475317383	0.1610472053
507.2763391113	1.2438496351
509.2051464844	-1.2748804092
511.1339538574	0.8498951197
513.0627612305	0.3419536054
514.9915686035	1.1948302984
516.9203759766	-0.5805101395
518.8491833496	-2.1401917934
520.7779907227	1.7899650335
522.7067980957	-0.0720902756
524.6356054688	0.3134633005
526.5644128418	0.7176280022
528.4932202148	0.9983149767
530.4220275879	1.5453195572
532.3508349609	-1.8705849648
534.2796423340	0.7352827787
536.2084497070	-0.3472351730
538.1372570801	-0.3027350008
540.0660644531	0.7763468623
541.9948718262	0.4090150595
543.9236791992	5.2953362465
545.8524865723	-1.3140723705
547.7812939453	0.4710155129
549.7101013184	0.0025362184
551.6389086914	0.0551570468
553.5677160645	0.2702929676
555.4965234375	-0.9249187708
557.4253308105	0.9288272858
559.3541381836	1.2241181135
561.2829455566	2.9969875813
563.2117529297	36.0203819275
565.1405603027	0.0348201394
567.0693676758	2.4184858799
568.9981750488	1.3772898912
570.9269824219	-1.0825212002
572.8557897949	-4.2582578659
574.7845971680	0.5749422312
576.7134045410	0.7876613140
578.6422119141	-0.2488415092
580.5710192871	5.1281681061
582.4998266602	0.7803265452
584.4286340332	0.1516725719
586.3574414063	1.6476430893
588.2862487793	1.0318324566
590.2150561523	1.5481654406
592.1438635254	0.6992517710
594.0726708984	0.6832766533
596.0014782715	1.6445142031
597.9302856445	0.4427876472
599.8590930176	1.5539324284
601.7879003906	-0.0683429316
603.7167077637	0.1054214761
605.6455151367	2.4180049896
607.5743225098	-0.7771888375
609.5031298828	-12.4295282364
611.4319372559	0.5676580071
613.3607446289	0.5161317587
615.2895520020	-6.7387070656
617.2183593750	-3.8298285007
619.1471667480	6.1873192787
621.0759741211	-1.4282122850
623.0047814941	0.1851112396
624.9335888672	-0.7158977389
626.8623962402	-0.5379970074
628.7912036133	0.0600131080
630.7200109863	0.1972774565
632.6488183594	0.8753384352
634.5776257324	0.5071676970
636.5064331055	0.4419615865
638.4352404785	0.4946643710
640.3640478516	0.2074023336
642.2928552246	0.7806091309
644.2216625977	0.4417370856
646.1504699707	0.4592329562
648.0792773438	0.7873028517
650.0080847168	0.6413492560
651.9368920898	1.0750601292
653.8656994629	0.7129837871
655.7945068359	0.6440393925
657.7233142090	0.6479756236
659.6521215820	0.4829789698
661.5809289551	0.8158695698
663.5097363281	0.7825251818
665.4385437012	0.6587217450
667.3673510742	0.7581523657
669.2961584473	0.7147318125
671.2249658203	0.6987348795
673.1537731934	0.8415844440
675.0825805664	0.8608297706
677.0113879395	0.5017552376
678.9401953125	0.6552180648
680.8690026855	0.7081501484
682.7978100586	0.6024857163
684.7266174316	1.0752062798
686.6554248047	0.8856390715
688.5842321777	0.5792042017
690.5130395508	0.7549079657
692.4418469238	0.6691057086
694.3706542969	0.6106756926
696.2994616699	0.6738978028
698.2282690430	0.6409858465
700.1570764160	0.6921199560
702.0858837891	0.7469354272
704.0146911621	0.7200043201
705.9434985352	0.7447375059
707.8723059082	0.7377826571
709.8011132813	0.6808819175
711.7299206543	0.6904361248
713.6587280273	0.9799873829
715.5875354004	0.6680629253
717.5163427734	0.2210166603
719.4451501465	1.9274758101
721.3739575195	-0.1426078528
723.3027648926	-0.0973297879
725.2315722656	0.9163399339
727.1603796387	0.5416528583
729.0891870117	1.4156737328
731.0179943848	-0.8451836705
732.9468017578	-0.0398693644
734.8756091309	0.3095310032
736.8044165039	-0.8170260787
738.7332238770	0.2992027402
740.6620312500	1.4505294561
742.5908386230	0.4137987792
744.5196459961	0.8950759172
746.4484533691	0.4786554873
748.3772607422	0.5896114707
750.3060681152	-0.4364888966
752.2348754883	0.8951911926
754.1636828613	3.4329419136
756.0924902344	1.1162549257
758.0212976074	0.7596893907
759.9501049805	2.5976390839
761.8789123535	0.6727371216
763.8077197266	0.2569966018
765.7365270996	1.0095826387
767.6653344727	3.1215176582
769.5941418457	0.8982403874
771.5229492188	0.4570955634
773.4517565918	0.7460545897
775.3805639648	0.7452106476
777.3093713379	3.9205129147
779.2381787109	2.2314260006
781.1669860840	0.8173814416
783.0957934570	1.5996348858
785.0246008301	8.6314964294
786.9534082031	1.8106651306
788.8822155762	1.9417673349
790.8110229492	-14.9019956589
792.7398303223	2.4924261570
794.6686376953	0.6456407309
796.5974450684	1.0253332853
798.5262524414	0.5342403054
800.4550598145	0.6445402503
802.3838671875	1.3909448385
804.3126745605	0.8085520864
806.2414819336	0.3927967548
808.1702893066	0.5379474759
810.0990966797	1.4464565516
812.0279040527	1.3277592659
813.9567114258	1.2269723415
815.8855187988	0.6152074933
817.8143261719	0.5938442349
819.7431335449	1.7273023129
821.6719409180	0.7240855694
823.6007482910	1.2228772640
825.5295556641	1.2413871288
827.4583630371	0.2893929183
829.3871704102	0.5260335207
831.3159777832	0.8814857006
833.2447851563	0.7933207154
835.1735925293	0.8461394310
837.1023999023	1.1785894632
839.0312072754	1.0044814348
840.9600146484	0.6669054031
842.8888220215	0.9593014717
844.8176293945	2.3000860214
846.7464367676	0.8417584896
848.6752441406	0.8535128832
850.6040515137	1.7573294640
852.5328588867	0.2804141045
854.4616662598	0.3450558186
856.3904736328	1.3522807360
858.3192810059	1.7623476982
860.2480883789	2.4237518311
862.1768957520	0.0808450580
864.1057031250	0.3748989105
866.0345104980	0.9787719846
867.9633178711	0.6267906427
869.8921252441	2.4219727516
871.8209326172	1.5054415464
873.7497399902	0.9402317405
875.6785473633	0.5245454311
877.6073547363	0.6010936499
879.5361621094	0.5702047348
881.4649694824	0.3496536314
883.3937768555	0.7904165387
885.3225842285	0.3049325645
887.2513916016	0.2646235824
889.1801989746	0.5285882950
891.1090063477	0.7975162268
893.0378137207	1.1370270252
894.9666210938	0.9301404953
896.8954284668	1.3872455359
898.8242358398	2.9048457146
900.7530432129	0.8761188388
902.6818505859	0.5016622543
904.6106579590	1.2808928490
906.5394653320	0.8986909986
908.4682727051	1.1772313118
910.3970800781	0.5311105251
912.3258874512	0.7455645800
914.2546948242	1.5612995625
916.1835021973	0.8505153060
918.1123095703	1.1093029976
920.0411169434	0.9497202635
921.9699243164	0.9837242961
923.8987316895	0.7293443084
925.8275390625	0.3893849850
927.7563464355	1.0844800472
929.6851538086	1.0880520344
931.6139611816	0.6475436687
933.5427685547	0.8106443286
935.4715759277	1.0201957226
937.4003833008	0.8935911655
939.3291906738	0.9907315373
941.2579980469	0.9731305838
943.1868054199	0.8383872509
945.1156127930	0.8890927434
947.0444201660	0.7292217612
948.9732275391	0.9226226807
950.9020349121	0.7700084448
952.8308422852	0.7889673114
954.7596496582	1.1929383278
956.6884570313	0.5119498968
958.6172644043	0.7210775018
960.5460717773	0.9639922976
962.4748791504	0.5566344261
964.4036865234	0.7101629376
966.3324938965	0.7744101286
968.2613012695	0.6859515309
970.1901086426	0.8174668550
972.1189160156	0.7542091012
974.0477233887	0.7773983479
975.9765307617	0.7473656535
977.9053381348	0.6586992145
979.8341455078	0.8946118951
981.7629528809	0.8125964999
983.6917602539	0.7841404080
985.6205676270	0.8264528513
987.5493750000	0.6729817390
989.4781823730	0.7539830208
991.4069897461	0.7160139084
993.3357971191	0.7126533985
995.2646044922	0.7290526032
997.1934118652	0.6609969735
999.1222192383	0.7232001424
1001.0510266113	0.7003577948
1002.9798339844	0.7056763768
1004.9086413574	0.6723996401
1006.8374487305	0.6780507565
1008.7662561035	0.7637246251
1010.6950634766	0.7027806044
1012.6238708496	0.6892846227
1014.5526782227	0.7001820803
1016.4814855957	0.7099231482
1018.4102929688	0.7125574946
1020.3391003418	0.6767419577
1022.2679077148	0.6926795840
1024.1967150879	0.7100244164
1026.1255224609	0.6926748753
1028.0543298340	0.6740842462
1029.9831372070	0.6939696670
1031.9119445801	0.6935195327
1033.8407519531	0.6865155697
1035.7695593262	0.7022110224
1037.6983666992	0.7017039657
1039.6271740723	0.6873527765
1041.5559814453	0.6776903272
1043.4847888184	0.7118194699
1045.4135961914	0.6942762733
1047.3424035645	0.6566110253
1049.2712109375	0.6737258434
1051.2000183105	0.7001075745
1053.1288256836	0.7040039897
1055.0576330566	0.6681602001
1056.9864404297	0.7113717794
1058.9152478027	0.7113163471
1060.8440551758	0.6389276385
1062.7728625488	0.6650399566
1064.7016699219	0.6865503192
1066.6304772949	0.6789535284
1068.5592846680	0.6781024337
1070.4880920410	0.6903858185
1072.4168994141	0.6565806270
1074.3457067871	0.6359977722
1076.2745141602	0.7124344707
1078.2033215332	0.6922658086
1080.1321289062	0.6457836628
1082.0609362793	0.6278846264
1083.9897436523	0.6487545371
1085.9185510254	0.6802436113
1087.8473583984	0.6171337962
1089.7761657715	0.6942950487
1091.7049731445	0.7759933472
1093.6337805176	0.7013320327
1095.5625878906	0.6882579923
1097.4913952637	0.6913719773
1099.4202026367	0.6626552343
1101.3490100098	0.6766778231
1103.2778173828	0.7382302880
1105.2066247559	0.7330923080
1107.1354321289	0.7496696711
1109.0642395019	0.7721490860
1110.9930468750	0.7315171957
1112.9218542480	0.7254014611
1114.8506616211	0.7254365683
1116.7794689941	0.7499459386
1118.7082763672	0.6986666918
1120.6370837402	0.7608665228
1122.5658911133	0.7906557322
1124.4946984863	0.7111012340
1126.4235058594	0.7526252270
1128.3523132324	0.6884917617
1130.2811206055	0.7265772223
1132.2099279785	0.7438903451
1134.1387353516	0.7116770148
1136.0675427246	0.7300675511
1137.9963500977	0.6639639139
1139.9251574707	0.7177754641
1141.8539648437	0.6513243914
1143.7827722168	0.6376927495
1145.7115795898	0.7378571033
1147.6403869629	0.6990397573
1149.5691943359	0.6932195425
1151.4980017090	0.6652603149
1153.4268090820	0.6659241319
1155.3556164551	0.6745549440
1157.2844238281	0.6531956792
1159.2132312012	0.6762200594
1161.1420385742	0.6736258864
1163.0708459473	0.6654663682
1164.9996533203	0.6530560255
1166.9284606934	0.6659778357
1168.8572680664	0.6615294218
1170.7860754394	0.6442344785
1172.7148828125	0.6528637409
1174.6436901855	0.6440708041
1176.5724975586	0.6663281918
1178.5013049316	0.6643024087
1180.4301123047	0.6515678167
1182.3589196777	0.6529275179
1184.2877270508	0.6329384446
1186.2165344238	0.6430996656
1188.1453417969	0.6612911820
1190.0741491699	0.6549779177
1192.0029565430	0.6352877021
1193.9317639160	0.6423255801
1195.8605712891	0.6561416984
1197.7893786621	0.6508328915
1199.7181860351	0.6545705795
1201.6469934082	0.6449325681
1203.5758007812	0.6462163329
1205.5046081543	0.6465781927
1207.4334155273	0.6381993294
1209.3622229004	0.6494751573
1211.2910302734	0.6380892992
1213.2198376465	0.6287977695
1215.1486450195	0.6339676976
1217.0774523926	0.6322304606
1219.0062597656	0.6377238035
1220.9350671387	0.6380509138
1222.8638745117	0.6351714134
1224.7926818848	0.6333430409
1226.7214892578	0.6341431141
1228.6502966308	0.6337550282
1230.5791040039	0.6287446618
1232.5079113769	0.6331048608
1234.4367187500	0.6418798566
1236.3655261230	0.6389831901
1238.2943334961	0.6247133017
1240.2231408691	0.6294037104
1242.1519482422	0.6430410743
1244.0807556152	0.6395608783
1246.0095629883	0.6288146973
1247.9383703613	0.6309073567
1249.8671777344	0.6439455748
1251.7959851074	0.6340946555
1253.7247924805	0.6331589222
1255.6535998535	0.6426166892
1257.5824072266	0.6315736771
1259.5112145996	0.6316033602
1261.4400219726	0.6387724280
1263.3688293457	0.6325930953
1265.2976367187	0.6259165406
1267.2264440918	0.6368991733
1269.1552514648	0.6291479468
1271.0840588379	0.6194610000
1273.0128662109	0.6372977495
1274.9416735840	0.6401489973
1276.8704809570	0.6387328506
1278.7992883301	0.6283907294
1280.7280957031	0.6358461380
1282.6569030762	0.6451693773
1284.5857104492	0.6369641423
1286.5145178223	0.6423419118
1288.4433251953	0.6263851523
1290.3721325683	0.6441209912
1292.3009399414	0.6435859203
1294.2297473144	0.6250299215
1296.1585546875	0.6524526477
1298.0873620605	0.6391670704
1300.0161694336	0.6452265382
1301.9449768066	0.6504579782
1303.8737841797	0.6302701235
1305.8025915527	0.6401781440
1307.7313989258	0.6392071247
1309.6602062988	0.6387146711
1311.5890136719	0.6332305670
1313.5178210449	0.6380423903
1315.4466284180	0.6341704726
1317.3754357910	0.6186301112
1319.3042431640	0.6320145726
1321.2330505371	0.6330649853
1323.1618579101	0.6361139417
1325.0906652832	0.6341056824
1327.0194726562	0.6319450140
1328.9482800293	0.6399080753
1330.8770874023	0.6231239438
1332.8058947754	0.6265819073
1334.7347021484	0.6275236607
1336.6635095215	0.6190608740
1338.5923168945	0.6280374527
1340.5211242676	0.6226511002
1342.4499316406	0.6226760745
1344.3787390137	0.6211811304
1346.3075463867	0.6209908128
1348.2363537597	0.6249157786
1350.1651611328	0.6202181578
1352.0939685058	0.6188330650
1354.0227758789	0.6155609488
1355.9515832519	0.6232519150
1357.8803906250	0.6212310195
1359.8091979980	0.6252902746
1361.7380053711	0.6306383610
1363.6668127441	0.6236615777
1365.5956201172	0.6304066777
1367.5244274902	0.6152455807
1369.4532348633	0.6225128174
1371.3820422363	0.6256181002
1373.3108496094	0.6158092022
1375.2396569824	0.6328673959
1377.1684643555	0.6218375564
1379.0972717285	0.6250540018
1381.0260791015	0.6243664026
1382.9548864746	0.6209228635
1384.8836938476	0.6258551478
1386.8125012207	0.6242073178
1388.7413085937	0.6346564293
1390.6701159668	0.6152219772
1392.5989233398	0.6209017038
1394.5277307129	0.6228306890
1396.4565380859	0.6102410555
1398.3853454590	0.6265742183
1400.3141528320	0.6133748889
1402.2429602051	0.6216163039
1404.1717675781	0.6297485232
1406.1005749512	0.6124945283
1408.0293823242	0.6181285381
1409.9581896972	0.6209616065
1411.8869970703	0.6212502122
1413.8158044433	0.6227683425
1415.7446118164	0.6226071119
1417.6734191894	0.6172183752
1419.6022265625	0.6201654077
1421.5310339355	0.6338189244
1423.4598413086	0.6351287961
1425.3886486816	0.6252018213
1427.3174560547	0.6140868664
1429.2462634277	0.6194049716
1431.1750708008	0.6355289817
1433.1038781738	0.6404154301
1435.0326855469	0.6250433922
1436.9614929199	0.6211149693
1438.8903002929	0.6340913177
1440.8191076660	0.6241696477
1442.7479150390	0.6289727092
1444.6767224121	0.6317684650
1446.6055297851	0.6200782657
1448.5343371582	0.6219008565
1450.4631445312	0.6257803440
1452.3919519043	0.6404012442
1454.3207592773	0.6337706447
1456.2495666504	0.6213499904
1458.1783740234	0.6226825118
1460.1071813965	0.6172546744
1462.0359887695	0.6253083944
1463.9647961426	0.6209161878
1465.8936035156	0.6157994270
1467.8224108886	0.6197820306
1469.7512182617	0.6069474816
1471.6800256347	0.6002441645
1473.6088330078	0.6055273414
1475.5376403808	0.6083443761
1477.4664477539	0.6076999903
1479.3952551269	0.6076021194
1481.3240625000	0.6102210283
1483.2528698730	0.6110337377
1485.1816772461	0.6045154929
1487.1104846191	0.6005447507
1489.0392919922	0.6044796109
1490.9680993652	0.5960335732
1492.8969067383	0.6008133888
1494.8257141113	0.6061943769
1496.7545214843	0.5943114758
1498.6833288574	0.5996833444
1500.6121362304	0.6003587842
1502.5409436035	0.6000699401
1504.4697509765	0.5987738967
1506.3985583496	0.5851244330
1508.3273657226	0.5935757756
1510.2561730957	0.5946571827
1512.1849804687	0.5929501057
1514.1137878418	0.5973962545
1516.0425952148	0.5905622840
1517.9714025879	0.5915433764
1519.9002099609	0.5973055363
1521.8290173340	0.5948596001
1523.7578247070	0.5971601009
1525.6866320801	0.5979933739
1527.6154394531	0.5917587280
1529.5442468261	0.5928758383
1531.4730541992	0.5914646387
1533.4018615722	0.5863950253
1535.3306689453	0.5911728144
1537.2594763183	0.5903432965
1539.1882836914	0.5784601569
1541.1170910644	0.5788325071
1543.0458984375	0.5825498104
1544.9747058105	0.5834823251
1546.9035131836	0.5904144645
1548.8323205566	0.5875487924
1550.7611279297	0.5873280168
1552.6899353027	0.5864325762
1554.6187426758	0.5812696218
1556.5475500488	0.5855956078
1558.4763574218	0.5678156018
1560.4051647949	0.5695173144
1562.3339721679	0.5885563493
1564.2627795410	0.5832530260
1566.1915869140	0.5842970610
1568.1203942871	0.5838683248
1570.0492016601	0.5747307539
1571.9780090332	0.5796416402
1573.9068164062	0.5826724768
1575.8356237793	0.5745735168
1577.7644311523	0.5759705901
1579.6932385254	0.5832192302
1581.6220458984	0.5826704502
1583.5508532715	0.5823369622
1585.4796606445	0.5808207393
1587.4084680175	0.5782244802
1589.3372753906	0.5772619247
1591.2660827636	0.5742871165
1593.1948901367	0.5754030347
1595.1236975097	0.5787717104
1597.0525048828	0.5792981386
1598.9813122558	0.5803043246
1600.9101196289	0.5781814456
1602.8389270019	0.5743325949
1604.7677343750	0.5770694613
1606.6965417480	0.5764130950
1608.6253491211	0.5753926039
1610.5541564941	0.5751366615
1612.4829638672	0.5742753148
1614.4117712402	0.5762802362
1616.3405786132	0.5660271645
1618.2693859863	0.5715816617
1620.1981933593	0.5850766301
1622.1270007324	0.5777043104
1624.0558081054	0.5776652098
1625.9846154785	0.5883886814
1627.9134228515	0.5875073671
1629.8422302246	0.5890052319
1631.7710375976	0.5972195864
1633.6998449707	0.5950970650
1635.6286523437	0.5896497965
1637.5574597168	0.6011133790
1639.4862670898	0.6150279641
1641.4150744629	0.6149251461
1643.3438818359	0.6188471317
1645.2726892090	0.6231365204
1647.2014965820	0.6142248511
1649.1303039550	0.6296125650
1651.0591113281	0.6304003000
1652.9879187011	0.6096605659
1654.9167260742	0.6308421493
1656.8455334472	0.6456810236
1658.7743408203	0.6507888436
1660.7031481933	0.6508005857
1662.6319555664	0.6489242911
1664.5607629394	0.6554679275
1666.4895703125	0.6626412868
1668.4183776855	0.6562485695
1670.3471850586	0.6530876160
1672.2759924316	0.6650555134
1674.2047998047	0.6598185301
1676.1336071777	0.6557900310
1678.0624145507	0.6658006310
1679.9912219238	0.6673782468
1681.9200292968	0.6675949693
1683.8488366699	0.6587885618
1685.7776440429	0.6585183144
1687.7064514160	0.6732921004
1689.6352587890	0.6705455780
1691.5640661621	0.6701114178
1693.4928735351	0.6709226966
1695.4216809082	0.6586109996
1697.3504882812	0.6658751965
1699.2792956543	0.6596770287
1701.2081030273	0.6539838910
1703.1369104004	0.6686069369
1705.0657177734	0.6629939675
1706.9945251464	0.6666387916
1708.9233325195	0.6682106256
1710.8521398925	0.6602482796
1712.7809472656	0.6611157656
1714.7097546386	0.6604769230
1716.6385620117	0.6614210010
1718.5673693847	0.6509395838
1720.4961767578	0.6568340063
1722.4249841308	0.6632787585
1724.3537915039	0.6537943482
1726.2825988769	0.6590769291
1728.2114062500	0.6529940367
1730.1402136230	0.6518523097
1732.0690209961	0.6523733139
1733.9978283691	0.6351016760
1735.9266357421	0.6468655467
1737.8554431152	0.6504557133
1739.7842504882	0.6473749280
1741.7130578613	0.6461917162
1743.6418652343	0.6434836984
1745.5706726074	0.6477793455
1747.4994799804	0.6410436630
1749.4282873535	0.6379515529
1751.3570947265	0.6372318268
1753.2859020996	0.6416012049
1755.2147094726	0.6431133747
1757.1435168457	0.6352569461
1759.0723242187	0.6457995176
1761.0011315918	0.6424768567
1762.9299389648	0.6384947896
1764.8587463379	0.6464768648
1766.7875537109	0.6385080218
1768.7163610839	0.6394285560
1770.6451684570	0.6360388398
1772.5739758300	0.6285050511
1774.5027832031	0.6364631057
1776.4315905761	0.6375828385
1778.3603979492	0.6356139779
1780.2892053222	0.6344920993
1782.2180126953	0.6310307980
1784.1468200683	0.6291700602
1786.0756274414	0.6316128373
1788.0044348144	0.6337807178
1789.9332421875	0.6357420683
1791.8620495605	0.6298250556
1793.7908569336	0.6267483830
1795.7196643066	0.6341065764
1797.6484716796	0.6321045756
1799.5772790527	0.6310267448
1801.5060864257	0.6273145080
1803.4348937988	0.6253533959
1805.3637011718	0.6296924353
1807.2925085449	0.6300431490
1809.2213159179	0.6294403076
1811.1501232910	0.6200890541
1813.0789306640	0.6244263053
1815.0077380371	0.6284727454
1816.9365454101	0.6205849051
1818.8653527832	0.6252000332
1820.7941601562	0.6267422438
1822.7229675293	0.6252952218
1824.6517749023	0.6210302711
1826.5805822753	0.6190204620
1828.5093896484	0.6188734770
1830.4381970214	0.6155771017
1832.3670043945	0.6215296388
1834.2958117675	0.6228953004
1836.2246191406	0.6214284897
1838.1534265136	0.6181628704
1840.0822338867	0.6193146706
1842.0110412597	0.6233528256
1843.9398486328	0.6138675809
1845.8686560058	0.6132029295
1847.7974633789	0.6195450425
1849.7262707519	0.6186340451
1851.6550781250	0.6165174246
1853.5838854980	0.6165246964
1855.5126928710	0.6184160709
1857.4415002441	0.6183891892
1859.3703076171	0.6187272072
1861.2991149902	0.6196171045
1863.2279223632	0.6189032793
1865.1567297363	0.6151165962
1867.0855371093	0.6112610102
1869.0143444824	0.6128354669
1870.9431518554	0.6153183579
1872.8719592285	0.6154782176
1874.8007666015	0.6151492596
1876.7295739746	0.6147785783
1878.6583813476	0.6136751175
1880.5871887207	0.6137366295
1882.5159960937	0.6150836349
1884.4448034667	0.6136218905
1886.3736108398	0.6136723161
1888.3024182128	0.6109176874
1890.2312255859	0.6065375209
1892.1600329589	0.6121325493
1894.0888403320	0.6105371714
1896.0176477050	0.6071097851
1897.9464550781	0.6131823063
1899.8752624511	0.6126748919
1901.8040698242	0.6118139029
1903.7328771972	0.6121549010
1905.6616845703	0.6087145209
1907.5904919433	0.6061621904
1909.5192993164	0.6097397804
1911.4481066894	0.6122536659
1913.3769140625	0.6100520492
1915.3057214355	0.6104414463
1917.2345288085	0.6051858068
1919.1633361816	0.6091125607
1921.0921435546	0.6117578745
1923.0209509277	0.6034039259
1924.9497583007	0.6103494763
1926.8785656738	0.6092395186
1928.8073730468	0.6019089818
1930.7361804199	0.6042185426
1932.6649877929	0.6059290171
1934.5937951660	0.6096435189
1936.5226025390	0.6072584987
1938.4514099121	0.6045406461
1940.3802172851	0.6061529517
1942.3090246582	0.6062117815
1944.2378320312	0.6067865491
1946.1666394042	0.6046130061
1948.0954467773	0.6052655578
1950.0242541503	0.6115325689
1951.9530615234	0.6113889217
1953.8818688964	0.6074650884
1955.8106762695	0.6065444946
1957.7394836425	0.6056417227
1959.6682910156	0.6047275662
1961.5970983886	0.6000741124
1963.5259057617	0.6015646458
1965.4547131347	0.6067129374
1967.3835205078	0.6020980477
1969.3123278808	0.6021699309
1971.2411352539	0.6048557162
1973.1699426269	0.6032205820
1975.0987499999	0.6026616693
1977.0275573730	0.6015439630
1978.9563647460	0.6019708514
1980.8851721191	0.6039003730
1982.8139794921	0.6007536650
1984.7427868652	0.6003862619
1986.6715942382	0.6062968969
1988.6004016113	0.6036783457
1990.5292089843	0.6031661630
1992.4580163574	0.6042692065
1994.3868237304	0.5995780826
1996.3156311035	0.6009426713
1998.2444384765	0.6015225053
2000.1732458496	0.6007382870
2002.1020532226	0.5977877378
2004.0308605956	0.5980461836
2005.9596679687	0.6026436090
2007.8884753417	0.6006082892
2009.8172827148	0.6007027030
2011.7460900878	0.6003790498
2013.6748974609	0.6000711322
2015.6037048339	0.6019963026
2017.5325122070	0.6014130712
2019.4613195800	0.5996695757
2021.3901269531	0.6001143456
2023.3189343261	0.6026132107
2025.2477416992	0.5978057384
2027.1765490722	0.5976945758
2029.1053564453	0.6005415320
2031.0341638183	0.5979824066
2032.9629711914	0.6009106040
2034.8917785644	0.6005080938
2036.8205859374	0.6015456319
2038.7493933105	0.6043790579
2040.6782006835	0.6000932455
2042.6070080566	0.6002172828
2044.5358154296	0.6002113819
2046.4646228027	0.5981216431
2048.3934301757	0.5977388024
2050.3222375488	0.5958719254
2052.2510449218	0.5971391797
2054.1798522949	0.5988808274
2056.1086596679	0.5973001719
2058.0374670410	0.5943151116
2059.9662744140	0.5987278819
2061.8950817871	0.6058527827
2063.8238891601	0.5982918143
2065.7526965331	0.5947473645
2067.6815039062	0.5983730555
2069.6103112792	0.5976061225
2071.5391186523	0.6006263494
2073.4679260253	0.5975680947
2075.3967333984	0.5974704623
2077.3255407714	0.6009399891
2079.2543481445	0.5973929167
2081.1831555175	0.5974532962
2083.1119628906	0.5960173011
2085.0407702636	0.5974414349
2086.9695776367	0.5970317125
2088.8983850097	0.5954606533
2090.8271923828	0.6003358960
2092.7559997558	0.5968481898
2094.6848071288	0.5981208682
2096.6136145019	0.6000006199
2098.5424218749	0.5934962630
2100.4712292480	0.5949754119
2102.4000366210	0.5975960493
2104.3288439941	0.5996035933
2106.2576513671	0.6004979610
2108.1864587402	0.5982068181
2110.1152661132	0.5995915532
2112.0440734863	0.5996572971
2113.9728808593	0.5978585482
2115.9016882324	0.5973280668
2117.8304956054	0.5955540538
2119.7593029785	0.5979474187
2121.6881103515	0.6004596353
2123.6169177245	0.5957785249
2125.5457250976	0.5974559784
2127.4745324706	0.6000314355
2129.4033398437	0.5996778607
2131.3321472167	0.6035025716
2133.2609545898	0.6003546715
2135.1897619628	0.5991334915
2137.1185693359	0.5981734991
2139.0473767089	0.5963524580
2140.9761840820	0.5998890400
2142.9049914550	0.5965219140
2144.8337988281	0.5990983844
2146.7626062011	0.5992720127
2148.6914135742	0.5949339867
2150.6202209472	0.5996560454
2152.5490283203	0.5962691307
2154.4778356933	0.5978183150
2156.4066430663	0.6002647877
2158.3354504394	0.5942617655
2160.2642578124	0.5954949260
2162.1930651855	0.5946351290
2164.1218725585	0.5960905552
2166.0506799316	0.5966128111
2167.9794873046	0.5939762592
2169.9082946777	0.5980287194
2171.8371020507	0.5971885324
2173.7659094238	0.5950958729
2175.6947167968	0.5948255062
2177.6235241699	0.5956259966
2179.5523315429	0.5980552435
2181.4811389160	0.5974871516
2183.4099462890	0.5962226391
2185.3387536620	0.5948017836
2187.2675610351	0.5981871486
2189.1963684081	0.5976714492
2191.1251757812	0.5936339498
2193.0539831542	0.5920739174
2194.9827905273	0.5894332528
2196.9115979003	0.5950458050
2198.8404052734	0.5965332389
2200.7692126464	0.5949824452
2202.6980200195	0.5963732004
2204.6268273925	0.5944722295
2206.5556347656	0.5974146128
2208.4844421386	0.5979142785
2210.4132495117	0.5982102156
2212.3420568847	0.5936069489
2214.2708642577	0.5921745300
2216.1996716308	0.6000059843
2218.1284790038	0.5947453380
2220.0572863769	0.5943025947
2221.9860937499	0.5961290002
2223.9149011230	0.5943816304
2225.8437084960	0.5944608450
2227.7725158691	0.5898039341
2229.7013232421	0.5975187421
2231.6301306152	0.5976690054
2233.5589379882	0.5923101902
2235.4877453613	0.5989272594
2237.4165527343	0.5940240622
2239.3453601074	0.5933465958
2241.2741674804	0.5979508162
2243.2029748534	0.5944291353
2245.1317822265	0.5942332745
2247.0605895995	0.5915254354
2248.9893969726	0.5936123133
2250.9182043456	0.5948407650
2252.8470117187	0.5901683569
2254.7758190917	0.5946053863
2256.7046264648	0.5934764147
2258.6334338378	0.5936946273
2260.5622412109	0.5945555568
2262.4910485839	0.5922772884
2264.4198559570	0.5983366370
2266.3486633300	0.5909199119
2268.2774707031	0.5889467001
2270.2062780761	0.5943661332
2272.1350854491	0.5921280384
2274.0638928222	0.5960630774
2275.9927001952	0.5925775170
2277.9215075683	0.5921930671
2279.8503149413	0.5945504904
2281.7791223144	0.5947341919
2283.7079296874	0.5955752134
2285.6367370605	0.5889104009
2287.5655444335	0.5905644894
2289.4943518066	0.5943135023
2291.4231591796	0.5943813324
2293.3519665527	0.5914161801
2295.2807739257	0.5898391008
2297.2095812988	0.5919926167
2299.1383886718	0.5885433555
2301.0671960449	0.5897561312
2302.9960034179	0.5895510912
2304.9248107909	0.5903918743
2306.8536181640	0.5928053856
2308.7824255370	0.5915224552
2310.7112329101	0.5940179825
2312.6400402831	0.5904014111
2314.5688476562	0.5874133110
2316.4976550292	0.5884194374
2318.4264624023	0.5927033424
2320.3552697753	0.5925472379
2322.2840771484	0.5853065848
2324.2128845214	0.5905802250
2326.1416918945	0.5912460089
2328.0704992675	0.5888725519
2329.9993066406	0.5875886679
2331.9281140136	0.5834857225
2333.8569213866	0.5930711627
2335.7857287597	0.5898413062
2337.7145361327	0.5850091577
2339.6433435058	0.5906629562
2341.5721508788	0.5871836543
2343.5009582519	0.5943021178
2345.4297656249	0.5933936834
2347.3585729980	0.5854957700
2349.2873803710	0.5858031511
2351.2161877441	0.5841293335
2353.1449951171	0.5901426077
2355.0738024902	0.5878582597
2357.0026098632	0.5857023597
2358.9314172363	0.5872023702
2360.8602246093	0.5831821561
2362.7890319823	0.5870258808
2364.7178393554	0.5810892582
2366.6466467284	0.5801274180
2368.5754541015	0.5843319297
2370.5042614745	0.5833587646
2372.4330688476	0.5847898126
2374.3618762206	0.5801607966
2376.2906835937	0.5819553137
2378.2194909667	0.5866639018
2380.1482983398	0.5875260234
2382.0771057128	0.5873513222
2384.0059130859	0.5855625868
2385.9347204589	0.5829238296
2387.8635278320	0.5816373229
2389.7923352050	0.5840710402
2391.7211425780	0.5840266347
2393.6499499511	0.5845515728
2395.5787573241	0.5823515058
2397.5075646972	0.5839348435
2399.4363720702	0.5856268406
2401.3651794433	0.5793393254
2403.2939868163	0.5810741782
2405.2227941894	0.5838582516
2407.1516015624	0.5812391639
2409.0804089355	0.5766264200
2411.0092163085	0.5830374360
2412.9380236816	0.5876415372
2414.8668310546	0.5790876150
2416.7956384277	0.5809721351
2418.7244458007	0.5836521387
2420.6532531738	0.5849785209
2422.5820605468	0.5816336870
2424.5108679198	0.5783284307
2426.4396752929	0.5810365677
2428.3684826659	0.5789296627
2430.2972900390	0.5828282237
2432.2260974120	0.5817680955
2434.1549047851	0.5798271894
2436.0837121581	0.5784643292
2438.0125195312	0.5774354339
2439.9413269042	0.5842403769
2441.8701342773	0.5825592875
2443.7989416503	0.5808438659
2445.7277490234	0.5796114802
2447.6565563964	0.5819129944
2449.5853637695	0.5815397501
2451.5141711425	0.5738231540
2453.4429785155	0.5759456754
2455.3717858886	0.5790045857
2457.3005932616	0.5815796852
2459.2294006347	0.5784556866
2461.1582080077	0.5777664781
2463.0870153808	0.5797393918
2465.0158227538	0.5758988261
2466.9446301269	0.5795680285
2468.8734374999	0.5782298446
2470.8022448730	0.5771712065
2472.7310522460	0.5770198703
2474.6598596191	0.5730807781
2476.5886669921	0.5769663453
2478.5174743652	0.5775597095
2480.4462817382	0.5780031085
2482.3750891112	0.5812004209
2484.3038964843	0.5765221715
2486.2327038573	0.5764867663
2488.1615112304	0.5860797167
2490.0903186034	0.5807698965
2492.0191259765	0.5745987296
2493.9479333495	0.5791397691
2495.8767407226	0.5746775866
2497.8055480956	0.5783795714
2499.7343554687	0.5800762773
2501.6631628417	0.5714785457
2503.5919702148	0.5734973550
2505.5207775878	0.5756144524
2507.4495849609	0.5758235455
2509.3783923339	0.5746806860
2511.3071997069	0.5721549988
2513.2360070800	0.5738863349
2515.1648144530	0.5723929405
2517.0936218261	0.5709093213
2519.0224291991	0.5737378001
2520.9512365722	0.5732349157
2522.8800439452	0.5757526159
2524.8088513183	0.5774105787
2526.7376586913	0.5705270767
2528.6664660644	0.5710007548
2530.5952734374	0.5717829466
2532.5240808105	0.5694726706
2534.4528881835	0.5703117251
2536.3816955566	0.5685983300
2538.3105029296	0.5704772472
2540.2393103027	0.5720064044
2542.1681176757	0.5711277723
2544.0969250487	0.5700320005
2546.0257324218	0.5701482296
2547.9545397948	0.5711528063
2549.8833471679	0.5678040385
2551.8121545409	0.5706438422
2553.7409619140	0.5757396221
2555.6697692870	0.5714992881
2557.5985766601	0.5703967810
2559.5273840331	0.5727993250
2561.4561914062	0.5698049664
2563.3849987792	0.5704010129
2565.3138061523	0.5670590401
2567.2426135253	0.5644248724
2569.1714208984	0.5717117190
2571.1002282714	0.5704100132
2573.0290356444	0.5697470903
2574.9578430175	0.5681117773
2576.8866503905	0.5670879483
2578.8154577636	0.5733707547
2580.7442651366	0.5704585314
2582.6730725097	0.5686498284
2584.6018798827	0.5672865510
2586.5306872558	0.5662938356
2588.4594946288	0.5670874715
2590.3883020019	0.5665714145
2592.3171093749	0.5692716837
2594.2459167480	0.5663407445
2596.1747241210	0.5642417669
2598.1035314941	0.5662737489
2600.0323388671	0.5675253868
2601.9611462401	0.5651212931
2603.8899536132	0.5646888614
2605.8187609862	0.5645561218
2607.7475683593	0.5609940290
2609.6763757323	0.5648206472
2611.6051831054	0.5642153025
2613.5339904784	0.5607086420
2615.4627978515	0.5602906346
2617.3916052245	0.5614736676
2619.3204125976	0.5629656315
2621.2492199706	0.5606692433
2623.1780273437	0.5616760254
2625.1068347167	0.5652635694
2627.0356420898	0.5705778599
2628.9644494628	0.5624668598
2630.8932568358	0.5586710572
2632.8220642089	0.5679740906
2634.7508715819	0.5658651590
2636.6796789550	0.5686859488
2638.6084863280	0.5659673810
2640.5372937011	0.5604573488
2642.4661010741	0.5619356632
2644.3949084472	0.5579025745
2646.3237158202	0.5607042313
2648.2525231933	0.5614343882
2650.1813305663	0.5602281690
2652.1101379394	0.5639272332
2654.0389453124	0.5622055531
2655.9677526855	0.5562860966
2657.8965600585	0.5566875339
2659.8253674315	0.5604933500
2661.7541748046	0.5592570901
2663.6829821776	0.5611409545
2665.6117895507	0.5615782738
2667.5405969237	0.5608178377
2669.4694042968	0.5637392998
2671.3982116698	0.5631121993
2673.3270190429	0.5602843761
2675.2558264159	0.5565054417
2677.1846337890	0.5563811660
2679.1134411620	0.5596202612
2681.0422485351	0.5583988428
2682.9710559081	0.5568458438
2684.8998632812	0.5546892285
2686.8286706542	0.5520040989
2688.7574780273	0.5597461462
2690.6862854003	0.5639621019
2692.6150927733	0.5559571385
2694.5439001464	0.5534899235
2696.4727075194	0.5526695251
2698.4015148925	0.5483637452
2700.3303222655	0.5516198874
2702.2591296386	0.5573145151
2704.1879370116	0.5560442209
2706.1167443847	0.5544828773
2708.0455517577	0.5509658456
2709.9743591308	0.5516862869
2711.9031665038	0.5553427339
2713.8319738769	0.5535457730
2715.7607812499	0.5577700734
2717.6895886230	0.5546483994
2719.6183959960	0.5521934628
2721.5472033690	0.5544149876
2723.4760107421	0.5496373177
2725.4048181151	0.5542949438
2727.3336254882	0.5553784966
2729.2624328612	0.5510358810
2731.1912402343	0.5481039286
2733.1200476073	0.5450978279
2735.0488549804	0.5471137166
2736.9776623534	0.5532142520
2738.9064697265	0.5542303324
2740.8352770995	0.5468699336
2742.7640844726	0.5498241782
2744.6928918456	0.5472512245
2746.6216992187	0.5452319384
2748.5505065917	0.5538706183
2750.4793139647	0.5522286892
2752.4081213378	0.5519517660
2754.3369287108	0.5505624413
2756.2657360839	0.5498605967
2758.1945434569	0.5498363972
2760.1233508300	0.5519502163
2762.0521582030	0.5539506674
2763.9809655761	0.5464616418
2765.9097729491	0.5458443165
2767.8385803222	0.5448357463
2769.7673876952	0.5474288464
2771.6961950683	0.5469757915
2773.6250024413	0.5428378582
2775.5538098144	0.5489383936
2777.4826171874	0.5464869738
2779.4114245604	0.5448031425
2781.3402319335	0.5437262058
2783.2690393065	0.5408776402
2785.1978466796	0.5401110053
2787.1266540526	0.5396732688
2789.0554614257	0.5434347987
2790.9842687987	0.5406050682
2792.9130761718	0.5416105986
2794.8418835448	0.5425940156
2796.7706909179	0.5444298387
2798.6994982909	0.5495538712
2800.6283056640	0.5394296050
2802.5571130370	0.5386080146
2804.4859204101	0.5443306565
2806.4147277831	0.5380482078
2808.3435351562	0.5358248353
2810.2723425292	0.5355099440
2812.2011499022	0.5348011255
2814.1299572753	0.5354346037
2816.0587646483	0.5371493101
2817.9875720214	0.5404328704
2819.9163793944	0.5404202342
2821.8451867675	0.5404403210
2823.7739941405	0.5395979285
2825.7028015136	0.5382800698
2827.6316088866	0.5405207276
2829.5604162597	0.5381979346
2831.4892236327	0.5343412161
2833.4180310058	0.5400323272
2835.3468383788	0.5386182666
2837.2756457519	0.5303035975
2839.2044531249	0.5360230803
2841.1332604979	0.5357509851
2843.0620678710	0.5346070528
2844.9908752440	0.5403435826
2846.9196826171	0.5318605900
2848.8484899901	0.5298654437
2850.7772973632	0.5313568711
2852.7061047362	0.5278774500
2854.6349121093	0.5297484994
2856.5637194823	0.5321420431
2858.4925268554	0.5357128978
2860.4213342284	0.5329924226
2862.3501416015	0.5304152966
2864.2789489745	0.5311504602
2866.2077563476	0.5312595367
2868.1365637206	0.5331765413
2870.0653710936	0.5337319374
2871.9941784667	0.5289931297
2873.9229858397	0.5212952495
2875.8517932128	0.5213756561
2877.7806005858	0.5199786425
2879.7094079589	0.5253862143
2881.6382153319	0.5316027403
2883.5670227050	0.5248231292
2885.4958300780	0.5276786089
2887.4246374511	0.5264591575
2889.3534448241	0.5246042609
2891.2822521972	0.5279459357
2893.2110595702	0.5256825089
2895.1398669433	0.5276598930
2897.0686743163	0.5249156356
2898.9974816893	0.5242202282
2900.9262890624	0.5234856606
2902.8550964354	0.5169245005
2904.7839038085	0.5156977177
2906.7127111815	0.5172426105
2908.6415185546	0.5237175226
2910.5703259276	0.5209802389
2912.4991333007	0.5146828890
2914.4279406737	0.5191185474
2916.3567480468	0.5165297389
2918.2855554198	0.5155436993
2920.2143627929	0.5164749026
2922.1431701659	0.5136172175
2924.0719775390	0.5168492198
2926.0007849120	0.5147378445
2927.9295922851	0.5129286647
2929.8583996581	0.5184575915
2931.7872070311	0.5194134116
2933.7160144042	0.5140600801
2935.6448217772	0.5170537233
2937.5736291503	0.5210413933
2939.5024365233	0.5100266933
2941.4312438964	0.5110064149
2943.3600512694	0.5150344968
2945.2888586425	0.5163636804
2947.2176660155	0.5221167803
2949.1464733886	0.5118284225
2951.0752807616	0.5121553540
2953.0040881347	0.5162128210
2954.9328955077	0.5116090178
2956.8617028808	0.5148928761
2958.7905102538	0.5122374296
2960.7193176268	0.5112817287
2962.6481249999	0.5167905688
2964.5769323729	0.5147344470
2966.5057397460	0.5104899406
2968.4345471190	0.5156309605
2970.3633544921	0.5131563544
2972.2921618651	0.5100140572
2974.2209692382	0.5114850402
2976.1497766112	0.5069591999
2978.0785839843	0.5138044953
2980.0073913573	0.5079558492
2981.9361987304	0.5000657439
2983.8650061034	0.5041076541
2985.7938134765	0.5027923584
2987.7226208495	0.5086115599
2989.6514282225	0.5075734854
2991.5802355956	0.5092545152
2993.5090429686	0.5081382990
2995.4378503417	0.5048179626
2997.3666577147	0.5091637373
2999.2954650878	0.4997920096
3001.2242724608	0.5028428435
3003.1530798339	0.5072212815
3005.0818872069	0.5022854209
3007.0106945800	0.5025569797
3008.9395019530	0.4986376464
3010.8683093261	0.4989122748
3012.7971166991	0.4970186055
3014.7259240722	0.4967905283
3016.6547314452	0.4965787828
3018.5835388182	0.4927447438
3020.5123461913	0.4951288700
3022.4411535643	0.4951669276
3024.3699609374	0.4947029054
3026.2987683104	0.4934673905
3028.2275756835	0.4957413077
3030.1563830565	0.4981919825
3032.0851904296	0.4944792092
3034.0139978026	0.4931162000
3035.9428051757	0.4928075671
3037.8716125487	0.4942558706
3039.8004199218	0.4862377644
3041.7292272948	0.4826512635
3043.6580346679	0.4893544912
3045.5868420409	0.4881072640
3047.5156494139	0.4921529293
3049.4444567870	0.4886253178
3051.3732641600	0.4851474762
3053.3020715331	0.4867805243
3055.2308789061	0.4829314649
3057.1596862792	0.4931978583
3059.0884936522	0.4928694367
3061.0173010253	0.4837156236
3062.9461083983	0.4836680293
3064.8749157714	0.4889923036
3066.8037231444	0.4906891584
3068.7325305175	0.4803964496
3070.6613378905	0.4863204360
3072.5901452636	0.4894458652
3074.5189526366	0.4846516848
3076.4477600097	0.4853022099
3078.3765673827	0.4805695117
3080.3053747557	0.4857872725
3082.2341821288	0.4834037721
3084.1629895018	0.4818312824
3086.0917968749	0.4887100458
3088.0206042479	0.4832486808
3089.9494116210	0.4810999334
3091.8782189940	0.4791051745
3093.8070263671	0.4815199375
3095.7358337401	0.4873464704
3097.6646411132	0.4760619998
3099.5934484862	0.4736280143
3101.5222558593	0.4830313325
3103.4510632323	0.4798690379
3105.3798706054	0.4815783501
3107.3086779784	0.4810835719
3109.2374853514	0.4790041149
3111.1662927245	0.4809812307
3113.0951000975	0.4717905223
3115.0239074706	0.4763222635
3116.9527148436	0.4776127040
3118.8815222167	0.4754808545
3120.8103295897	0.4810769558
3122.7391369628	0.4728901386
3124.6679443358	0.4724412858
3126.5967517089	0.4710472822
3128.5255590819	0.4767069519
3130.4543664550	0.4801447392
3132.3831738280	0.4703582227
3134.3119812011	0.4753204882
3136.2407885741	0.4689262509
3138.1695959471	0.4709222019
3140.0984033202	0.4832893908
3142.0272106932	0.4801294804
3143.9560180663	0.4720812738
3145.8848254393	0.4704604149
3147.8136328124	0.4882605672
3149.7424401854	0.4846705496
3151.6712475585	0.4757073224
3153.6000549315	0.4780330062
3155.5288623046	0.4698177576
3157.4576696776	0.4760128856
3159.3864770507	0.4769097567
3161.3152844237	0.4813487828
3163.2440917968	0.4830081761
3165.1728991698	0.4682544470
3167.1017065428	0.4742919803
3169.0305139159	0.4747070670
3170.9593212889	0.4753975868
3172.8881286620	0.4780879021
3174.8169360350	0.4732240140
3176.7457434081	0.4769375026
3178.6745507811	0.4713562429
3180.6033581542	0.4767908454
3182.5321655272	0.4832583964
3184.4609729003	0.4787781835
3186.3897802733	0.4771689475
3188.3185876464	0.4723998010
3190.2473950194	0.4766000807
3192.1762023925	0.4808256924
3194.1050097655	0.4814802706
3196.0338171386	0.4718822241
3197.9626245116	0.4731017351
3199.8914318846	0.4877735972
3201.8202392577	0.4806264937
3203.7490466307	0.4810307622
3205.6778540038	0.4833415449
3207.6066613768	0.4842253327
3209.5354687499	0.4914129674
3211.4642761229	0.4915010631
3213.3930834960	0.4946092665
3215.3218908690	0.4902196825
3217.2506982421	0.4876683056
3219.1795056151	0.4917403460
3221.1083129882	0.4930258691
3223.0371203612	0.4942158461
3224.9659277343	0.4953909516
3226.8947351073	0.4960747957
3228.8235424803	0.4961436987
3230.7523498534	0.4988705218
3232.6811572264	0.4981154799
3234.6099645995	0.5012847781
3236.5387719725	0.5037378669
3238.4675793456	0.4996991456
3240.3963867186	0.4959207773
3242.3251940917	0.5001471043
3244.2540014647	0.5078769326
3246.1828088378	0.5002985597
3248.1116162108	0.5027756691
3250.0404235839	0.5132818222
3251.9692309569	0.5175057650
3253.8980383300	0.5166764259
3255.8268457030	0.5095946789
3257.7556530760	0.5156313777
3259.6844604491	0.5108260512
3261.6132678221	0.5098428130
3263.5420751952	0.5262621045
3265.4708825682	0.5217303634
3267.3996899413	0.5147870183
3269.3284973143	0.5170045495
3271.2573046874	0.5215491056
3273.1861120604	0.5226351619
3275.1149194335	0.5197602510
3277.0437268065	0.5248352289
3278.9725341796	0.5219265223
3280.9013415526	0.5198220611
3282.8301489257	0.5274675488
3284.7589562987	0.5295966268
3286.6877636717	0.5345277190
3288.6165710448	0.5354351997
3290.5453784178	0.5320442319
3292.4741857909	0.5328035355
3294.4029931639	0.5327737331
3296.3318005370	0.5350162983
3298.2606079100	0.5407562852
3300.1894152831	0.5411461592
3302.1182226561	0.5344252586
3304.0470300292	0.5454815030
3305.9758374022	0.5456233621
3307.9046447753	0.5425228477
3309.8334521483	0.5581170917
3311.7622595214	0.5415562987
3313.6910668944	0.5436349511
3315.6198742675	0.5524605513
3317.5486816405	0.5432752967
3319.4774890135	0.5531142950
3321.4062963866	0.5482544899
3323.3351037596	0.5541998744
3325.2639111327	0.5561648607
3327.1927185057	0.5539271235
3329.1215258788	0.5682978034
3331.0503332518	0.5658749342
3332.9791406249	0.5628948212
3334.9079479979	0.5574922562
3336.8367553710	0.5601356030
3338.7655627440	0.5636882186
3340.6943701171	0.5656329393
3342.6231774901	0.5736661553
3344.5519848632	0.5693009496
3346.4807922362	0.5757620931
3348.4095996092	0.5821408033
3350.3384069823	0.5730942488
3352.2672143553	0.5762463808
3354.1960217284	0.5889787078
3356.1248291014	0.5768761039
3358.0536364745	0.5789189935
3359.9824438475	0.5989444852
3361.9112512206	0.5897393823
3363.8400585936	0.5915291905
3365.7688659667	0.5940853953
3367.6976733397	0.5951150656
3369.6264807128	0.6036668420
3371.5552880858	0.6006892920
3373.4840954589	0.6090486646
3375.4129028319	0.6110349298
3377.3417102049	0.6087955236
3379.2705175780	0.6104776263
3381.1993249510	0.6095780134
3383.1281323241	0.6163000464
3385.0569396971	0.6193422675
3386.9857470702	0.6212124228
3388.9145544432	0.6250061989
3390.8433618163	0.6232822537
3392.7721691893	0.6270281076
3394.7009765624	0.6373462677
3396.6297839354	0.6410509944
3398.5585913085	0.6468663812
3400.4873986815	0.6532729864
3402.4162060546	0.6522651315
3404.3450134276	0.6446532011
3406.2738208006	0.6478747129
3408.2026281737	0.6625633240
3410.1314355467	0.6561175585
3412.0602429198	0.6539247036
3413.9890502928	0.6645587683
3415.9178576659	0.6656721830
3417.8466650389	0.6613477468
3419.7754724120	0.6595696211
3421.7042797850	0.6722094417
3423.6330871581	0.6804626584
3425.5618945311	0.6767515540
3427.4907019042	0.6788483858
3429.4195092772	0.6861622930
3431.3483166503	0.6864724159
3433.2771240233	0.6843686104
3435.2059313963	0.6911785603
3437.1347387694	0.7026140094
3439.0635461424	0.7029142976
3440.9923535155	0.6949694157
3442.9211608885	0.6987258196
3444.8499682616	0.7028738856
3446.7787756346	0.7094119787
3448.7075830077	0.7139343619
3450.6363903807	0.7166101933
3452.5651977538	0.7214519978
3454.4940051268	0.7173860073
3456.4228124999	0.7224618196
3458.3516198729	0.7200461626
3460.2804272460	0.7216286063
3462.2092346190	0.7304939032
3464.1380419921	0.7352224588
3466.0668493651	0.7407282591
3467.9956567381	0.7311161160
3469.9244641112	0.7381343246
3471.8532714842	0.7440255880
3473.7820788573	0.7451137900
3475.7108862303	0.7523163557
3477.6396936034	0.7440072894
3479.5685009764	0.7373683453
3481.4973083495	0.7327587605
3483.4261157225	0.7430753708
3485.3549230956	0.7528833747
3487.2837304686	0.7535040975
3489.2125378417	0.7505830526
3491.1413452147	0.7470324636
3493.0701525878	0.7608017921
3494.9989599608	0.7669070363
3496.9277673338	0.7626276016
3498.8565747069	0.7571583986
3500.7853820799	0.7554107904
3502.7141894530	0.7617052197
3504.6429968260	0.7705606818
3506.5718041991	0.7713530064
3508.5006115721	0.7619856596
3510.4294189452	0.7685372829
3512.3582263182	0.7731015086
3514.2870336913	0.7640555501
3516.2158410643	0.7724924684
3518.1446484374	0.7857046127
3520.0734558104	0.7790228128
3522.0022631835	0.7754086256
3523.9310705565	0.7763899565
3525.8598779295	0.7825976014
3527.7886853026	0.7866829038
3529.7174926756	0.7730792165
3531.6463000487	0.7807475924
3533.5751074217	0.7766826749
3535.5039147948	0.7743056417
3537.4327221678	0.7934805155
3539.3615295409	0.7818238139
3541.2903369139	0.7837634087
3543.2191442870	0.7919793129
3545.1479516600	0.7869771123
3547.0767590331	0.7833814621
3549.0055664061	0.7836706638
3550.9343737792	0.7886140943
3552.8631811522	0.7795605063
3554.7919885252	0.7790617943
3556.7207958983	0.7832917571
3558.6496032713	0.7873246074
3560.5784106444	0.7853912711
3562.5072180174	0.7886678576
3564.4360253905	0.7965540290
3566.3648327635	0.7754192948
3568.2936401366	0.7756567597
3570.2224475096	0.7835865021
3572.1512548827	0.7825930119
3574.0800622557	0.7998941541
3576.0088696288	0.7916912436
3577.9376770018	0.7722295523
3579.8664843749	0.7788808346
3581.7952917479	0.7879672647
3583.7240991210	0.7848806977
3585.6529064940	0.7834597826
3587.5817138670	0.7771766782
3589.5105212401	0.7754104733
3591.4393286131	0.7841166258
3593.3681359862	0.7809207439
3595.2969433592	0.7731442451
3597.2257507323	0.7740490437
3599.1545581053	0.7759433389
3601.0833654784	0.7737157345
3603.0121728514	0.7726112604
3604.9409802245	0.7743642330
3606.8697875975	0.7819684744
3608.7985949706	0.7710072994
3610.7274023436	0.7640433311
3612.6562097167	0.7794733644
3614.5850170897	0.7753304839
3616.5138244627	0.7804203629
3618.4426318358	0.7694536448
3620.3714392088	0.7574927807
3622.3002465819	0.7739639282
3624.2290539549	0.7656881809
3626.1578613280	0.7731414437
3628.0866687010	0.7682861090
3630.0154760741	0.7630795240
3631.9442834471	0.7726122141
3633.8730908202	0.7615365386
3635.8018981932	0.7786841989
3637.7307055663	0.7741285563
3639.6595129393	0.7666947246
3641.5883203124	0.7785496116
3643.5171276854	0.7704136372
3645.4459350584	0.7636001706
3647.3747424315	0.7571249008
3649.3035498045	0.7597363591
3651.2323571776	0.7579509020
3653.1611645506	0.7685102224
3655.0899719237	0.7683066726
3657.0187792967	0.7521516085
3658.9475866698	0.7656478882
3660.8763940428	0.7589073777
3662.8052014159	0.7580478191
3664.7340087889	0.7637190223
3666.6628161620	0.7522130013
3668.5916235350	0.7473085523
3670.5204309081	0.7404609323
3672.4492382811	0.7418280840
3674.3780456541	0.7272660732
3676.3068530272	0.7269093990
3678.2356604002	0.7361462712
3680.1644677733	0.7271547318
3682.0932751463	0.7351629734
3684.0220825194	0.7341603637
3685.9508898924	0.7319943309
3687.8796972655	0.7232378721
3689.8085046385	0.7191365957
3691.7373120116	0.7322107553
3693.6661193846	0.7256656885
3695.5949267577	0.7171808481
3697.5237341307	0.7171604037
3699.4525415038	0.7262367606
3701.3813488768	0.7175261378
3703.3101562499	0.7089785337
3705.2389636229	0.7160484195
3707.1677709959	0.7050204277
3709.0965783690	0.7160427570
3711.0253857420	0.7254443169
3712.9541931151	0.7059152126
3714.8830004881	0.7047049999
3716.8118078612	0.7063580751
3718.7406152342	0.7060821056
3720.6694226073	0.6986817122
3722.5982299803	0.6998980641
3724.5270373534	0.7089875340
3726.4558447264	0.6968445778
3728.3846520995	0.7036762834
3730.3134594725	0.7036920190
3732.2422668456	0.6854584217
3734.1710742186	0.6909503937
3736.0998815916	0.6859414577
3738.0286889647	0.6878088117
3739.9574963377	0.6950341463
3741.8863037108	0.6950308681
3743.8151110838	0.6835286617
3745.7439184569	0.6633041501
3747.6727258299	0.6873890162
3749.6015332030	0.6792891026
3751.5303405760	0.6525996327
3753.4591479491	0.6706473231
3755.3879553221	0.6751540303
3757.3167626952	0.6748915911
3759.2455700682	0.6788865924
3761.1743774413	0.6855326295
3763.1031848143	0.6851641536
3765.0319921873	0.6828560233
3766.9607995604	0.6803600192
3768.8896069334	0.6791714430
3770.8184143065	0.6831409335
3772.7472216795	0.6765816808
3774.6760290526	0.6840226054
3776.6048364256	0.6745682955
3778.5336437987	0.6656004190
3780.4624511717	0.6782861948
3782.3912585448	0.6654970646
3784.3200659178	0.6703896523
3786.2488732909	0.6729289889
3788.1776806639	0.6661238670
3790.1064880370	0.6746171117
3792.0352954100	0.6696377993
3793.9641027830	0.6740034819
3795.8929101561	0.6654295921
3797.8217175291	0.6568621993
3799.7505249022	0.6698660254
3801.6793322752	0.6505073905
3803.6081396483	0.6504096985
3805.5369470213	0.6664280891
3807.4657543944	0.6585656404
3809.3945617674	0.6678211689
3811.3233691405	0.6782670617
3813.2521765135	0.6726102829
3815.1809838866	0.6574539542
3817.1097912596	0.6514008641
3819.0385986327	0.6617990136
3820.9674060057	0.6439827085
3822.8962133787	0.6523782015
3824.8250207518	0.6705712080
3826.7538281248	0.6545435190
3828.6826354979	0.6573355794
3830.6114428709	0.6618410349
3832.5402502440	0.6540873051
3834.4690576170	0.6576366425
3836.3978649901	0.6506329775
3838.3266723631	0.6423466206
3840.2554797362	0.6591336131
3842.1842871092	0.6583046317
3844.1130944823	0.6496524811
3846.0419018553	0.6571784019
3847.9707092284	0.6492866278
3849.8995166014	0.6540700197
3851.8283239745	0.6664975882
3853.7571313475	0.6464354396
3855.6859387205	0.6372094750
3857.6147460936	0.6544714570
3859.5435534666	0.6631912589
3861.4723608397	0.6525155902
3863.4011682127	0.6459863782
3865.3299755858	0.6497108936
3867.2587829588	0.6571401358
3869.1875903319	0.6505431533
3871.1163977049	0.6440474987
3873.0452050780	0.6565615535
3874.9740124510	0.6470176578
3876.9028198241	0.6412497163
3878.8316271971	0.6518822312
3880.7604345702	0.6470273733
3882.6892419432	0.6408750415
3884.6180493162	0.6375746727
3886.5468566893	0.6395041943
3888.4756640623	0.6448813081
3890.4044714354	0.6383595467
3892.3332788084	0.6410597563
3894.2620861815	0.6470198035
3896.1908935545	0.6475719213
3898.1197009276	0.6502370238
3900.0485083006	0.6358121037
3901.9773156737	0.6393362284
3903.9061230467	0.6477077007
3905.8349304198	0.6426406503
3907.7637377928	0.6453905106
3909.6925451659	0.6352089643
3911.6213525389	0.6459645629
3913.5501599119	0.6534308791
3915.4789672850	0.6460068822
3917.4077746580	0.6424768567
3919.3365820311	0.6407465935
3921.2653894041	0.6522206068
3923.1941967772	0.6391045451
3925.1230041502	0.6453376412
3927.0518115233	0.6403330564
3928.9806188963	0.6303339005
3930.9094262694	0.6648900509
3932.8382336424	0.6502053142
3934.7670410155	0.6392829418
3936.6958483885	0.6468632817
3938.6246557616	0.6389231682
3940.5534631346	0.6497616172
3942.4822705076	0.6537723541
3944.4110778807	0.6489647031
3946.3398852537	0.6480270028
3948.2686926268	0.6518827677
3950.1974999998	0.6414065361
3952.1263073729	0.6321700215
3954.0551147459	0.6320161223
3955.9839221190	0.6317199469
3957.9127294920	0.6304865479
3959.8415368651	0.6318589449
3961.7703442381	0.6475868225
3963.6991516112	0.6320078969
3965.6279589842	0.6226553321
3967.5567663573	0.6437618136
3969.4855737303	0.6389236450
3971.4143811034	0.6290554404
3973.3431884764	0.6392525434
3975.2719958494	0.6442897916
3977.2008032225	0.6415203810
3979.1296105955	0.6432780027
3981.0584179686	0.6245973110
3982.9872253416	0.6276587248
3984.9160327147	0.6461097598
3986.8448400877	0.6299553514
3988.7736474608	0.6272987127
3990.7024548338	0.6296469569
3992.6312622069	0.6231382489
3994.5600695799	0.6297676563
3996.4888769530	0.6379012465
3998.4176843260	0.6267354488
4000.3464916991	0.6398163438
4002.2752990721	0.6515560746
4004.2041064451	0.6222530007
4006.1329138182	0.6269718409
4008.0617211912	0.6204860210
4009.9905285643	0.6135129333
4011.9193359373	0.6281114221
4013.8481433104	0.6200085878
4015.7769506834	0.6302955151
4017.7057580565	0.6338911057
4019.6345654295	0.6410455108
4021.5633728026	0.6431679726
4023.4921801756	0.6196835637
4025.4209875487	0.6200459003
4027.3497949217	0.6273539066
4029.2786022948	0.6253837347
4031.2074096678	0.6360390186
4033.1362170408	0.6384599209
4035.0650244139	0.6205452085
4036.9938317869	0.6370482445
4038.9226391600	0.6299172044
4040.8514465330	0.6217659116
4042.7802539061	0.6580830216
4044.7090612791	0.6351535320
4046.6378686522	0.6303273439
4048.5666760252	0.6341350079
4050.4954833983	0.6195676327
4052.4242907713	0.6353226304
4054.3530981444	0.6265333295
4056.2819055174	0.6374514103
4058.2107128905	0.6420512199
4060.1395202635	0.6278588176
4062.0683276365	0.6292940974
4063.9971350096	0.6290698647
4065.9259423826	0.6444247365
4067.8547497557	0.6310059428
4069.7835571287	0.6147737503
4071.7123645018	0.6185179949
4073.6411718748	0.6218195558
4075.5699792479	0.6297514439
4077.4987866209	0.6247050762
4079.4275939940	0.6294159889
4081.3564013670	0.6192910671
4083.2852087401	0.6076765060
4085.2140161131	0.6374687552
4087.1428234862	0.6434019804
4089.0716308592	0.6180135012
4091.0004382323	0.6235338449
4092.9292456053	0.6347631216
4094.8580529783	0.6140941978
4096.7868603514	0.6185911894
4098.7156677244	0.6288464069
4100.6444750975	0.6145241857
4102.5732824705	0.6195936203
4104.5020898436	0.6144272685
4106.4308972166	0.6193166375
4108.3597045897	0.6304289103
4110.2885119627	0.6113615632
4112.2173193358	0.6236907840
4114.1461267088	0.6358694434
4116.0749340819	0.6238023043
4118.0037414549	0.6240798831
4119.9325488280	0.6194845438
4121.8613562010	0.6109695435
4123.7901635740	0.6044433713
4125.7189709471	0.6252844334
4127.6477783201	0.6458283067
4129.5765856932	0.6236557961
4131.5053930662	0.6136898398
4133.4342004393	0.6228562593
4135.3630078123	0.6347715855
4137.2918151854	0.6347486377
4139.2206225584	0.6183671951
4141.1494299315	0.6099496484
4143.0782373045	0.6060427427
4145.0070446776	0.6098442674
4146.9358520506	0.6155019999
4148.8646594237	0.6351555586
4150.7934667967	0.6337251663
4152.7222741697	0.6053088307
4154.6510815428	0.6264368892
4156.5798889158	0.6323655844
4158.5086962889	0.6146118641
4160.4375036619	0.6156567335
4162.3663110350	0.6120464206
4164.2951184080	0.6160107851
4166.2239257811	0.6105487347
4168.1527331541	0.6164368391
4170.0815405272	0.6086344719
4172.0103479002	0.6084526777
4173.9391552733	0.6337839961
4175.8679626463	0.6166082621
4177.7967700194	0.6213752627
4179.7255773924	0.6177214384
4181.6543847654	0.6028945446
4183.5831921385	0.6098896265
4185.5119995115	0.5940055251
4187.4408068846	0.6039161682
4189.3696142576	0.6084316969
4191.2984216307	0.6207382083
4193.2272290037	0.6396798491
4195.1560363768	0.6157480478
4197.0848437498	0.6143967509
4199.0136511229	0.6085568070
4200.9424584959	0.6117485166
4202.8712658690	0.6299706101
4204.8000732420	0.6157729626
4206.7288806151	0.6199223995
4208.6576879881	0.6125948429
4210.5864953611	0.6088117361
4212.5153027342	0.6388200521
4214.4441101072	0.6178647280
4216.3729174803	0.5943935513
4218.3017248533	0.6145600080
4220.2305322264	0.6250387430
4222.1593395994	0.6216176748
4224.0881469725	0.6146808863
4226.0169543455	0.6127293706
4227.9457617186	0.6012842655
4229.8745690916	0.5950730443
4231.8033764647	0.6013448834
4233.7321838377	0.5945153832
4235.6609912108	0.5889974833
4237.5897985838	0.5953691602
4239.5186059569	0.6125944853
4241.4474133299	0.6093456149
4243.3762207029	0.6175690293
4245.3050280760	0.6337262988
4247.2338354490	0.6108354330
4249.1626428221	0.6019958854
4251.0914501951	0.5882883072
4253.0202575682	0.5944951177
4254.9490649412	0.6244199276
4256.8778723143	0.6084308624
4258.8066796873	0.5922052860
4260.7354870604	0.5983228683
4262.6642944334	0.6161587238
4264.5931018065	0.6278838515
4266.5219091795	0.6223316193
4268.4507165526	0.6037254333
4270.3795239256	0.5972179174
4272.3083312986	0.6089162827
4274.2371386717	0.6111219525
4276.1659460447	0.6169277430
4278.0947534178	0.6131502390
4280.0235607908	0.6119247675
4281.9523681639	0.5997060537
4283.8811755369	0.5846891999
4285.8099829100	0.6097991467
4287.7387902830	0.6136780381
4289.6675976561	0.6089063883
4291.5964050291	0.6154659390
4293.5252124022	0.6090623736
4295.4540197752	0.6035189033
4297.3828271483	0.6008810997
4299.3116345213	0.6064046621
4301.2404418943	0.6089107394
4303.1692492674	0.5992988348
4305.0980566404	0.5943442583
4307.0268640135	0.6116632223
4308.9556713865	0.6146944761
4310.8844787596	0.5994920731
4312.8132861326	0.5999216437
4314.7420935057	0.6020144820
4316.6709008787	0.6072055101
4318.5997082518	0.6018274426
4320.5285156248	0.5942333341
4322.4573229979	0.5976284742
4324.3861303709	0.6000798345
4326.3149377440	0.6025198102
4328.2437451170	0.5978206396
4330.1725524900	0.5998333693
4332.1013598631	0.6099243164
4334.0301672361	0.6115874052
4335.9589746092	0.6054995060
4337.8877819822	0.6082472205
4339.8165893553	0.5950442553
4341.7453967283	0.5806378126
4343.6742041014	0.6165288687
4345.6030114744	0.6228538752
4347.5318188475	0.5948728323
4349.4606262205	0.6003227830
4351.3894335936	0.6097998619
4353.3182409666	0.6041905284
4355.2470483397	0.5921100974
4357.1758557127	0.6007685065
4359.1046630858	0.6105303168
4361.0334704588	0.6029596925
4362.9622778318	0.5930810571
4364.8910852049	0.5890511870
4366.8198925779	0.6055325866
4368.7486999510	0.6108974814
4370.6775073240	0.6008513570
4372.6063146971	0.5928487778
4374.5351220701	0.6103030443
4376.4639294432	0.6108662486
4378.3927368162	0.5855640173
4380.3215441893	0.6104932427
4382.2503515623	0.5964164138
4384.1791589354	0.5891382098
4386.1079663084	0.6097635627
4388.0367736815	0.5836868286
4389.9655810545	0.6205423474
4391.8943884275	0.6207084060
4393.8231958006	0.5955665708
4395.7520031736	0.6200939417
4397.6808105467	0.5993049145
4399.6096179197	0.6107637882
4401.5384252928	0.6154755950
4403.4672326658	0.5854880214
4405.3960400389	0.5916498899
4407.3248474119	0.6016368866
4409.2536547850	0.5855308771
4411.1824621580	0.5831261277
4413.1112695311	0.6165397763
4415.0400769041	0.6014412642
4416.9688842772	0.5986400843
4418.8976916502	0.6230400205
4420.8264990232	0.6025416255
4422.7553063963	0.5852739811
4424.6841137693	0.5800678730
4426.6129211424	0.5952798724
4428.5417285154	0.6081124544
4430.4705358885	0.5978654623
4432.3993432615	0.5886691213
4434.3281506346	0.5918096304
4436.2569580076	0.6007979512
4438.1857653807	0.5933544636
4440.1145727537	0.5908070803
4442.0433801268	0.6098508835
4443.9721874998	0.6250640750
4445.9009948729	0.5829517841
4447.8298022459	0.5695270300
4449.7586096189	0.6100516319
4451.6874169920	0.5996531844
4453.6162243650	0.5862645507
4455.5450317381	0.6002435684
4457.4738391111	0.6131782532
4459.4026464842	0.6067522764
4461.3314538572	0.5934206247
4463.2602612303	0.5868590474
4465.1890686033	0.5941082239
4467.1178759764	0.6124268770
4469.0466833494	0.6059110761
4470.9754907225	0.6034972072
4472.9042980955	0.5953117609
4474.8331054686	0.6056700349
4476.7619128416	0.6073217392
4478.6907202147	0.5730492473
4480.6195275877	0.5821287632
4482.5483349607	0.5925130844
4484.4771423338	0.5999644995
4486.4059497068	0.5968075395
4488.3347570799	0.5959477425
4490.2635644529	0.6067348123
4492.1923718260	0.5998250246
4494.1211791990	0.6064965725
4496.0499865721	0.5826957822
4497.9787939451	0.5761954784
4499.9076013182	0.5785323381
4501.8364086912	0.5869380236
4503.7652160643	0.6107068062
4505.6940234373	0.5808452964
4507.6228308104	0.5876272321
4509.5516381834	0.5971912742
4511.4804455564	0.5961341858
4513.4092529295	0.5839249492
4515.3380603025	0.5622011423
4517.2668676756	0.5928124785
4519.1956750486	0.5814688802
4521.1244824217	0.5846089125
4523.0532897947	0.6103693843
4524.9820971678	0.6010336876
4526.9109045408	0.6051518917
4528.8397119139	0.6076564193
4530.7685192869	0.6169286966
4532.6973266600	0.6036416292
4534.6261340330	0.5941787362
4536.5549414061	0.5871357322
4538.4837487791	0.5862920880
4540.4125561521	0.6112287045
4542.3413635252	0.5830247402
4544.2701708982	0.5821311474
4546.1989782713	0.5981388092
4548.1277856443	0.5749621391
4550.0565930174	0.5781860948
4551.9854003904	0.5920868516
4553.9142077635	0.6041647196
4555.8430151365	0.5976090431
4557.7718225096	0.5936490297
4559.7006298826	0.5807271004
4561.6294372557	0.5780543685
4563.5582446287	0.6331551075
4565.4870520018	0.6208860874
4567.4158593748	0.5792856812
4569.3446667478	0.5736795664
4571.2734741209	0.5706121325
4573.2022814939	0.5873883367
4575.1310888670	0.5947285295
4577.0598962400	0.5916807652
4578.9887036131	0.5792945027
4580.9175109861	0.5780925155
4582.8463183592	0.5827620029
4584.7751257322	0.5901713967
4586.7039331053	0.6052692533
4588.6327404783	0.5779927373
4590.5615478514	0.5930689573
4592.4903552244	0.6137020588
4594.4191625975	0.6050264239
4596.3479699705	0.6130169630
4598.2767773435	0.5918073654
4600.2055847166	0.5952771902
4602.1343920896	0.5866737962
4604.0631994627	0.5862367749
4605.9920068357	0.6000010967
4607.9208142088	0.5789929628
4609.8496215818	0.5659147501
4611.7784289549	0.5592575073
4613.7072363279	0.5941939354
4615.6360437010	0.5839137435
4617.5648510740	0.5855946541
4619.4936584471	0.6258758903
4621.4224658201	0.5985077620
4623.3512731932	0.5880632997
4625.2800805662	0.5532979369
4627.2088879393	0.5831941366
4629.1376953123	0.5966825485
4631.0665026853	0.5540875196
4632.9953100584	0.6203326583
4634.9241174314	0.5941075087
4636.8529248045	0.5795968771
4638.7817321775	0.6153995395
4640.7105395506	0.5858154297
4642.6393469236	0.5926145315
4644.5681542967	0.5767684579
4646.4969616697	0.5812574625
4648.4257690428	0.6023449302
4650.3545764158	0.6048309207
4652.2833837889	0.6073644757
4654.2121911619	0.5827714801
4656.1409985350	0.5777016282
4658.0698059080	0.5741790533
4659.9986132810	0.5753775239
4661.9274206541	0.5757004023
4663.8562280271	0.5801241994
4665.7850354002	0.5839826465
4667.7138427732	0.5838574767
4669.6426501463	0.6049744487
4671.5714575193	0.5770775676
4673.5002648924	0.5734148622
4675.4290722654	0.6232228279
4677.3578796385	0.6120595336
4679.2866870115	0.5945318341
4681.2154943846	0.5923053026
4683.1443017576	0.5830141306
4685.0731091307	0.6002442241
4687.0019165037	0.5959435701
4688.9307238767	0.6043726802
4690.8595312498	0.6232585311
4692.7883386228	0.5824850202
4694.7171459959	0.5845764279
4696.6459533689	0.5678099990
4698.5747607420	0.5508875847
4700.5035681150	0.5945525765
4702.4323754881	0.5910859108
4704.3611828611	0.5881353021
4706.2899902342	0.5570359826
4708.2187976072	0.5582958460
4710.1476049803	0.5849760771
4712.0764123533	0.5518529415
4714.0052197264	0.5744856596
4715.9340270994	0.5896473527
4717.8628344724	0.5817490816
4719.7916418455	0.5839194655
4721.7204492185	0.6007079482
4723.6492565916	0.6053113937
4725.5780639646	0.5821102858
4727.5068713377	0.5946265459
4729.4356787107	0.5654947758
4731.3644860838	0.5623899102
4733.2932934568	0.5867144465
4735.2221008299	0.5930628777
4737.1509082029	0.5988489985
4739.0797155760	0.5921676159
4741.0085229490	0.6011325717
4742.9373303221	0.5617588758
4744.8661376951	0.5886085033
4746.7949450682	0.6044244170
4748.7237524412	0.5452689528
4750.6525598142	0.5912714601
4752.5813671873	0.5940108895
4754.5101745603	0.5733631253
4756.4389819334	0.5821378827
4758.3677893064	0.5512759089
4760.2965966795	0.5693321824
4762.2254040525	0.5972009301
4764.1542114256	0.5649029016
4766.0830187986	0.5674142838
4768.0118261717	0.5759266615
4769.9406335447	0.5368124247
4771.8694409178	0.5697514415
4773.7982482908	0.5981051922
4775.7270556639	0.5882563591
4777.6558630369	0.5939539075
4779.5846704099	0.5891292095
4781.5134777830	0.6001954675
4783.4422851560	0.5880210400
4785.3710925291	0.6000724435
4787.2998999021	0.6012948155
4789.2287072752	0.5898884535
4791.1575146482	0.5728976130
4793.0863220213	0.5501790643
4795.0151293943	0.5963969827
4796.9439367674	0.6012355089
4798.8727441404	0.6012220383
4800.8015515135	0.5581371188
4802.7303588865	0.5287594199
4804.6591662596	0.5765940547
4806.5879736326	0.5593000650
4808.5167810056	0.5708191395
4810.4455883787	0.5366943479
4812.3743957517	0.5523269773
4814.3032031248	0.6096727252
4816.2320104978	0.5269100666
4818.1608178709	0.5608024597
4820.0896252439	0.5904653668
4822.0184326170	0.5638114810
4823.9472399900	0.6051275134
4825.8760473631	0.5825583339
4827.8048547361	0.5774583817
4829.7336621092	0.5913581252
4831.6624694822	0.5729796886
4833.5912768553	0.5782837272
4835.5200842283	0.5736362338
4837.4488916013	0.5708217025
4839.3776989744	0.5874881148
4841.3065063474	0.5812470913
4843.2353137205	0.5961999297
4845.1641210935	0.5858501792
4847.0929284666	0.5420072079
4849.0217358396	0.6024566889
4850.9505432127	0.5900186300
4852.8793505857	0.5225744843
4854.8081579588	0.5908504128
4856.7369653318	0.5919315219
4858.6657727049	0.5584570169
4860.5945800779	0.5879355669
4862.5233874510	0.5879201293
4864.4521948240	0.5916735530
4866.3810021971	0.5593296289
4868.3098095701	0.5771348476
4870.2386169431	0.6413386464
4872.1674243162	0.6023648381
4874.0962316892	0.5607934594
4876.0250390623	0.5528345704
4877.9538464353	0.5879690051
4879.8826538084	0.5950578451
4881.8114611814	0.5456952453
4883.7402685545	0.5846053958
4885.6690759275	0.6107917428
4887.5978833006	0.5787041187
4889.5266906736	0.5782493353
4891.4554980467	0.5704899430
4893.3843054197	0.5587195754
4895.3131127928	0.5731197000
4897.2419201658	0.5824823976
4899.1707275388	0.6085903645
4901.0995349119	0.6090305448
4903.0283422849	0.5339465737
4904.9571496580	0.5531098247
4906.8859570310	0.5785978436
4908.8147644041	0.5654699802
4910.7435717771	0.6086402535
4912.6723791502	0.5683059096
4914.6011865232	0.5639443398
4916.5299938963	0.5877590775
4918.4588012693	0.5862206817
4920.3876086424	0.6098467708
4922.3164160154	0.5697498322
4924.2452233885	0.5871827006
4926.1740307615	0.5791203976
4928.1028381345	0.5289342403
4930.0316455076	0.5563921928
4931.9604528806	0.5705216527
4933.8892602537	0.5678538680
4935.8180676267	0.5556219220
4937.7468749998	0.5720283389
4939.6756823728	0.5827499032
4941.6044897459	0.5553842783
4943.5332971189	0.5596729517
4945.4621044920	0.6000430584
4947.3909118650	0.6259984374
4949.3197192381	0.5769540071
4951.2485266111	0.5715927482
4953.1773339842	0.5752980113
4955.1061413572	0.5341197252
4957.0349487302	0.5788879991
4958.9637561033	0.5934948921
4960.8925634763	0.5565904975
4962.8213708494	0.5845065713
4964.7501782224	0.5720507503
4966.6789855955	0.5423287749
4968.6077929685	0.5529400706
4970.5366003416	0.5523537993
4972.4654077146	0.5887675285
4974.3942150877	0.5842900276
4976.3230224607	0.5596148968
4978.2518298338	0.5870997906
4980.1806372068	0.5542438030
4982.1094445799	0.5639314651
4984.0382519529	0.5990212560
4985.9670593259	0.5751411319
4987.8958666990	0.5311873555
4989.8246740720	0.5238982439
4991.7534814451	0.6030330658
4993.6822888181	0.5765007734
4995.6110961912	0.5486812592
4997.5399035642	0.5710413456
4999.4687109373	0.5530129075
5001.3975183103	0.6080779433
5003.3263256834	0.5663037300
5005.2551330564	0.5504152179
5007.1839404295	0.5711297989
5009.1127478025	0.5318191648
5011.0415551756	0.6069826484
5012.9703625486	0.5931199789
5014.8991699217	0.5451825857
5016.8279772947	0.5734117031
5018.7567846677	0.5499131680
5020.6855920408	0.5299020410
5022.6143994138	0.5331774950
5024.5432067869	0.5358516574
5026.4720141599	0.5713936090
5028.4008215330	0.5949926972
5030.3296289060	0.5433977246
5032.2584362791	0.5464292765
5034.1872436521	0.5735052824
5036.1160510252	0.5771281719
5038.0448583982	0.5932322145
5039.9736657713	0.5717800260
5041.9024731443	0.5879576206
5043.8312805174	0.5586091280
5045.7600878904	0.5712683797
5047.6888952634	0.6025926471
5049.6177026365	0.5099789500
5051.5465100095	0.5363093615
5053.4753173826	0.5730276108
5055.4041247556	0.5347987413
5057.3329321287	0.5505893230
5059.2617395017	0.5564216375
5061.1905468748	0.5464163423
5063.1193542478	0.5363451838
5065.0481616209	0.5220419765
5066.9769689939	0.5572358370
5068.9057763670	0.5762191415
5070.8345837400	0.5536550879
5072.7633911131	0.5674174428
5074.6921984861	0.5639295578
5076.6210058591	0.5709222555
5078.5498132322	0.5146784782
5080.4786206052	0.5300716162
5082.4074279783	0.6251780987
5084.3362353513	0.5146610141
5086.2650427244	0.5387312174
5088.1938500974	0.5902067423
5090.1226574705	0.5631861091
5092.0514648435	0.5913408995
5093.9802722166	0.5380744934
5095.9090795896	0.5886980295
5097.8378869627	0.5739050508
5099.7666943357	0.5332545042
5101.6955017088	0.5684747696
5103.6243090818	0.5346867442
5105.5531164548	0.5553427339
5107.4819238279	0.5457429290
5109.4107312009	0.4843912423
5111.3395385740	0.5256956220
5113.2683459470	0.6638818383
5115.1971533201	0.5948617458
5117.1259606931	0.5178918839
5119.0547680662	0.5819036365
5120.9835754392	0.5314141512
5122.9123828123	0.5355942249
5124.8411901853	0.5482190847
5126.7699975584	0.5503224134
5128.6988049314	0.5684953928
5130.6276123045	0.5645384192
5132.5564196775	0.6000493765
5134.4852270506	0.5947107077
5136.4140344236	0.5885972381
5138.3428417966	0.5471414328
5140.2716491697	0.5376437902
5142.2004565427	0.5495774746
5144.1292639158	0.5630250573
5146.0580712888	0.5549921393
5147.9868786619	0.5036117435
5149.9156860349	0.5572327971
5151.8444934080	0.5701483488
5153.7733007810	0.5936514735
5155.7021081541	0.5796916485
5157.6309155271	0.5426527262
5159.5597229002	0.5873497725
5161.4885302732	0.5382077694
5163.4173376463	0.5594255328
5165.3461450193	0.5671793818
5167.2749523923	0.5321460962
5169.2037597654	0.5346707106
5171.1325671384	0.5113801956
5173.0613745115	0.5840120316
5174.9901818845	0.6010611653
5176.9189892576	0.5387614369
5178.8477966306	0.5612405539
5180.7766040037	0.5818475485
5182.7054113767	0.5907741785
5184.6342187498	0.5671855211
5186.5630261228	0.5050089955
5188.4918334959	0.5488250852
5190.4206408689	0.5920086503
5192.3494482420	0.5463583469
5194.2782556150	0.5314093828
5196.2070629880	0.4899036884
5198.1358703611	0.5176326632
5200.0646777341	0.5621922612
5201.9934851072	0.5465492010
5203.9222924802	0.5541141629
5205.8510998533	0.4862578511
5207.7799072263	0.5281861424
5209.7087145994	0.6101388931
5211.6375219724	0.5214393735
5213.5663293455	0.5237118602
5215.4951367185	0.5703142285
5217.4239440916	0.5376752019
5219.3527514646	0.5722877979
5221.2815588377	0.5503100753
5223.2103662107	0.5362554193
5225.1391735837	0.6064460874
5227.0679809568	0.5646963120
5228.9967883298	0.5091879964
5230.9255957029	0.4786242545
5232.8544030759	0.5158954859
5234.7832104490	0.5735996962
5236.7120178220	0.5575705767
5238.6408251951	0.5830562115
5240.5696325681	0.5793018937
5242.4984399412	0.5341944695
5244.4272473142	0.5315777659
5246.3560546873	0.6366249323
5248.2848620603	0.5804585218
5250.2136694334	0.5476124883
5252.1424768064	0.6352710724
5254.0712841795	0.5178106427
5256.0000915525	0.5643337965
5257.9288989255	0.5577138066
5259.8577062986	0.4830096066
5261.7865136716	0.5608900189
5263.7153210447	0.5194045901
5265.6441284177	0.5575725436
5267.5729357908	0.5601594448
5269.5017431638	0.5586944818
5271.4305505369	0.5984302759
5273.3593579099	0.5751753449
5275.2881652830	0.5632801652
5277.2169726560	0.5363703966
5279.1457800291	0.5382092595
5281.0745874021	0.5302657485
5283.0033947752	0.5800805092
5284.9322021482	0.5530179739
5286.8610095212	0.5463851690
5288.7898168943	0.5431357026
5290.7186242673	0.5133335590
5292.6474316404	0.6536366343
5294.5762390134	0.5898936391
5296.5050463865	0.5109981894
5298.4338537595	0.5424163342
5300.3626611326	0.5866664052
5302.2914685056	0.5926193595
5304.2202758787	0.5308691263
5306.1490832517	0.5926750302
5308.0778906248	0.5451179743
5310.0066979978	0.5168436170
5311.9355053709	0.5358934999
5313.8643127439	0.5474255681
5315.7931201169	0.5593706369
5317.7219274900	0.5245843530
5319.6507348630	0.5730541348
5321.5795422361	0.4885055125
5323.5083496091	0.5398117304
5325.4371569822	0.6362017393
5327.3659643552	0.5716107488
5329.2947717283	0.6022372842
5331.2235791013	0.5469678640
5333.1523864744	0.5466219187
5335.0811938474	0.5176407695
5337.0100012205	0.4761607051
5338.9388085935	0.5305767655
5340.8676159666	0.5691286922
5342.7964233396	0.5770565867
5344.7252307126	0.5283943415
5346.6540380857	0.5232925415
5348.5828454587	0.4955245554
5350.5116528318	0.4963336289
5352.4404602048	0.5182026625
5354.3692675779	0.5373824239
5356.2980749509	0.5668391585
5358.2268823240	0.4917598367
5360.1556896970	0.5197926164
5362.0844970701	0.5609785914
5364.0133044431	0.5424447060
5365.9421118162	0.5583788157
5367.8709191892	0.4967184067
5369.7997265623	0.5403457880
5371.7285339353	0.6498728395
5373.6573413083	0.6269221306
5375.5861486814	0.5894156694
5377.5149560544	0.5823075771
5379.4437634275	0.5397505760
5381.3725708005	0.5133593082
5383.3013781736	0.5550466180
5385.2301855466	0.5331612825
5387.1589929197	0.4820986688
5389.0878002927	0.5180462003
5391.0166076658	0.5463603735
5392.9454150388	0.5915479660
5394.8742224119	0.6137952209
5396.8030297849	0.5009526610
5398.7318371580	0.5326946378
5400.6606445310	0.6022375226
5402.5894519041	0.4629180431
5404.5182592771	0.4333499670
5406.4470666501	0.5614255667
5408.3758740232	0.5078710318
5410.3046813962	0.4884445071
5412.2334887693	0.5705596805
5414.1622961423	0.5231711864
5416.0911035154	0.5847418308
5418.0199108884	0.5478606224
5419.9487182615	0.4976529181
5421.8775256345	0.5671522617
5423.8063330076	0.4841295183
5425.7351403806	0.6053282022
5427.6639477537	0.5070779324
5429.5927551267	0.4306962788
5431.5215624998	0.6366632581
5433.4503698728	0.4943981171
5435.3791772458	0.5623276234
5437.3079846189	0.6183137298
5439.2367919919	0.4728399813
5441.1655993650	0.5911955833
5443.0944067380	0.5305026770
5445.0232141111	0.4745228589
5446.9520214841	0.5306202769
5448.8808288572	0.5414517522
5450.8096362302	0.5484731197
5452.7384436033	0.4900765717
5454.6672509763	0.4820953906
5456.5960583494	0.5374550819
5458.5248657224	0.5988824964
5460.4536730955	0.5257182717
5462.3824804685	0.5035107732
5464.3112878415	0.6197995543
5466.2400952146	0.5336166620
5468.1689025876	0.4782597125
5470.0977099607	0.5855169892
5472.0265173337	0.6499286294
5473.9553247068	0.5677988529
5475.8841320798	0.5107421279
5477.8129394529	0.5850023627
5479.7417468259	0.5324149728
5481.6705541990	0.5377166271
5483.5993615720	0.5898251534
5485.5281689451	0.5068496466
5487.4569763181	0.5297281742
5489.3857836912	0.5175134540
5491.3145910642	0.5093805194
5493.2433984372	0.5301467180
5495.1722058103	0.4931574166
5497.1010131833	0.5557088852
5499.0298205564	0.4475944936
5500.9586279294	0.4478017688
5502.8874353025	0.6167730093
5504.8162426755	0.4667550325
5506.7450500486	0.4671946466
5508.6738574216	0.5597013831
5510.6026647947	0.5011596084
5512.5314721677	0.5514614582
5514.4602795408	0.5009188652
5516.3890869138	0.4600711763
5518.3178942869	0.5345512629
5520.2467016599	0.6246542335
5522.1755090330	0.5507344007
5524.1043164060	0.4885028601
5526.0331237790	0.6040115952
5527.9619311521	0.5224209428
5529.8907385251	0.5438954234
5531.8195458982	0.6247282028
5533.7483532712	0.4969437718
5535.6771606443	0.4576006234
5537.6059680173	0.4331809878
5539.5347753904	0.5358698964
5541.4635827634	0.5398885608
5543.3923901365	0.5020608902
5545.3211975095	0.5619109273
5547.2500048826	0.5486829281
5549.1788122556	0.5799119473
5551.1076196287	0.5024004579
5553.0364270017	0.5812894702
5554.9652343747	0.5527235270
5556.8940417478	0.4340169132
5558.8228491208	0.5840891600
5560.7516564939	0.4906641543
5562.6804638669	0.5402845144
5564.6092712400	0.6375602484
5566.5380786130	0.5173825026
5568.4668859861	0.5243690014
5570.3956933591	0.5372702479
5572.3245007322	0.6017261147
5574.2533081052	0.4899503589
5576.1821154783	0.4608749449
5578.1109228513	0.5527055860
5580.0397302244	0.4946217239
5581.9685375974	0.5429483652
5583.8973449704	0.5739874840
5585.8261523435	0.5252357721
5587.7549597165	0.4875954092
5589.6837670896	0.5051624775
5591.6125744626	0.5800477266
5593.5413818357	0.6266449690
5595.4701892087	0.5660169721
5597.3989965818	0.4743455052
5599.3278039548	0.5261986256
5601.2566113279	0.4600492716
5603.1854187009	0.4085480571
5605.1142260740	0.5736773610
5607.0430334470	0.6344233751
5608.9718408201	0.5575306416
5610.9006481931	0.5549386144
5612.8294555661	0.5596336722
5614.7582629392	0.5118817687
5616.6870703122	0.5932129622
5618.6158776853	0.6392369866
5620.5446850583	0.5601614118
5622.4734924314	0.4980101287
5624.4022998044	0.4462749660
5626.3311071775	0.4474539757
5628.2599145505	0.4911590815
5630.1887219236	0.5293629766
5632.1175292966	0.6339899302
5634.0463366697	0.7121286392
5635.9751440427	0.6357855797
5637.9039514158	0.5127278566
5639.8327587888	0.4717773199
5641.7615661619	0.5524596572
5643.6903735349	0.5698747039
5645.6191809079	0.4807834327
5647.5479882810	0.5533874631
5649.4767956540	0.4948025942
5651.4056030271	0.4763774574
5653.3344104001	0.5042995811
5655.2632177732	0.4754841030
5657.1920251462	0.6173640490
5659.1208325193	0.5079750419
5661.0496398923	0.4828422070
5662.9784472654	0.5714968443
5664.9072546384	0.5771551728
5666.8360620115	0.6470932364
5668.7648693845	0.4553442001
5670.6936767576	0.4700965285
5672.6224841306	0.5382218361
5674.5512915036	0.4981125295
5676.4800988767	0.6268866658
5678.4089062497	0.5210761428
5680.3377136228	0.5189739466
5682.2665209958	0.6442124248
5684.1953283689	0.5268461108
5686.1241357419	0.4603666961
5688.0529431150	0.4377449751
5689.9817504880	0.4614692628
5691.9105578611	0.5246515274
5693.8393652341	0.4378864765
5695.7681726072	0.4965207875
5697.6969799802	0.5297564864
5699.6257873533	0.4681075215
5701.5545947263	0.6695473790
5703.4834020993	0.5697270632
5705.4122094724	0.4241243601
5707.3410168454	0.4562811852
5709.2698242185	0.4542482197
5711.1986315915	0.6160312295
5713.1274389646	0.4790836871
5715.0562463376	0.4515035450
5716.9850537107	0.5492741466
5718.9138610837	0.4990247488
5720.8426684568	0.7056727409
5722.7714758298	0.5662338138
5724.7002832029	0.5060147643
5726.6290905759	0.6515260339
5728.5578979490	0.6112154126
5730.4867053220	0.6059911847
5732.4155126950	0.5958521366
5734.3443200681	0.5837545395
5736.2731274411	0.4959232807
5738.2019348142	0.4493729174
5740.1307421872	0.5630825758
5742.0595495603	0.5670011044
5743.9883569333	0.5466058254
5745.9171643064	0.5476000905
5747.8459716794	0.4527402222
5749.7747790525	0.5417531729
5751.7035864255	0.5889028907
5753.6323937986	0.4489953518
5755.5612011716	0.4944935739
5757.4900085447	0.5807048082
5759.4188159177	0.5701680183
5761.3476232907	0.5909144878
5763.2764306638	0.6312794089
5765.2052380368	0.4917789400
5767.1340454099	0.4670613110
5769.0628527829	0.5841248035
5770.9916601560	0.4913305342
5772.9204675290	0.5278196335
5774.8492749021	0.5336951613
5776.7780822751	0.6307767630
5778.7068896482	0.5512413383
5780.6356970212	0.3982069790
5782.5645043943	0.6737737060
5784.4933117673	0.6145918369
5786.4221191404	0.5013300180
5788.3509265134	0.4885163605
5790.2797338865	0.5219734311
5792.2085412595	0.6417226791
5794.1373486325	0.3979480565
5796.0661560056	0.5723356009
5797.9949633786	0.5781286955
5799.9237707517	0.3367343843
5801.8525781247	0.4997356832
5803.7813854978	0.5964292288
5805.7101928708	0.6526717544
5807.6390002439	0.6100401878
5809.5678076169	0.5084844828
5811.4966149900	0.5759564042
5813.4254223630	0.6024575233
5815.3542297361	0.4532012939
5817.2830371091	0.6460178494
5819.2118444822	0.6984013319
5821.1406518552	0.3914208710
5823.0694592282	0.5246804953
5824.9982666013	0.5297199488
5826.9270739743	0.4983900785
5828.8558813474	0.4755104780
5830.7846887204	0.5338286161
5832.7134960935	0.6046372056
5834.6423034665	0.4063212574
5836.5711108396	0.6244752407
5838.4999182126	0.4827604890
5840.4287255857	0.4039435685
5842.3575329587	0.6507475972
5844.2863403318	0.5441163778
5846.2151477048	0.6677825451
5848.1439550779	0.5643047690
5850.0727624509	0.5239353180
5852.0015698239	0.5601102710
5853.9303771970	0.4336983263
5855.8591845700	0.4956921339
5857.7879919431	0.4794083536
5859.7167993161	0.5285099149
5861.6456066892	0.5710601807
5863.5744140622	0.5199145675
5865.5032214353	0.4249969423
5867.4320288083	0.4405128956
5869.3608361814	0.6081281900
5871.2896435544	0.5435488224
5873.2184509275	0.4861454666
5875.1472583005	0.5653505921
5877.0760656736	0.5536648035
5879.0048730466	0.4489969313
5880.9336804196	0.5091193914
5882.8624877927	0.4993664920
5884.7912951657	0.4299942553
5886.7201025388	0.5412536860
5888.6489099118	0.5151099563
5890.5777172849	0.5174066424
5892.5065246579	0.5321694613
5894.4353320310	0.5104858875
5896.3641394040	0.5466753840
5898.2929467771	0.5060330629
5900.2217541501	0.5214931965
5902.1505615232	0.4328440428
5904.0793688962	0.4457871318
5906.0081762693	0.5945425630
5907.9369836423	0.5793697834
5909.8657910154	0.5713477135
5911.7945983884	0.4774624407
5913.7234057614	0.4248239398
5915.6522131345	0.3474555612
5917.5810205075	0.3183670640
5919.5098278806	0.5590038300
5921.4386352536	0.5518070459
5923.3674426267	0.4574795961
5925.2962499997	0.4689194560
5927.2250573728	0.4619493783
5929.1538647458	0.5677736402
5931.0826721189	0.5418908596
5933.0114794919	0.3523349464
5934.9402868650	0.3671536148
5936.8690942380	0.5760313272
5938.7979016111	0.6223995686
5940.7267089841	0.5026807189
5942.6555163571	0.3944179416
5944.5843237302	0.5689548850
5946.5131311032	0.6636969447
5948.4419384763	0.4701395333
5950.3707458493	0.5163305998
5952.2995532224	0.4704510868
5954.2283605954	0.4134677947
5956.1571679685	0.3297497332
5958.0859753415	0.3450686634
5960.0147827146	0.5074060559
5961.9435900876	0.4038438797
5963.8723974607	0.5665014982
5965.8012048337	0.5778803229
5967.7300122068	0.5445061326
5969.6588195798	0.5712069869
5971.5876269528	0.3947916925
5973.5164343259	0.4841413796
5975.4452416989	0.4682677984
5977.3740490720	0.5743986368
5979.3028564450	0.5064107776
5981.2316638181	0.5129967928
5983.1604711911	0.5656552315
5985.0892785642	0.3072736859
5987.0180859372	0.4700287580
5988.9468933103	0.4036063254
5990.8757006833	0.4964338839
5992.8045080564	0.5850684643
5994.7333154294	0.2188096493
5996.6621228025	0.3975038826
5998.5909301755	0.6723870635
6000.5197375485	0.7512200475
