399.2631262207	0.3964228332
401.1919335938	0.4412178993
403.1207409668	0.3453528583
405.0495483398	0.5623358488
406.9783557129	0.4945561886
408.9071630859	0.3813017607
410.8359704590	0.5512627959
412.7647778320	0.3779352307
414.6935852051	0.2755302489
416.6223925781	0.2490990609
418.5511999512	0.1578357667
420.4800073242	0.2579717636
422.4088146973	0.2773994505
424.3376220703	0.2856626213
426.2664294434	0.3746754825
428.1952368164	0.3957780302
430.1240441895	0.4300059378
432.0528515625	0.2803559005
433.9816589355	0.2888709009
435.9104663086	0.4561418593
437.8392736816	0.3081440628
439.7680810547	0.3169084787
441.6968884277	0.4672873020
443.6256958008	0.3793482184
445.5545031738	0.3813320398
447.4833105469	0.4738615453
449.4121179199	0.4760046005
451.3409252930	0.3489196301
453.2697326660	0.4211699665
455.1985400391	0.4154204130
457.1273474121	0.2482318580
459.0561547852	0.5578104258
460.9849621582	0.4281083345
462.9137695313	0.3089664280
464.8425769043	0.4041463137
466.7713842773	0.1097629666
468.7001916504	0.1490311027
470.6289990234	0.4315534234
472.5578063965	0.4627733231
474.4866137695	0.2882209718
476.4154211426	0.2920303047
478.3442285156	0.6395823359
480.2730358887	0.9971204400
482.2018432617	0.3296941817
484.1306506348	1.0291556120
486.0594580078	2.5903041363
487.9882653809	0.4374365211
489.9170727539	1.2926630974
491.8458801270	1.4862228632
493.7746875000	0.6402601600
495.7034948730	0.8116154671
497.6323022461	0.9911844730
499.5611096191	1.0336444378
501.4899169922	0.6126050949
503.4187243652	-1.0847404003
505.3475317383	2.2298521996
507.2763391113	1.0759369135
509.2051464844	-13.0108146667
511.1339538574	1.1922132969
513.0627612305	0.8878130913
514.9915686035	0.6648480296
516.9203759766	0.7684946656
518.8491833496	0.9366705418
520.7779907227	1.3798987865
522.7067980957	1.0157964230
524.6356054688	2.3753705025
526.5644128418	-4.2089419365
528.4932202148	0.9533973336
530.4220275879	1.2982467413
532.3508349609	1.0840153694
534.2796423340	0.1523545980
536.2084497070	0.0089723384
538.1372570801	1.0457268953
540.0660644531	3.0179767609
541.9948718262	0.8412278891
543.9236791992	1.1383218765
545.8524865723	0.7725797892
547.7812939453	0.8440707922
549.7101013184	1.8130569458
551.6389086914	0.5799272656
553.5677160645	1.3313149214
555.4965234375	0.3009101152
557.4253308105	1.4619234800
559.3541381836	2.1428532600
561.2829455566	1.5787708759
563.2117529297	2.3216273785
565.1405603027	0.9067018032
567.0693676758	1.1725842953
568.9981750488	1.1951771975
570.9269824219	-18.1360473633
572.8557897949	-9.3647613525
574.7845971680	1.1416858435
576.7134045410	0.7885189652
578.6422119141	1.5761221647
580.5710192871	1.8580437899
582.4998266602	3.0232095718
584.4286340332	0.3449063003
586.3574414063	0.2152824402
588.2862487793	3.3525795937
590.2150561523	3.0402686596
592.1438635254	1.7077733278
594.0726708984	1.4568332434
596.0014782715	5.0177898407
597.9302856445	3.0049710274
599.8590930176	-21.9130668640
601.7879003906	3.9151477814
603.7167077637	0.8328521252
605.6455151367	1.0832512379
607.5743225098	1.2400474548
609.5031298828	1.5736644268
611.4319372559	-1.9219617844
613.3607446289	-5.0057301521
615.2895520020	0.6950956583
617.2183593750	-14.6858119965
619.1471667480	-8.8573465347
621.0759741211	-5.9515352249
623.0047814941	-2.8586928844
624.9335888672	1.3917934895
626.8623962402	0.5555940866
628.7912036133	-4.9098057747
630.7200109863	0.7180010676
632.6488183594	0.4491879046
634.5776257324	0.2990617156
636.5064331055	0.4361363351
638.4352404785	0.6192411780
640.3640478516	0.4067298472
642.2928552246	0.3902066350
644.2216625977	0.4889479876
646.1504699707	0.3307894170
648.0792773438	0.4943250716
650.0080847168	0.5714303255
651.9368920898	0.3645654321
653.8656994629	0.4039726853
655.7945068359	0.4180854559
657.7233142090	0.4972520471
659.6521215820	0.5009459257
661.5809289551	0.3877868652
663.5097363281	0.4607462585
665.4385437012	0.4675680399
667.3673510742	0.4473572373
669.2961584473	0.4809172451
671.2249658203	0.4347206354
673.1537731934	0.4686563313
675.0825805664	0.4929068685
677.0113879395	0.4468456209
678.9401953125	0.4918551147
680.8690026855	0.4627132714
682.7978100586	0.4586216211
684.7266174316	0.4974749982
686.6554248047	0.4592435956
688.5842321777	0.4886461794
690.5130395508	0.4920961261
692.4418469238	0.5130755901
694.3706542969	0.4789758027
696.2994616699	0.4859653115
698.2282690430	0.5363583565
700.1570764160	0.4852983654
702.0858837891	0.5145280361
704.0146911621	0.5139718056
705.9434985352	0.5029775500
707.8723059082	0.5531903505
709.8011132813	0.5707936883
711.7299206543	0.6166332364
713.6587280273	0.4478944242
715.5875354004	0.5001662970
717.5163427734	1.5001653433
719.4451501465	1.5542919636
721.3739575195	0.2088649422
723.3027648926	-0.3597428203
725.2315722656	17.8661918640
727.1603796387	2.1175456047
729.0891870117	2.3691837788
731.0179943848	-5.6968369484
732.9468017578	0.1827948242
734.8756091309	10.8056192398
736.8044165039	4.9513993263
738.7332238770	10.7081642151
740.6620312500	-1.5344548225
742.5908386230	2.9180383682
744.5196459961	2.0367743969
746.4484533691	0.6116223931
748.3772607422	-5.5390439034
750.3060681152	-20.3845920563
752.2348754883	3.7107605934
754.1636828613	3.8137545586
756.0924902344	0.3735405207
758.0212976074	6.9661583900
759.9501049805	1.0088900328
761.8789123535	0.8446738720
763.8077197266	1.3803235292
765.7365270996	0.9667999148
767.6653344727	1.4945040941
769.5941418457	0.8923634887
771.5229492188	1.8326503038
773.4517565918	2.0615139008
775.3805639648	0.4425377250
777.3093713379	0.0879565477
779.2381787109	0.2575703561
781.1669860840	1.3419940472
783.0957934570	0.9942154288
785.0246008301	0.5425137877
786.9534082031	0.8748611808
788.8822155762	0.2934842408
790.8110229492	1.1945861578
792.7398303223	1.3211866617
794.6686376953	0.6695002913
796.5974450684	0.7488838434
798.5262524414	0.6536074281
800.4550598145	0.7214040160
802.3838671875	0.9668031335
804.3126745605	1.0828995705
806.2414819336	0.5337185264
808.1702893066	0.6543943882
810.0990966797	1.9655265808
812.0279040527	1.0742176771
813.9567114258	0.9959149957
815.8855187988	1.1530951262
817.8143261719	0.6081950068
819.7431335449	1.3637640476
821.6719409180	0.9008536935
823.6007482910	0.7517159581
825.5295556641	0.9828664660
827.4583630371	0.7953506708
829.3871704102	0.7355825901
831.3159777832	0.7115857601
833.2447851563	0.9366372228
835.1735925293	1.0282526016
837.1023999023	0.8356677294
839.0312072754	0.8857467175
840.9600146484	0.8239900470
842.8888220215	0.7894234061
844.8176293945	0.9381862879
846.7464367676	0.9192433357
848.6752441406	0.8353240490
850.6040515137	0.7173842788
852.5328588867	1.0878671408
854.4616662598	1.1661046743
856.3904736328	0.6759433746
858.3192810059	0.7610691190
860.2480883789	0.9817385674
862.1768957520	1.2228482962
864.1057031250	1.1000125408
866.0345104980	1.2858470678
867.9633178711	1.0475583076
869.8921252441	0.6167349219
871.8209326172	1.4555900097
873.7497399902	1.0041183233
875.6785473633	1.6746060848
877.6073547363	3.9484012127
879.5361621094	0.9393177629
881.4649694824	2.2133700848
883.3937768555	1.6866296530
885.3225842285	0.7730895877
887.2513916016	1.7216563225
889.1801989746	0.9649319053
891.1090063477	0.6608183980
893.0378137207	4.2372932434
894.9666210938	0.8982821107
896.8954284668	1.3140296936
898.8242358398	1.6177846193
900.7530432129	0.6261012554
902.6818505859	1.6573989391
904.6106579590	1.2747473717
906.5394653320	0.6781322360
908.4682727051	1.1464236975
910.3970800781	1.2927579880
912.3258874512	1.0740296841
914.2546948242	1.0253573656
916.1835021973	1.3455181122
918.1123095703	0.8978250027
920.0411169434	0.8869180083
921.9699243164	0.8501574397
923.8987316895	0.8274163604
925.8275390625	1.0414137840
927.7563464355	0.7326251864
929.6851538086	0.9134295583
931.6139611816	0.9240046740
933.5427685547	0.8569203019
935.4715759277	1.0307199955
937.4003833008	0.7531189322
939.3291906738	0.9393918514
941.2579980469	0.9583811760
943.1868054199	0.8283764720
945.1156127930	0.9584008455
947.0444201660	0.8466328382
948.9732275391	0.9583963752
950.9020349121	0.9831458926
952.8308422852	0.9236769676
954.7596496582	0.9115809798
956.6884570313	0.9135252833
958.6172644043	0.9914185405
960.5460717773	0.9455944300
962.4748791504	0.9458911419
964.4036865234	0.8910354972
966.3324938965	0.9019989371
968.2613012695	0.8549720645
970.1901086426	0.9408018589
972.1189160156	0.9857738018
974.0477233887	0.8098787069
975.9765307617	0.9437446594
977.9053381348	0.9688851237
979.8341455078	0.8780614138
981.7629528809	0.8891618252
983.6917602539	0.8739356995
985.6205676270	0.8845972419
987.5493750000	0.9131861329
989.4781823730	0.9233809114
991.4069897461	0.8878516555
993.3357971191	0.9116377831
995.2646044922	0.9256426096
997.1934118652	0.9111083746
999.1222192383	0.9136452675
1001.0510266113	0.9207623601
1002.9798339844	0.9326013923
1004.9086413574	0.9202966094
1006.8374487305	0.9220548868
1008.7662561035	0.9055957198
1010.6950634766	0.9160951972
1012.6238708496	0.9251211286
1014.5526782227	0.8943397999
1016.4814855957	0.9045390487
1018.4102929688	0.9043214917
1020.3391003418	0.9053505659
1022.2679077148	0.9112378359
1024.1967150879	0.9099227190
1026.1255224609	0.9148566723
1028.0543298340	0.9117298126
1029.9831372070	0.9172388911
1031.9119445801	0.9154159427
1033.8407519531	0.9147703648
1035.7695593262	0.9154267311
1037.6983666992	0.9196225405
1039.6271740723	0.9178509116
1041.5559814453	0.9045140147
1043.4847888184	0.9130265713
1045.4135961914	0.9214293957
1047.3424035645	0.9210674763
1049.2712109375	0.9159792662
1051.2000183105	0.9200029373
1053.1288256836	0.9136953354
1055.0576330566	0.9031303525
1056.9864404297	0.9219768643
1058.9152478027	0.9144964814
1060.8440551758	0.9101800323
1062.7728625488	0.9260478616
1064.7016699219	0.9243643284
1066.6304772949	0.9142737985
1068.5592846680	0.9123831987
1070.4880920410	0.9224469066
1072.4168994141	0.9195888638
1074.3457067871	0.9274583459
1076.2745141602	0.9131706953
1078.2033215332	0.8954753280
1080.1321289062	0.9198242426
1082.0609362793	0.9250081778
1083.9897436523	0.9274280071
1085.9185510254	0.9275135398
1087.8473583984	0.9376277924
1089.7761657715	0.9368211031
1091.7049731445	0.9075049758
1093.6337805176	0.9190850258
1095.5625878906	0.9100896716
1097.4913952637	0.9083132148
1099.4202026367	0.9317478538
1101.3490100098	0.9177218080
1103.2778173828	0.9328165650
1105.2066247559	0.9209895134
1107.1354321289	0.8958026171
1109.0642395019	0.9178450704
1110.9930468750	0.9087523222
1112.9218542480	0.9081855416
1114.8506616211	0.9163224697
1116.7794689941	0.9362182617
1118.7082763672	0.9448602200
1120.6370837402	0.9013794065
1122.5658911133	0.9008282423
1124.4946984863	0.9003660679
1126.4235058594	0.8998355269
1128.3523132324	0.9248488545
1130.2811206055	0.9201618433
1132.2099279785	0.9071217775
1134.1387353516	0.9023023248
1136.0675427246	0.9178501964
1137.9963500977	0.9263140559
1139.9251574707	0.9259479642
1141.8539648437	0.9226974249
1143.7827722168	0.9241437912
1145.7115795898	0.9146021008
1147.6403869629	0.9032028317
1149.5691943359	0.9177443385
1151.4980017090	0.9154825807
1153.4268090820	0.9304748178
1155.3556164551	0.9298537970
1157.2844238281	0.9106073976
1159.2132312012	0.9320188761
1161.1420385742	0.9284601808
1163.0708459473	0.9121820331
1164.9996533203	0.9119528532
1166.9284606934	0.9088096023
1168.8572680664	0.9060544968
1170.7860754394	0.9142410159
1172.7148828125	0.9220649004
1174.6436901855	0.9190652966
1176.5724975586	0.9163241982
1178.5013049316	0.9123213887
1180.4301123047	0.9219909906
1182.3589196777	0.9206179380
1184.2877270508	0.9150846601
1186.2165344238	0.9152949452
1188.1453417969	0.9093410969
1190.0741491699	0.9186170101
1192.0029565430	0.9153268337
1193.9317639160	0.9140211940
1195.8605712891	0.9164515138
1197.7893786621	0.9118397236
1199.7181860351	0.9172360301
1201.6469934082	0.9164741039
1203.5758007812	0.9215447903
1205.5046081543	0.9184142947
1207.4334155273	0.9128582478
1209.3622229004	0.9197499752
1211.2910302734	0.9159672260
1213.2198376465	0.9152660370
1215.1486450195	0.9163271785
1217.0774523926	0.9129152298
1219.0062597656	0.9139425159
1220.9350671387	0.9150558114
1222.8638745117	0.9143321514
1224.7926818848	0.9146732688
1226.7214892578	0.9147882462
1228.6502966308	0.9138455391
1230.5791040039	0.9136417508
1232.5079113769	0.9140050411
1234.4367187500	0.9151279926
1236.3655261230	0.9135975242
1238.2943334961	0.9153084755
1240.2231408691	0.9121158123
1242.1519482422	0.9100316763
1244.0807556152	0.9177193642
1246.0095629883	0.9134096503
1247.9383703613	0.9152383208
1249.8671777344	0.9173030853
1251.7959851074	0.9131492972
1253.7247924805	0.9184296727
1255.6535998535	0.9151923060
1257.5824072266	0.9154213071
1259.5112145996	0.9165321589
1261.4400219726	0.9147125483
1263.3688293457	0.9171872139
1265.2976367187	0.9150866866
1267.2264440918	0.9182561040
1269.1552514648	0.9169850945
1271.0840588379	0.9133753181
1273.0128662109	0.9184833765
1274.9416735840	0.9155976772
1276.8704809570	0.9107046723
1278.7992883301	0.9179357290
1280.7280957031	0.9198936224
1282.6569030762	0.9159005284
1284.5857104492	0.9156749845
1286.5145178223	0.9134969115
1288.4433251953	0.9193747640
1290.3721325683	0.9210456014
1292.3009399414	0.9156179428
1294.2297473144	0.9176102281
1296.1585546875	0.9168428183
1298.0873620605	0.9155069590
1300.0161694336	0.9151505828
1301.9449768066	0.9135968089
1303.8737841797	0.9175380468
1305.8025915527	0.9217702746
1307.7313989258	0.9174585342
1309.6602062988	0.9180882573
1311.5890136719	0.9185363650
1313.5178210449	0.9123750925
1315.4466284180	0.9145398140
1317.3754357910	0.9155603647
1319.3042431640	0.9169709682
1321.2330505371	0.9176731110
1323.1618579101	0.9149168134
1325.0906652832	0.9170757532
1327.0194726562	0.9167085886
1328.9482800293	0.9148519635
1330.8770874023	0.9154684544
1332.8058947754	0.9152366519
1334.7347021484	0.9142869711
1336.6635095215	0.9169463515
1338.5923168945	0.9149884582
1340.5211242676	0.9129507542
1342.4499316406	0.9169265628
1344.3787390137	0.9162515998
1346.3075463867	0.9173684716
1348.2363537597	0.9176722765
1350.1651611328	0.9177837372
1352.0939685058	0.9172902107
1354.0227758789	0.9171304107
1355.9515832519	0.9180686474
1357.8803906250	0.9124269485
1359.8091979980	0.9166045189
1361.7380053711	0.9171261191
1363.6668127441	0.9131276608
1365.5956201172	0.9150039554
1367.5244274902	0.9150747061
1369.4532348633	0.9203345180
1371.3820422363	0.9172471762
1373.3108496094	0.9166759253
1375.2396569824	0.9164296985
1377.1684643555	0.9124591351
1379.0972717285	0.9137587547
1381.0260791015	0.9127401114
1382.9548864746	0.9172865748
1384.8836938476	0.9135107398
1386.8125012207	0.9133924246
1388.7413085937	0.9180542231
1390.6701159668	0.9107580185
1392.5989233398	0.9139064550
1394.5277307129	0.9199891686
1396.4565380859	0.9181820750
1398.3853454590	0.9157775640
1400.3141528320	0.9164040089
1402.2429602051	0.9161639214
1404.1717675781	0.9157890081
1406.1005749512	0.9158093333
1408.0293823242	0.9126589298
1409.9581896972	0.9143196344
1411.8869970703	0.9133135080
1413.8158044433	0.9106188416
1415.7446118164	0.9115153551
1417.6734191894	0.9148928523
1419.6022265625	0.9173746109
1421.5310339355	0.9111977816
1423.4598413086	0.9106792212
1425.3886486816	0.9144041538
1427.3174560547	0.9131498933
1429.2462634277	0.9098781943
1431.1750708008	0.9139750600
1433.1038781738	0.9130320549
1435.0326855469	0.9106861949
1436.9614929199	0.9167701602
1438.8903002929	0.9090403914
1440.8191076660	0.9144723415
1442.7479150390	0.9169769883
1444.6767224121	0.9102274776
1446.6055297851	0.9180995226
1448.5343371582	0.9112424850
1450.4631445312	0.9073008299
1452.3919519043	0.9094104767
1454.3207592773	0.9112161398
1456.2495666504	0.9157000184
1458.1783740234	0.9171011448
1460.1071813965	0.9150853157
1462.0359887695	0.9107205272
1463.9647961426	0.9099619389
1465.8936035156	0.9097554088
1467.8224108886	0.9115884304
1469.7512182617	0.9080044627
1471.6800256347	0.9096944928
1473.6088330078	0.9128659964
1475.5376403808	0.9063844681
1477.4664477539	0.9073016047
1479.3952551269	0.9061509371
1481.3240625000	0.9084035158
1483.2528698730	0.9061444998
1485.1816772461	0.9023752809
1487.1104846191	0.9067365527
1489.0392919922	0.9040094018
1490.9680993652	0.9049594402
1492.8969067383	0.9023596644
1494.8257141113	0.9011796713
1496.7545214843	0.9055289030
1498.6833288574	0.9021088481
1500.6121362304	0.9004024863
1502.5409436035	0.8971117139
1504.4697509765	0.8996474147
1506.3985583496	0.9061644673
1508.3273657226	0.9010787606
1510.2561730957	0.8974431157
1512.1849804687	0.8953967690
1514.1137878418	0.8956633210
1516.0425952148	0.8965997696
1517.9714025879	0.8945190310
1519.9002099609	0.8950464129
1521.8290173340	0.8988696933
1523.7578247070	0.8933601975
1525.6866320801	0.8903010488
1527.6154394531	0.8908298016
1529.5442468261	0.8877093792
1531.4730541992	0.8876634240
1533.4018615722	0.8875605464
1535.3306689453	0.8857020736
1537.2594763183	0.8839663267
1539.1882836914	0.8886191845
1541.1170910644	0.8897492886
1543.0458984375	0.8825816512
1544.9747058105	0.8795611262
1546.9035131836	0.8764387965
1548.8323205566	0.8758078814
1550.7611279297	0.8734056950
1552.6899353027	0.8730696440
1554.6187426758	0.8726330996
1556.5475500488	0.8697420359
1558.4763574218	0.8754658699
1560.4051647949	0.8711194396
1562.3339721679	0.8639326096
1564.2627795410	0.8615128398
1566.1915869140	0.8582303524
1568.1203942871	0.8557959199
1570.0492016601	0.8560027480
1571.9780090332	0.8513816595
1573.9068164062	0.8470655680
1575.8356237793	0.8500620723
1577.7644311523	0.8416360617
1579.6932385254	0.8369715810
1581.6220458984	0.8338781595
1583.5508532715	0.8289842010
1585.4796606445	0.8275057077
1587.4084680175	0.8202081323
1589.3372753906	0.8176285625
1591.2660827636	0.8116655350
1593.1948901367	0.8068163395
1595.1236975097	0.8027612567
1597.0525048828	0.7941350341
1598.9813122558	0.7905266285
1600.9101196289	0.7842600346
1602.8389270019	0.7779700756
1604.7677343750	0.7708167434
1606.6965417480	0.7651596665
1608.6253491211	0.7586395144
1610.5541564941	0.7502189875
1612.4829638672	0.7432098985
1614.4117712402	0.7362274528
1616.3405786132	0.7335562110
1618.2693859863	0.7259340286
1620.1981933593	0.7176338434
1622.1270007324	0.7131847739
1624.0558081054	0.7078609467
1625.9846154785	0.7028111219
1627.9134228515	0.7009006143
1629.8422302246	0.6987166405
1631.7710375976	0.6948714256
1633.6998449707	0.6960637569
1635.6286523437	0.6996581554
1637.5574597168	0.6981341839
1639.4862670898	0.6972378492
1641.4150744629	0.6993858218
1643.3438818359	0.7030244470
1645.2726892090	0.7079173923
1647.2014965820	0.7137716413
1649.1303039550	0.7148492336
1651.0591113281	0.7200066447
1652.9879187011	0.7348599434
1654.9167260742	0.7337390780
1656.8455334472	0.7357670069
1658.7743408203	0.7425462008
1660.7031481933	0.7475182414
1662.6319555664	0.7561004162
1664.5607629394	0.7598859072
1666.4895703125	0.7661025524
1668.4183776855	0.7742893100
1670.3471850586	0.7810848951
1672.2759924316	0.7860820293
1674.2047998047	0.7936541438
1676.1336071777	0.8025557995
1678.0624145507	0.8039985895
1679.9912219238	0.8123669028
1681.9200292968	0.8201087117
1683.8488366699	0.8295494318
1685.7776440429	0.8361145854
1687.7064514160	0.8356105685
1689.6352587890	0.8446777463
1691.5640661621	0.8496021628
1693.4928735351	0.8565679789
1695.4216809082	0.8658322096
1697.3504882812	0.8686317801
1699.2792956543	0.8786770105
1701.2081030273	0.8842123151
1703.1369104004	0.8830338717
1705.0657177734	0.8884546161
1706.9945251464	0.8936116099
1708.9233325195	0.8948262930
1710.8521398925	0.9007769823
1712.7809472656	0.9053274393
1714.7097546386	0.9093630314
1716.6385620117	0.9166981578
1718.5673693847	0.9186515808
1720.4961767578	0.9180594683
1722.4249841308	0.9190067649
1724.3537915039	0.9245697856
1726.2825988769	0.9288661480
1728.2114062500	0.9314545989
1730.1402136230	0.9333632588
1732.0690209961	0.9363582730
1733.9978283691	0.9431216121
1735.9266357421	0.9405132532
1737.8554431152	0.9404218197
1739.7842504882	0.9447533488
1741.7130578613	0.9462913871
1743.6418652343	0.9463030696
1745.5706726074	0.9479186535
1747.4994799804	0.9508365989
1749.4282873535	0.9527739286
1751.3570947265	0.9537405372
1753.2859020996	0.9521321654
1755.2147094726	0.9550693035
1757.1435168457	0.9582960606
1759.0723242187	0.9578490257
1761.0011315918	0.9605239034
1762.9299389648	0.9620084167
1764.8587463379	0.9612888694
1766.7875537109	0.9610322714
1768.7163610839	0.9623213410
1770.6451684570	0.9649534822
1772.5739758300	0.9673882127
1774.5027832031	0.9662590027
1776.4315905761	0.9649974108
1778.3603979492	0.9666690230
1780.2892053222	0.9667735696
1782.2180126953	0.9667037129
1784.1468200683	0.9691291451
1786.0756274414	0.9703613520
1788.0044348144	0.9681075811
1789.9332421875	0.9688053131
1791.8620495605	0.9728786349
1793.7908569336	0.9722703695
1795.7196643066	0.9711598158
1797.6484716796	0.9725528359
1799.5772790527	0.9725162387
1801.5060864257	0.9719082713
1803.4348937988	0.9724674225
1805.3637011718	0.9716420770
1807.2925085449	0.9722269177
1809.2213159179	0.9747525454
1811.1501232910	0.9746387601
1813.0789306640	0.9735217094
1815.0077380371	0.9732644558
1816.9365454101	0.9740862250
1818.8653527832	0.9742746353
1820.7941601562	0.9738149047
1822.7229675293	0.9753032923
1824.6517749023	0.9763488770
1826.5805822753	0.9746342301
1828.5093896484	0.9749491811
1830.4381970214	0.9767448902
1832.3670043945	0.9764878750
1834.2958117675	0.9769499302
1836.2246191406	0.9768626094
1838.1534265136	0.9765930176
1840.0822338867	0.9754555225
1842.0110412597	0.9768964648
1843.9398486328	0.9796533585
1845.8686560058	0.9766643047
1847.7974633789	0.9780286551
1849.7262707519	0.9787029624
1851.6550781250	0.9770547748
1853.5838854980	0.9781193137
1855.5126928710	0.9768692255
1857.4415002441	0.9769880772
1859.3703076171	0.9762343764
1861.2991149902	0.9764792919
1863.2279223632	0.9780143499
1865.1567297363	0.9768484235
1867.0855371093	0.9777799249
1869.0143444824	0.9786887169
1870.9431518554	0.9777694941
1872.8719592285	0.9778978229
1874.8007666015	0.9784053564
1876.7295739746	0.9776922464
1878.6583813476	0.9775716662
1880.5871887207	0.9765307307
1882.5159960937	0.9765439630
1884.4448034667	0.9787411690
1886.3736108398	0.9770718217
1888.3024182128	0.9777988195
1890.2312255859	0.9789973497
1892.1600329589	0.9776854515
1894.0888403320	0.9791880250
1896.0176477050	0.9769576192
1897.9464550781	0.9753975272
1899.8752624511	0.9768182635
1901.8040698242	0.9766656160
1903.7328771972	0.9767203927
1905.6616845703	0.9748042822
1907.5904919433	0.9760679007
1909.5192993164	0.9771960974
1911.4481066894	0.9746420979
1913.3769140625	0.9762184024
1915.3057214355	0.9765015841
1917.2345288085	0.9767193794
1919.1633361816	0.9764580727
1921.0921435546	0.9744610190
1923.0209509277	0.9768556952
1924.9497583007	0.9765701890
1926.8785656738	0.9749140143
1928.8073730468	0.9744151235
1930.7361804199	0.9741845131
1932.6649877929	0.9757058024
1934.5937951660	0.9759849906
1936.5226025390	0.9751229286
1938.4514099121	0.9733886719
1940.3802172851	0.9744914174
1942.3090246582	0.9749050140
1944.2378320312	0.9734547138
1946.1666394042	0.9742920995
1948.0954467773	0.9732199907
1950.0242541503	0.9728038907
1951.9530615234	0.9739836454
1953.8818688964	0.9742754102
1955.8106762695	0.9728351831
1957.7394836425	0.9712816477
1959.6682910156	0.9717133045
1961.5970983886	0.9718438387
1963.5259057617	0.9714164734
1965.4547131347	0.9716132879
1967.3835205078	0.9725222588
1969.3123278808	0.9711263180
1971.2411352539	0.9705361128
1973.1699426269	0.9718047380
1975.0987499999	0.9712232947
1977.0275573730	0.9708100557
1978.9563647460	0.9695323706
1980.8851721191	0.9692305326
1982.8139794921	0.9695088267
1984.7427868652	0.9682213664
1986.6715942382	0.9690460563
1988.6004016113	0.9690875411
1990.5292089843	0.9669108391
1992.4580163574	0.9671550393
1994.3868237304	0.9678474069
1996.3156311035	0.9674122930
1998.2444384765	0.9678124189
2000.1732458496	0.9661691189
2002.1020532226	0.9649024010
2004.0308605956	0.9659695625
2005.9596679687	0.9656984806
2007.8884753417	0.9654563665
2009.8172827148	0.9651330113
2011.7460900878	0.9643645883
2013.6748974609	0.9640060663
2015.6037048339	0.9633095860
2017.5325122070	0.9638435245
2019.4613195800	0.9645707607
2021.3901269531	0.9634127021
2023.3189343261	0.9634425640
2025.2477416992	0.9633780718
2027.1765490722	0.9618629217
2029.1053564453	0.9625520706
2031.0341638183	0.9631091952
2032.9629711914	0.9619493484
2034.8917785644	0.9616926312
2036.8205859374	0.9629879594
2038.7493933105	0.9619308114
2040.6782006835	0.9596228600
2042.6070080566	0.9601408243
2044.5358154296	0.9592195153
2046.4646228027	0.9584683180
2048.3934301757	0.9601505995
2050.3222375488	0.9602445364
2052.2510449218	0.9581485391
2054.1798522949	0.9579820037
2056.1086596679	0.9591100216
2058.0374670410	0.9580807090
2059.9662744140	0.9577207565
2061.8950817871	0.9571232796
2063.8238891601	0.9570407867
2065.7526965331	0.9565677643
2067.6815039062	0.9555017948
2069.6103112792	0.9560187459
2071.5391186523	0.9558212161
2073.4679260253	0.9572407007
2075.3967333984	0.9567561150
2077.3255407714	0.9556725025
2079.2543481445	0.9550238848
2081.1831555175	0.9539903402
2083.1119628906	0.9558968544
2085.0407702636	0.9547666311
2086.9695776367	0.9547409415
2088.8983850097	0.9555030465
2090.8271923828	0.9542887807
2092.7559997558	0.9543247819
2094.6848071288	0.9527273774
2096.6136145019	0.9532346129
2098.5424218749	0.9543583989
2100.4712292480	0.9539224505
2102.4000366210	0.9535979033
2104.3288439941	0.9533343911
2106.2576513671	0.9538863897
2108.1864587402	0.9541373253
2110.1152661132	0.9538899660
2112.0440734863	0.9537227750
2113.9728808593	0.9544547200
2115.9016882324	0.9528526068
2117.8304956054	0.9521080852
2119.7593029785	0.9539713264
2121.6881103515	0.9530346990
2123.6169177245	0.9530390501
2125.5457250976	0.9540338516
2127.4745324706	0.9528328776
2129.4033398437	0.9511572719
2131.3321472167	0.9515109658
2133.2609545898	0.9528812766
2135.1897619628	0.9528497458
2137.1185693359	0.9530608058
2139.0473767089	0.9531261921
2140.9761840820	0.9532333612
2142.9049914550	0.9528453946
2144.8337988281	0.9523410201
2146.7626062011	0.9542181492
2148.6914135742	0.9549647570
2150.6202209472	0.9534943700
2152.5490283203	0.9534483552
2154.4778356933	0.9551799893
2156.4066430663	0.9542039633
2158.3354504394	0.9524613023
2160.2642578124	0.9549134374
2162.1930651855	0.9556354284
2164.1218725585	0.9549148083
2166.0506799316	0.9557068944
2167.9794873046	0.9546728730
2169.9082946777	0.9539310336
2171.8371020507	0.9547381997
2173.7659094238	0.9567547441
2175.6947167968	0.9564798474
2177.6235241699	0.9541568160
2179.5523315429	0.9552104473
2181.4811389160	0.9569912553
2183.4099462890	0.9583682418
2185.3387536620	0.9589889050
2187.2675610351	0.9578086734
2189.1963684081	0.9573355317
2191.1251757812	0.9580628872
2193.0539831542	0.9578092098
2194.9827905273	0.9579397440
2196.9115979003	0.9594468474
2198.8404052734	0.9583777189
2200.7692126464	0.9592319727
2202.6980200195	0.9607543945
2204.6268273925	0.9586052895
2206.5556347656	0.9593328238
2208.4844421386	0.9603193998
2210.4132495117	0.9593660831
2212.3420568847	0.9605589509
2214.2708642577	0.9617694020
2216.1996716308	0.9611206651
2218.1284790038	0.9615277052
2220.0572863769	0.9620344043
2221.9860937499	0.9621941447
2223.9149011230	0.9632769227
2225.8437084960	0.9623104334
2227.7725158691	0.9629489183
2229.7013232421	0.9646069407
2231.6301306152	0.9634022117
2233.5589379882	0.9635848403
2235.4877453613	0.9652002454
2237.4165527343	0.9650925994
2239.3453601074	0.9644204378
2241.2741674804	0.9649828076
2243.2029748534	0.9652115107
2245.1317822265	0.9654226303
2247.0605895995	0.9661369324
2248.9893969726	0.9665369987
2250.9182043456	0.9661364555
2252.8470117187	0.9673185945
2254.7758190917	0.9674835205
2256.7046264648	0.9656029344
2258.6334338378	0.9691178203
2260.5622412109	0.9693665504
2262.4910485839	0.9671368599
2264.4198559570	0.9689772129
2266.3486633300	0.9691124558
2268.2774707031	0.9693213701
2270.2062780761	0.9686212540
2272.1350854491	0.9697021246
2274.0638928222	0.9696509242
2275.9927001952	0.9680110812
2277.9215075683	0.9707408547
2279.8503149413	0.9718803763
2281.7791223144	0.9708256721
2283.7079296874	0.9703383446
2285.6367370605	0.9709686041
2287.5655444335	0.9708632827
2289.4943518066	0.9711534977
2291.4231591796	0.9717435837
2293.3519665527	0.9736142159
2295.2807739257	0.9744812846
2297.2095812988	0.9721413851
2299.1383886718	0.9752741456
2301.0671960449	0.9750919342
2302.9960034179	0.9737088084
2304.9248107909	0.9763647914
2306.8536181640	0.9771557450
2308.7824255370	0.9793249369
2310.7112329101	0.9786736369
2312.6400402831	0.9808526039
2314.5688476562	0.9845951796
2316.4976550292	0.9847866893
2318.4264624023	0.9863581657
2320.3552697753	0.9884422421
2322.2840771484	0.9902074337
2324.2128845214	0.9928744435
2326.1416918945	0.9965282679
2328.0704992675	0.9963133931
2329.9993066406	1.0003838539
2331.9281140136	1.0036352873
2333.8569213866	1.0024259090
2335.7857287597	1.0045940876
2337.7145361327	1.0039807558
2339.6433435058	1.0066024065
2341.5721508788	1.0055079460
2343.5009582519	1.0020129681
2345.4297656249	1.0003018379
2347.3585729980	0.9900563359
2349.2873803710	0.9839803576
2351.2161877441	0.9912791848
2353.1449951171	1.0036854744
2355.0738024902	1.0091431141
2357.0026098632	1.0133942366
2358.9314172363	1.0155148506
2360.8602246093	1.0158289671
2362.7890319823	1.0184923410
2364.7178393554	1.0152122974
2366.6466467284	1.0126386881
2368.5754541015	1.0085343122
2370.5042614745	1.0031715631
2372.4330688476	1.0003677607
2374.3618762206	0.9956236482
2376.2906835937	0.9903668761
2378.2194909667	0.9861464500
2380.1482983398	0.9847207069
2382.0771057128	0.9832702279
2384.0059130859	0.9818047285
2385.9347204589	0.9811460972
2387.8635278320	0.9808841348
2389.7923352050	0.9805394411
2391.7211425780	0.9807223678
2393.6499499511	0.9822403193
2395.5787573241	0.9816108942
2397.5075646972	0.9817769527
2399.4363720702	0.9824979305
2401.3651794433	0.9823975563
2403.2939868163	0.9813160300
2405.2227941894	0.9812766314
2407.1516015624	0.9826089740
2409.0804089355	0.9816368818
2411.0092163085	0.9819722176
2412.9380236816	0.9811728001
2414.8668310546	0.9824749827
2416.7956384277	0.9843867421
2418.7244458007	0.9827906489
2420.6532531738	0.9836007953
2422.5820605468	0.9820687771
2424.5108679198	0.9823876023
2426.4396752929	0.9836956263
2428.3684826659	0.9823848605
2430.2972900390	0.9846263528
2432.2260974120	0.9840803742
2434.1549047851	0.9822748899
2436.0837121581	0.9832491279
2438.0125195312	0.9830627441
2439.9413269042	0.9830705523
2441.8701342773	0.9843838215
2443.7989416503	0.9856237173
2445.7277490234	0.9856945276
2447.6565563964	0.9856655002
2449.5853637695	0.9857891798
2451.5141711425	0.9849807620
2453.4429785155	0.9845869541
2455.3717858886	0.9854420424
2457.3005932616	0.9858306646
2459.2294006347	0.9849145412
2461.1582080077	0.9851889014
2463.0870153808	0.9857973456
2465.0158227538	0.9846464396
2466.9446301269	0.9846108556
2468.8734374999	0.9858067036
2470.8022448730	0.9869909286
2472.7310522460	0.9855373502
2474.6598596191	0.9842360020
2476.5886669921	0.9874743223
2478.5174743652	0.9869900942
2480.4462817382	0.9847815633
2482.3750891112	0.9866949320
2484.3038964843	0.9871549606
2486.2327038573	0.9859446883
2488.1615112304	0.9867950678
2490.0903186034	0.9872309566
2492.0191259765	0.9856454730
2493.9479333495	0.9865107536
2495.8767407226	0.9868247509
2497.8055480956	0.9856600165
2499.7343554687	0.9865227938
2501.6631628417	0.9873445034
2503.5919702148	0.9865569472
2505.5207775878	0.9863246679
2507.4495849609	0.9879291058
2509.3783923339	0.9868614078
2511.3071997069	0.9866651893
2513.2360070800	0.9870299697
2515.1648144530	0.9868051410
2517.0936218261	0.9886754751
2519.0224291991	0.9876241088
2520.9512365722	0.9865440726
2522.8800439452	0.9865027070
2524.8088513183	0.9879668951
2526.7376586913	0.9883808494
2528.6664660644	0.9881328344
2530.5952734374	0.9878384471
2532.5240808105	0.9853225946
2534.4528881835	0.9885076284
2536.3816955566	0.9881294966
2538.3105029296	0.9869542122
2540.2393103027	0.9882160425
2542.1681176757	0.9872004390
2544.0969250487	0.9895334840
2546.0257324218	0.9871671200
2547.9545397948	0.9872359037
2549.8833471679	0.9881240726
2551.8121545409	0.9875833392
2553.7409619140	0.9899392128
2555.6697692870	0.9889419675
2557.5985766601	0.9904441237
2559.5273840331	0.9890898466
2561.4561914062	0.9893290997
2563.3849987792	0.9916745424
2565.3138061523	0.9893111587
2567.2426135253	0.9885077477
2569.1714208984	0.9889062643
2571.1002282714	0.9905333519
2573.0290356444	0.9886808395
2574.9578430175	0.9894367456
2576.8866503905	0.9913753867
2578.8154577636	0.9902737737
2580.7442651366	0.9912667274
2582.6730725097	0.9893376827
2584.6018798827	0.9893267155
2586.5306872558	0.9894883633
2588.4594946288	0.9901944995
2590.3883020019	0.9912247062
2592.3171093749	0.9880708456
2594.2459167480	0.9886036515
2596.1747241210	0.9897006750
2598.1035314941	0.9887167215
2600.0323388671	0.9894346595
2601.9611462401	0.9912220836
2603.8899536132	0.9894938469
2605.8187609862	0.9885998964
2607.7475683593	0.9898794293
2609.6763757323	0.9885677099
2611.6051831054	0.9892468452
2613.5339904784	0.9885408282
2615.4627978515	0.9886295199
2617.3916052245	0.9895225763
2619.3204125976	0.9892976284
2621.2492199706	0.9902706146
2623.1780273437	0.9889259338
2625.1068347167	0.9895103574
2627.0356420898	0.9895845652
2628.9644494628	0.9887167215
2630.8932568358	0.9874764681
2632.8220642089	0.9879009724
2634.7508715819	0.9902623296
2636.6796789550	0.9893139601
2638.6084863280	0.9907689691
2640.5372937011	0.9884359837
2642.4661010741	0.9873275757
2644.3949084472	0.9892188311
2646.3237158202	0.9884898663
2648.2525231933	0.9908742309
2650.1813305663	0.9885997772
2652.1101379394	0.9888492227
2654.0389453124	0.9882199168
2655.9677526855	0.9863052964
2657.8965600585	0.9902544022
2659.8253674315	0.9875518084
2661.7541748046	0.9890599251
2663.6829821776	0.9908972979
2665.6117895507	0.9866114855
2667.5405969237	0.9867374897
2669.4694042968	0.9874437451
2671.3982116698	0.9878297448
2673.3270190429	0.9875210524
2675.2558264159	0.9876194000
2677.1846337890	0.9865833521
2679.1134411620	0.9859938622
2681.0422485351	0.9864155650
2682.9710559081	0.9852387905
2684.8998632812	0.9870577455
2686.8286706542	0.9891735911
2688.7574780273	0.9892192483
2690.6862854003	0.9871354699
2692.6150927733	0.9859650731
2694.5439001464	0.9863506556
2696.4727075194	0.9870004654
2698.4015148925	0.9865533710
2700.3303222655	0.9833580256
2702.2591296386	0.9855296612
2704.1879370116	0.9864250422
2706.1167443847	0.9848877192
2708.0455517577	0.9873991013
2709.9743591308	0.9847025275
2711.9031665038	0.9825258255
2713.8319738769	0.9855820537
2715.7607812499	0.9851195812
2717.6895886230	0.9828823209
2719.6183959960	0.9836947322
2721.5472033690	0.9847703576
2723.4760107421	0.9854945540
2725.4048181151	0.9852352738
2727.3336254882	0.9838271141
2729.2624328612	0.9833586812
2731.1912402343	0.9811754823
2733.1200476073	0.9828305244
2735.0488549804	0.9861963391
2736.9776623534	0.9828997254
2738.9064697265	0.9807410836
2740.8352770995	0.9823439717
2742.7640844726	0.9833555222
2744.6928918456	0.9827079177
2746.6216992187	0.9822319150
2748.5505065917	0.9823469520
2750.4793139647	0.9820207953
2752.4081213378	0.9827527404
2754.3369287108	0.9824582338
2756.2657360839	0.9810547829
2758.1945434569	0.9805568457
2760.1233508300	0.9801579714
2762.0521582030	0.9803652763
2763.9809655761	0.9802697301
2765.9097729491	0.9784296155
2767.8385803222	0.9780581594
2769.7673876952	0.9788088799
2771.6961950683	0.9769678712
2773.6250024413	0.9772740006
2775.5538098144	0.9789125919
2777.4826171874	0.9768014550
2779.4114245604	0.9766386151
2781.3402319335	0.9764347672
2783.2690393065	0.9747704268
2785.1978466796	0.9756595492
2787.1266540526	0.9746393561
2789.0554614257	0.9759162068
2790.9842687987	0.9767616391
2792.9130761718	0.9736677408
2794.8418835448	0.9756139517
2796.7706909179	0.9750592709
2798.6994982909	0.9721605778
2800.6283056640	0.9722877145
2802.5571130370	0.9721736908
2804.4859204101	0.9743927717
2806.4147277831	0.9722768068
2808.3435351562	0.9683358669
2810.2723425292	0.9709014297
2812.2011499022	0.9711297750
2814.1299572753	0.9672580361
2816.0587646483	0.9676048756
2817.9875720214	0.9698078036
2819.9163793944	0.9688285589
2821.8451867675	0.9674170017
2823.7739941405	0.9654667974
2825.7028015136	0.9646780491
2827.6316088866	0.9652622938
2829.5604162597	0.9640315771
2831.4892236327	0.9647319317
2833.4180310058	0.9642583132
2835.3468383788	0.9624511600
2837.2756457519	0.9639696479
2839.2044531249	0.9622138739
2841.1332604979	0.9587349296
2843.0620678710	0.9581202865
2844.9908752440	0.9559625983
2846.9196826171	0.9538468122
2848.8484899901	0.9545349479
2850.7772973632	0.9531612396
2852.7061047362	0.9493960142
2854.6349121093	0.9503219724
2856.5637194823	0.9519392252
2858.4925268554	0.9516578913
2860.4213342284	0.9534508586
2862.3501416015	0.9524120092
2864.2789489745	0.9499201775
2866.2077563476	0.9489232302
2868.1365637206	0.9490283132
2870.0653710936	0.9477089643
2871.9941784667	0.9459096193
2873.9229858397	0.9471344948
2875.8517932128	0.9460377097
2877.7806005858	0.9458713531
2879.7094079589	0.9436648488
2881.6382153319	0.9417033195
2883.5670227050	0.9437250495
2885.4958300780	0.9389606118
2887.4246374511	0.9371340871
2889.3534448241	0.9381284714
2891.2822521972	0.9368570447
2893.2110595702	0.9366568327
2895.1398669433	0.9348765612
2897.0686743163	0.9337821603
2898.9974816893	0.9319947958
2900.9262890624	0.9310239553
2902.8550964354	0.9283842444
2904.7839038085	0.9260343909
2906.7127111815	0.9249718785
2908.6415185546	0.9218413830
2910.5703259276	0.9218663573
2912.4991333007	0.9204261899
2914.4279406737	0.9189440012
2916.3567480468	0.9168985486
2918.2855554198	0.9125285745
2920.2143627929	0.9111141562
2922.1431701659	0.9087669849
2924.0719775390	0.9077702761
2926.0007849120	0.9091199636
2927.9295922851	0.9075940847
2929.8583996581	0.9054078460
2931.7872070311	0.9059523940
2933.7160144042	0.9063114524
2935.6448217772	0.9058033228
2937.5736291503	0.9045442343
2939.5024365233	0.9024228454
2941.4312438964	0.9006440043
2943.3600512694	0.8990535736
2945.2888586425	0.8983162045
2947.2176660155	0.8951836824
2949.1464733886	0.8940371871
2951.0752807616	0.8924681544
2953.0040881347	0.8877040744
2954.9328955077	0.8874710798
2956.8617028808	0.8861515522
2958.7905102538	0.8858035803
2960.7193176268	0.8866968155
2962.6481249999	0.8827708960
2964.5769323729	0.8783990741
2966.5057397460	0.8770986795
2968.4345471190	0.8771830797
2970.3633544921	0.8746595979
2972.2921618651	0.8728992939
2974.2209692382	0.8706901073
2976.1497766112	0.8677668571
2978.0785839843	0.8663205504
2980.0073913573	0.8626395464
2981.9361987304	0.8613958955
2983.8650061034	0.8616438508
2985.7938134765	0.8568517566
2987.7226208495	0.8536414504
2989.6514282225	0.8523678184
2991.5802355956	0.8492371440
2993.5090429686	0.8493443131
2995.4378503417	0.8454479575
2997.3666577147	0.8412627578
2999.2954650878	0.8411352038
3001.2242724608	0.8363405466
3003.1530798339	0.8357620835
3005.0818872069	0.8349767327
3007.0106945800	0.8298932314
3008.9395019530	0.8265374899
3010.8683093261	0.8238795996
3012.7971166991	0.8226342201
3014.7259240722	0.8203584552
3016.6547314452	0.8178667426
3018.5835388182	0.8123606443
3020.5123461913	0.8093020320
3022.4411535643	0.8082520962
3024.3699609374	0.8031460643
3026.2987683104	0.8012841344
3028.2275756835	0.7983844876
3030.1563830565	0.7950755358
3032.0851904296	0.7926977277
3034.0139978026	0.7889733315
3035.9428051757	0.7869004607
3037.8716125487	0.7827995420
3039.8004199218	0.7769656777
3041.7292272948	0.7740045190
3043.6580346679	0.7724288702
3045.5868420409	0.7672647834
3047.5156494139	0.7646554708
3049.4444567870	0.7654169798
3051.3732641600	0.7606453300
3053.3020715331	0.7555066347
3055.2308789061	0.7528085113
3057.1596862792	0.7475380898
3059.0884936522	0.7441233993
3061.0173010253	0.7415649891
3062.9461083983	0.7360739112
3064.8749157714	0.7348225117
3066.8037231444	0.7319732308
3068.7325305175	0.7258608937
3070.6613378905	0.7233554721
3072.5901452636	0.7198214531
3074.5189526366	0.7163680792
3076.4477600097	0.7137798667
3078.3765673827	0.7101390958
3080.3053747557	0.7056878209
3082.2341821288	0.7036864161
3084.1629895018	0.6988919377
3086.0917968749	0.6914860606
3088.0206042479	0.6914420724
3089.9494116210	0.6872980595
3091.8782189940	0.6820871830
3093.8070263671	0.6800723076
3095.7358337401	0.6734726429
3097.6646411132	0.6711338162
3099.5934484862	0.6691787243
3101.5222558593	0.6623417735
3103.4510632323	0.6571924686
3105.3798706054	0.6553596258
3107.3086779784	0.6534039974
3109.2374853514	0.6502861381
3111.1662927245	0.6458241940
3113.0951000975	0.6425706744
3115.0239074706	0.6406444311
3116.9527148436	0.6337009072
3118.8815222167	0.6305553317
3120.8103295897	0.6280333400
3122.7391369628	0.6216263771
3124.6679443358	0.6191858053
3126.5967517089	0.6153880358
3128.5255590819	0.6123723388
3130.4543664550	0.6080899835
3132.3831738280	0.6030494571
3134.3119812011	0.5998898745
3136.2407885741	0.5969364047
3138.1695959471	0.5956902504
3140.0984033202	0.5896869898
3142.0272106932	0.5868204832
3143.9560180663	0.5847471356
3145.8848254393	0.5789470673
3147.8136328124	0.5760152936
3149.7424401854	0.5711647868
3151.6712475585	0.5678731799
3153.6000549315	0.5657238364
3155.5288623046	0.5630677342
3157.4576696776	0.5588157177
3159.3864770507	0.5557713509
3161.3152844237	0.5539581776
3163.2440917968	0.5485163927
3165.1728991698	0.5481765270
3167.1017065428	0.5452092886
3169.0305139159	0.5409724116
3170.9593212889	0.5407350659
3172.8881286620	0.5365512371
3174.8169360350	0.5336952209
3176.7457434081	0.5322490931
3178.6745507811	0.5308292508
3180.6033581542	0.5268771648
3182.5321655272	0.5233934522
3184.4609729003	0.5227052569
3186.3897802733	0.5194472075
3188.3185876464	0.5158423185
3190.2473950194	0.5145327449
3192.1762023925	0.5143247843
3194.1050097655	0.5103290081
3196.0338171386	0.5075637102
3197.9626245116	0.5067559481
3199.8914318846	0.5048264265
3201.8202392577	0.5027485490
3203.7490466307	0.5005499721
3205.6778540038	0.5005937219
3207.6066613768	0.4990730584
3209.5354687499	0.4974710941
3211.4642761229	0.4942905903
3213.3930834960	0.4944375455
3215.3218908690	0.4946757853
3217.2506982421	0.4890714288
3219.1795056151	0.4907851517
3221.1083129882	0.4906584620
3223.0371203612	0.4887303710
3224.9659277343	0.4883287549
3226.8947351073	0.4872924984
3228.8235424803	0.4898387492
3230.7523498534	0.4871430695
3232.6811572264	0.4860391617
3234.6099645995	0.4862098694
3236.5387719725	0.4833644032
3238.4675793456	0.4844153523
3240.3963867186	0.4846236408
3242.3251940917	0.4818134904
3244.2540014647	0.4818445742
3246.1828088378	0.4842041433
3248.1116162108	0.4834652245
3250.0404235839	0.4823985696
3251.9692309569	0.4825516343
3253.8980383300	0.4831282198
3255.8268457030	0.4828507304
3257.7556530760	0.4840625525
3259.6844604491	0.4849281907
3261.6132678221	0.4824133217
3263.5420751952	0.4833011031
3265.4708825682	0.4844369590
3267.3996899413	0.4849803150
3269.3284973143	0.4821123779
3271.2573046874	0.4807387888
3273.1861120604	0.4852641523
3275.1149194335	0.4854731560
3277.0437268065	0.4855441451
3278.9725341796	0.4836718142
3280.9013415526	0.4834876060
3282.8301489257	0.4863438010
3284.7589562987	0.4849714935
3286.6877636717	0.4844129980
3288.6165710448	0.4855594039
3290.5453784178	0.4866655767
3292.4741857909	0.4856929183
3294.4029931639	0.4878899455
3296.3318005370	0.4878070056
3298.2606079100	0.4846797884
3300.1894152831	0.4872080684
3302.1182226561	0.4884400070
3304.0470300292	0.4887968898
3305.9758374022	0.4879613221
3307.9046447753	0.4895864427
3309.8334521483	0.4917152524
3311.7622595214	0.4888675213
3313.6910668944	0.4887901545
3315.6198742675	0.4891063571
3317.5486816405	0.4882006645
3319.4774890135	0.4868540466
3321.4062963866	0.4871836007
3323.3351037596	0.4890619516
3325.2639111327	0.4892097712
3327.1927185057	0.4901888669
3329.1215258788	0.4927735031
3331.0503332518	0.4938899875
3332.9791406249	0.4918752015
3334.9079479979	0.4933330417
3336.8367553710	0.4943024814
3338.7655627440	0.4928711951
3340.6943701171	0.4944539368
3342.6231774901	0.4931062758
3344.5519848632	0.4934805632
3346.4807922362	0.4947586656
3348.4095996092	0.4935567677
3350.3384069823	0.4961509705
3352.2672143553	0.4973603189
3354.1960217284	0.4980584085
3356.1248291014	0.4986578524
3358.0536364745	0.4988268912
3359.9824438475	0.5016724467
3361.9112512206	0.5005111694
3363.8400585936	0.5020275712
3365.7688659667	0.5043681860
3367.6976733397	0.5019348264
3369.6264807128	0.5064288378
3371.5552880858	0.5110338926
3373.4840954589	0.5089567900
3375.4129028319	0.5077396035
3377.3417102049	0.5106928945
3379.2705175780	0.5114704967
3381.1993249510	0.5122767687
3383.1281323241	0.5172739029
3385.0569396971	0.5156961083
3386.9857470702	0.5143144727
3388.9145544432	0.5190354586
3390.8433618163	0.5228591561
3392.7721691893	0.5234545469
3394.7009765624	0.5239129663
3396.6297839354	0.5258071423
3398.5585913085	0.5281491876
3400.4873986815	0.5334023237
3402.4162060546	0.5335827470
3404.3450134276	0.5362154841
3406.2738208006	0.5393452644
3408.2026281737	0.5396385789
3410.1314355467	0.5450979471
3412.0602429198	0.5414209962
3413.9890502928	0.5452787280
3415.9178576659	0.5517768860
3417.8466650389	0.5506488681
3419.7754724120	0.5573148131
3421.7042797850	0.5569583774
3423.6330871581	0.5590488315
3425.5618945311	0.5632351041
3427.4907019042	0.5650068521
3429.4195092772	0.5693807006
3431.3483166503	0.5676562190
3433.2771240233	0.5724861026
3435.2059313963	0.5772073269
3437.1347387694	0.5766393542
3439.0635461424	0.5797849298
3440.9923535155	0.5848190784
3442.9211608885	0.5878856778
3444.8499682616	0.5870596766
3446.7787756346	0.5912243724
3448.7075830077	0.5943391919
3450.6363903807	0.5953533649
3452.5651977538	0.6007184386
3454.4940051268	0.6038510799
3456.4228124999	0.6062185168
3458.3516198729	0.6079320908
3460.2804272460	0.6115025878
3462.2092346190	0.6170800328
3464.1380419921	0.6177049875
3466.0668493651	0.6208207011
3467.9956567381	0.6253096461
3469.9244641112	0.6255077124
3471.8532714842	0.6298893690
3473.7820788573	0.6355943680
3475.7108862303	0.6389898658
3477.6396936034	0.6410455108
3479.5685009764	0.6421338320
3481.4973083495	0.6446974277
3483.4261157225	0.6476296186
3485.3549230956	0.6522877216
3487.2837304686	0.6523288488
3489.2125378417	0.6546512246
3491.1413452147	0.6618391275
3493.0701525878	0.6629735231
3494.9989599608	0.6683315039
3496.9277673338	0.6707865596
3498.8565747069	0.6698250771
3500.7853820799	0.6752097011
3502.7141894530	0.6773360372
3504.6429968260	0.6811389923
3506.5718041991	0.6853411794
3508.5006115721	0.6843924522
3510.4294189452	0.6865871549
3512.3582263182	0.6915943027
3514.2870336913	0.6951434016
3516.2158410643	0.6985649467
3518.1446484374	0.7012659311
3520.0734558104	0.7045844793
3522.0022631835	0.7075653672
3523.9310705565	0.7118373513
3525.8598779295	0.7156410813
3527.7886853026	0.7135834694
3529.7174926756	0.7213639617
3531.6463000487	0.7285957336
3533.5751074217	0.7270593047
3535.5039147948	0.7302361131
3537.4327221678	0.7305196524
3539.3615295409	0.7356339097
3541.2903369139	0.7429761291
3543.2191442870	0.7450268269
3545.1479516600	0.7447870970
3547.0767590331	0.7480714321
3549.0055664061	0.7530066967
3550.9343737792	0.7512779832
3552.8631811522	0.7576251030
3554.7919885252	0.7584415674
3556.7207958983	0.7611024976
3558.6496032713	0.7689507008
3560.5784106444	0.7666674256
3562.5072180174	0.7748076916
3564.4360253905	0.7751472592
3566.3648327635	0.7761080861
3568.2936401366	0.7846841216
3570.2224475096	0.7823033333
3572.1512548827	0.7824047208
3574.0800622557	0.7828941345
3576.0088696288	0.7892458439
3577.9376770018	0.7942775488
3579.8664843749	0.7987748981
3581.7952917479	0.8022614717
3583.7240991210	0.8005095124
3585.6529064940	0.8028790355
3587.5817138670	0.8077391386
3589.5105212401	0.8142259717
3591.4393286131	0.8093447089
3593.3681359862	0.8153128028
3595.2969433592	0.8244709373
3597.2257507323	0.8192410469
3599.1545581053	0.8254411817
3601.0833654784	0.8263831139
3603.0121728514	0.8297660351
3604.9409802245	0.8380843401
3606.8697875975	0.8383609653
3608.7985949706	0.8408887982
3610.7274023436	0.8412016034
3612.6562097167	0.8412001729
3614.5850170897	0.8430598378
3616.5138244627	0.8489825130
3618.4426318358	0.8537625670
3620.3714392088	0.8549976349
3622.3002465819	0.8567017317
3624.2290539549	0.8609972000
3626.1578613280	0.8643316627
3628.0866687010	0.8670039177
3630.0154760741	0.8723410368
3631.9442834471	0.8693854213
3633.8730908202	0.8730208874
3635.8018981932	0.8778743744
3637.7307055663	0.8806147575
3639.6595129393	0.8872499466
3641.5883203124	0.8850512505
3643.5171276854	0.8889425397
3645.4459350584	0.8944783211
3647.3747424315	0.8978527784
3649.3035498045	0.9036583900
3651.2323571776	0.9065506458
3653.1611645506	0.9079387784
3655.0899719237	0.9091076851
3657.0187792967	0.9149681926
3658.9475866698	0.9158518910
3660.8763940428	0.9189032316
3662.8052014159	0.9205604792
3664.7340087889	0.9219493270
3666.6628161620	0.9289544821
3668.5916235350	0.9310181141
3670.5204309081	0.9418251514
3672.4492382811	0.9409530163
3674.3780456541	0.9388176799
3676.3068530272	0.9525014162
3678.2356604002	0.9509261250
3680.1644677733	0.9479445219
3682.0932751463	0.9518120289
3684.0220825194	0.9547014236
3685.9508898924	0.9557429552
3687.8796972655	0.9600318670
3689.8085046385	0.9635050297
3691.7373120116	0.9620451927
3693.6661193846	0.9643002748
3695.5949267577	0.9655642509
3697.5237341307	0.9644231200
3699.4525415038	0.9671118855
3701.3813488768	0.9720740318
3703.3101562499	0.9714447856
3705.2389636229	0.9726756215
3707.1677709959	0.9754000902
3709.0965783690	0.9765191078
3711.0253857420	0.9804761410
3712.9541931151	0.9778491259
3714.8830004881	0.9757154584
3716.8118078612	0.9766317606
3718.7406152342	0.9781434536
3720.6694226073	0.9797496200
3722.5982299803	0.9793381095
3724.5270373534	0.9803647399
3726.4558447264	0.9801780581
3728.3846520995	0.9822646379
3730.3134594725	0.9811679125
3732.2422668456	0.9802216291
3734.1710742186	0.9830647707
3736.0998815916	0.9839007258
3738.0286889647	0.9838157892
3739.9574963377	0.9799529910
3741.8863037108	0.9823655486
3743.8151110838	0.9821093678
3745.7439184569	0.9811001420
3747.6727258299	0.9883702397
3749.6015332030	0.9880649447
3751.5303405760	0.9862087965
3753.4591479491	0.9838675261
3755.3879553221	0.9818563461
3757.3167626952	0.9844954014
3759.2455700682	0.9862937331
3761.1743774413	0.9839299321
3763.1031848143	0.9833233356
3765.0319921873	0.9841626883
3766.9607995604	0.9821148515
3768.8896069334	0.9846606255
3770.8184143065	0.9838220477
3772.7472216795	0.9856168032
3774.6760290526	0.9866433144
3776.6048364256	0.9827550054
3778.5336437987	0.9849720597
3780.4624511717	0.9810047746
3782.3912585448	0.9824212193
3784.3200659178	0.9808833599
3786.2488732909	0.9819285870
3788.1776806639	0.9889888763
3790.1064880370	0.9818737507
3792.0352954100	0.9860756993
3793.9641027830	0.9867333174
3795.8929101561	0.9846364260
3797.8217175291	0.9873125553
3799.7505249022	0.9860414863
3801.6793322752	0.9913458824
3803.6081396483	0.9810051322
3805.5369470213	0.9855394959
3807.4657543944	0.9940593839
3809.3945617674	0.9839640260
3811.3233691405	0.9840924144
3813.2521765135	0.9833970666
3815.1809838866	0.9884729981
3817.1097912596	0.9867002368
3819.0385986327	0.9841409326
3820.9674060057	0.9893396497
3822.8962133787	0.9818691015
3824.8250207518	0.9830229282
3826.7538281248	0.9857853651
3828.6826354979	0.9869601727
3830.6114428709	0.9869169593
3832.5402502440	0.9844409823
3834.4690576170	0.9887617826
3836.3978649901	0.9886969924
3838.3266723631	0.9897130132
3840.2554797362	0.9900588393
3842.1842871092	0.9877526164
3844.1130944823	0.9869991541
3846.0419018553	0.9834980965
3847.9707092284	0.9850912094
3849.8995166014	0.9873691797
3851.8283239745	0.9884397984
3853.7571313475	0.9914912581
3855.6859387205	0.9865031242
3857.6147460936	0.9858197570
3859.5435534666	0.9860545397
3861.4723608397	0.9837821722
3863.4011682127	0.9913596511
3865.3299755858	0.9916885495
3867.2587829588	0.9817648530
3869.1875903319	0.9864031076
3871.1163977049	0.9921421409
3873.0452050780	0.9869958162
3874.9740124510	0.9834697843
3876.9028198241	0.9843154550
3878.8316271971	0.9868168831
3880.7604345702	0.9847229123
3882.6892419432	0.9844063520
3884.6180493162	0.9887611866
3886.5468566893	0.9872509837
3888.4756640623	0.9830898046
3890.4044714354	0.9849201441
3892.3332788084	0.9873347282
3894.2620861815	0.9856633544
3896.1908935545	0.9855732918
3898.1197009276	0.9904391170
3900.0485083006	0.9921807051
3901.9773156737	0.9884816408
3903.9061230467	0.9896827936
3905.8349304198	0.9877005816
3907.7637377928	0.9840588570
3909.6925451659	0.9854843616
3911.6213525389	0.9846971035
3913.5501599119	0.9854750037
3915.4789672850	0.9870302677
3917.4077746580	0.9871513247
3919.3365820311	0.9857376814
3921.2653894041	0.9833453298
3923.1941967772	0.9858274460
3925.1230041502	0.9864740372
3927.0518115233	0.9835737348
3928.9806188963	0.9838461876
3930.9094262694	0.9872328043
3932.8382336424	0.9870927334
3934.7670410155	0.9829971790
3936.6958483885	0.9840524793
3938.6246557616	0.9850759506
3940.5534631346	0.9850984216
3942.4822705076	0.9884914160
3944.4110778807	0.9863017201
3946.3398852537	0.9839230776
3948.2686926268	0.9851672649
3950.1974999998	0.9820373058
3952.1263073729	0.9847816229
3954.0551147459	0.9898434877
3955.9839221190	0.9874400496
3957.9127294920	0.9877293110
3959.8415368651	0.9852582216
3961.7703442381	0.9796948433
3963.6991516112	0.9822517037
3965.6279589842	0.9861027598
3967.5567663573	0.9835913777
3969.4855737303	0.9846122265
3971.4143811034	0.9893839359
3973.3431884764	0.9861490130
3975.2719958494	0.9853776097
3977.2008032225	0.9873385429
3979.1296105955	0.9864014387
3981.0584179686	0.9845750332
3982.9872253416	0.9821776748
3984.9160327147	0.9864072204
3986.8448400877	0.9849550128
3988.7736474608	0.9815256000
3990.7024548338	0.9846836925
3992.6312622069	0.9823348522
3994.5600695799	0.9806705117
3996.4888769530	0.9846990705
3998.4176843260	0.9864907861
4000.3464916991	0.9822562337
4002.2752990721	0.9814332724
4004.2041064451	0.9818033576
4006.1329138182	0.9797664881
4008.0617211912	0.9801195264
4009.9905285643	0.9808791876
4011.9193359373	0.9827913046
4013.8481433104	0.9828287363
4015.7769506834	0.9843201637
4017.7057580565	0.9813691378
4019.6345654295	0.9835330248
4021.5633728026	0.9917117953
4023.4921801756	0.9862201810
4025.4209875487	0.9839754701
4027.3497949217	0.9808121324
4029.2786022948	0.9815614820
4031.2074096678	0.9856590629
4033.1362170408	0.9817617536
4035.0650244139	0.9842870831
4036.9938317869	0.9833548069
4038.9226391600	0.9887451530
4040.8514465330	0.9875178337
4042.7802539061	0.9806417823
4044.7090612791	0.9887607694
4046.6378686522	0.9851164222
4048.5666760252	0.9795240164
4050.4954833983	0.9809722900
4052.4242907713	0.9867919683
4054.3530981444	0.9857760668
4056.2819055174	0.9808512330
4058.2107128905	0.9885539412
4060.1395202635	0.9848757386
4062.0683276365	0.9848393202
4063.9971350096	0.9904242754
4065.9259423826	0.9857783914
4067.8547497557	0.9852986932
4069.7835571287	0.9848237038
4071.7123645018	0.9830735922
4073.6411718748	0.9825989604
4075.5699792479	0.9834256172
4077.4987866209	0.9788825512
4079.4275939940	0.9805650711
4081.3564013670	0.9900187254
4083.2852087401	0.9866913557
4085.2140161131	0.9829332829
4087.1428234862	0.9800440669
4089.0716308592	0.9824393392
4091.0004382323	0.9917142391
4092.9292456053	0.9877908826
4094.8580529783	0.9830752611
4096.7868603514	0.9822257161
4098.7156677244	0.9798483253
4100.6444750975	0.9820069075
4102.5732824705	0.9827104211
4104.5020898436	0.9850125313
4106.4308972166	0.9886097908
4108.3597045897	0.9858670235
4110.2885119627	0.9837083220
4112.2173193358	0.9853745699
4114.1461267088	0.9864745736
4116.0749340819	0.9801321030
4118.0037414549	0.9781907201
4119.9325488280	0.9852824807
4121.8613562010	0.9842422605
4123.7901635740	0.9797739387
4125.7189709471	0.9808673859
4127.6477783201	0.9844009876
4129.5765856932	0.9814298153
4131.5053930662	0.9807910323
4133.4342004393	0.9811113477
4135.3630078123	0.9805427790
4137.2918151854	0.9858953357
4139.2206225584	0.9778288007
4141.1494299315	0.9813921452
4143.0782373045	0.9889889956
4145.0070446776	0.9855956435
4146.9358520506	0.9872625470
4148.8646594237	0.9777102470
4150.7934667967	0.9814367890
4152.7222741697	0.9819078445
4154.6510815428	0.9788394570
4156.5798889158	0.9835624099
4158.5086962889	0.9779168367
4160.4375036619	0.9851242304
4162.3663110350	0.9809687734
4164.2951184080	0.9807408452
4166.2239257811	0.9882133007
4168.1527331541	0.9812842011
4170.0815405272	0.9841508269
4172.0103479002	0.9867544770
4173.9391552733	0.9859364033
4175.8679626463	0.9803788662
4177.7967700194	0.9792966843
4179.7255773924	0.9818395376
4181.6543847654	0.9850577116
4183.5831921385	0.9834461212
4185.5119995115	0.9804956913
4187.4408068846	0.9854398370
4189.3696142576	0.9778137803
4191.2984216307	0.9873646498
4193.2272290037	0.9879137278
4195.1560363768	0.9804976583
4197.0848437498	0.9861208797
4199.0136511229	0.9759956002
4200.9424584959	0.9796538949
4202.8712658690	0.9795587063
4204.8000732420	0.9871450067
4206.7288806151	0.9903201461
4208.6576879881	0.9804041386
4210.5864953611	0.9836832285
4212.5153027342	0.9738505483
4214.4441101072	0.9794188142
4216.3729174803	0.9799814224
4218.3017248533	0.9784112573
4220.2305322264	0.9834245443
4222.1593395994	0.9792467952
4224.0881469725	0.9828786850
4226.0169543455	0.9800317883
4227.9457617186	0.9845132232
4229.8745690916	0.9781352282
4231.8033764647	0.9787732959
4233.7321838377	0.9857737422
4235.6609912108	0.9815484285
4237.5897985838	0.9866374731
4239.5186059569	0.9780731201
4241.4474133299	0.9791838527
4243.3762207029	0.9795355201
4245.3050280760	0.9839220047
4247.2338354490	0.9887087345
4249.1626428221	0.9766860604
4251.0914501951	0.9843450189
4253.0202575682	0.9877985120
4254.9490649412	0.9865422249
4256.8778723143	0.9861510992
4258.8066796873	0.9837436676
4260.7354870604	0.9787773490
4262.6642944334	0.9810101390
4264.5931018065	0.9909482598
4266.5219091795	0.9877784252
4268.4507165526	0.9867553115
4270.3795239256	0.9767789841
4272.3083312986	0.9813597202
4274.2371386717	0.9915559292
4276.1659460447	0.9862266779
4278.0947534178	0.9824830890
4280.0235607908	0.9778005481
4281.9523681639	0.9852305055
4283.8811755369	0.9778952003
4285.8099829100	0.9796796441
4287.7387902830	0.9902266264
4289.6675976561	0.9783789515
4291.5964050291	0.9771218896
4293.5252124022	0.9802010655
4295.4540197752	0.9797033072
4297.3828271483	0.9786399007
4299.3116345213	0.9780068994
4301.2404418943	0.9742685556
4303.1692492674	0.9816188216
4305.0980566404	0.9865497351
4307.0268640135	0.9773970842
4308.9556713865	0.9799312353
4310.8844787596	0.9836104512
4312.8132861326	0.9883934855
4314.7420935057	0.9784978628
4316.6709008787	0.9771620631
4318.5997082518	0.9868999124
4320.5285156248	0.9831779003
4322.4573229979	0.9842960835
4324.3861303709	0.9763054252
4326.3149377440	0.9781927466
4328.2437451170	0.9806562066
4330.1725524900	0.9802954197
4332.1013598631	0.9778371453
4334.0301672361	0.9696915150
4335.9589746092	0.9800887704
4337.8877819822	0.9814910293
4339.8165893553	0.9815019965
4341.7453967283	0.9755064845
4343.6742041014	0.9789099097
4345.6030114744	0.9903177023
4347.5318188475	0.9763728976
4349.4606262205	0.9805971384
4351.3894335936	0.9869918227
4353.3182409666	0.9803704023
4355.2470483397	0.9801666737
4357.1758557127	0.9829194546
4359.1046630858	0.9811366796
4361.0334704588	0.9834226966
4362.9622778318	0.9838393927
4364.8910852049	0.9744058251
4366.8198925779	0.9854943156
4368.7486999510	0.9836471677
4370.6775073240	0.9782142043
4372.6063146971	0.9806953669
4374.5351220701	0.9719954729
4376.4639294432	0.9834133983
4378.3927368162	0.9865368605
4380.3215441893	0.9817218184
4382.2503515623	0.9780180454
4384.1791589354	0.9771196842
4386.1079663084	0.9852296710
4388.0367736815	0.9777965546
4389.9655810545	0.9776833057
4391.8943884275	0.9831850529
4393.8231958006	0.9803726673
4395.7520031736	0.9754518867
4397.6808105467	0.9791489244
4399.6096179197	0.9826957583
4401.5384252928	0.9744197726
4403.4672326658	0.9810973406
4405.3960400389	0.9800392985
4407.3248474119	0.9769215584
4409.2536547850	0.9860510826
4411.1824621580	0.9757086039
4413.1112695311	0.9749333262
4415.0400769041	0.9869024158
4416.9688842772	0.9856492281
4418.8976916502	0.9814965129
4420.8264990232	0.9797876477
4422.7553063963	0.9803668857
4424.6841137693	0.9786114097
4426.6129211424	0.9783098698
4428.5417285154	0.9840399623
4430.4705358885	0.9845753908
4432.3993432615	0.9789288640
4434.3281506346	0.9796838760
4436.2569580076	0.9826288819
4438.1857653807	0.9808138609
4440.1145727537	0.9787818789
4442.0433801268	0.9801517725
4443.9721874998	0.9871529341
4445.9009948729	0.9785906672
4447.8298022459	0.9694626331
4449.7586096189	0.9772111177
4451.6874169920	0.9742119908
4453.6162243650	0.9789478779
4455.5450317381	0.9872773290
4457.4738391111	0.9866577387
4459.4026464842	0.9872819185
4461.3314538572	0.9828480482
4463.2602612303	0.9835675955
4465.1890686033	0.9776442051
4467.1178759764	0.9813705087
4469.0466833494	0.9840282798
4470.9754907225	0.9734530449
4472.9042980955	0.9824758768
4474.8331054686	0.9793896079
4476.7619128416	0.9764161706
4478.6907202147	0.9815116525
4480.6195275877	0.9782694578
4482.5483349607	0.9810604453
4484.4771423338	0.9776914716
4486.4059497068	0.9821263552
4488.3347570799	0.9767291546
4490.2635644529	0.9676036835
4492.1923718260	0.9782861471
4494.1211791990	0.9766068459
4496.0499865721	0.9782381654
4497.9787939451	0.9820296168
4499.9076013182	0.9824942350
4501.8364086912	0.9866791368
4503.7652160643	0.9763915539
4505.6940234373	0.9774066806
4507.6228308104	0.9840441942
4509.5516381834	0.9803121090
4511.4804455564	0.9831164479
4513.4092529295	0.9801072478
4515.3380603025	0.9735821486
4517.2668676756	0.9727232456
4519.1956750486	0.9813490510
4521.1244824217	0.9831318259
4523.0532897947	0.9725179672
4524.9820971678	0.9799914956
4526.9109045408	0.9820702672
4528.8397119139	0.9736632705
4530.7685192869	0.9789125323
4532.6973266600	0.9816845655
4534.6261340330	0.9768595099
4536.5549414061	0.9745637774
4538.4837487791	0.9744444489
4540.4125561521	0.9727902412
4542.3413635252	0.9817566276
4544.2701708982	0.9856683612
4546.1989782713	0.9770237803
4548.1277856443	0.9734200835
4550.0565930174	0.9698925614
4551.9854003904	0.9774571657
4553.9142077635	0.9841350317
4555.8430151365	0.9772698879
4557.7718225096	0.9769245982
4559.7006298826	0.9835364819
4561.6294372557	0.9842471480
4563.5582446287	0.9800200462
4565.4870520018	0.9753859639
4567.4158593748	0.9701521397
4569.3446667478	0.9689650536
4571.2734741209	0.9710594416
4573.2022814939	0.9834196568
4575.1310888670	0.9865187407
4577.0598962400	0.9803293943
4578.9887036131	0.9819582701
4580.9175109861	0.9766250253
4582.8463183592	0.9767158628
4584.7751257322	0.9745336771
4586.7039331053	0.9800512791
4588.6327404783	0.9824175239
4590.5615478514	0.9731825590
4592.4903552244	0.9843884706
4594.4191625975	0.9777983427
4596.3479699705	0.9760888815
4598.2767773435	0.9844502807
4600.2055847166	0.9700871110
4602.1343920896	0.9672120810
4604.0631994627	0.9706639051
4605.9920068357	0.9763283134
4607.9208142088	0.9787527323
4609.8496215818	0.9712069631
4611.7784289549	0.9685575962
4613.7072363279	0.9713523388
4615.6360437010	0.9775512218
4617.5648510740	0.9808526635
4619.4936584471	0.9775714874
4621.4224658201	0.9746942520
4623.3512731932	0.9782291055
4625.2800805662	0.9835201502
4627.2088879393	0.9797537923
4629.1376953123	0.9699263573
4631.0665026853	0.9780021310
4632.9953100584	0.9816789031
4634.9241174314	0.9741441607
4636.8529248045	0.9810263515
4638.7817321775	0.9784491062
4640.7105395506	0.9725837708
4642.6393469236	0.9716958404
4644.5681542967	0.9752775431
4646.4969616697	0.9851852059
4648.4257690428	0.9890640378
4650.3545764158	0.9797073603
4652.2833837889	0.9679438472
4654.2121911619	0.9744672775
4656.1409985350	0.9753559232
4658.0698059080	0.9763597250
4659.9986132810	0.9748821259
4661.9274206541	0.9765902758
4663.8562280271	0.9839373827
4665.7850354002	0.9743810296
4667.7138427732	0.9868558049
4669.6426501463	0.9803283215
4671.5714575193	0.9693448544
4673.5002648924	0.9738993645
4675.4290722654	0.9649195671
4677.3578796385	0.9798478484
4679.2866870115	0.9749585986
4681.2154943846	0.9751825333
4683.1443017576	0.9872712493
4685.0731091307	0.9762746692
4687.0019165037	0.9727644324
4688.9307238767	0.9697918296
4690.8595312498	0.9777537584
4692.7883386228	0.9768738151
4694.7171459959	0.9802860022
4696.6459533689	0.9764212966
4698.5747607420	0.9584838152
4700.5035681150	0.9696356058
4702.4323754881	0.9719240665
4704.3611828611	0.9742062092
4706.2899902342	0.9785371423
4708.2187976072	0.9769651294
4710.1476049803	0.9747652411
4712.0764123533	0.9730876088
4714.0052197264	0.9799343348
4715.9340270994	0.9705917239
4717.8628344724	0.9768804908
4719.7916418455	0.9796803594
4721.7204492185	0.9708619714
4723.6492565916	0.9862449765
4725.5780639646	0.9820861816
4727.5068713377	0.9704766273
4729.4356787107	0.9772822857
4731.3644860838	0.9723411202
4733.2932934568	0.9685788155
4735.2221008299	0.9810633659
4737.1509082029	0.9700933099
4739.0797155760	0.9750955105
4741.0085229490	0.9902011752
4742.9373303221	0.9667515755
4744.8661376951	0.9717936516
4746.7949450682	0.9743574262
4748.7237524412	0.9685629010
4750.6525598142	0.9812179208
4752.5813671873	0.9786465168
4754.5101745603	0.9734373093
4756.4389819334	0.9623240232
4758.3677893064	0.9750252962
4760.2965966795	0.9734936357
4762.2254040525	0.9595617056
4764.1542114256	0.9850991964
4766.0830187986	0.9864923954
4768.0118261717	0.9766921401
4769.9406335447	0.9792150855
4771.8694409178	0.9818556309
4773.7982482908	0.9758782983
4775.7270556639	0.9686022997
4777.6558630369	0.9745391607
4779.5846704099	0.9735684991
4781.5134777830	0.9768695831
4783.4422851560	0.9732542634
4785.3710925291	0.9714223742
4787.2998999021	0.9699585438
4789.2287072752	0.9646387100
4791.1575146482	0.9742921591
4793.0863220213	0.9695823789
4795.0151293943	0.9696644545
4796.9439367674	0.9770267010
4798.8727441404	0.9754303694
4800.8015515135	0.9800522923
4802.7303588865	0.9791339040
4804.6591662596	0.9694461226
4806.5879736326	0.9737481475
4808.5167810056	0.9781980515
4810.4455883787	0.9619045258
4812.3743957517	0.9718655944
4814.3032031248	0.9833738208
4816.2320104978	0.9701399207
4818.1608178709	0.9748114944
4820.0896252439	0.9821964502
4822.0184326170	0.9749391675
4823.9472399900	0.9566413164
4825.8760473631	0.9600252509
4827.8048547361	0.9847269654
4829.7336621092	0.9842377305
4831.6624694822	0.9714708924
4833.5912768553	0.9713671207
4835.5200842283	0.9677643180
4837.4488916013	0.9644771218
4839.3776989744	0.9741771817
4841.3065063474	0.9730298519
4843.2353137205	0.9721984267
4845.1641210935	0.9807715416
4847.0929284666	0.9758988619
4849.0217358396	0.9710154533
4850.9505432127	0.9796141386
4852.8793505857	0.9802794456
4854.8081579588	0.9714225531
4856.7369653318	0.9671138525
4858.6657727049	0.9690863490
4860.5945800779	0.9872204661
4862.5233874510	0.9838607311
4864.4521948240	0.9670121670
4866.3810021971	0.9617983103
4868.3098095701	0.9670078158
4870.2386169431	0.9850723743
4872.1674243162	0.9694705009
4874.0962316892	0.9653958082
4876.0250390623	0.9650923014
4877.9538464353	0.9703395963
4879.8826538084	0.9915666580
4881.8114611814	0.9570350647
4883.7402685545	0.9627434611
4885.6690759275	0.9770922661
4887.5978833006	0.9589834809
4889.5266906736	0.9676232934
4891.4554980467	0.9597388506
4893.3843054197	0.9698892236
4895.3131127928	0.9792915583
4897.2419201658	0.9667099714
4899.1707275388	0.9724922180
4901.0995349119	0.9806081653
4903.0283422849	0.9701286554
4904.9571496580	0.9604011774
4906.8859570310	0.9730823040
4908.8147644041	0.9747288823
4910.7435717771	0.9630748034
4912.6723791502	0.9576232433
4914.6011865232	0.9558470845
4916.5299938963	0.9521096945
4918.4588012693	0.9644966722
4920.3876086424	0.9649243951
4922.3164160154	0.9553362727
4924.2452233885	0.9750937223
4926.1740307615	0.9601305723
4928.1028381345	0.9529272914
4930.0316455076	0.9723004699
4931.9604528806	0.9663522840
4933.8892602537	0.9738607407
4935.8180676267	0.9738931656
4937.7468749998	0.9594634771
4939.6756823728	0.9642242789
4941.6044897459	0.9726805687
4943.5332971189	0.9698699713
4945.4621044920	0.9770758152
4947.3909118650	0.9673120975
4949.3197192381	0.9659432769
4951.2485266111	0.9799764752
4953.1773339842	0.9566935897
4955.1061413572	0.9714419842
4957.0349487302	0.9785740972
4958.9637561033	0.9630903602
4960.8925634763	0.9745740294
4962.8213708494	0.9683554173
4964.7501782224	0.9716862440
4966.6789855955	0.9644525647
4968.6077929685	0.9709855914
4970.5366003416	0.9822937250
4972.4654077146	0.9695382714
4974.3942150877	0.9720563889
4976.3230224607	0.9662386775
4978.2518298338	0.9690920115
4980.1806372068	0.9702855945
4982.1094445799	0.9748110771
4984.0382519529	0.9717803597
4985.9670593259	0.9604802132
4987.8958666990	0.9799610972
4989.8246740720	0.9793780446
4991.7534814451	0.9755591154
4993.6822888181	0.9657070041
4995.6110961912	0.9627434611
4997.5399035642	0.9785414934
4999.4687109373	0.9619786143
5001.3975183103	0.9724625945
5003.3263256834	0.9759083986
5005.2551330564	0.9606224298
5007.1839404295	0.9765463471
5009.1127478025	0.9621318579
5011.0415551756	0.9578021765
5012.9703625486	0.9727205038
5014.8991699217	0.9647222757
5016.8279772947	0.9636960626
5018.7567846677	0.9593710899
5020.6855920408	0.9571529031
5022.6143994138	0.9619353414
5024.5432067869	0.9580813646
5026.4720141599	0.9617027044
5028.4008215330	0.9840041995
5030.3296289060	0.9830895066
5032.2584362791	0.9674872160
5034.1872436521	0.9797459245
5036.1160510252	0.9732525349
5038.0448583982	0.9668154716
5039.9736657713	0.9730114937
5041.9024731443	0.9668750763
5043.8312805174	0.9685741663
5045.7600878904	0.9609152079
5047.6888952634	0.9616216421
5049.6177026365	0.9696587324
5051.5465100095	0.9703631401
5053.4753173826	0.9690435529
5055.4041247556	0.9642724991
5057.3329321287	0.9553849697
5059.2617395017	0.9505416155
5061.1905468748	0.9743415713
5063.1193542478	0.9707911015
5065.0481616209	0.9627858996
5066.9769689939	0.9729313254
5068.9057763670	0.9564159513
5070.8345837400	0.9678613544
5072.7633911131	0.9751193523
5074.6921984861	0.9556618333
5076.6210058591	0.9669749141
5078.5498132322	0.9756200910
5080.4786206052	0.9590883851
5082.4074279783	0.9536072612
5084.3362353513	0.9562910795
5086.2650427244	0.9582560658
5088.1938500974	0.9654666781
5090.1226574705	0.9596773982
5092.0514648435	0.9616094828
5093.9802722166	0.9653987288
5095.9090795896	0.9554741979
5097.8378869627	0.9667009115
5099.7666943357	0.9777542949
5101.6955017088	0.9506939650
5103.6243090818	0.9390744567
5105.5531164548	0.9728474617
5107.4819238279	0.9684168696
5109.4107312009	0.9447921515
5111.3395385740	0.9518974423
5113.2683459470	0.9577349424
5115.1971533201	0.9633083344
5117.1259606931	0.9629474282
5119.0547680662	0.9636728764
5120.9835754392	0.9641405344
5122.9123828123	0.9637283683
5124.8411901853	0.9634755254
5126.7699975584	0.9573876858
5128.6988049314	0.9488827586
5130.6276123045	0.9347794056
5132.5564196775	0.9412574172
5134.4852270506	0.9414832592
5136.4140344236	0.9474627376
5138.3428417966	0.9690265656
5140.2716491697	0.9569017887
5142.2004565427	0.9559339285
5144.1292639158	0.9543039203
5146.0580712888	0.9546721578
5147.9868786619	0.9666869044
5149.9156860349	0.9505342841
5151.8444934080	0.9646915793
5153.7733007810	0.9591695666
5155.7021081541	0.9376648068
5157.6309155271	0.9665054679
5159.5597229002	0.9580433965
5161.4885302732	0.9472801685
5163.4173376463	0.9638740420
5165.3461450193	0.9703025222
5167.2749523923	0.9530078769
5169.2037597654	0.9292450547
5171.1325671384	0.9442669153
5173.0613745115	0.9431967139
5174.9901818845	0.9565963745
5176.9189892576	0.9698033333
5178.8477966306	0.9661319256
5180.7766040037	0.9744913578
5182.7054113767	0.9470449090
5184.6342187498	0.9606196880
5186.5630261228	0.9515762329
5188.4918334959	0.9407765865
5190.4206408689	0.9755812287
5192.3494482420	0.9629612565
5194.2782556150	0.9626598358
5196.2070629880	0.9579185247
5198.1358703611	0.9574049711
5200.0646777341	0.9539093375
5201.9934851072	0.9578493834
5203.9222924802	0.9547638297
5205.8510998533	0.9320484400
5207.7799072263	0.9663714767
5209.7087145994	0.9542126060
5211.6375219724	0.9667366743
5213.5663293455	0.9744738340
5215.4951367185	0.9464679360
5217.4239440916	0.9802392125
5219.3527514646	0.9586514831
5221.2815588377	0.9620627761
5223.2103662107	0.9681900144
5225.1391735837	0.9514455795
5227.0679809568	0.9816395044
5228.9967883298	0.9677200913
5230.9255957029	0.9441761971
5232.8544030759	0.9398866296
5234.7832104490	0.9580430388
5236.7120178220	0.9783385396
5238.6408251951	0.9825740457
5240.5696325681	0.9827700257
5242.4984399412	0.9704875946
5244.4272473142	0.9452984929
5246.3560546873	0.9403766990
5248.2848620603	0.9646021128
5250.2136694334	0.9594089985
5252.1424768064	0.9640738368
5254.0712841795	0.9624488950
5256.0000915525	0.9402059913
5257.9288989255	0.9548543096
5259.8577062986	0.9760908484
5261.7865136716	0.9764320254
5263.7153210447	0.9621899724
5265.6441284177	0.9511164427
5267.5729357908	0.9579902291
5269.5017431638	0.9718643427
5271.4305505369	0.9570266604
5273.3593579099	0.9667537808
5275.2881652830	0.9700942039
5277.2169726560	0.9566805959
5279.1457800291	0.9780130386
5281.0745874021	0.9494552016
5283.0033947752	0.9482127428
5284.9322021482	0.9382995367
5286.8610095212	0.9340885282
5288.7898168943	0.9737486839
5290.7186242673	0.9469087124
5292.6474316404	0.9726716876
5294.5762390134	0.9770235419
5296.5050463865	0.9549408555
5298.4338537595	0.9583763480
5300.3626611326	0.9478978515
5302.2914685056	0.9722848535
5304.2202758787	0.9514327645
5306.1490832517	0.9507737756
5308.0778906248	0.9585811496
5310.0066979978	0.9409619570
5311.9355053709	0.9510265589
5313.8643127439	0.9619951844
5315.7931201169	0.9739176035
5317.7219274900	0.9446910024
5319.6507348630	0.9459735155
5321.5795422361	0.9683644772
5323.5083496091	0.9419136047
5325.4371569822	0.9480720162
5327.3659643552	0.9811871648
5329.2947717283	0.9622805119
5331.2235791013	0.9592236876
5333.1523864744	0.9714783430
5335.0811938474	0.9287368059
5337.0100012205	0.9606245756
5338.9388085935	0.9877420068
5340.8676159666	0.9608173966
5342.7964233396	0.9650174379
5344.7252307126	0.9449278712
5346.6540380857	0.9599686265
5348.5828454587	0.9598575234
5350.5116528318	0.9665229321
5352.4404602048	0.9747187495
5354.3692675779	0.9473723769
5356.2980749509	0.9526145458
5358.2268823240	0.9355713129
5360.1556896970	0.9637702107
5362.0844970701	0.9810550213
5364.0133044431	0.9548674226
5365.9421118162	0.9640709162
5367.8709191892	0.9574413896
5369.7997265623	0.9622538686
5371.7285339353	0.9467242360
5373.6573413083	0.9343766570
5375.5861486814	0.9672210217
5377.5149560544	0.9770464301
5379.4437634275	0.9455689192
5381.3725708005	0.9257921576
5383.3013781736	0.9392524958
5385.2301855466	0.9617825150
5387.1589929197	0.9941797256
5389.0878002927	0.9666298628
5391.0166076658	0.9381345510
5392.9454150388	0.9705126286
5394.8742224119	0.9537028074
5396.8030297849	0.9433307052
5398.7318371580	0.9531918168
5400.6606445310	0.9340854287
5402.5894519041	0.9526977539
5404.5182592771	0.9607982039
5406.4470666501	0.9392868876
5408.3758740232	0.9531538486
5410.3046813962	0.9594060183
5412.2334887693	0.9523457885
5414.1622961423	0.9608872533
5416.0911035154	0.9637010694
5418.0199108884	0.9278642535
5419.9487182615	0.9199495316
5421.8775256345	0.9709542990
5423.8063330076	0.9424576163
5425.7351403806	0.9329766035
5427.6639477537	0.9706446528
5429.5927551267	0.9645026922
5431.5215624998	0.9855857491
5433.4503698728	0.9490234852
5435.3791772458	0.9287501574
5437.3079846189	0.9647675157
5439.2367919919	0.9533956647
5441.1655993650	0.9573507309
5443.0944067380	0.9481582642
5445.0232141111	0.9581877589
5446.9520214841	0.9729742408
5448.8808288572	0.9559844136
5450.8096362302	0.9521947503
5452.7384436033	0.9335456491
5454.6672509763	0.9414045215
5456.5960583494	0.9602721930
5458.5248657224	0.9600743055
5460.4536730955	0.9476509690
5462.3824804685	0.9365532994
5464.3112878415	0.9540160298
5466.2400952146	0.9526240230
5468.1689025876	0.9472240210
5470.0977099607	0.9565618634
5472.0265173337	0.9524968863
5473.9553247068	0.9587204456
5475.8841320798	0.9526423216
5477.8129394529	0.9260321259
5479.7417468259	0.9324840903
5481.6705541990	0.9462311268
5483.5993615720	0.9496366978
5485.5281689451	0.9542031288
5487.4569763181	0.9673317671
5489.3857836912	0.9618396759
5491.3145910642	0.9291715026
5493.2433984372	0.9544276595
5495.1722058103	0.9676271677
5497.1010131833	0.9509263039
5499.0298205564	0.9600930810
5500.9586279294	0.9574763775
5502.8874353025	0.9727447033
5504.8162426755	0.9639074206
5506.7450500486	0.9612526298
5508.6738574216	0.9694905281
5510.6026647947	0.9528258443
5512.5314721677	0.9347887039
5514.4602795408	0.9287080765
5516.3890869138	0.9896070957
5518.3178942869	0.9938987494
5520.2467016599	0.9653326869
5522.1755090330	0.9651628137
5524.1043164060	0.9290325046
5526.0331237790	0.9408575296
5527.9619311521	0.9384775758
5529.8907385251	0.9228819609
5531.8195458982	0.9503227472
5533.7483532712	0.9410441518
5535.6771606443	0.9382416010
5537.6059680173	0.9539164305
5539.5347753904	0.9355095625
5541.4635827634	0.9367015958
5543.3923901365	0.9579532146
5545.3211975095	0.9584373236
5547.2500048826	0.9414158463
5549.1788122556	0.9227277637
5551.1076196287	0.9353399873
5553.0364270017	0.9477158785
5554.9652343747	0.9612977505
5556.8940417478	0.9417554736
5558.8228491208	0.9372237325
5560.7516564939	0.9794967175
5562.6804638669	0.9530559182
5564.6092712400	0.9567129016
5566.5380786130	0.9319241643
5568.4668859861	0.9259578586
5570.3956933591	0.9845066667
5572.3245007322	0.9337883592
5574.2533081052	0.9407829642
5576.1821154783	0.9444696307
5578.1109228513	0.9401661158
5580.0397302244	0.9733651280
5581.9685375974	0.9503212571
5583.8973449704	0.9715279937
5585.8261523435	0.9616085887
5587.7549597165	0.9510025382
5589.6837670896	0.9792673588
5591.6125744626	0.9489459395
5593.5413818357	0.9125152826
5595.4701892087	0.9448407888
5597.3989965818	0.9409772754
5599.3278039548	0.9201449156
5601.2566113279	0.9699166417
5603.1854187009	0.9153311849
5605.1142260740	0.9298862815
5607.0430334470	0.9888406396
5608.9718408201	0.9375772476
5610.9006481931	0.9459800124
5612.8294555661	0.9663175344
5614.7582629392	0.9906352758
5616.6870703122	0.9568273425
5618.6158776853	0.9435946941
5620.5446850583	0.9656962156
5622.4734924314	0.9425787926
5624.4022998044	0.9477009177
5626.3311071775	0.9122484326
5628.2599145505	0.9409546852
5630.1887219236	0.9700808525
5632.1175292966	0.9431800842
5634.0463366697	0.9398316741
5635.9751440427	0.9109768867
5637.9039514158	0.9509157538
5639.8327587888	0.9577890038
5641.7615661619	0.9473563433
5643.6903735349	0.9782263637
5645.6191809079	0.9264838099
5647.5479882810	0.9341008067
5649.4767956540	0.9739001989
5651.4056030271	0.9363393784
5653.3344104001	0.9346006513
5655.2632177732	0.9167295098
5657.1920251462	0.9200761914
5659.1208325193	0.9750902057
5661.0496398923	0.9478985667
5662.9784472654	0.9672760963
5664.9072546384	0.9875705242
5666.8360620115	0.9491861463
5668.7648693845	0.9631551504
5670.6936767576	0.9368637204
5672.6224841306	0.9009107351
5674.5512915036	0.9102798700
5676.4800988767	0.9641947746
5678.4089062497	0.9577111006
5680.3377136228	0.9199072719
5682.2665209958	0.9548386931
5684.1953283689	0.9566047192
5686.1241357419	0.9944376349
5688.0529431150	0.9669033885
5689.9817504880	0.8902770877
5691.9105578611	0.9383813143
5693.8393652341	0.9252094626
5695.7681726072	0.9174713492
5697.6969799802	0.9559069276
5699.6257873533	0.9231896400
5701.5545947263	0.9642001390
5703.4834020993	0.9758948088
5705.4122094724	0.9430520535
5707.3410168454	0.9590628743
5709.2698242185	0.8938179016
5711.1986315915	0.9194799066
5713.1274389646	0.9486330152
5715.0562463376	0.9188155532
5716.9850537107	0.9920594692
5718.9138610837	0.9605274796
5720.8426684568	0.9459252954
5722.7714758298	0.9473113418
5724.7002832029	0.9164580703
5726.6290905759	0.9640291333
5728.5578979490	0.9464108348
5730.4867053220	0.9348896742
5732.4155126950	0.8981944919
5734.3443200681	0.8943874240
5736.2731274411	0.9487581849
5738.2019348142	0.9521308541
5740.1307421872	0.9765489101
5742.0595495603	0.9366294742
5743.9883569333	0.9308193326
5745.9171643064	0.9354206920
5747.8459716794	0.9304357171
5749.7747790525	0.9897857308
5751.7035864255	0.9708278179
5753.6323937986	0.9455345869
5755.5612011716	0.9613710642
5757.4900085447	0.9890556335
5759.4188159177	0.9577639699
5761.3476232907	0.9210785627
5763.2764306638	0.9682855010
5765.2052380368	0.9645517468
5767.1340454099	0.9279226065
5769.0628527829	0.9259871244
5770.9916601560	0.9780908823
5772.9204675290	0.9729921222
5774.8492749021	0.9323650002
5776.7780822751	0.9674039483
5778.7068896482	0.9264245629
5780.6356970212	0.9283928275
5782.5645043943	0.9818682075
5784.4933117673	0.9344534278
5786.4221191404	0.9271405935
5788.3509265134	0.9429959059
5790.2797338865	0.9420297742
5792.2085412595	0.9367650747
5794.1373486325	0.9325045347
5796.0661560056	0.9434029460
5797.9949633786	0.9299073219
5799.9237707517	0.9379506111
5801.8525781247	0.9293417931
5803.7813854978	0.9199570417
5805.7101928708	0.9131364226
5807.6390002439	0.8886919022
5809.5678076169	0.9356925488
5811.4966149900	0.9420745969
5813.4254223630	0.9356259704
5815.3542297361	0.9616816640
5817.2830371091	0.9571832418
5819.2118444822	0.9582995176
5821.1406518552	0.9483188391
5823.0694592282	0.9534681439
5824.9982666013	0.9235901833
5826.9270739743	0.9698542953
5828.8558813474	1.0081214905
5830.7846887204	0.8953204751
5832.7134960935	0.9064859152
5834.6423034665	0.9680188298
5836.5711108396	0.9832761288
5838.4999182126	0.9775086045
5840.4287255857	0.9757367373
5842.3575329587	0.9643275142
5844.2863403318	0.9316115975
5846.2151477048	0.9561911821
5848.1439550779	0.9291090965
5850.0727624509	0.9368289113
5852.0015698239	0.9529478550
5853.9303771970	0.9523162246
5855.8591845700	0.9494448304
5857.7879919431	0.9123110771
5859.7167993161	0.9687139988
5861.6456066892	0.9435471296
5863.5744140622	0.9547871351
5865.5032214353	0.9548918009
5867.4320288083	0.9096422195
5869.3608361814	0.9449747205
5871.2896435544	0.8867560625
5873.2184509275	0.9216421247
5875.1472583005	0.9156767726
5877.0760656736	0.9259371161
5879.0048730466	0.9605137110
5880.9336804196	0.8760207891
5882.8624877927	0.9679158330
5884.7912951657	0.9592951536
5886.7201025388	0.9115418792
5888.6489099118	0.9562075734
5890.5777172849	0.9211179018
5892.5065246579	0.9540847540
5894.4353320310	1.0326055288
5896.3641394040	1.0281940699
5898.2929467771	0.9537826180
5900.2217541501	0.9626743197
5902.1505615232	0.9479287267
5904.0793688962	0.9301461577
5906.0081762693	0.9312775731
5907.9369836423	0.9737237692
5909.8657910154	1.0286755562
5911.7945983884	0.8920283914
5913.7234057614	0.9409472346
5915.6522131345	0.9718960524
5917.5810205075	0.9113531113
5919.5098278806	0.9796672463
5921.4386352536	0.9490293264
5923.3674426267	0.9400136471
5925.2962499997	0.8811127543
5927.2250573728	0.8957183957
5929.1538647458	0.9507977962
5931.0826721189	0.9246791005
5933.0114794919	0.9398445487
5934.9402868650	0.9022806883
5936.8690942380	0.9395450354
5938.7979016111	0.9308073521
5940.7267089841	0.9068520665
5942.6555163571	0.9597147107
5944.5843237302	0.9380250573
5946.5131311032	0.9206598997
5948.4419384763	0.9414563775
5950.3707458493	0.9080826640
5952.2995532224	0.9163327217
5954.2283605954	1.0402932167
5956.1571679685	0.9573654532
5958.0859753415	0.9046072364
5960.0147827146	0.9662557840
5961.9435900876	0.9206492305
5963.8723974607	0.9458046556
5965.8012048337	0.9387580752
5967.7300122068	0.9465079308
5969.6588195798	0.9659229517
5971.5876269528	0.9475160837
5973.5164343259	0.9054689407
5975.4452416989	0.9028798342
5977.3740490720	0.9715327621
5979.3028564450	0.9487096071
5981.2316638181	0.9548748732
5983.1604711911	0.9534180760
5985.0892785642	0.9375821948
5987.0180859372	0.9328526258
5988.9468933103	0.9631398320
5990.8757006833	0.9482596517
5992.8045080564	0.9094179273
5994.7333154294	0.9855538011
5996.6621228025	0.8975464702
5998.5909301755	0.9194197655
6000.5197375485	0.9380375743
