399.2631262207	0.0568155833
401.1919335938	-0.0638417900
403.1207409668	-0.1175114885
405.0495483398	0.0394248366
406.9783557129	0.1843144000
408.9071630859	0.2882894576
410.8359704590	0.1569982469
412.7647778320	0.1973201782
414.6935852051	0.2449695468
416.6223925781	0.0798267499
418.5511999512	-0.0349797271
420.4800073242	0.1694284976
422.4088146973	0.2798296511
424.3376220703	0.1807027012
426.2664294434	0.0450233929
428.1952368164	0.0589772798
430.1240441895	0.2897056937
432.0528515625	0.2931723893
433.9816589355	0.1202739999
435.9104663086	0.1609811634
437.8392736816	0.2021091431
439.7680810547	0.1018544585
441.6968884277	0.2884341478
443.6256958008	0.2594068348
445.5545031738	0.0193560403
447.4833105469	0.1860761046
449.4121179199	0.2218144238
451.3409252930	0.0367515832
453.2697326660	0.2325342298
455.1985400391	0.2265798151
457.1273474121	0.0787769556
459.0561547852	0.1536902934
460.9849621582	0.2331617028
462.9137695313	0.2715634704
464.8425769043	0.3262718320
466.7713842773	0.2055860460
468.7001916504	0.0209356863
470.6289990234	-0.1349903792
472.5578063965	0.0480111763
474.4866137695	0.1325805634
476.4154211426	-0.0290482230
478.3442285156	0.4740782380
480.2730358887	-0.2764115334
482.2018432617	0.0436754152
484.1306506348	1.2808781862
486.0594580078	-0.0555994473
487.9882653809	0.7256894112
489.9170727539	0.7411998510
491.8458801270	0.4625822604
493.7746875000	0.8017743826
495.7034948730	0.9420011044
497.6323022461	1.2388967276
499.5611096191	-0.3429551125
501.4899169922	0.2198051661
503.4187243652	2.0516552925
505.3475317383	0.5240216255
507.2763391113	0.5485313535
509.2051464844	0.0880579948
511.1339538574	0.2273352146
513.0627612305	0.6889935136
514.9915686035	0.5121753812
516.9203759766	-0.5045423508
518.8491833496	0.7300326228
520.7779907227	1.6467785835
522.7067980957	0.4783877730
524.6356054688	0.0950259343
526.5644128418	0.1073644832
528.4932202148	0.8006723523
530.4220275879	0.7317101955
532.3508349609	20.1605930328
534.2796423340	-4.1552639008
536.2084497070	1.7611278296
538.1372570801	1.6076405048
540.0660644531	0.5700279474
541.9948718262	1.1498709917
543.9236791992	0.4066630900
545.8524865723	-0.0568916276
547.7812939453	1.3759871721
549.7101013184	1.5171627998
551.6389086914	0.0710079446
553.5677160645	0.6543555856
555.4965234375	0.7896060348
557.4253308105	-0.0657967329
559.3541381836	0.2830235958
561.2829455566	0.4326845706
563.2117529297	-0.0226231348
565.1405603027	0.1685682088
567.0693676758	0.0131600564
568.9981750488	-0.6708284020
570.9269824219	0.1339706481
572.8557897949	0.8562027812
574.7845971680	0.1072556525
576.7134045410	0.2734687328
578.6422119141	1.3183535337
580.5710192871	0.3109783530
582.4998266602	0.1264366508
584.4286340332	0.1352495849
586.3574414063	0.2964175344
588.2862487793	1.1391232014
590.2150561523	0.4790987670
592.1438635254	0.6111668944
594.0726708984	1.1905490160
596.0014782715	0.9941333532
597.9302856445	0.0249826852
599.8590930176	0.3609402180
601.7879003906	-0.5475729704
603.7167077637	-0.7900202870
605.6455151367	0.2101560235
607.5743225098	-0.5108499527
609.5031298828	2.1404798031
611.4319372559	4.3833789825
613.3607446289	1.0340249538
615.2895520020	1.9220057726
617.2183593750	8.7078390121
619.1471667480	4.6088328362
621.0759741211	3.5869045258
623.0047814941	-0.8531723619
624.9335888672	0.3572592139
626.8623962402	-0.1347037405
628.7912036133	-4.0643773079
630.7200109863	0.3331143260
632.6488183594	0.2743820250
634.5776257324	0.2231128067
636.5064331055	0.2285123169
638.4352404785	0.2321255505
640.3640478516	0.3002160490
642.2928552246	0.3067918420
644.2216625977	0.2851707041
646.1504699707	0.2884832621
648.0792773438	0.3759290278
650.0080847168	0.2769470811
651.9368920898	0.3017568290
653.8656994629	0.2807685137
655.7945068359	0.2151779681
657.7233142090	0.3842618465
659.6521215820	0.3207238913
661.5809289551	0.2325822711
663.5097363281	0.3310347497
665.4385437012	0.3016370237
667.3673510742	0.2353622317
669.2961584473	0.3087802231
671.2249658203	0.3317283094
673.1537731934	0.2714532614
675.0825805664	0.2611214221
677.0113879395	0.2734103799
678.9401953125	0.2688261569
680.8690026855	0.2854019701
682.7978100586	0.3254002929
684.7266174316	0.3049785495
686.6554248047	0.2727731764
688.5842321777	0.2920247316
690.5130395508	0.3120523393
692.4418469238	0.3382872343
694.3706542969	0.3027279079
696.2994616699	0.2907875180
698.2282690430	0.3244971037
700.1570764160	0.3269524574
702.0858837891	0.3241120875
704.0146911621	0.2968732715
705.9434985352	0.3004498184
707.8723059082	0.3196083903
709.8011132813	0.3382160962
711.7299206543	0.3683527410
713.6587280273	0.2687692344
715.5875354004	0.2963545024
717.5163427734	0.3177336752
719.4451501465	0.0893446505
721.3739575195	0.6263904572
723.3027648926	0.9519864321
725.2315722656	0.5671094060
727.1603796387	-0.4800618291
729.0891870117	0.5232121944
731.0179943848	1.4671134949
732.9468017578	0.6611585021
734.8756091309	-1.9093829393
736.8044165039	0.2162455618
738.7332238770	0.4276351929
740.6620312500	169.0168609619
742.5908386230	0.4920781553
744.5196459961	-3.3605399132
746.4484533691	1.2216624022
748.3772607422	1.4393014908
750.3060681152	-4.2556653023
752.2348754883	0.3971998096
754.1636828613	0.7879097462
756.0924902344	1.3985341787
758.0212976074	0.6972802281
759.9501049805	0.5095535517
761.8789123535	-0.3718321621
763.8077197266	0.3118799031
765.7365270996	0.7895230651
767.6653344727	-0.0665460601
769.5941418457	0.7391369343
771.5229492188	1.5280667543
773.4517565918	0.5670292974
775.3805639648	1.7659941912
777.3093713379	1.3138203621
779.2381787109	0.4579514563
781.1669860840	0.3672188520
783.0957934570	1.2880500555
785.0246008301	1.9975504875
786.9534082031	0.3475485146
788.8822155762	0.5370102525
790.8110229492	0.4485416412
792.7398303223	0.2575108409
794.6686376953	0.7359920740
796.5974450684	0.3514471352
798.5262524414	0.4320825636
800.4550598145	0.6656807065
802.3838671875	0.3848685324
804.3126745605	0.3393918574
806.2414819336	0.7027896047
808.1702893066	0.3291193247
810.0990966797	0.2889941037
812.0279040527	0.9056989551
813.9567114258	0.7203053236
815.8855187988	2.1385397911
817.8143261719	1.2059416771
819.7431335449	0.3814981878
821.6719409180	0.3212717474
823.6007482910	0.5020260215
825.5295556641	0.6604858041
827.4583630371	0.8120352626
829.3871704102	0.5043180585
831.3159777832	0.4604603350
833.2447851563	0.4894908369
835.1735925293	0.4723673165
837.1023999023	0.3866056502
839.0312072754	0.4256612659
840.9600146484	0.5911868215
842.8888220215	0.4935027659
844.8176293945	0.4733479619
846.7464367676	0.3106449842
848.6752441406	0.4443250597
850.6040515137	0.5524026155
852.5328588867	0.3050233126
854.4616662598	0.6832340956
856.3904736328	0.6092950106
858.3192810059	0.6564817429
860.2480883789	1.0017445087
862.1768957520	0.3314689994
864.1057031250	0.6391369700
866.0345104980	6.1374659538
867.9633178711	1.3316249847
869.8921252441	0.7317662239
871.8209326172	1.3786170483
873.7497399902	1.0156506300
875.6785473633	0.5027242899
877.6073547363	0.9384965301
879.5361621094	1.0953646898
881.4649694824	3.2666695118
883.3937768555	0.5222789049
885.3225842285	0.1140121445
887.2513916016	1.9017221928
889.1801989746	0.4122471809
891.1090063477	1.0086702108
893.0378137207	1.4407557249
894.9666210938	2.3523070812
896.8954284668	1.2426283360
898.8242358398	0.1368997991
900.7530432129	0.7126291394
902.6818505859	0.8515523076
904.6106579590	1.8057168722
906.5394653320	0.7034501433
908.4682727051	0.8897244334
910.3970800781	0.8926838040
912.3258874512	0.5318809748
914.2546948242	0.6604677439
916.1835021973	0.8322962523
918.1123095703	0.8287698627
920.0411169434	0.4612043500
921.9699243164	0.5450969934
923.8987316895	0.5757054687
925.8275390625	0.4249409437
927.7563464355	0.5392590761
929.6851538086	0.7054929137
931.6139611816	0.5997286439
933.5427685547	0.5004408360
935.4715759277	0.6580383778
937.4003833008	0.5400013328
939.3291906738	0.5007519722
941.2579980469	0.5943798423
943.1868054199	0.4741708636
945.1156127930	0.5521281958
947.0444201660	0.6123248935
948.9732275391	0.4985658228
950.9020349121	0.5313922763
952.8308422852	0.5361155272
954.7596496582	0.4751151502
956.6884570313	0.5400226712
958.6172644043	0.6314005256
960.5460717773	0.5600439906
962.4748791504	0.5298343897
964.4036865234	0.5735846162
966.3324938965	0.5891224146
968.2613012695	0.5455844402
970.1901086426	0.5299661756
972.1189160156	0.5555471778
974.0477233887	0.4734518826
975.9765307617	0.4539558589
977.9053381348	0.5618216991
979.8341455078	0.5390237570
981.7629528809	0.4488493800
983.6917602539	0.4936331213
985.6205676270	0.5055326223
987.5493750000	0.4751013219
989.4781823730	0.4786747396
991.4069897461	0.4784073830
993.3357971191	0.4903881550
995.2646044922	0.4712036550
997.1934118652	0.4728122354
999.1222192383	0.5016583800
1001.0510266113	0.4638631344
1002.9798339844	0.4482310116
1004.9086413574	0.4809767902
1006.8374487305	0.4885338545
1008.7662561035	0.4795781076
1010.6950634766	0.4632730484
1012.6238708496	0.4651438594
1014.5526782227	0.4759460688
1016.4814855957	0.4598762095
1018.4102929688	0.4570544064
1020.3391003418	0.4670264721
1022.2679077148	0.4558457434
1024.1967150879	0.4524486661
1026.1255224609	0.4649305940
1028.0543298340	0.4644408524
1029.9831372070	0.4614530802
1031.9119445801	0.4644732773
1033.8407519531	0.4577900171
1035.7695593262	0.4552178681
1037.6983666992	0.4540447593
1039.6271740723	0.4515025020
1041.5559814453	0.4548075497
1043.4847888184	0.4498170316
1045.4135961914	0.4465982020
1047.3424035645	0.4466620982
1049.2712109375	0.4482415020
1051.2000183105	0.4484256804
1053.1288256836	0.4455404878
1055.0576330566	0.4452920854
1056.9864404297	0.4409730732
1058.9152478027	0.4539530873
1060.8440551758	0.4541850090
1062.7728625488	0.4454870522
1064.7016699219	0.4579001665
1066.6304772949	0.4411626160
1068.5592846680	0.4279575050
1070.4880920410	0.4310662150
1072.4168994141	0.4272935987
1074.3457067871	0.4316475391
1076.2745141602	0.4365633130
1078.2033215332	0.4489734769
1080.1321289062	0.4529460967
1082.0609362793	0.4530203044
1083.9897436523	0.4424580336
1085.9185510254	0.4338554144
1087.8473583984	0.4340938032
1089.7761657715	0.4273644984
1091.7049731445	0.4410217404
1093.6337805176	0.4241878390
1095.5625878906	0.4221970439
1097.4913952637	0.4429751337
1099.4202026367	0.4341289401
1101.3490100098	0.4308313727
1103.2778173828	0.4121983051
1105.2066247559	0.4391655028
1107.1354321289	0.4527049959
1109.0642395019	0.4219496548
1110.9930468750	0.4366475642
1112.9218542480	0.4503224194
1114.8506616211	0.4554644525
1116.7794689941	0.4426075518
1118.7082763672	0.4433589876
1120.6370837402	0.4447771311
1122.5658911133	0.4233370125
1124.4946984863	0.4264229834
1126.4235058594	0.4197485149
1128.3523132324	0.4186231792
1130.2811206055	0.4310202897
1132.2099279785	0.4335897863
1134.1387353516	0.4466319084
1136.0675427246	0.4397793412
1137.9963500977	0.4126308560
1139.9251574707	0.4292886853
1141.8539648437	0.4401390254
1143.7827722168	0.4176220596
1145.7115795898	0.4154101610
1147.6403869629	0.4223398864
1149.5691943359	0.4274813533
1151.4980017090	0.4216777682
1153.4268090820	0.4167038500
1155.3556164551	0.4179888368
1157.2844238281	0.4134130776
1159.2132312012	0.4154128134
1161.1420385742	0.4083833396
1163.0708459473	0.4069419801
1164.9996533203	0.4170608819
1166.9284606934	0.4123839438
1168.8572680664	0.4065190852
1170.7860754394	0.4110157490
1172.7148828125	0.4096495211
1174.6436901855	0.4023204744
1176.5724975586	0.4058469832
1178.5013049316	0.4073360562
1180.4301123047	0.3997158110
1182.3589196777	0.3977559805
1184.2877270508	0.4022541642
1186.2165344238	0.3993744850
1188.1453417969	0.4000156224
1190.0741491699	0.4049690962
1192.0029565430	0.3954432905
1193.9317639160	0.3931250870
1195.8605712891	0.3973484635
1197.7893786621	0.3982308507
1199.7181860351	0.3971478045
1201.6469934082	0.3933425844
1203.5758007812	0.3938502967
1205.5046081543	0.3891923726
1207.4334155273	0.3875661790
1209.3622229004	0.3911381662
1211.2910302734	0.3913672268
1213.2198376465	0.3894406855
1215.1486450195	0.3886573017
1217.0774523926	0.3909286261
1219.0062597656	0.3871357441
1220.9350671387	0.3877046108
1222.8638745117	0.3894346356
1224.7926818848	0.3872168660
1226.7214892578	0.3892639577
1228.6502966308	0.3870999217
1230.5791040039	0.3860630393
1232.5079113769	0.3864061832
1234.4367187500	0.3843193650
1236.3655261230	0.3829900920
1238.2943334961	0.3845125437
1240.2231408691	0.3853651285
1242.1519482422	0.3839093149
1244.0807556152	0.3870929480
1246.0095629883	0.3856466711
1247.9383703613	0.3839877248
1249.8671777344	0.3852544427
1251.7959851074	0.3841212392
1253.7247924805	0.3843053877
1255.6535998535	0.3801530004
1257.5824072266	0.3806465566
1259.5112145996	0.3827157319
1261.4400219726	0.3807416260
1263.3688293457	0.3837265670
1265.2976367187	0.3817171156
1267.2264440918	0.3800869286
1269.1552514648	0.3837144971
1271.0840588379	0.3807598352
1273.0128662109	0.3783516586
1274.9416735840	0.3799379766
1276.8704809570	0.3799899817
1278.7992883301	0.3785624802
1280.7280957031	0.3795149624
1282.6569030762	0.3843103051
1284.5857104492	0.3794628680
1286.5145178223	0.3773368001
1288.4433251953	0.3862102032
1290.3721325683	0.3799464703
1292.3009399414	0.3752411902
1294.2297473144	0.3813302815
1296.1585546875	0.3772166371
1298.0873620605	0.3751967847
1300.0161694336	0.3800025582
1301.9449768066	0.3806704283
1303.8737841797	0.3786563873
1305.8025915527	0.3767333925
1307.7313989258	0.3780322373
1309.6602062988	0.3781965971
1311.5890136719	0.3769964874
1313.5178210449	0.3786368966
1315.4466284180	0.3759890199
1317.3754357910	0.3747126758
1319.3042431640	0.3736617863
1321.2330505371	0.3719560206
1323.1618579101	0.3747049570
1325.0906652832	0.3731381595
1327.0194726562	0.3720676601
1328.9482800293	0.3713019192
1330.8770874023	0.3722453713
1332.8058947754	0.3727902174
1334.7347021484	0.3695866764
1336.6635095215	0.3732085228
1338.5923168945	0.3723207712
1340.5211242676	0.3707782030
1342.4499316406	0.3730067611
1344.3787390137	0.3678938448
1346.3075463867	0.3664726913
1348.2363537597	0.3700368106
1350.1651611328	0.3702459931
1352.0939685058	0.3681082726
1354.0227758789	0.3673670292
1355.9515832519	0.3656083643
1357.8803906250	0.3657625914
1359.8091979980	0.3693214357
1361.7380053711	0.3677504361
1363.6668127441	0.3670313656
1365.5956201172	0.3674437404
1367.5244274902	0.3657694161
1369.4532348633	0.3660486341
1371.3820422363	0.3651131988
1373.3108496094	0.3666105568
1375.2396569824	0.3681299686
1377.1684643555	0.3652075529
1379.0972717285	0.3658615947
1381.0260791015	0.3653870821
1382.9548864746	0.3638605177
1384.8836938476	0.3623512089
1386.8125012207	0.3590866625
1388.7413085937	0.3642313182
1390.6701159668	0.3633605242
1392.5989233398	0.3602560461
1394.5277307129	0.3640823364
1396.4565380859	0.3611455560
1398.3853454590	0.3593496382
1400.3141528320	0.3588011861
1402.2429602051	0.3589531481
1404.1717675781	0.3574687243
1406.1005749512	0.3557797968
1408.0293823242	0.3600949645
1409.9581896972	0.3592371047
1411.8869970703	0.3583881259
1413.8158044433	0.3590337634
1415.7446118164	0.3587551415
1417.6734191894	0.3582317829
1419.6022265625	0.3575761020
1421.5310339355	0.3616605401
1423.4598413086	0.3604493439
1425.3886486816	0.3589132428
1427.3174560547	0.3598765433
1429.2462634277	0.3574399352
1431.1750708008	0.3599062562
1433.1038781738	0.3595187962
1435.0326855469	0.3549489677
1436.9614929199	0.3617846668
1438.8903002929	0.3603315353
1440.8191076660	0.3524994552
1442.7479150390	0.3581123948
1444.6767224121	0.3576996326
1446.6055297851	0.3568467796
1448.5343371582	0.3584279716
1450.4631445312	0.3539453745
1452.3919519043	0.3534096777
1454.3207592773	0.3538222909
1456.2495666504	0.3579594195
1458.1783740234	0.3535706997
1460.1071813965	0.3510046899
1462.0359887695	0.3529062271
1463.9647961426	0.3497156203
1465.8936035156	0.3504588008
1467.8224108886	0.3479635417
1469.7512182617	0.3452573419
1471.6800256347	0.3443967402
1473.6088330078	0.3439576626
1475.5376403808	0.3450090289
1477.4664477539	0.3424989879
1479.3952551269	0.3432058394
1481.3240625000	0.3447445035
1483.2528698730	0.3424779773
1485.1816772461	0.3418505788
1487.1104846191	0.3406306803
1489.0392919922	0.3397516012
1490.9680993652	0.3404872119
1492.8969067383	0.3384582102
1494.8257141113	0.3370407820
1496.7545214843	0.3357391953
1498.6833288574	0.3340177834
1500.6121362304	0.3340201080
1502.5409436035	0.3341670036
1504.4697509765	0.3329363167
1506.3985583496	0.3301565349
1508.3273657226	0.3307904005
1510.2561730957	0.3300983608
1512.1849804687	0.3301494122
1514.1137878418	0.3297816515
1516.0425952148	0.3254650831
1517.9714025879	0.3276113272
1519.9002099609	0.3269708157
1521.8290173340	0.3234878182
1523.7578247070	0.3251760602
1525.6866320801	0.3236099780
1527.6154394531	0.3237788677
1529.5442468261	0.3226425946
1531.4730541992	0.3202105165
1533.4018615722	0.3194170594
1535.3306689453	0.3181654811
1537.2594763183	0.3173357546
1539.1882836914	0.3151409030
1541.1170910644	0.3154189885
1543.0458984375	0.3154362440
1544.9747058105	0.3149853051
1546.9035131836	0.3146562874
1548.8323205566	0.3128401935
1550.7611279297	0.3112356663
1552.6899353027	0.3098599911
1554.6187426758	0.3097755015
1556.5475500488	0.3087280095
1558.4763574218	0.3063080907
1560.4051647949	0.3068241775
1562.3339721679	0.3059042990
1564.2627795410	0.3045014739
1566.1915869140	0.3039883673
1568.1203942871	0.3014449775
1570.0492016601	0.3008962870
1571.9780090332	0.3007575274
1573.9068164062	0.2978937626
1575.8356237793	0.2972909808
1577.7644311523	0.2948183119
1579.6932385254	0.2940260470
1581.6220458984	0.2947924733
1583.5508532715	0.2914736569
1585.4796606445	0.2906485796
1587.4084680175	0.2888492644
1589.3372753906	0.2869448364
1591.2660827636	0.2865358591
1593.1948901367	0.2836979926
1595.1236975097	0.2837988734
1597.0525048828	0.2824679911
1598.9813122558	0.2799746990
1600.9101196289	0.2809284925
1602.8389270019	0.2801203430
1604.7677343750	0.2775571346
1606.6965417480	0.2766084671
1608.6253491211	0.2774058878
1610.5541564941	0.2764091492
1612.4829638672	0.2763569057
1614.4117712402	0.2760413289
1616.3405786132	0.2746294737
1618.2693859863	0.2780728936
1620.1981933593	0.2782011330
1622.1270007324	0.2775267661
1624.0558081054	0.2788180709
1625.9846154785	0.2812499106
1627.9134228515	0.2838857770
1629.8422302246	0.2848235667
1631.7710375976	0.2885948718
1633.6998449707	0.2907516956
1635.6286523437	0.2924917042
1637.5574597168	0.2957738638
1639.4862670898	0.2996084690
1641.4150744629	0.3034214973
1643.3438818359	0.3065702915
1645.2726892090	0.3114923537
1647.2014965820	0.3134926856
1649.1303039550	0.3184290230
1651.0591113281	0.3229124248
1652.9879187011	0.3256079257
1654.9167260742	0.3333044946
1656.8455334472	0.3364309371
1658.7743408203	0.3395483494
1660.7031481933	0.3451871276
1662.6319555664	0.3486123383
1664.5607629394	0.3521796763
1666.4895703125	0.3579027653
1668.4183776855	0.3606434166
1670.3471850586	0.3633057177
1672.2759924316	0.3687535226
1674.2047998047	0.3727359176
1676.1336071777	0.3758417070
1678.0624145507	0.3794629574
1679.9912219238	0.3836740851
1681.9200292968	0.3860817552
1683.8488366699	0.3897432387
1685.7776440429	0.3950276375
1687.7064514160	0.3977167904
1689.6352587890	0.4013430476
1691.5640661621	0.4047794938
1693.4928735351	0.4058753848
1695.4216809082	0.4071410596
1697.3504882812	0.4113296866
1699.2792956543	0.4125193655
1701.2081030273	0.4168176055
1703.1369104004	0.4195078909
1705.0657177734	0.4194413722
1706.9945251464	0.4235771298
1708.9233325195	0.4243066311
1710.8521398925	0.4253992140
1712.7809472656	0.4269510806
1714.7097546386	0.4265180528
1716.6385620117	0.4271116853
1718.5673693847	0.4291704595
1720.4961767578	0.4328409731
1722.4249841308	0.4319915473
1724.3537915039	0.4328467250
1726.2825988769	0.4343832731
1728.2114062500	0.4334889650
1730.1402136230	0.4346555173
1732.0690209961	0.4326313734
1733.9978283691	0.4337091148
1735.9266357421	0.4358900189
1737.8554431152	0.4339705110
1739.7842504882	0.4349851310
1741.7130578613	0.4348448217
1743.6418652343	0.4358043671
1745.5706726074	0.4365687668
1747.4994799804	0.4344644547
1749.4282873535	0.4346663356
1751.3570947265	0.4340948462
1753.2859020996	0.4332689047
1755.2147094726	0.4337475598
1757.1435168457	0.4340619743
1759.0723242187	0.4331963360
1761.0011315918	0.4315050840
1762.9299389648	0.4329466820
1764.8587463379	0.4334505200
1766.7875537109	0.4314982891
1768.7163610839	0.4312272370
1770.6451684570	0.4306792319
1772.5739758300	0.4289692640
1774.5027832031	0.4292966425
1776.4315905761	0.4300724864
1778.3603979492	0.4291476011
1780.2892053222	0.4279161692
1782.2180126953	0.4274875224
1784.1468200683	0.4265360236
1786.0756274414	0.4258096814
1788.0044348144	0.4268725812
1789.9332421875	0.4260182381
1791.8620495605	0.4244312942
1793.7908569336	0.4249293506
1795.7196643066	0.4236689806
1797.6484716796	0.4242005944
1799.5772790527	0.4235870540
1801.5060864257	0.4206642807
1803.4348937988	0.4216061234
1805.3637011718	0.4215858579
1807.2925085449	0.4211436808
1809.2213159179	0.4205382168
1811.1501232910	0.4200218320
1813.0789306640	0.4203310311
1815.0077380371	0.4180957973
1816.9365454101	0.4176141620
1818.8653527832	0.4176126719
1820.7941601562	0.4170209169
1822.7229675293	0.4171892703
1824.6517749023	0.4151127338
1826.5805822753	0.4147971272
1828.5093896484	0.4158931971
1830.4381970214	0.4141688347
1832.3670043945	0.4128778577
1834.2958117675	0.4130998552
1836.2246191406	0.4126192331
1838.1534265136	0.4124031961
1840.0822338867	0.4119707346
1842.0110412597	0.4099383950
1843.9398486328	0.4090238512
1845.8686560058	0.4101797640
1847.7974633789	0.4093632996
1849.7262707519	0.4086341560
1851.6550781250	0.4093548059
1853.5838854980	0.4083206356
1855.5126928710	0.4074133635
1857.4415002441	0.4068663418
1859.3703076171	0.4063631296
1861.2991149902	0.4059538245
1863.2279223632	0.4048770964
1865.1567297363	0.4047795534
1867.0855371093	0.4033442736
1869.0143444824	0.4032345116
1870.9431518554	0.4037416875
1872.8719592285	0.4017246366
1874.8007666015	0.4020730853
1876.7295739746	0.4023724198
1878.6583813476	0.4014310837
1880.5871887207	0.4011231065
1882.5159960937	0.4000332654
1884.4448034667	0.3993409574
1886.3736108398	0.3996874392
1888.3024182128	0.3986544311
1890.2312255859	0.3981548548
1892.1600329589	0.3989445269
1894.0888403320	0.3970898688
1896.0176477050	0.3969453573
1897.9464550781	0.3966605365
1899.8752624511	0.3952658474
1901.8040698242	0.3955521584
1903.7328771972	0.3933919072
1905.6616845703	0.3935736418
1907.5904919433	0.3945402503
1909.5192993164	0.3938203752
1911.4481066894	0.3924576044
1913.3769140625	0.3918160200
1915.3057214355	0.3930324912
1917.2345288085	0.3904583156
1919.1633361816	0.3907554448
1921.0921435546	0.3911342323
1923.0209509277	0.3896546066
1924.9497583007	0.3903437257
1926.8785656738	0.3882708848
1928.8073730468	0.3884640634
1930.7361804199	0.3874701262
1932.6649877929	0.3865215480
1934.5937951660	0.3859574497
1936.5226025390	0.3843142688
1938.4514099121	0.3866132796
1940.3802172851	0.3846989274
1942.3090246582	0.3842500150
1944.2378320312	0.3849317729
1946.1666394042	0.3825173080
1948.0954467773	0.3829063773
1950.0242541503	0.3831979036
1951.9530615234	0.3828614950
1953.8818688964	0.3812419474
1955.8106762695	0.3815679848
1957.7394836425	0.3806266487
1959.6682910156	0.3793920577
1961.5970983886	0.3808246851
1963.5259057617	0.3791320026
1965.4547131347	0.3784575462
1967.3835205078	0.3774194717
1969.3123278808	0.3772276342
1971.2411352539	0.3764026463
1973.1699426269	0.3747730851
1975.0987499999	0.3764162660
1977.0275573730	0.3747317493
1978.9563647460	0.3741838336
1980.8851721191	0.3745450079
1982.8139794921	0.3745292127
1984.7427868652	0.3751648962
1986.6715942382	0.3730284274
1988.6004016113	0.3725742698
1990.5292089843	0.3723145425
1992.4580163574	0.3721224368
1994.3868237304	0.3720743656
1996.3156311035	0.3706157506
1998.2444384765	0.3708193302
2000.1732458496	0.3709659874
2002.1020532226	0.3697633445
2004.0308605956	0.3700213134
2005.9596679687	0.3701767623
2007.8884753417	0.3685708642
2009.8172827148	0.3689147830
2011.7460900878	0.3683646321
2013.6748974609	0.3671329618
2015.6037048339	0.3671327829
2017.5325122070	0.3660846949
2019.4613195800	0.3669917881
2021.3901269531	0.3667010665
2023.3189343261	0.3651564717
2025.2477416992	0.3661334217
2027.1765490722	0.3656766117
2029.1053564453	0.3639925718
2031.0341638183	0.3646248281
2032.9629711914	0.3643445373
2034.8917785644	0.3630262017
2036.8205859374	0.3639494181
2038.7493933105	0.3625749946
2040.6782006835	0.3617261052
2042.6070080566	0.3633972108
2044.5358154296	0.3622643650
2046.4646228027	0.3613179028
2048.3934301757	0.3618513048
2050.3222375488	0.3616529405
2052.2510449218	0.3604998291
2054.1798522949	0.3602721095
2056.1086596679	0.3607248068
2058.0374670410	0.3605188131
2059.9662744140	0.3603860438
2061.8950817871	0.3592081964
2063.8238891601	0.3583106101
2065.7526965331	0.3589792848
2067.6815039062	0.3595999181
2069.6103112792	0.3592157960
2071.5391186523	0.3590499759
2073.4679260253	0.3594776988
2075.3967333984	0.3587109149
2077.3255407714	0.3581553698
2079.2543481445	0.3593953252
2081.1831555175	0.3587900698
2083.1119628906	0.3568063676
2085.0407702636	0.3578152657
2086.9695776367	0.3579187095
2088.8983850097	0.3573647439
2090.8271923828	0.3580449224
2092.7559997558	0.3564154506
2094.6848071288	0.3557919860
2096.6136145019	0.3571151495
2098.5424218749	0.3573342562
2100.4712292480	0.3568387330
2102.4000366210	0.3575424254
2104.3288439941	0.3579728007
2106.2576513671	0.3571712077
2108.1864587402	0.3571203351
2110.1152661132	0.3566651642
2112.0440734863	0.3564859331
2113.9728808593	0.3563510478
2115.9016882324	0.3562845290
2117.8304956054	0.3566101491
2119.7593029785	0.3564930856
2121.6881103515	0.3568509817
2123.6169177245	0.3570961356
2125.5457250976	0.3572789729
2127.4745324706	0.3561374545
2129.4033398437	0.3557571173
2131.3321472167	0.3557276130
2133.2609545898	0.3551093936
2135.1897619628	0.3560640216
2137.1185693359	0.3549346030
2139.0473767089	0.3556363881
2140.9761840820	0.3576574028
2142.9049914550	0.3568290770
2144.8337988281	0.3563889265
2146.7626062011	0.3558298051
2148.6914135742	0.3561130762
2150.6202209472	0.3563843668
2152.5490283203	0.3571433127
2154.4778356933	0.3571884334
2156.4066430663	0.3556807637
2158.3354504394	0.3575772941
2160.2642578124	0.3574106097
2162.1930651855	0.3554852009
2164.1218725585	0.3574838340
2166.0506799316	0.3579389155
2167.9794873046	0.3567776084
2169.9082946777	0.3572565019
2171.8371020507	0.3581177294
2173.7659094238	0.3576913476
2175.6947167968	0.3564158380
2177.6235241699	0.3583961129
2179.5523315429	0.3594710231
2181.4811389160	0.3582019806
2183.4099462890	0.3599963188
2185.3387536620	0.3589514792
2187.2675610351	0.3575420678
2189.1963684081	0.3591015339
2191.1251757812	0.3587231934
2193.0539831542	0.3591247797
2194.9827905273	0.3593941629
2196.9115979003	0.3592066169
2198.8404052734	0.3575198948
2200.7692126464	0.3573061228
2202.6980200195	0.3600797653
2204.6268273925	0.3583907187
2206.5556347656	0.3585564792
2208.4844421386	0.3602386117
2210.4132495117	0.3585864604
2212.3420568847	0.3578629792
2214.2708642577	0.3587929904
2216.1996716308	0.3603911996
2218.1284790038	0.3588156700
2220.0572863769	0.3580871522
2221.9860937499	0.3593600690
2223.9149011230	0.3597280383
2225.8437084960	0.3601749539
2227.7725158691	0.3589017391
2229.7013232421	0.3590800166
2231.6301306152	0.3595627248
2233.5589379882	0.3599679768
2235.4877453613	0.3604736626
2237.4165527343	0.3592597544
2239.3453601074	0.3597027957
2241.2741674804	0.3599323332
2243.2029748534	0.3600840569
2245.1317822265	0.3599616885
2247.0605895995	0.3590453267
2248.9893969726	0.3587882519
2250.9182043456	0.3588448465
2252.8470117187	0.3603560627
2254.7758190917	0.3603262305
2256.7046264648	0.3597440720
2258.6334338378	0.3596496582
2260.5622412109	0.3592970669
2262.4910485839	0.3606231511
2264.4198559570	0.3607436121
2266.3486633300	0.3602111936
2268.2774707031	0.3608839214
2270.2062780761	0.3601185977
2272.1350854491	0.3585505486
2274.0638928222	0.3592866361
2275.9927001952	0.3594855666
2277.9215075683	0.3584908545
2279.8503149413	0.3592942655
2281.7791223144	0.3594786227
2283.7079296874	0.3599689007
2285.6367370605	0.3602424264
2287.5655444335	0.3587774932
2289.4943518066	0.3592106998
2291.4231591796	0.3605109155
2293.3519665527	0.3605723083
2295.2807739257	0.3601773679
2297.2095812988	0.3595386147
2299.1383886718	0.3596759737
2301.0671960449	0.3598754406
2302.9960034179	0.3585596383
2304.9248107909	0.3586986363
2306.8536181640	0.3585924804
2308.7824255370	0.3579241633
2310.7112329101	0.3592625260
2312.6400402831	0.3577138484
2314.5688476562	0.3569979370
2316.4976550292	0.3586100042
2318.4264624023	0.3580212891
2320.3552697753	0.3573257029
2322.2840771484	0.3563706279
2324.2128845214	0.3566689491
2326.1416918945	0.3571742773
2328.0704992675	0.3570333123
2329.9993066406	0.3579334021
2331.9281140136	0.3573870659
2333.8569213866	0.3567824960
2335.7857287597	0.3574996293
2337.7145361327	0.3574469984
2339.6433435058	0.3561206758
2341.5721508788	0.3559124768
2343.5009582519	0.3573099673
2345.4297656249	0.3577370942
2347.3585729980	0.3569782674
2349.2873803710	0.3561515212
2351.2161877441	0.3555753529
2353.1449951171	0.3556686342
2355.0738024902	0.3553493619
2357.0026098632	0.3545625508
2358.9314172363	0.3553472459
2360.8602246093	0.3558546305
2362.7890319823	0.3554626703
2364.7178393554	0.3543981612
2366.6466467284	0.3537443280
2368.5754541015	0.3552781343
2370.5042614745	0.3546392918
2372.4330688476	0.3541122675
2374.3618762206	0.3564413786
2376.2906835937	0.3560810089
2378.2194909667	0.3565184772
2380.1482983398	0.3584798276
2382.0771057128	0.3557834625
2384.0059130859	0.3554533720
2385.9347204589	0.3566969931
2387.8635278320	0.3548172414
2389.7923352050	0.3555521369
2391.7211425780	0.3546121418
2393.6499499511	0.3541513681
2395.5787573241	0.3555397093
2397.5075646972	0.3550898731
2399.4363720702	0.3556030989
2401.3651794433	0.3544880450
2403.2939868163	0.3551086783
2405.2227941894	0.3543755710
2407.1516015624	0.3526840806
2409.0804089355	0.3547269702
2411.0092163085	0.3532606363
2412.9380236816	0.3521641791
2414.8668310546	0.3531654477
2416.7956384277	0.3537961245
2418.7244458007	0.3532980382
2420.6532531738	0.3516896069
2422.5820605468	0.3518673778
2424.5108679198	0.3524967134
2426.4396752929	0.3537898958
2428.3684826659	0.3537797034
2430.2972900390	0.3530636132
2432.2260974120	0.3529077470
2434.1549047851	0.3524353206
2436.0837121581	0.3517018557
2438.0125195312	0.3514181376
2439.9413269042	0.3526084423
2441.8701342773	0.3517931700
2443.7989416503	0.3508022130
2445.7277490234	0.3505805135
2447.6565563964	0.3505835235
2449.5853637695	0.3505368829
2451.5141711425	0.3504164815
2453.4429785155	0.3523533344
2455.3717858886	0.3511108756
2457.3005932616	0.3489108384
2459.2294006347	0.3490343988
2461.1582080077	0.3494265079
2463.0870153808	0.3490818441
2465.0158227538	0.3468953371
2466.9446301269	0.3478162289
2468.8734374999	0.3496650457
2470.8022448730	0.3489359319
2472.7310522460	0.3490435779
2474.6598596191	0.3486410975
2476.5886669921	0.3475463092
2478.5174743652	0.3480576873
2480.4462817382	0.3480774462
2482.3750891112	0.3479260206
2484.3038964843	0.3478337824
2486.2327038573	0.3466629684
2488.1615112304	0.3466754556
2490.0903186034	0.3459380269
2492.0191259765	0.3457553983
2493.9479333495	0.3462453783
2495.8767407226	0.3460424542
2497.8055480956	0.3478096128
2499.7343554687	0.3471272588
2501.6631628417	0.3447164893
2503.5919702148	0.3449025452
2505.5207775878	0.3448719382
2507.4495849609	0.3432385623
2509.3783923339	0.3427435756
2511.3071997069	0.3423366249
2513.2360070800	0.3431188762
2515.1648144530	0.3446064889
2517.0936218261	0.3431049883
2519.0224291991	0.3440670967
2520.9512365722	0.3433630168
2522.8800439452	0.3420587480
2524.8088513183	0.3424977660
2526.7376586913	0.3401159644
2528.6664660644	0.3415322006
2530.5952734374	0.3415974379
2532.5240808105	0.3407353759
2534.4528881835	0.3409440815
2536.3816955566	0.3401273787
2538.3105029296	0.3412435949
2540.2393103027	0.3398793936
2542.1681176757	0.3400025666
2544.0969250487	0.3403699100
2546.0257324218	0.3396184444
2547.9545397948	0.3392501473
2549.8833471679	0.3385357261
2551.8121545409	0.3396989703
2553.7409619140	0.3395624459
2555.6697692870	0.3393596411
2557.5985766601	0.3372220695
2559.5273840331	0.3365398049
2561.4561914062	0.3386430740
2563.3849987792	0.3372140825
2565.3138061523	0.3361465335
2567.2426135253	0.3367010653
2569.1714208984	0.3366770446
2571.1002282714	0.3354419768
2573.0290356444	0.3354511261
2574.9578430175	0.3350252211
2576.8866503905	0.3350890875
2578.8154577636	0.3360479176
2580.7442651366	0.3347079456
2582.6730725097	0.3346839547
2584.6018798827	0.3327836990
2586.5306872558	0.3319376111
2588.4594946288	0.3320885003
2590.3883020019	0.3313751221
2592.3171093749	0.3339089751
2594.2459167480	0.3333192766
2596.1747241210	0.3318094909
2598.1035314941	0.3319230378
2600.0323388671	0.3318554759
2601.9611462401	0.3320528269
2603.8899536132	0.3319806457
2605.8187609862	0.3312960267
2607.7475683593	0.3301850855
2609.6763757323	0.3303107321
2611.6051831054	0.3297432065
2613.5339904784	0.3297994137
2615.4627978515	0.3277679980
2617.3916052245	0.3260119557
2619.3204125976	0.3281374872
2621.2492199706	0.3279761970
2623.1780273437	0.3272739649
2625.1068347167	0.3256126344
2627.0356420898	0.3255315721
2628.9644494628	0.3269961178
2630.8932568358	0.3255740404
2632.8220642089	0.3249654472
2634.7508715819	0.3245901167
2636.6796789550	0.3240981996
2638.6084863280	0.3236246109
2640.5372937011	0.3229429722
2642.4661010741	0.3234444559
2644.3949084472	0.3243178725
2646.3237158202	0.3227391243
2648.2525231933	0.3221862316
2650.1813305663	0.3230886459
2652.1101379394	0.3217248321
2654.0389453124	0.3218776584
2655.9677526855	0.3202559650
2657.8965600585	0.3212178648
2659.8253674315	0.3225166500
2661.7541748046	0.3190808594
2663.6829821776	0.3193671405
2665.6117895507	0.3172332942
2667.5405969237	0.3175533414
2669.4694042968	0.3189233243
2671.3982116698	0.3170613050
2673.3270190429	0.3192810118
2675.2558264159	0.3169252872
2677.1846337890	0.3156433403
2679.1134411620	0.3175155222
2681.0422485351	0.3164255321
2682.9710559081	0.3162844479
2684.8998632812	0.3164817393
2686.8286706542	0.3150005937
2688.7574780273	0.3128542304
2690.6862854003	0.3147450387
2692.6150927733	0.3150919676
2694.5439001464	0.3132389784
2696.4727075194	0.3122257590
2698.4015148925	0.3109293878
2700.3303222655	0.3118508458
2702.2591296386	0.3106189668
2704.1879370116	0.3097457290
2706.1167443847	0.3098270595
2708.0455517577	0.3083742857
2709.9743591308	0.3082327545
2711.9031665038	0.3090120256
2713.8319738769	0.3087188900
2715.7607812499	0.3070848286
2717.6895886230	0.3077809215
2719.6183959960	0.3068329692
2721.5472033690	0.3053798378
2723.4760107421	0.3059290946
2725.4048181151	0.3050975800
2727.3336254882	0.3044520617
2729.2624328612	0.3026271760
2731.1912402343	0.3027464449
2733.1200476073	0.3033677936
2735.0488549804	0.3024079204
2736.9776623534	0.3020375371
2738.9064697265	0.3009296060
2740.8352770995	0.3018095195
2742.7640844726	0.3013125956
2744.6928918456	0.2998467982
2746.6216992187	0.3009485304
2748.5505065917	0.3004438877
2750.4793139647	0.2992839813
2752.4081213378	0.2990992367
2754.3369287108	0.2982481718
2756.2657360839	0.2971787155
2758.1945434569	0.2956083715
2760.1233508300	0.2950573266
2762.0521582030	0.2963001430
2763.9809655761	0.2951118350
2765.9097729491	0.2942809761
2767.8385803222	0.2943778336
2769.7673876952	0.2935993671
2771.6961950683	0.2940911651
2773.6250024413	0.2929956913
2775.5538098144	0.2918938696
2777.4826171874	0.2909903526
2779.4114245604	0.2906171978
2781.3402319335	0.2917101979
2783.2690393065	0.2913832068
2785.1978466796	0.2903980613
2787.1266540526	0.2888405621
2789.0554614257	0.2891288102
2790.9842687987	0.2890494466
2792.9130761718	0.2874563932
2794.8418835448	0.2864703834
2796.7706909179	0.2853203416
2798.6994982909	0.2862107754
2800.6283056640	0.2848966718
2802.5571130370	0.2826908231
2804.4859204101	0.2828901708
2806.4147277831	0.2816916704
2808.3435351562	0.2821065485
2810.2723425292	0.2831727862
2812.2011499022	0.2813512981
2814.1299572753	0.2801686525
2816.0587646483	0.2802355587
2817.9875720214	0.2794255614
2819.9163793944	0.2783152759
2821.8451867675	0.2775906026
2823.7739941405	0.2774518430
2825.7028015136	0.2766989470
2827.6316088866	0.2761496305
2829.5604162597	0.2765761018
2831.4892236327	0.2760044336
2833.4180310058	0.2752302289
2835.3468383788	0.2752781510
2837.2756457519	0.2744452357
2839.2044531249	0.2718937397
2841.1332604979	0.2726897597
2843.0620678710	0.2725203037
2844.9908752440	0.2689086497
2846.9196826171	0.2699461877
2848.8484899901	0.2689353526
2850.7772973632	0.2665655911
2852.7061047362	0.2670320570
2854.6349121093	0.2667592168
2856.5637194823	0.2674945295
2858.4925268554	0.2667687535
2860.4213342284	0.2665109932
2862.3501416015	0.2662963867
2864.2789489745	0.2645857632
2866.2077563476	0.2654949129
2868.1365637206	0.2653401494
2870.0653710936	0.2625935674
2871.9941784667	0.2638763785
2873.9229858397	0.2654689252
2875.8517932128	0.2623926103
2877.7806005858	0.2613396645
2879.7094079589	0.2596941590
2881.6382153319	0.2588365674
2883.5670227050	0.2599350512
2885.4958300780	0.2585869730
2887.4246374511	0.2587402463
2889.3534448241	0.2575787604
2891.2822521972	0.2581038773
2893.2110595702	0.2573960423
2895.1398669433	0.2548853755
2897.0686743163	0.2573619783
2898.9974816893	0.2554976642
2900.9262890624	0.2541955411
2902.8550964354	0.2554838061
2904.7839038085	0.2533846498
2906.7127111815	0.2533862889
2908.6415185546	0.2528952956
2910.5703259276	0.2501977682
2912.4991333007	0.2505643964
2914.4279406737	0.2501105368
2916.3567480468	0.2463494539
2918.2855554198	0.2472717464
2920.2143627929	0.2491346151
2922.1431701659	0.2485551089
2924.0719775390	0.2467045337
2926.0007849120	0.2458511889
2927.9295922851	0.2479144335
2929.8583996581	0.2447848767
2931.7872070311	0.2453157455
2933.7160144042	0.2480181456
2935.6448217772	0.2464198768
2937.5736291503	0.2472226471
2939.5024365233	0.2436502725
2941.4312438964	0.2426970899
2943.3600512694	0.2451926172
2945.2888586425	0.2429973781
2947.2176660155	0.2419408411
2949.1464733886	0.2429832816
2951.0752807616	0.2420124710
2953.0040881347	0.2395460159
2954.9328955077	0.2401945889
2956.8617028808	0.2387685776
2958.7905102538	0.2385966778
2960.7193176268	0.2401088625
2962.6481249999	0.2382544726
2964.5769323729	0.2396541387
2966.5057397460	0.2390697896
2968.4345471190	0.2379644215
2970.3633544921	0.2373975962
2972.2921618651	0.2359134257
2974.2209692382	0.2363441139
2976.1497766112	0.2349623889
2978.0785839843	0.2349502146
2980.0073913573	0.2335228920
2981.9361987304	0.2317255288
2983.8650061034	0.2330802232
2985.7938134765	0.2348423600
2987.7226208495	0.2333156317
2989.6514282225	0.2304254621
2991.5802355956	0.2336343676
2993.5090429686	0.2324392796
2995.4378503417	0.2295308709
2997.3666577147	0.2325586081
2999.2954650878	0.2326906770
3001.2242724608	0.2296551466
3003.1530798339	0.2282608598
3005.0818872069	0.2298196852
3007.0106945800	0.2274104953
3008.9395019530	0.2274828106
3010.8683093261	0.2303836942
3012.7971166991	0.2278455347
3014.7259240722	0.2269878536
3016.6547314452	0.2271613479
3018.5835388182	0.2284149528
3020.5123461913	0.2272074521
3022.4411535643	0.2256340683
3024.3699609374	0.2252079993
3026.2987683104	0.2211707830
3028.2275756835	0.2236070037
3030.1563830565	0.2250411510
3032.0851904296	0.2231573015
3034.0139978026	0.2230680287
3035.9428051757	0.2203478068
3037.8716125487	0.2219190300
3039.8004199218	0.2222004980
3041.7292272948	0.2191031277
3043.6580346679	0.2190878242
3045.5868420409	0.2193227559
3047.5156494139	0.2210898250
3049.4444567870	0.2212837040
3051.3732641600	0.2187366933
3053.3020715331	0.2180779129
3055.2308789061	0.2178251147
3057.1596862792	0.2179888040
3059.0884936522	0.2177320123
3061.0173010253	0.2166677713
3062.9461083983	0.2170510143
3064.8749157714	0.2163738906
3066.8037231444	0.2155446112
3068.7325305175	0.2155666053
3070.6613378905	0.2155952007
3072.5901452636	0.2160843164
3074.5189526366	0.2148376107
3076.4477600097	0.2135869563
3078.3765673827	0.2141799331
3080.3053747557	0.2151815891
3082.2341821288	0.2147767991
3084.1629895018	0.2135156244
3086.0917968749	0.2133220136
3088.0206042479	0.2128559351
3089.9494116210	0.2119420618
3091.8782189940	0.2127264440
3093.8070263671	0.2132447213
3095.7358337401	0.2115664929
3097.6646411132	0.2124474496
3099.5934484862	0.2120135128
3101.5222558593	0.2108686417
3103.4510632323	0.2134636790
3105.3798706054	0.2106324583
3107.3086779784	0.2086517215
3109.2374853514	0.2101515383
3111.1662927245	0.2094534338
3113.0951000975	0.2103607059
3115.0239074706	0.2105310112
3116.9527148436	0.2115563899
3118.8815222167	0.2091604173
3120.8103295897	0.2050782442
3122.7391369628	0.2072880417
3124.6679443358	0.2079993635
3126.5967517089	0.2081264406
3128.5255590819	0.2085543871
3130.4543664550	0.2078538686
3132.3831738280	0.2086853087
3134.3119812011	0.2086148411
3136.2407885741	0.2082570344
3138.1695959471	0.2067769468
3140.0984033202	0.2062498778
3142.0272106932	0.2060342878
3143.9560180663	0.2066629082
3145.8848254393	0.2097020149
3147.8136328124	0.2079048753
3149.7424401854	0.2077947706
3151.6712475585	0.2076580524
3153.6000549315	0.2052873820
3155.5288623046	0.2070000619
3157.4576696776	0.2050736696
3159.3864770507	0.2047316581
3161.3152844237	0.2060709894
3163.2440917968	0.2066877931
3165.1728991698	0.2070830166
3167.1017065428	0.2048747987
3169.0305139159	0.2074017674
3170.9593212889	0.2072337419
3172.8881286620	0.2070325464
3174.8169360350	0.2087449133
3176.7457434081	0.2070467025
3178.6745507811	0.2066444457
3180.6033581542	0.2052393705
3182.5321655272	0.2069761008
3184.4609729003	0.2070328742
3186.3897802733	0.2063840926
3188.3185876464	0.2087237239
3190.2473950194	0.2079861462
3192.1762023925	0.2071822733
3194.1050097655	0.2054396123
3196.0338171386	0.2076249123
3197.9626245116	0.2109261751
3199.8914318846	0.2105710655
3201.8202392577	0.2107971162
3203.7490466307	0.2128891349
3205.6778540038	0.2142349929
3207.6066613768	0.2111127675
3209.5354687499	0.2114641964
3211.4642761229	0.2135270387
3213.3930834960	0.2141577452
3215.3218908690	0.2130561620
3217.2506982421	0.2131498158
3219.1795056151	0.2148120850
3221.1083129882	0.2105513662
3223.0371203612	0.2154403031
3224.9659277343	0.2185318172
3226.8947351073	0.2127338052
3228.8235424803	0.2168962508
3230.7523498534	0.2170693576
3232.6811572264	0.2164710760
3234.6099645995	0.2201655209
3236.5387719725	0.2179895043
3238.4675793456	0.2194400579
3240.3963867186	0.2211343944
3242.3251940917	0.2198562175
3244.2540014647	0.2217060030
3246.1828088378	0.2235366404
3248.1116162108	0.2240593731
3250.0404235839	0.2223047465
3251.9692309569	0.2238799185
3253.8980383300	0.2283849120
3255.8268457030	0.2262788117
3257.7556530760	0.2260701209
3259.6844604491	0.2294998467
3261.6132678221	0.2295733839
3263.5420751952	0.2295093387
3265.4708825682	0.2300759256
3267.3996899413	0.2305395305
3269.3284973143	0.2299095392
3271.2573046874	0.2318078876
3273.1861120604	0.2353815883
3275.1149194335	0.2321634442
3277.0437268065	0.2309606671
3278.9725341796	0.2350093424
3280.9013415526	0.2338746488
3282.8301489257	0.2356235087
3284.7589562987	0.2379621118
3286.6877636717	0.2370993197
3288.6165710448	0.2392815948
3290.5453784178	0.2362021059
3292.4741857909	0.2380875498
3294.4029931639	0.2416661680
3296.3318005370	0.2402319759
3298.2606079100	0.2435474396
3300.1894152831	0.2412934601
3302.1182226561	0.2413223982
3304.0470300292	0.2438724935
3305.9758374022	0.2439124435
3307.9046447753	0.2454151213
3309.8334521483	0.2450868338
3311.7622595214	0.2472886890
3313.6910668944	0.2460343689
3315.6198742675	0.2481975853
3317.5486816405	0.2514906228
3319.4774890135	0.2497312427
3321.4062963866	0.2519940734
3323.3351037596	0.2517648935
3325.2639111327	0.2535154223
3327.1927185057	0.2552716136
3329.1215258788	0.2533658445
3331.0503332518	0.2538640797
3332.9791406249	0.2543749213
3334.9079479979	0.2545353472
3336.8367553710	0.2539880276
3338.7655627440	0.2570574284
3340.6943701171	0.2611193359
3342.6231774901	0.2599252164
3344.5519848632	0.2594408989
3346.4807922362	0.2633866668
3348.4095996092	0.2656327486
3350.3384069823	0.2656703591
3352.2672143553	0.2676191926
3354.1960217284	0.2685260177
3356.1248291014	0.2673511207
3358.0536364745	0.2693956494
3359.9824438475	0.2741013467
3361.9112512206	0.2705987394
3363.8400585936	0.2678194046
3365.7688659667	0.2736266553
3367.6976733397	0.2761479914
3369.6264807128	0.2773453891
3371.5552880858	0.2797358930
3373.4840954589	0.2805048227
3375.4129028319	0.2818016410
3377.3417102049	0.2854230404
3379.2705175780	0.2854554057
3381.1993249510	0.2858908176
3383.1281323241	0.2884903848
3385.0569396971	0.2876670361
3386.9857470702	0.2921263278
3388.9145544432	0.2917533517
3390.8433618163	0.2909817696
3392.7721691893	0.2961740792
3394.7009765624	0.2954253256
3396.6297839354	0.2989616096
3398.5585913085	0.3008011878
3400.4873986815	0.3021816313
3402.4162060546	0.3065384030
3404.3450134276	0.3046686649
3406.2738208006	0.3073516190
3408.2026281737	0.3138616085
3410.1314355467	0.3146733344
3412.0602429198	0.3134744167
3413.9890502928	0.3172649741
3415.9178576659	0.3192168474
3417.8466650389	0.3209063411
3419.7754724120	0.3254831731
3421.7042797850	0.3256608248
3423.6330871581	0.3275739849
3425.5618945311	0.3288617432
3427.4907019042	0.3312196434
3429.4195092772	0.3363749087
3431.3483166503	0.3385063708
3433.2771240233	0.3391202390
3435.2059313963	0.3413996994
3437.1347387694	0.3474771976
3439.0635461424	0.3452982008
3440.9923535155	0.3467683494
3442.9211608885	0.3533388972
3444.8499682616	0.3497054279
3446.7787756346	0.3542172313
3448.7075830077	0.3581553400
3450.6363903807	0.3558265567
3452.5651977538	0.3562543094
3454.4940051268	0.3592023849
3456.4228124999	0.3673962653
3458.3516198729	0.3685133159
3460.2804272460	0.3711681664
3462.2092346190	0.3743261397
3464.1380419921	0.3734563291
3466.0668493651	0.3777579963
3467.9956567381	0.3764593899
3469.9244641112	0.3790269196
3471.8532714842	0.3838620186
3473.7820788573	0.3841778338
3475.7108862303	0.3885175288
3477.6396936034	0.3911633193
3479.5685009764	0.3924288750
3481.4973083495	0.3928139806
3483.4261157225	0.3957485259
3485.3549230956	0.3983339667
3487.2837304686	0.3972514272
3489.2125378417	0.4018449187
3491.1413452147	0.4056467116
3493.0701525878	0.4036989510
3494.9989599608	0.4066458642
3496.9277673338	0.4129989147
3498.8565747069	0.4123403728
3500.7853820799	0.4135290682
3502.7141894530	0.4192288220
3504.6429968260	0.4207053483
3506.5718041991	0.4203907549
3508.5006115721	0.4233892560
3510.4294189452	0.4283723831
3512.3582263182	0.4295965731
3514.2870336913	0.4323379993
3516.2158410643	0.4341669381
3518.1446484374	0.4349014759
3520.0734558104	0.4376598001
3522.0022631835	0.4407477379
3523.9310705565	0.4458212256
3525.8598779295	0.4430490136
3527.7886853026	0.4457575381
3529.7174926756	0.4528712630
3531.6463000487	0.4519109428
3533.5751074217	0.4541257322
3535.5039147948	0.4565446675
3537.4327221678	0.4622256756
3539.3615295409	0.4623583853
3541.2903369139	0.4596376717
3543.2191442870	0.4638641477
3545.1479516600	0.4654136896
3547.0767590331	0.4710486233
3549.0055664061	0.4745103717
3550.9343737792	0.4757565856
3552.8631811522	0.4771313369
3554.7919885252	0.4769489467
3556.7207958983	0.4809445441
3558.6496032713	0.4804839194
3560.5784106444	0.4816539586
3562.5072180174	0.4846248329
3564.4360253905	0.4865264893
3566.3648327635	0.4910443723
3568.2936401366	0.4905824959
3570.2224475096	0.4951356351
3572.1512548827	0.5004811287
3574.0800622557	0.4975340366
3576.0088696288	0.5014295578
3577.9376770018	0.5053503513
3579.8664843749	0.5041795373
3581.7952917479	0.5087321401
3583.7240991210	0.5100553036
3585.6529064940	0.5101693273
3587.5817138670	0.5127540231
3589.5105212401	0.5150288343
3591.4393286131	0.5182996392
3593.3681359862	0.5184311271
3595.2969433592	0.5213881731
3597.2257507323	0.5231362581
3599.1545581053	0.5253175497
3601.0833654784	0.5312468410
3603.0121728514	0.5307338238
3604.9409802245	0.5308671594
3606.8697875975	0.5318408608
3608.7985949706	0.5353107452
3610.7274023436	0.5387817621
3612.6562097167	0.5387502909
3614.5850170897	0.5458697081
3616.5138244627	0.5470777154
3618.4426318358	0.5420802832
3620.3714392088	0.5446578860
3622.3002465819	0.5506720543
3624.2290539549	0.5543537140
3626.1578613280	0.5553072691
3628.0866687010	0.5548560023
3630.0154760741	0.5561571121
3631.9442834471	0.5612218976
3633.8730908202	0.5664133430
3635.8018981932	0.5691014528
3637.7307055663	0.5687848330
3639.6595129393	0.5726659894
3641.5883203124	0.5784273148
3643.5171276854	0.5783334374
3645.4459350584	0.5807569027
3647.3747424315	0.5856916904
3649.3035498045	0.5877729654
3651.2323571776	0.5926905274
3653.1611645506	0.5963878036
3655.0899719237	0.5967782736
3657.0187792967	0.5978333950
3658.9475866698	0.6023520827
3660.8763940428	0.6089349389
3662.8052014159	0.6102522612
3664.7340087889	0.6123836040
3666.6628161620	0.6173901558
3668.5916235350	0.6167334914
3670.5204309081	0.6223083138
3672.4492382811	0.6275753975
3674.3780456541	0.6257718205
3676.3068530272	0.6265925169
3678.2356604002	0.6309801936
3680.1644677733	0.6345775127
3682.0932751463	0.6338407993
3684.0220825194	0.6351041198
3685.9508898924	0.6343307495
3687.8796972655	0.6360931396
3689.8085046385	0.6419411302
3691.7373120116	0.6376810074
3693.6661193846	0.6392167807
3695.5949267577	0.6409019828
3697.5237341307	0.6433721781
3699.4525415038	0.6441820264
3701.3813488768	0.6395917535
3703.3101562499	0.6431431174
3705.2389636229	0.6404857635
3707.1677709959	0.6423584819
3709.0965783690	0.6413851976
3711.0253857420	0.6350885034
3712.9541931151	0.6378872395
3714.8830004881	0.6359348893
3716.8118078612	0.6399005651
3718.7406152342	0.6370674372
3720.6694226073	0.6357678175
3722.5982299803	0.6374445558
3724.5270373534	0.6288363934
3726.4558447264	0.6332639456
3728.3846520995	0.6346945763
3730.3134594725	0.6319891214
3732.2422668456	0.6282892227
3734.1710742186	0.6266503334
3736.0998815916	0.6283385754
3738.0286889647	0.6217619181
3739.9574963377	0.6246411800
3741.8863037108	0.6232013702
3743.8151110838	0.6186648011
3745.7439184569	0.6209061742
3747.6727258299	0.6169656515
3749.6015332030	0.6162617207
3751.5303405760	0.6183652282
3753.4591479491	0.6151368618
3755.3879553221	0.6148912311
3757.3167626952	0.6167058945
3759.2455700682	0.6121910214
3761.1743774413	0.6105893850
3763.1031848143	0.6064026952
3765.0319921873	0.6053618789
3766.9607995604	0.6116961241
3768.8896069334	0.6054906249
3770.8184143065	0.6063323021
3772.7472216795	0.6053529382
3774.6760290526	0.5997824073
3776.6048364256	0.6052610278
3778.5336437987	0.6054211259
3780.4624511717	0.6032434702
3782.3912585448	0.6008982062
3784.3200659178	0.6002568007
3786.2488732909	0.5993986726
3788.1776806639	0.5959293246
3790.1064880370	0.5954721570
3792.0352954100	0.5939241052
3793.9641027830	0.5939699411
3795.8929101561	0.5928429961
3797.8217175291	0.5921391249
3799.7505249022	0.5904527307
3801.6793322752	0.5863184333
3803.6081396483	0.5902682543
3805.5369470213	0.5891062021
3807.4657543944	0.5852096677
3809.3945617674	0.5866941810
3811.3233691405	0.5855283141
3813.2521765135	0.5842374563
3815.1809838866	0.5833282471
3817.1097912596	0.5846322179
3819.0385986327	0.5852527618
3820.9674060057	0.5824360847
3822.8962133787	0.5835288167
3824.8250207518	0.5825058222
3826.7538281248	0.5792213082
3828.6826354979	0.5796114206
3830.6114428709	0.5773404241
3832.5402502440	0.5776584744
3834.4690576170	0.5786823630
3836.3978649901	0.5773061514
3838.3266723631	0.5767370462
3840.2554797362	0.5716596842
3842.1842871092	0.5730139017
3844.1130944823	0.5721590519
3846.0419018553	0.5680035353
3847.9707092284	0.5748415589
3849.8995166014	0.5747332573
3851.8283239745	0.5718124509
3853.7571313475	0.5697782636
3855.6859387205	0.5659060478
3857.6147460936	0.5694561005
3859.5435534666	0.5634507537
3861.4723608397	0.5647659898
3863.4011682127	0.5688990951
3865.3299755858	0.5630203485
3867.2587829588	0.5660790801
3869.1875903319	0.5625470281
3871.1163977049	0.5648769736
3873.0452050780	0.5669309497
3874.9740124510	0.5628504157
3876.9028198241	0.5664579272
3878.8316271971	0.5588360429
3880.7604345702	0.5593323708
3882.6892419432	0.5655243993
3884.6180493162	0.5610534549
3886.5468566893	0.5599630475
3888.4756640623	0.5581139326
3890.4044714354	0.5588513613
3892.3332788084	0.5600229502
3894.2620861815	0.5614286661
3896.1908935545	0.5591667295
3898.1197009276	0.5562098622
3900.0485083006	0.5578432679
3901.9773156737	0.5526074171
3903.9061230467	0.5549232364
3905.8349304198	0.5572856069
3907.7637377928	0.5540911555
3909.6925451659	0.5535333157
3911.6213525389	0.5488994718
3913.5501599119	0.5522630215
3915.4789672850	0.5553500056
3917.4077746580	0.5504859090
3919.3365820311	0.5495193601
3921.2653894041	0.5511940122
3923.1941967772	0.5518264174
3925.1230041502	0.5493615866
3927.0518115233	0.5497791171
3928.9806188963	0.5471830964
3930.9094262694	0.5462242365
3932.8382336424	0.5489067435
3934.7670410155	0.5437256694
3936.6958483885	0.5480716825
3938.6246557616	0.5454900265
3940.5534631346	0.5403489470
3942.4822705076	0.5470220447
3944.4110778807	0.5388835073
3946.3398852537	0.5410236716
3948.2686926268	0.5456588268
3950.1974999998	0.5393903852
3952.1263073729	0.5432958007
3954.0551147459	0.5422011018
3955.9839221190	0.5429385900
3957.9127294920	0.5447025895
3959.8415368651	0.5392524004
3961.7703442381	0.5392798781
3963.6991516112	0.5434451699
3965.6279589842	0.5393907428
3967.5567663573	0.5350465775
3969.4855737303	0.5375164747
3971.4143811034	0.5348401666
3973.3431884764	0.5380162001
3975.2719958494	0.5396403670
3977.2008032225	0.5395106673
3979.1296105955	0.5431663394
3981.0584179686	0.5358510017
3982.9872253416	0.5347555876
3984.9160327147	0.5347514749
3986.8448400877	0.5339632630
3988.7736474608	0.5394675732
3990.7024548338	0.5358136296
3992.6312622069	0.5338445306
3994.5600695799	0.5344029665
3996.4888769530	0.5285559297
3998.4176843260	0.5312666297
4000.3464916991	0.5382649899
4002.2752990721	0.5332533121
4004.2041064451	0.5281812549
4006.1329138182	0.5315914154
4008.0617211912	0.5355037451
4009.9905285643	0.5318795443
4011.9193359373	0.5312350988
4013.8481433104	0.5335058570
4015.7769506834	0.5299816132
4017.7057580565	0.5328506231
4019.6345654295	0.5327112079
4021.5633728026	0.5317069888
4023.4921801756	0.5304043293
4025.4209875487	0.5313786864
4027.3497949217	0.5354418755
4029.2786022948	0.5264940262
4031.2074096678	0.5276334286
4033.1362170408	0.5291147828
4035.0650244139	0.5282563567
4036.9938317869	0.5284337401
4038.9226391600	0.5257417560
4040.8514465330	0.5325969458
4042.7802539061	0.5268765688
4044.7090612791	0.5268551111
4046.6378686522	0.5313036442
4048.5666760252	0.5269492865
4050.4954833983	0.5256524682
4052.4242907713	0.5256282687
4054.3530981444	0.5255516768
4056.2819055174	0.5215221047
4058.2107128905	0.5281369686
4060.1395202635	0.5256139040
4062.0683276365	0.5251544714
4063.9971350096	0.5277808905
4065.9259423826	0.5196780562
4067.8547497557	0.5253378153
4069.7835571287	0.5225475430
4071.7123645018	0.5276396275
4073.6411718748	0.5290548205
4075.5699792479	0.5225496888
4077.4987866209	0.5281101465
4079.4275939940	0.5214328766
4081.3564013670	0.5242879391
4083.2852087401	0.5245289207
4085.2140161131	0.5225979090
4087.1428234862	0.5252612233
4089.0716308592	0.5223948359
4091.0004382323	0.5220702887
4092.9292456053	0.5161175728
4094.8580529783	0.5192705393
4096.7868603514	0.5194066763
4098.7156677244	0.5164172053
4100.6444750975	0.5189488530
4102.5732824705	0.5204609632
4104.5020898436	0.5266804695
4106.4308972166	0.5243863463
4108.3597045897	0.5184492469
4110.2885119627	0.5181942582
4112.2173193358	0.5202075839
4114.1461267088	0.5185377598
4116.0749340819	0.5191064477
4118.0037414549	0.5191090703
4119.9325488280	0.5156404972
4121.8613562010	0.5178675056
4123.7901635740	0.5190927386
4125.7189709471	0.5201503634
4127.6477783201	0.5155180693
4129.5765856932	0.5149206519
4131.5053930662	0.5179056525
4133.4342004393	0.5174524784
4135.3630078123	0.5170427561
4137.2918151854	0.5129342079
4139.2206225584	0.5180343390
4141.1494299315	0.5153638124
4143.0782373045	0.5169373155
4145.0070446776	0.5257112980
4146.9358520506	0.5182067156
4148.8646594237	0.5172138810
4150.7934667967	0.5159661770
4152.7222741697	0.5145133138
4154.6510815428	0.5167442560
4156.5798889158	0.5165335536
4158.5086962889	0.5148760080
4160.4375036619	0.5133183002
4162.3663110350	0.5181363225
4164.2951184080	0.5161769986
4166.2239257811	0.5130472183
4168.1527331541	0.5108405352
4170.0815405272	0.5116452575
4172.0103479002	0.5161378980
4173.9391552733	0.5145534277
4175.8679626463	0.5150035024
4177.7967700194	0.5126838088
4179.7255773924	0.5106514096
4181.6543847654	0.5096916556
4183.5831921385	0.5133853555
4185.5119995115	0.5170735717
4187.4408068846	0.5068123937
4189.3696142576	0.5052529573
4191.2984216307	0.5132822394
4193.2272290037	0.5128252506
4195.1560363768	0.5060099363
4197.0848437498	0.5068437457
4199.0136511229	0.5083582401
4200.9424584959	0.5052598715
4202.8712658690	0.5113493800
4204.8000732420	0.5121906400
4206.7288806151	0.5080503225
4208.6576879881	0.5099084377
4210.5864953611	0.5130904913
4212.5153027342	0.5129345059
4214.4441101072	0.5099914670
4216.3729174803	0.5071195960
4218.3017248533	0.5045583248
4220.2305322264	0.5086838007
4222.1593395994	0.5068077445
4224.0881469725	0.5084916353
4226.0169543455	0.5149217844
4227.9457617186	0.5073164701
4229.8745690916	0.5079541206
4231.8033764647	0.5075389743
4233.7321838377	0.5048463941
4235.6609912108	0.5086088777
4237.5897985838	0.5088161826
4239.5186059569	0.5122820735
4241.4474133299	0.5074282289
4243.3762207029	0.5070152879
4245.3050280760	0.5114130974
4247.2338354490	0.5025439262
4249.1626428221	0.5008046031
4251.0914501951	0.5035497546
4253.0202575682	0.4986807108
4254.9490649412	0.4979788661
4256.8778723143	0.5095223188
4258.8066796873	0.5123894811
4260.7354870604	0.5053648949
4262.6642944334	0.5093444586
4264.5931018065	0.5097496510
4266.5219091795	0.5094425678
4268.4507165526	0.5108185410
4270.3795239256	0.5045350194
4272.3083312986	0.5088068843
4274.2371386717	0.5062878728
4276.1659460447	0.5011015534
4278.0947534178	0.5111287236
4280.0235607908	0.5039808750
4281.9523681639	0.5008856058
4283.8811755369	0.5066320896
4285.8099829100	0.4969727695
4287.7387902830	0.5033130050
4289.6675976561	0.5066706538
4291.5964050291	0.4982014000
4293.5252124022	0.5049237013
4295.4540197752	0.5027632117
4297.3828271483	0.4982050955
4299.3116345213	0.5012004375
4301.2404418943	0.4946496487
4303.1692492674	0.4990752935
4305.0980566404	0.5045971870
4307.0268640135	0.4947723746
4308.9556713865	0.5010969639
4310.8844787596	0.5022541285
4312.8132861326	0.4930143952
4314.7420935057	0.5013844967
4316.6709008787	0.4998218715
4318.5997082518	0.4997068346
4320.5285156248	0.5036413074
4322.4573229979	0.4920080900
4324.3861303709	0.4963281751
4326.3149377440	0.5033676028
4328.2437451170	0.4974709153
4330.1725524900	0.4984588623
4332.1013598631	0.4998061061
4334.0301672361	0.5070026517
4335.9589746092	0.5054621696
4337.8877819822	0.4953981638
4339.8165893553	0.5063984394
4341.7453967283	0.5065568089
4343.6742041014	0.5045338273
4345.6030114744	0.5060596466
4347.5318188475	0.4922563136
4349.4606262205	0.4968427122
4351.3894335936	0.5009936094
4353.3182409666	0.4997517765
4355.2470483397	0.4996114075
4357.1758557127	0.4936173558
4359.1046630858	0.4957305193
4361.0334704588	0.4909570813
4362.9622778318	0.4915418923
4364.8910852049	0.4998534918
4366.8198925779	0.5010185242
4368.7486999510	0.4947569966
4370.6775073240	0.4988066256
4372.6063146971	0.5055356026
4374.5351220701	0.4955109656
4376.4639294432	0.5011335611
4378.3927368162	0.5007837415
4380.3215441893	0.4961354136
4382.2503515623	0.5000882745
4384.1791589354	0.4982881546
4386.1079663084	0.5010959506
4388.0367736815	0.4962685704
4389.9655810545	0.4986449182
4391.8943884275	0.4960340858
4393.8231958006	0.4960491955
4395.7520031736	0.5012291670
4397.6808105467	0.4909300506
4399.6096179197	0.4956367016
4401.5384252928	0.4948226213
4403.4672326658	0.4921668470
4405.3960400389	0.4923170805
4407.3248474119	0.4904091358
4409.2536547850	0.4963004887
4411.1824621580	0.4929196239
4413.1112695311	0.4891626239
4415.0400769041	0.4844949245
4416.9688842772	0.4921558797
4418.8976916502	0.4991833866
4420.8264990232	0.4960212409
4422.7553063963	0.4963220656
4424.6841137693	0.4919062555
4426.6129211424	0.5001850724
4428.5417285154	0.4991875291
4430.4705358885	0.4899929464
4432.3993432615	0.4944697618
4434.3281506346	0.4946892262
4436.2569580076	0.4922093153
4438.1857653807	0.4922240376
4440.1145727537	0.4981586337
4442.0433801268	0.4930762947
4443.9721874998	0.4874462187
4445.9009948729	0.4975681901
4447.8298022459	0.4933917820
4449.7586096189	0.4947787821
4451.6874169920	0.5014033914
4453.6162243650	0.4867344499
4455.5450317381	0.4873214960
4457.4738391111	0.4921897054
4459.4026464842	0.4933575094
4461.3314538572	0.4995388687
4463.2602612303	0.4854755104
4465.1890686033	0.4897407591
4467.1178759764	0.5030685067
4469.0466833494	0.4922583997
4470.9754907225	0.4893233776
4472.9042980955	0.4886958599
4474.8331054686	0.4840632379
4476.7619128416	0.4845215380
4478.6907202147	0.4898461401
4480.6195275877	0.4932681620
4482.5483349607	0.4909972847
4484.4771423338	0.4905661047
4486.4059497068	0.4929031432
4488.3347570799	0.4937422276
4490.2635644529	0.4923323989
4492.1923718260	0.4954641759
4494.1211791990	0.4996787608
4496.0499865721	0.4928705692
4497.9787939451	0.4887326062
4499.9076013182	0.4970006943
4501.8364086912	0.4950374067
4503.7652160643	0.4982971847
4505.6940234373	0.4909766018
4507.6228308104	0.4764227569
4509.5516381834	0.4955651760
4511.4804455564	0.4919752777
4513.4092529295	0.4884580076
4515.3380603025	0.4892577529
4517.2668676756	0.4758841395
4519.1956750486	0.4865674675
4521.1244824217	0.4821645021
4523.0532897947	0.4854500592
4524.9820971678	0.4884369075
4526.9109045408	0.4883127511
4528.8397119139	0.4989822209
4530.7685192869	0.4897118807
4532.6973266600	0.4947896600
4534.6261340330	0.4955759645
4536.5549414061	0.4963541329
4538.4837487791	0.4965717494
4540.4125561521	0.4847564995
4542.3413635252	0.4857660532
4544.2701708982	0.4866275787
4546.1989782713	0.4874165952
4548.1277856443	0.4849687219
4550.0565930174	0.4862327576
4551.9854003904	0.4830045998
4553.9142077635	0.4816709161
4555.8430151365	0.4854495525
4557.7718225096	0.4901695549
4559.7006298826	0.4945590794
4561.6294372557	0.4915972948
4563.5582446287	0.4996831119
4565.4870520018	0.4904673398
4567.4158593748	0.4911043048
4569.3446667478	0.4963637590
4571.2734741209	0.4914816320
4573.2022814939	0.4938842654
4575.1310888670	0.4827194214
4577.0598962400	0.4934439659
4578.9887036131	0.4874876440
4580.9175109861	0.4849607348
4582.8463183592	0.4902700782
4584.7751257322	0.4785702229
4586.7039331053	0.4955559671
4588.6327404783	0.4905815125
4590.5615478514	0.4944733977
4592.4903552244	0.4974010587
4594.4191625975	0.4814354181
4596.3479699705	0.4851178229
4598.2767773435	0.4811540544
4600.2055847166	0.4881618023
4602.1343920896	0.4897910357
4604.0631994627	0.4889867902
4605.9920068357	0.4938892424
4607.9208142088	0.4897343814
4609.8496215818	0.4858433604
4611.7784289549	0.4908514619
4613.7072363279	0.4895710349
4615.6360437010	0.4744099081
4617.5648510740	0.4851974249
4619.4936584471	0.4838192463
4621.4224658201	0.4770359099
4623.3512731932	0.4886419475
4625.2800805662	0.4894770682
4627.2088879393	0.4903279841
4629.1376953123	0.4852588177
4631.0665026853	0.4886078537
4632.9953100584	0.4864364862
4634.9241174314	0.4868717492
4636.8529248045	0.4898149967
4638.7817321775	0.4772271812
4640.7105395506	0.4887960255
4642.6393469236	0.4881114066
4644.5681542967	0.4759227037
4646.4969616697	0.4928309023
4648.4257690428	0.4960629344
4650.3545764158	0.4791985452
4652.2833837889	0.4770290852
4654.2121911619	0.4816514254
4656.1409985350	0.4885469675
4658.0698059080	0.4932254851
4659.9986132810	0.4838271737
4661.9274206541	0.4798100889
4663.8562280271	0.4827384055
4665.7850354002	0.4896764159
4667.7138427732	0.4893925190
4669.6426501463	0.4817357063
4671.5714575193	0.4778373241
4673.5002648924	0.4804818630
4675.4290722654	0.4825507104
4677.3578796385	0.4768410623
4679.2866870115	0.4890231788
4681.2154943846	0.4818282127
4683.1443017576	0.4718261957
4685.0731091307	0.4853464067
4687.0019165037	0.4791845381
4688.9307238767	0.4843491316
4690.8595312498	0.4883367717
4692.7883386228	0.4833709300
4694.7171459959	0.4863390326
4696.6459533689	0.4896709621
4698.5747607420	0.4910065234
4700.5035681150	0.4877452254
4702.4323754881	0.4834575057
4704.3611828611	0.4744452238
4706.2899902342	0.4918503463
4708.2187976072	0.4993561208
4710.1476049803	0.4953753352
4712.0764123533	0.4938192368
4714.0052197264	0.4752075970
4715.9340270994	0.4900199175
4717.8628344724	0.4903577268
4719.7916418455	0.4822218716
4721.7204492185	0.4841493666
4723.6492565916	0.4719432890
4725.5780639646	0.4800024033
4727.5068713377	0.4797663987
4729.4356787107	0.4786890447
4731.3644860838	0.4759687781
4733.2932934568	0.4803596437
4735.2221008299	0.4894956052
4737.1509082029	0.4740353823
4739.0797155760	0.4828125834
4741.0085229490	0.4902638793
4742.9373303221	0.4740956724
4744.8661376951	0.4772604406
4746.7949450682	0.4940904081
4748.7237524412	0.4825146198
4750.6525598142	0.4790238142
4752.5813671873	0.4958869815
4754.5101745603	0.4753831923
4756.4389819334	0.4806977510
4758.3677893064	0.4974609613
4760.2965966795	0.4784424305
4762.2254040525	0.4786320925
4764.1542114256	0.4854899645
4766.0830187986	0.4827789664
4768.0118261717	0.4809519351
4769.9406335447	0.4873247147
4771.8694409178	0.4870092273
4773.7982482908	0.4814784229
4775.7270556639	0.4859561324
4777.6558630369	0.4779461622
4779.5846704099	0.4724562466
4781.5134777830	0.4778903425
4783.4422851560	0.4799119532
4785.3710925291	0.4768733680
4787.2998999021	0.4729346037
4789.2287072752	0.4836080968
4791.1575146482	0.4849134088
4793.0863220213	0.4706510007
4795.0151293943	0.4847317934
4796.9439367674	0.4936549366
4798.8727441404	0.4780766666
4800.8015515135	0.4807009995
4802.7303588865	0.4715135098
4804.6591662596	0.4637785554
4806.5879736326	0.4753306508
4808.5167810056	0.4748049974
4810.4455883787	0.4728028774
4812.3743957517	0.4665332139
4814.3032031248	0.4780059457
4816.2320104978	0.4924894571
4818.1608178709	0.4804224372
4820.0896252439	0.4810855091
4822.0184326170	0.4843722582
4823.9472399900	0.4801724851
4825.8760473631	0.4819655716
4827.8048547361	0.4851912558
4829.7336621092	0.4870066941
4831.6624694822	0.4780137241
4833.5912768553	0.4713239968
4835.5200842283	0.4817063808
4837.4488916013	0.4803478122
4839.3776989744	0.4798709452
4841.3065063474	0.4938346148
4843.2353137205	0.4744203389
4845.1641210935	0.4658361077
4847.0929284666	0.4777516127
4849.0217358396	0.4663040638
4850.9505432127	0.4726489484
4852.8793505857	0.4848889410
4854.8081579588	0.4861989617
4856.7369653318	0.4833665192
4858.6657727049	0.4749277830
4860.5945800779	0.4768926799
4862.5233874510	0.4727226496
4864.4521948240	0.4671487510
4866.3810021971	0.4690805078
4868.3098095701	0.4655483067
4870.2386169431	0.4622167647
4872.1674243162	0.4693217874
4874.0962316892	0.4766991436
4876.0250390623	0.4711722732
4877.9538464353	0.4679826796
4879.8826538084	0.4769971073
4881.8114611814	0.4823141098
4883.7402685545	0.4800574780
4885.6690759275	0.4785594344
4887.5978833006	0.4754444361
4889.5266906736	0.4705104530
4891.4554980467	0.4725424349
4893.3843054197	0.4847198129
4895.3131127928	0.4814982116
4897.2419201658	0.4710504711
4899.1707275388	0.4728998542
4901.0995349119	0.4705657661
4903.0283422849	0.4709429741
4904.9571496580	0.4694987833
4906.8859570310	0.4714136422
4908.8147644041	0.4683357179
4910.7435717771	0.4648597538
4912.6723791502	0.4761250615
4914.6011865232	0.4741930962
4916.5299938963	0.4858095646
4918.4588012693	0.4835471213
4920.3876086424	0.4752430916
4922.3164160154	0.4845604002
4924.2452233885	0.4642224908
4926.1740307615	0.4598216712
4928.1028381345	0.4731704891
4930.0316455076	0.4773349464
4931.9604528806	0.4654533565
4933.8892602537	0.4652188718
4935.8180676267	0.4832157195
4937.7468749998	0.4720938206
4939.6756823728	0.4703811109
4941.6044897459	0.4671553373
4943.5332971189	0.4578697681
4945.4621044920	0.4653763175
4947.3909118650	0.4729341567
4949.3197192381	0.4754224122
4951.2485266111	0.4704304636
4953.1773339842	0.4611493051
4955.1061413572	0.4514772594
4957.0349487302	0.4633981884
4958.9637561033	0.4733223915
4960.8925634763	0.4904398322
4962.8213708494	0.4838256836
4964.7501782224	0.4596499205
4966.6789855955	0.4856845140
4968.6077929685	0.4734359682
4970.5366003416	0.4677582085
4972.4654077146	0.4807986021
4974.3942150877	0.4644210041
4976.3230224607	0.4745909274
4978.2518298338	0.4766998589
4980.1806372068	0.4804542363
4982.1094445799	0.4836198092
4984.0382519529	0.4856068194
4985.9670593259	0.4771144390
4987.8958666990	0.4666326642
4989.8246740720	0.4873567820
4991.7534814451	0.4794977605
4993.6822888181	0.4699935913
4995.6110961912	0.4718675315
4997.5399035642	0.4650032818
4999.4687109373	0.4579288960
5001.3975183103	0.4705941975
5003.3263256834	0.4942995906
5005.2551330564	0.4807592928
5007.1839404295	0.4801806808
5009.1127478025	0.4883356690
5011.0415551756	0.4765914679
5012.9703625486	0.4690486491
5014.8991699217	0.4670269489
5016.8279772947	0.4758371711
5018.7567846677	0.4823709428
5020.6855920408	0.4783329964
5022.6143994138	0.4775973260
5024.5432067869	0.4731259346
5026.4720141599	0.4586137533
5028.4008215330	0.4645986259
5030.3296289060	0.4693385959
5032.2584362791	0.4750658870
5034.1872436521	0.4833663404
5036.1160510252	0.4774892330
5038.0448583982	0.4860763848
5039.9736657713	0.4717101455
5041.9024731443	0.4686718285
5043.8312805174	0.4799429774
5045.7600878904	0.4660131335
5047.6888952634	0.4567191005
5049.6177026365	0.4640713334
5051.5465100095	0.4812617004
5053.4753173826	0.4763002396
5055.4041247556	0.4898800850
5057.3329321287	0.4735294878
5059.2617395017	0.4468249381
5061.1905468748	0.4736056626
5063.1193542478	0.4713902771
5065.0481616209	0.4864192307
5066.9769689939	0.4864389002
5068.9057763670	0.4620313942
5070.8345837400	0.4732014537
5072.7633911131	0.4772514403
5074.6921984861	0.4764716923
5076.6210058591	0.4738369286
5078.5498132322	0.4667142928
5080.4786206052	0.4575441778
5082.4074279783	0.4774651527
5084.3362353513	0.4647166133
5086.2650427244	0.4396061599
5088.1938500974	0.4731085002
5090.1226574705	0.4776234329
5092.0514648435	0.4711679518
5093.9802722166	0.4720643163
5095.9090795896	0.4798744023
5097.8378869627	0.4690726101
5099.7666943357	0.4578035176
5101.6955017088	0.4656656981
5103.6243090818	0.4408253133
5105.5531164548	0.4693053961
5107.4819238279	0.4800731242
5109.4107312009	0.4653213024
5111.3395385740	0.4624697566
5113.2683459470	0.4492689669
5115.1971533201	0.4926261306
5117.1259606931	0.4843633771
5119.0547680662	0.4723463655
5120.9835754392	0.4756739140
5122.9123828123	0.4559412599
5124.8411901853	0.4785827994
5126.7699975584	0.4761238694
5128.6988049314	0.4857397079
5130.6276123045	0.4763619006
5132.5564196775	0.4616020620
5134.4852270506	0.4764216542
5136.4140344236	0.4569567144
5138.3428417966	0.4806343019
5140.2716491697	0.4944859445
5142.2004565427	0.4707881212
5144.1292639158	0.4591103196
5146.0580712888	0.4505580664
5147.9868786619	0.4726810455
5149.9156860349	0.4859561324
5151.8444934080	0.4867024720
5153.7733007810	0.4778784811
5155.7021081541	0.4619900584
5157.6309155271	0.4754124880
5159.5597229002	0.4761416018
5161.4885302732	0.4614108503
5163.4173376463	0.4517370462
5165.3461450193	0.4381460547
5167.2749523923	0.4551302195
5169.2037597654	0.4753372073
5171.1325671384	0.4657813907
5173.0613745115	0.4720559120
5174.9901818845	0.4621581137
5176.9189892576	0.4434975982
5178.8477966306	0.4555394650
5180.7766040037	0.4605742693
5182.7054113767	0.4712518156
5184.6342187498	0.4759095311
5186.5630261228	0.4703060389
5188.4918334959	0.4800889194
5190.4206408689	0.4672435820
5192.3494482420	0.4532412589
5194.2782556150	0.4715415537
5196.2070629880	0.4778359234
5198.1358703611	0.4749386311
5200.0646777341	0.4810002744
5201.9934851072	0.4693737626
5203.9222924802	0.4589617252
5205.8510998533	0.4668318033
5207.7799072263	0.4782179594
5209.7087145994	0.4824378490
5211.6375219724	0.4852508903
5213.5663293455	0.4898554683
5215.4951367185	0.4707609713
5217.4239440916	0.4549366832
5219.3527514646	0.4796937406
5221.2815588377	0.5009924173
5223.2103662107	0.4736927450
5225.1391735837	0.4646647871
5227.0679809568	0.4738727510
5228.9967883298	0.4543800652
5230.9255957029	0.4536465704
5232.8544030759	0.4525318742
5234.7832104490	0.4676789641
5236.7120178220	0.4916428924
5238.6408251951	0.4603132904
5240.5696325681	0.4438629746
5242.4984399412	0.4750101864
5244.4272473142	0.5020388365
5246.3560546873	0.4766408503
5248.2848620603	0.4931248426
5250.2136694334	0.5160648227
5252.1424768064	0.4710700810
5254.0712841795	0.4750025570
5256.0000915525	0.4665029347
5257.9288989255	0.4812526107
5259.8577062986	0.4995210469
5261.7865136716	0.4653443992
5263.7153210447	0.4871864915
5265.6441284177	0.4652290344
5267.5729357908	0.4545803964
5269.5017431638	0.4813076854
5271.4305505369	0.4678570330
5273.3593579099	0.4768069983
5275.2881652830	0.4620504379
5277.2169726560	0.4594622552
5279.1457800291	0.4693885148
5281.0745874021	0.4650342166
5283.0033947752	0.4615548253
5284.9322021482	0.4459368587
5286.8610095212	0.4826301038
5288.7898168943	0.4985737205
5290.7186242673	0.4782698750
5292.6474316404	0.4797551334
5294.5762390134	0.4586806595
5296.5050463865	0.4841270745
5298.4338537595	0.4969497919
5300.3626611326	0.4546419084
5302.2914685056	0.4902859628
5304.2202758787	0.4902821779
5306.1490832517	0.4512836635
5308.0778906248	0.4852757454
5310.0066979978	0.4658029377
5311.9355053709	0.4583302736
5313.8643127439	0.4754116833
5315.7931201169	0.4660574794
5317.7219274900	0.4951651394
5319.6507348630	0.4701938629
5321.5795422361	0.4646923244
5323.5083496091	0.4823805690
5325.4371569822	0.4754014909
5327.3659643552	0.5065669417
5329.2947717283	0.4732289314
5331.2235791013	0.4790335000
5333.1523864744	0.4967949092
5335.0811938474	0.4510407150
5337.0100012205	0.4847562313
5338.9388085935	0.4793633223
5340.8676159666	0.4645652771
5342.7964233396	0.4883854985
5344.7252307126	0.4594468176
5346.6540380857	0.4716123641
5348.5828454587	0.4699127376
5350.5116528318	0.4462497234
5352.4404602048	0.4839909673
5354.3692675779	0.4924771190
5356.2980749509	0.4675654173
5358.2268823240	0.4850043952
5360.1556896970	0.4839546382
5362.0844970701	0.4646966755
5364.0133044431	0.4941442609
5365.9421118162	0.4879522920
5367.8709191892	0.4690404534
5369.7997265623	0.5002912879
5371.7285339353	0.4798347652
5373.6573413083	0.4718064070
5375.5861486814	0.4844272435
5377.5149560544	0.4626914263
5379.4437634275	0.5172637105
5381.3725708005	0.5383917689
5383.3013781736	0.4807896614
5385.2301855466	0.4557156563
5387.1589929197	0.4580178261
5389.0878002927	0.5062575936
5391.0166076658	0.5012812018
5392.9454150388	0.4869748950
5394.8742224119	0.5130017996
5396.8030297849	0.4774905741
5398.7318371580	0.4490070045
5400.6606445310	0.4550139308
5402.5894519041	0.4907294810
5404.5182592771	0.5029795170
5406.4470666501	0.4834533632
5408.3758740232	0.4812954068
5410.3046813962	0.4619657993
5412.2334887693	0.4817888439
5414.1622961423	0.4799167216
5416.0911035154	0.4921875596
5418.0199108884	0.5213069916
5419.9487182615	0.4754217565
5421.8775256345	0.4734807909
5423.8063330076	0.4798501432
5425.7351403806	0.4777757823
5427.6639477537	0.4811243117
5429.5927551267	0.4816890955
5431.5215624998	0.4871370494
5433.4503698728	0.4564667046
5435.3791772458	0.4789482355
5437.3079846189	0.5138787031
5439.2367919919	0.4836957753
5441.1655993650	0.4545594454
5443.0944067380	0.4519875646
5445.0232141111	0.4776366949
5446.9520214841	0.5103974938
5448.8808288572	0.4925115705
5450.8096362302	0.4640807211
5452.7384436033	0.4932497442
5454.6672509763	0.4946680069
5456.5960583494	0.4945210814
5458.5248657224	0.4959689975
5460.4536730955	0.4744908214
5462.3824804685	0.4830816686
5464.3112878415	0.4829618335
5466.2400952146	0.4958473742
5468.1689025876	0.4767841697
5470.0977099607	0.4663251042
5472.0265173337	0.4875905216
5473.9553247068	0.4766883850
5475.8841320798	0.4812486172
5477.8129394529	0.4750656486
5479.7417468259	0.4886544049
5481.6705541990	0.4940333962
5483.5993615720	0.4889947176
5485.5281689451	0.4713792503
5487.4569763181	0.4596361518
5489.3857836912	0.4971087873
5491.3145910642	0.4798241556
5493.2433984372	0.5044201612
5495.1722058103	0.5229187012
5497.1010131833	0.4774608910
5499.0298205564	0.4725633264
5500.9586279294	0.4817582369
5502.8874353025	0.4766103327
5504.8162426755	0.4409601688
5506.7450500486	0.4612295330
5508.6738574216	0.4827611744
5510.6026647947	0.4736474156
5512.5314721677	0.4732137024
5514.4602795408	0.4610774815
5516.3890869138	0.4739505053
5518.3178942869	0.4770503938
5520.2467016599	0.4860031605
5522.1755090330	0.4727384746
5524.1043164060	0.4779530466
5526.0331237790	0.4854122400
5527.9619311521	0.4547855258
5529.8907385251	0.4861190915
5531.8195458982	0.4850531220
5533.7483532712	0.4712926149
5535.6771606443	0.4756944478
5537.6059680173	0.4667375982
5539.5347753904	0.4856291413
5541.4635827634	0.5022709370
5543.3923901365	0.4973734617
5545.3211975095	0.4818372726
5547.2500048826	0.4797578752
5549.1788122556	0.4674405158
5551.1076196287	0.4855069816
5553.0364270017	0.4776525497
5554.9652343747	0.4558313489
5556.8940417478	0.4890380800
5558.8228491208	0.4553844333
5560.7516564939	0.4514859319
5562.6804638669	0.4926095307
5564.6092712400	0.5039557219
5566.5380786130	0.4887697697
5568.4668859861	0.4817131758
5570.3956933591	0.5188304186
5572.3245007322	0.4774514437
5574.2533081052	0.4363287687
5576.1821154783	0.4692122042
5578.1109228513	0.4693330228
5580.0397302244	0.4745813608
5581.9685375974	0.4930967391
5583.8973449704	0.4608943164
5585.8261523435	0.4676916897
5587.7549597165	0.4789316952
5589.6837670896	0.4229088426
5591.6125744626	0.4488504231
5593.5413818357	0.4688473940
5595.4701892087	0.4702300429
5597.3989965818	0.4976418316
5599.3278039548	0.4878699183
5601.2566113279	0.5249632001
5603.1854187009	0.5138186812
5605.1142260740	0.4858712256
5607.0430334470	0.4670411348
5608.9718408201	0.4450708330
5610.9006481931	0.4863804579
5612.8294555661	0.4711717367
5614.7582629392	0.4466893673
5616.6870703122	0.4706673622
5618.6158776853	0.4961349070
5620.5446850583	0.5029400587
5622.4734924314	0.4750838578
5624.4022998044	0.4596122801
5626.3311071775	0.5167831779
5628.2599145505	0.5154334307
5630.1887219236	0.4403758943
5632.1175292966	0.4671719968
5634.0463366697	0.4748841822
5635.9751440427	0.4649972022
5637.9039514158	0.4376882017
5639.8327587888	0.4507634640
5641.7615661619	0.5279564857
5643.6903735349	0.4555341303
5645.6191809079	0.4667193890
5647.5479882810	0.4998410046
5649.4767956540	0.4901800156
5651.4056030271	0.5351975560
5653.3344104001	0.4737239480
5655.2632177732	0.4973106384
5657.1920251462	0.5237398744
5659.1208325193	0.4766198397
5661.0496398923	0.4460732341
5662.9784472654	0.4727249742
5664.9072546384	0.4961286187
5666.8360620115	0.4315800667
5668.7648693845	0.4987565875
5670.6936767576	0.5071085095
5672.6224841306	0.4966154695
5674.5512915036	0.5211549401
5676.4800988767	0.4380636811
5678.4089062497	0.5032534599
5680.3377136228	0.5144966245
5682.2665209958	0.4832883477
5684.1953283689	0.5119507909
5686.1241357419	0.4881502986
5688.0529431150	0.4954765737
5689.9817504880	0.4485028088
5691.9105578611	0.4866003692
5693.8393652341	0.5262097716
5695.7681726072	0.4705512524
5697.6969799802	0.4799493849
5699.6257873533	0.4662709832
5701.5545947263	0.4715992510
5703.4834020993	0.4704820812
5705.4122094724	0.4964510500
5707.3410168454	0.5303890705
5709.2698242185	0.4418059587
5711.1986315915	0.4742708802
5713.1274389646	0.5308216214
5715.0562463376	0.4555984437
5716.9850537107	0.4556938708
5718.9138610837	0.4911565483
5720.8426684568	0.5074233413
5722.7714758298	0.4957633615
5724.7002832029	0.4834288061
5726.6290905759	0.5163773298
5728.5578979490	0.4732809663
5730.4867053220	0.4562780857
5732.4155126950	0.5074360371
5734.3443200681	0.4590920210
5736.2731274411	0.4595030844
5738.2019348142	0.4903237522
5740.1307421872	0.4353769720
5742.0595495603	0.4742221534
5743.9883569333	0.5083433986
5745.9171643064	0.4669175148
5747.8459716794	0.5341585875
5749.7747790525	0.5415403843
5751.7035864255	0.4839560390
5753.6323937986	0.4868459105
5755.5612011716	0.4605257213
5757.4900085447	0.4835230410
5759.4188159177	0.4805865884
5761.3476232907	0.4680616260
5763.2764306638	0.5187951326
5765.2052380368	0.4945007861
5767.1340454099	0.4596005678
5769.0628527829	0.4402741194
5770.9916601560	0.4662566185
5772.9204675290	0.5226686001
5774.8492749021	0.4966316223
5776.7780822751	0.4987298250
5778.7068896482	0.5076817870
5780.6356970212	0.4779036045
5782.5645043943	0.4707680047
5784.4933117673	0.4631212652
5786.4221191404	0.4608417153
5788.3509265134	0.4763021469
5790.2797338865	0.4912369251
5792.2085412595	0.4662403166
5794.1373486325	0.4696531296
5796.0661560056	0.5283599496
5797.9949633786	0.5374081731
5799.9237707517	0.4853578806
5801.8525781247	0.4471699297
5803.7813854978	0.4559992552
5805.7101928708	0.4657049477
5807.6390002439	0.4779551625
5809.5678076169	0.4879566729
5811.4966149900	0.4880085289
5813.4254223630	0.4677139223
5815.3542297361	0.4458795190
5817.2830371091	0.4849614799
5819.2118444822	0.5053593516
5821.1406518552	0.4890004098
5823.0694592282	0.4410458207
5824.9982666013	0.4804297090
5826.9270739743	0.5919315815
5828.8558813474	0.4909878671
5830.7846887204	0.4548577964
5832.7134960935	0.4889004230
5834.6423034665	0.4757817984
5836.5711108396	0.5071538091
5838.4999182126	0.4693827629
5840.4287255857	0.5083039999
5842.3575329587	0.5109403133
5844.2863403318	0.4884167612
5846.2151477048	0.5581390262
5848.1439550779	0.5315603018
5850.0727624509	0.5212860107
5852.0015698239	0.4787028432
5853.9303771970	0.4509682655
5855.8591845700	0.4858251810
5857.7879919431	0.4570806921
5859.7167993161	0.4795762002
5861.6456066892	0.5172186494
5863.5744140622	0.4813285470
5865.5032214353	0.4949046373
5867.4320288083	0.5622277856
5869.3608361814	0.5001651645
5871.2896435544	0.4535118937
5873.2184509275	0.4784889519
5875.1472583005	0.4854725599
5877.0760656736	0.5106959343
5879.0048730466	0.5070121884
5880.9336804196	0.5640067458
5882.8624877927	0.5049383640
5884.7912951657	0.4145946503
5886.7201025388	0.5255971551
5888.6489099118	0.5297541618
5890.5777172849	0.5003381371
5892.5065246579	0.5319001079
5894.4353320310	0.5155850649
5896.3641394040	0.5175389647
5898.2929467771	0.4806419015
5900.2217541501	0.4015043974
5902.1505615232	0.4530715942
5904.0793688962	0.5271444321
5906.0081762693	0.4669060409
5907.9369836423	0.5105571151
5909.8657910154	0.5253205895
5911.7945983884	0.4618746638
5913.7234057614	0.5305171013
5915.6522131345	0.5292740464
5917.5810205075	0.5311650634
5919.5098278806	0.5499484539
5921.4386352536	0.4958048463
5923.3674426267	0.5095903873
5925.2962499997	0.4658268094
5927.2250573728	0.4847872555
5929.1538647458	0.5504871607
5931.0826721189	0.4770562649
5933.0114794919	0.5294297338
5934.9402868650	0.5395970345
5936.8690942380	0.5017204285
5938.7979016111	0.5825256109
5940.7267089841	0.4625955224
5942.6555163571	0.4628989697
5944.5843237302	0.5359232426
5946.5131311032	0.4474267662
5948.4419384763	0.5158048868
5950.3707458493	0.5494821072
5952.2995532224	0.4496875405
5954.2283605954	0.4457032382
5956.1571679685	0.4659698308
5958.0859753415	0.4513770342
5960.0147827146	0.4851794541
5961.9435900876	0.5024523139
5963.8723974607	0.4508774281
5965.8012048337	0.4868186414
5967.7300122068	0.5042647719
5969.6588195798	0.4679958820
5971.5876269528	0.4364587069
5973.5164343259	0.4576504827
5975.4452416989	0.5357232094
5977.3740490720	0.5376151204
5979.3028564450	0.4777837098
5981.2316638181	0.4567656219
5983.1604711911	0.5249342918
5985.0892785642	0.4872373641
5987.0180859372	0.4971837401
5988.9468933103	0.5797388554
5990.8757006833	0.4475068748
5992.8045080564	0.4279024005
5994.7333154294	0.4703381658
5996.6621228025	0.4902937412
5998.5909301755	0.4864719808
6000.5197375485	0.4308996499
