399.2631262207	1.2828598022
401.1919335938	-0.4597605169
403.1207409668	0.2370383590
405.0495483398	0.5885781646
406.9783557129	1.4571779966
408.9071630859	1.9218157530
410.8359704590	0.1690871865
412.7647778320	1.0600795746
414.6935852051	0.7065448165
416.6223925781	-0.1488177776
418.5511999512	0.0474105589
420.4800073242	0.0989267677
422.4088146973	1.3120483160
424.3376220703	0.8863247633
426.2664294434	0.4540388882
428.1952368164	5.5514526367
430.1240441895	0.4535834193
432.0528515625	0.7174538374
433.9816589355	0.3211393356
435.9104663086	0.5566945076
437.8392736816	1.5043780804
439.7680810547	0.7819365263
441.6968884277	1.3064740896
443.6256958008	0.4498719871
445.5545031738	-0.1382156312
447.4833105469	0.0411600135
449.4121179199	0.1041434109
451.3409252930	1.3866072893
453.2697326660	1.4952212572
455.1985400391	0.2984968126
457.1273474121	0.9549639225
459.0561547852	-2.6985554695
460.9849621582	0.4266524911
462.9137695313	0.7040085196
464.8425769043	-0.3704732060
466.7713842773	0.6222161651
468.7001916504	1.2161414623
470.6289990234	0.5773382187
472.5578063965	1.2433087826
474.4866137695	-1.8517391682
476.4154211426	0.8264864683
478.3442285156	0.4490111768
480.2730358887	2.9688608646
482.2018432617	0.8240324855
484.1306506348	0.3914934397
486.0594580078	1.6642309427
487.9882653809	2.7633314133
489.9170727539	0.8091948032
491.8458801270	-0.0541411489
493.7746875000	0.9489462376
495.7034948730	0.6794274449
497.6323022461	0.1770977229
499.5611096191	1.0793021917
501.4899169922	-1.7760372162
503.4187243652	2.7950890064
505.3475317383	-3.1847784519
507.2763391113	0.8314616680
509.2051464844	0.3968474865
511.1339538574	0.3759022057
513.0627612305	0.2249382436
514.9915686035	-4.0149841309
516.9203759766	-2.2888908386
518.8491833496	-1.1098278761
520.7779907227	1.3002715111
522.7067980957	1.8566073179
524.6356054688	-0.2018118352
526.5644128418	-0.1288361996
528.4932202148	-10.1176786423
530.4220275879	1.4596912861
532.3508349609	0.2613922060
534.2796423340	3.8934686184
536.2084497070	13.0441398621
538.1372570801	-10.9619665146
540.0660644531	0.2131909281
541.9948718262	0.1741323769
543.9236791992	-0.6228858829
545.8524865723	3.9868557453
547.7812939453	-22.2906131744
549.7101013184	0.1272174716
551.6389086914	0.5921066403
553.5677160645	-0.1469977498
555.4965234375	-2.6696555614
557.4253308105	-1.8510155678
559.3541381836	0.5622716546
561.2829455566	0.6614285707
563.2117529297	-0.5738182068
565.1405603027	0.0790384188
567.0693676758	-1.5156612396
568.9981750488	0.6683644652
570.9269824219	78.2124176025
572.8557897949	1.5612013340
574.7845971680	-0.2357917428
576.7134045410	0.1449574083
578.6422119141	-0.3949463367
580.5710192871	0.9822314978
582.4998266602	-1.0137140751
584.4286340332	0.7354435325
586.3574414063	2.7783331871
588.2862487793	-1.3317003250
590.2150561523	-0.3287390769
592.1438635254	-1.9671006203
594.0726708984	2.0880169868
596.0014782715	2.3088338375
597.9302856445	2.5899474621
599.8590930176	0.9714188576
601.7879003906	0.4591970146
603.7167077637	-1.6042158604
605.6455151367	-11.4144763947
607.5743225098	0.2669469416
609.5031298828	0.7812947035
611.4319372559	1.8878643513
613.3607446289	-1.3592201471
615.2895520020	-1.5689973831
617.2183593750	1.3180755377
619.1471667480	1.8840967417
621.0759741211	0.0042706598
623.0047814941	0.4566748142
624.9335888672	2.0682640076
626.8623962402	-0.6770507693
628.7912036133	-0.4796044230
630.7200109863	-1.2936935425
632.6488183594	0.8915633559
634.5776257324	0.0562400781
636.5064331055	0.5974115133
638.4352404785	1.6625380516
640.3640478516	1.0102230310
642.2928552246	1.5071544647
644.2216625977	0.8982453942
646.1504699707	0.6780079007
648.0792773438	1.4852600098
650.0080847168	0.4335261285
651.9368920898	0.4701987803
653.8656994629	2.4572851658
655.7945068359	0.7038591504
657.7233142090	0.7867209315
659.6521215820	0.6958643198
661.5809289551	0.5833232999
663.5097363281	0.7388681173
665.4385437012	0.4792326093
667.3673510742	0.7791101336
669.2961584473	0.5641607642
671.2249658203	0.6428567171
673.1537731934	0.8218199611
675.0825805664	0.4199346304
677.0113879395	0.8414037228
678.9401953125	1.0219082832
680.8690026855	0.8326662779
682.7978100586	1.0412207842
684.7266174316	0.5872433782
686.6554248047	0.8812640309
688.5842321777	1.1830229759
690.5130395508	0.6706132889
692.4418469238	0.6849910021
694.3706542969	0.8776646852
696.2994616699	0.8345859051
698.2282690430	0.6564772725
700.1570764160	0.8143427372
702.0858837891	0.8176908493
704.0146911621	0.6499310732
705.9434985352	0.7134110928
707.8723059082	0.6693446040
709.8011132813	0.8528018594
711.7299206543	0.8214357495
713.6587280273	0.7617486715
715.5875354004	0.2500396967
717.5163427734	-0.1693351716
719.4451501465	0.8755151629
721.3739575195	0.4782471955
723.3027648926	1.3837291002
725.2315722656	-30.0783882141
727.1603796387	1.1994898319
729.0891870117	0.3947791457
731.0179943848	-0.4667958915
732.9468017578	-15.6883554459
734.8756091309	1.5667310953
736.8044165039	5.1054315567
738.7332238770	1.2245882750
740.6620312500	0.1099245399
742.5908386230	-4.6322741508
744.5196459961	0.0949392691
746.4484533691	0.1485343426
748.3772607422	2.4212222099
750.3060681152	0.5806872249
752.2348754883	0.6419864893
754.1636828613	0.6149657965
756.0924902344	-4.0383677483
758.0212976074	0.0189429633
759.9501049805	0.7993654013
761.8789123535	0.6931087375
763.8077197266	0.3395377100
765.7365270996	0.7214034796
767.6653344727	1.1100407839
769.5941418457	0.7523446083
771.5229492188	-0.0117254071
773.4517565918	0.8606279492
775.3805639648	1.3242211342
777.3093713379	0.8281561136
779.2381787109	1.9520336390
781.1669860840	-0.1429522336
783.0957934570	-0.7990751266
785.0246008301	2.4740529060
786.9534082031	1.5708494186
788.8822155762	1.2214436531
790.8110229492	-3.3721952438
792.7398303223	8.1489343643
794.6686376953	1.9462174177
796.5974450684	-0.0337037258
798.5262524414	0.4929648340
800.4550598145	1.3005118370
802.3838671875	0.4215229452
804.3126745605	0.4245568812
806.2414819336	2.3934221268
808.1702893066	1.1886783838
810.0990966797	-0.7487795353
812.0279040527	1.6191669703
813.9567114258	0.8425325751
815.8855187988	2.7318003178
817.8143261719	-1.8028054237
819.7431335449	0.7667369843
821.6719409180	0.9865215421
823.6007482910	0.3916893899
825.5295556641	0.9445568323
827.4583630371	2.3860547543
829.3871704102	0.7775604725
831.3159777832	0.6776169538
833.2447851563	0.4581327140
835.1735925293	0.6151576042
837.1023999023	1.5406621695
839.0312072754	0.8160529733
840.9600146484	0.6000479460
842.8888220215	1.2315310240
844.8176293945	0.7672361732
846.7464367676	1.3096292019
848.6752441406	1.4177998304
850.6040515137	0.5342259407
852.5328588867	2.0784218311
854.4616662598	1.2073402405
856.3904736328	0.6071578264
858.3192810059	1.2406162024
860.2480883789	0.5552274585
862.1768957520	0.5575509071
864.1057031250	1.5561765432
866.0345104980	0.7337200046
867.9633178711	0.3834201097
869.8921252441	1.7325911522
871.8209326172	0.7707799077
873.7497399902	0.6579190493
875.6785473633	0.6327903867
877.6073547363	-0.0846562237
879.5361621094	0.7139997482
881.4649694824	0.7633938193
883.3937768555	-0.3040576875
885.3225842285	0.3188346326
887.2513916016	0.1823503524
889.1801989746	0.9412040114
891.1090063477	0.5158390403
893.0378137207	0.0984611288
894.9666210938	0.9453969002
896.8954284668	0.9310546517
898.8242358398	1.0736206770
900.7530432129	3.2688746452
902.6818505859	1.0404753685
904.6106579590	0.4696350992
906.5394653320	1.6793162823
908.4682727051	3.4976141453
910.3970800781	2.4768836498
912.3258874512	1.2463386059
914.2546948242	0.9112671614
916.1835021973	2.1298201084
918.1123095703	0.5347679257
920.0411169434	0.5990527868
921.9699243164	1.1997007132
923.8987316895	0.8375449181
925.8275390625	0.8629439473
927.7563464355	0.9586994052
929.6851538086	0.9193853736
931.6139611816	0.6951528192
933.5427685547	0.6565741897
935.4715759277	0.7756994963
937.4003833008	0.4481846094
939.3291906738	0.7568112016
941.2579980469	0.9277472496
943.1868054199	0.7397041917
945.1156127930	1.0763444901
947.0444201660	0.7907786965
948.9732275391	1.1012769938
950.9020349121	1.3940963745
952.8308422852	1.0228614807
954.7596496582	0.8058425188
956.6884570313	0.6300613880
958.6172644043	0.8514145017
960.5460717773	0.7189543843
962.4748791504	1.0570443869
964.4036865234	0.7476597428
966.3324938965	0.7141488791
968.2613012695	1.1572916508
970.1901086426	0.4626254141
972.1189160156	1.2138226032
974.0477233887	1.5013008118
975.9765307617	1.0026212931
977.9053381348	0.9862086773
979.8341455078	0.5473152995
981.7629528809	1.0381828547
983.6917602539	0.7682104111
985.6205676270	0.6184751391
987.5493750000	0.8476698399
989.4781823730	0.7026197314
991.4069897461	0.8820108175
993.3357971191	0.7835855484
995.2646044922	0.7108105421
997.1934118652	0.7748358250
999.1222192383	0.7858304381
1001.0510266113	0.8208805919
1002.9798339844	0.7269400954
1004.9086413574	0.7556620836
1006.8374487305	0.7349584103
1008.7662561035	0.7112937570
1010.6950634766	0.7478685975
1012.6238708496	0.7935895324
1014.5526782227	0.7724821568
1016.4814855957	0.6825754046
1018.4102929688	0.7886044979
1020.3391003418	0.7458747625
1022.2679077148	0.7088912129
1024.1967150879	0.8230396509
1026.1255224609	0.7346355319
1028.0543298340	0.7568625212
1029.9831372070	0.7915560007
1031.9119445801	0.7221722007
1033.8407519531	0.7474030256
1035.7695593262	0.7528769970
1037.6983666992	0.7431260943
1039.6271740723	0.7306788564
1041.5559814453	0.7127772570
1043.4847888184	0.7050381899
1045.4135961914	0.7452440858
1047.3424035645	0.7485401630
1049.2712109375	0.7046238780
1051.2000183105	0.7258849144
1053.1288256836	0.7402985692
1055.0576330566	0.7639096379
1056.9864404297	0.7117772102
1058.9152478027	0.7212070823
1060.8440551758	0.7713153958
1062.7728625488	0.6990334988
1064.7016699219	0.7510662079
1066.6304772949	0.7464866638
1068.5592846680	0.7290747762
1070.4880920410	0.7682064176
1072.4168994141	0.7220409513
1074.3457067871	0.7658556700
1076.2745141602	0.7377351522
1078.2033215332	0.7181550860
1080.1321289062	0.7441453934
1082.0609362793	0.7004843950
1083.9897436523	0.7399801612
1085.9185510254	0.7287199497
1087.8473583984	0.6630098820
1089.7761657715	0.7353309989
1091.7049731445	0.7705780268
1093.6337805176	0.6826156378
1095.5625878906	0.6116923690
1097.4913952637	0.6583358049
1099.4202026367	0.8406272531
1101.3490100098	0.7066755891
1103.2778173828	0.6176462173
1105.2066247559	0.6766449213
1107.1354321289	0.5578933954
1109.0642395019	0.6559982896
1110.9930468750	0.7392075062
1112.9218542480	0.7347487211
1114.8506616211	0.6534208655
1116.7794689941	0.6271416545
1118.7082763672	0.8039892316
1120.6370837402	0.8013629913
1122.5658911133	0.7552104592
1124.4946984863	0.6142476797
1126.4235058594	0.6405807734
1128.3523132324	0.8228350282
1130.2811206055	0.7246639132
1132.2099279785	0.6837078333
1134.1387353516	0.6667960882
1136.0675427246	0.7253795862
1137.9963500977	0.7326868176
1139.9251574707	0.6998968720
1141.8539648437	0.7280439138
1143.7827722168	0.6996265650
1145.7115795898	0.7576321363
1147.6403869629	0.7609412074
1149.5691943359	0.7070983052
1151.4980017090	0.7140111327
1153.4268090820	0.7230259776
1155.3556164551	0.6952289939
1157.2844238281	0.7067132592
1159.2132312012	0.7201554179
1161.1420385742	0.6727644801
1163.0708459473	0.7339006662
1164.9996533203	0.7499633431
1166.9284606934	0.6728292108
1168.8572680664	0.6904701591
1170.7860754394	0.7197880745
1172.7148828125	0.6891500354
1174.6436901855	0.6648893952
1176.5724975586	0.6992798448
1178.5013049316	0.6942245960
1180.4301123047	0.6896453500
1182.3589196777	0.7242305279
1184.2877270508	0.7008795738
1186.2165344238	0.7005313635
1188.1453417969	0.6870606542
1190.0741491699	0.6676436663
1192.0029565430	0.6944104433
1193.9317639160	0.6621301174
1195.8605712891	0.6666894555
1197.7893786621	0.7111397982
1199.7181860351	0.6981809735
1201.6469934082	0.6886945963
1203.5758007812	0.6874702573
1205.5046081543	0.6957648993
1207.4334155273	0.6811218262
1209.3622229004	0.6698327661
1211.2910302734	0.6792836785
1213.2198376465	0.6840045452
1215.1486450195	0.6915887594
1217.0774523926	0.6593602896
1219.0062597656	0.6758753061
1220.9350671387	0.6894004941
1222.8638745117	0.6680899858
1224.7926818848	0.6996734738
1226.7214892578	0.6737545729
1228.6502966308	0.6739810109
1230.5791040039	0.7016192675
1232.5079113769	0.6805492640
1234.4367187500	0.6817239523
1236.3655261230	0.6580797434
1238.2943334961	0.6626078486
1240.2231408691	0.6802103519
1242.1519482422	0.6727181077
1244.0807556152	0.6796551943
1246.0095629883	0.6688535213
1247.9383703613	0.6774111390
1249.8671777344	0.6834123731
1251.7959851074	0.6780315638
1253.7247924805	0.6899744868
1255.6535998535	0.6688959002
1257.5824072266	0.6653563380
1259.5112145996	0.6915444136
1261.4400219726	0.6688518524
1263.3688293457	0.6629774570
1265.2976367187	0.6861498356
1267.2264440918	0.6772568822
1269.1552514648	0.6704778671
1271.0840588379	0.6638328433
1273.0128662109	0.6751103997
1274.9416735840	0.6811589599
1276.8704809570	0.6716570854
1278.7992883301	0.6854097843
1280.7280957031	0.6682453156
1282.6569030762	0.6619974375
1284.5857104492	0.6691687703
1286.5145178223	0.6583240628
1288.4433251953	0.6636217833
1290.3721325683	0.6574797034
1292.3009399414	0.6715618372
1294.2297473144	0.6807376146
1296.1585546875	0.6649575830
1298.0873620605	0.6816957593
1300.0161694336	0.6717315316
1301.9449768066	0.6567378044
1303.8737841797	0.6718168259
1305.8025915527	0.6711625457
1307.7313989258	0.6836601496
1309.6602062988	0.6709750891
1311.5890136719	0.6539360881
1313.5178210449	0.6688238382
1315.4466284180	0.6589413285
1317.3754357910	0.6635876894
1319.3042431640	0.6732697487
1321.2330505371	0.6678873301
1323.1618579101	0.6637056470
1325.0906652832	0.6566994190
1327.0194726562	0.6640403867
1328.9482800293	0.6608188152
1330.8770874023	0.6596220136
1332.8058947754	0.6677593589
1334.7347021484	0.6645720601
1336.6635095215	0.6612709761
1338.5923168945	0.6682956815
1340.5211242676	0.6768477559
1342.4499316406	0.6722438335
1344.3787390137	0.6659886241
1346.3075463867	0.6661424637
1348.2363537597	0.6816152930
1350.1651611328	0.6681866646
1352.0939685058	0.6423397064
1354.0227758789	0.6625899673
1355.9515832519	0.6587545872
1357.8803906250	0.6525917649
1359.8091979980	0.6738945246
1361.7380053711	0.6630255580
1363.6668127441	0.6522632837
1365.5956201172	0.6569527984
1367.5244274902	0.6676650643
1369.4532348633	0.6820840836
1371.3820422363	0.6734582782
1373.3108496094	0.6618307233
1375.2396569824	0.6600196362
1377.1684643555	0.6567727327
1379.0972717285	0.6555516720
1381.0260791015	0.6623897552
1382.9548864746	0.6682800651
1384.8836938476	0.6547865868
1386.8125012207	0.6519960761
1388.7413085937	0.6504966617
1390.6701159668	0.6435263753
1392.5989233398	0.6691150665
1394.5277307129	0.6605864167
1396.4565380859	0.6443132758
1398.3853454590	0.6659598351
1400.3141528320	0.6618281603
1402.2429602051	0.6552944779
1404.1717675781	0.6531308889
1406.1005749512	0.6550091505
1408.0293823242	0.6535201073
1409.9581896972	0.6516472101
1411.8869970703	0.6556692719
1413.8158044433	0.6478830576
1415.7446118164	0.6631232500
1417.6734191894	0.6588039398
1419.6022265625	0.6483488083
1421.5310339355	0.6556659341
1423.4598413086	0.6431558728
1425.3886486816	0.6652969718
1427.3174560547	0.6686343551
1429.2462634277	0.6478070617
1431.1750708008	0.6501957178
1433.1038781738	0.6407255530
1435.0326855469	0.6457419395
1436.9614929199	0.6620400548
1438.8903002929	0.6535795927
1440.8191076660	0.6439712048
1442.7479150390	0.6492567062
1444.6767224121	0.6509002447
1446.6055297851	0.6466168165
1448.5343371582	0.6542669535
1450.4631445312	0.6456133127
1452.3919519043	0.6403094530
1454.3207592773	0.6542018652
1456.2495666504	0.6425711513
1458.1783740234	0.6397744417
1460.1071813965	0.6629791856
1462.0359887695	0.6493618488
1463.9647961426	0.6396741271
1465.8936035156	0.6587320566
1467.8224108886	0.6498638391
1469.7512182617	0.6438000202
1471.6800256347	0.6473816037
1473.6088330078	0.6453344226
1475.5376403808	0.6555165648
1477.4664477539	0.6516659260
1479.3952551269	0.6389073133
1481.3240625000	0.6390247345
1483.2528698730	0.6373032928
1485.1816772461	0.6394715905
1487.1104846191	0.6473255754
1489.0392919922	0.6422984004
1490.9680993652	0.6361076832
1492.8969067383	0.6410714388
1494.8257141113	0.6423439980
1496.7545214843	0.6374793649
1498.6833288574	0.6370514631
1500.6121362304	0.6419721842
1502.5409436035	0.6452126503
1504.4697509765	0.6379117370
1506.3985583496	0.6290873289
1508.3273657226	0.6357510090
1510.2561730957	0.6373143792
1512.1849804687	0.6371459365
1514.1137878418	0.6366900206
1516.0425952148	0.6321740746
1517.9714025879	0.6327896118
1519.9002099609	0.6325002909
1521.8290173340	0.6276201606
1523.7578247070	0.6316406727
1525.6866320801	0.6411458850
1527.6154394531	0.6384021044
1529.5442468261	0.6343173385
1531.4730541992	0.6327961087
1533.4018615722	0.6267616153
1535.3306689453	0.6384238601
1537.2594763183	0.6365745664
1539.1882836914	0.6184877157
1541.1170910644	0.6240866780
1543.0458984375	0.6283471584
1544.9747058105	0.6282234192
1546.9035131836	0.6275449395
1548.8323205566	0.6246399879
1550.7611279297	0.6248678565
1552.6899353027	0.6265456676
1554.6187426758	0.6279385686
1556.5475500488	0.6220597625
1558.4763574218	0.6171545982
1560.4051647949	0.6239958405
1562.3339721679	0.6242777109
1564.2627795410	0.6162883043
1566.1915869140	0.6221931577
1568.1203942871	0.6287909746
1570.0492016601	0.6180097461
1571.9780090332	0.6232103109
1573.9068164062	0.6280972958
1575.8356237793	0.6142669320
1577.7644311523	0.6164383888
1579.6932385254	0.6319136024
1581.6220458984	0.6274255514
1583.5508532715	0.6144042015
1585.4796606445	0.6181367040
1587.4084680175	0.6181814075
1589.3372753906	0.6187448502
1591.2660827636	0.6161059141
1593.1948901367	0.6138873696
1595.1236975097	0.6195215583
1597.0525048828	0.6084684134
1598.9813122558	0.6113085747
1600.9101196289	0.6209486127
1602.8389270019	0.6122903228
1604.7677343750	0.6134560704
1606.6965417480	0.6180776358
1608.6253491211	0.6126883030
1610.5541564941	0.6098490953
1612.4829638672	0.6190608740
1614.4117712402	0.6172167659
1616.3405786132	0.6096086502
1618.2693859863	0.6156220436
1620.1981933593	0.6173850298
1622.1270007324	0.6187353730
1624.0558081054	0.6145393252
1625.9846154785	0.6213287115
1627.9134228515	0.6359701753
1629.8422302246	0.6322333217
1631.7710375976	0.6316515207
1633.6998449707	0.6386357546
1635.6286523437	0.6446501613
1637.5574597168	0.6433188319
1639.4862670898	0.6465428472
1641.4150744629	0.6572629809
1643.3438818359	0.6621080637
1645.2726892090	0.6611140370
1647.2014965820	0.6571403742
1649.1303039550	0.6706239581
1651.0591113281	0.6814789176
1652.9879187011	0.6702790260
1654.9167260742	0.6787268519
1656.8455334472	0.6913472414
1658.7743408203	0.6898236871
1660.7031481933	0.6928504705
1662.6319555664	0.6967418194
1664.5607629394	0.7030173540
1666.4895703125	0.7079436779
1668.4183776855	0.7057772279
1670.3471850586	0.7047596574
1672.2759924316	0.7027609348
1674.2047998047	0.7079261541
1676.1336071777	0.7071273923
1678.0624145507	0.7101657987
1679.9912219238	0.7183417082
1681.9200292968	0.7093342543
1683.8488366699	0.7046533227
1685.7776440429	0.7053456306
1687.7064514160	0.7147417665
1689.6352587890	0.7178943753
1691.5640661621	0.7142019272
1693.4928735351	0.7180727124
1695.4216809082	0.7078213692
1697.3504882812	0.7067338824
1699.2792956543	0.7080845237
1701.2081030273	0.7050130367
1703.1369104004	0.7091559172
1705.0657177734	0.7113518119
1706.9945251464	0.7108985782
1708.9233325195	0.7028346658
1710.8521398925	0.7019876242
1712.7809472656	0.7046088576
1714.7097546386	0.7054865956
1716.6385620117	0.7020159364
1718.5673693847	0.6977250576
1720.4961767578	0.7013733387
1722.4249841308	0.7014552355
1724.3537915039	0.7071740031
1726.2825988769	0.7013426423
1728.2114062500	0.6900517344
1730.1402136230	0.6947446465
1732.0690209961	0.6925270557
1733.9978283691	0.6877149343
1735.9266357421	0.6931164861
1737.8554431152	0.6876900792
1739.7842504882	0.6851816177
1741.7130578613	0.6911893487
1743.6418652343	0.6871602535
1745.5706726074	0.6877962947
1747.4994799804	0.6856591105
1749.4282873535	0.6770937443
1751.3570947265	0.6820816994
1753.2859020996	0.6875452995
1755.2147094726	0.6851686239
1757.1435168457	0.6796674132
1759.0723242187	0.6824409366
1761.0011315918	0.6867606640
1762.9299389648	0.6845690608
1764.8587463379	0.6859421134
1766.7875537109	0.6818463802
1768.7163610839	0.6757617593
1770.6451684570	0.6788327694
1772.5739758300	0.6769326925
1774.5027832031	0.6724607348
1776.4315905761	0.6727964878
1778.3603979492	0.6731709242
1780.2892053222	0.6758576035
1782.2180126953	0.6753039956
1784.1468200683	0.6723638773
1786.0756274414	0.6749886274
1788.0044348144	0.6766040921
1789.9332421875	0.6692312956
1791.8620495605	0.6637406349
1793.7908569336	0.6773146987
1795.7196643066	0.6759061813
1797.6484716796	0.6679413319
1799.5772790527	0.6734582186
1801.5060864257	0.6672007442
1803.4348937988	0.6651979089
1805.3637011718	0.6663742661
1807.2925085449	0.6656489372
1809.2213159179	0.6719685197
1811.1501232910	0.6724209189
1813.0789306640	0.6632673740
1815.0077380371	0.6626020670
1816.9365454101	0.6778578758
1818.8653527832	0.6737443805
1820.7941601562	0.6675636172
1822.7229675293	0.6685391665
1824.6517749023	0.6617774367
1826.5805822753	0.6675801277
1828.5093896484	0.6649748683
1830.4381970214	0.6605498195
1832.3670043945	0.6676445603
1834.2958117675	0.6660135984
1836.2246191406	0.6583454013
1838.1534265136	0.6595780253
1840.0822338867	0.6661782265
1842.0110412597	0.6621522903
1843.9398486328	0.6591911912
1845.8686560058	0.6572846770
1847.7974633789	0.6584730744
1849.7262707519	0.6622246504
1851.6550781250	0.6578649879
1853.5838854980	0.6609338522
1855.5126928710	0.6633761525
1857.4415002441	0.6577281356
1859.3703076171	0.6591757536
1861.2991149902	0.6635732651
1863.2279223632	0.6619886160
1865.1567297363	0.6622860432
1867.0855371093	0.6558664441
1869.0143444824	0.6516493559
1870.9431518554	0.6654582024
1872.8719592285	0.6601122022
1874.8007666015	0.6521664262
1876.7295739746	0.6597928405
1878.6583813476	0.6535879970
1880.5871887207	0.6504250169
1882.5159960937	0.6585146189
1884.4448034667	0.6574841738
1886.3736108398	0.6528607011
1888.3024182128	0.6533436775
1890.2312255859	0.6545591354
1892.1600329589	0.6569576263
1894.0888403320	0.6588093042
1896.0176477050	0.6552268863
1897.9464550781	0.6532281637
1899.8752624511	0.6543679833
1901.8040698242	0.6494280100
1903.7328771972	0.6473195553
1905.6616845703	0.6510689855
1907.5904919433	0.6501076818
1909.5192993164	0.6531831622
1911.4481066894	0.6526514292
1913.3769140625	0.6502027512
1915.3057214355	0.6526547670
1917.2345288085	0.6447369456
1919.1633361816	0.6437807083
1921.0921435546	0.6520654559
1923.0209509277	0.6497122645
1924.9497583007	0.6476061344
1926.8785656738	0.6499661207
1928.8073730468	0.6471632123
1930.7361804199	0.6478200555
1932.6649877929	0.6524605155
1934.5937951660	0.6522017121
1936.5226025390	0.6469159126
1938.4514099121	0.6464017630
1940.3802172851	0.6566308141
1942.3090246582	0.6526251435
1944.2378320312	0.6456061602
1946.1666394042	0.6450783610
1948.0954467773	0.6414560676
1950.0242541503	0.6506603360
1951.9530615234	0.6509438753
1953.8818688964	0.6438243985
1955.8106762695	0.6439327598
1957.7394836425	0.6472243667
1959.6682910156	0.6478360891
1961.5970983886	0.6449908614
1963.5259057617	0.6503145099
1965.4547131347	0.6468814015
1967.3835205078	0.6414324045
1969.3123278808	0.6397253275
1971.2411352539	0.6438881159
1973.1699426269	0.6489830017
1975.0987499999	0.6401738524
1977.0275573730	0.6406252980
1978.9563647460	0.6428634524
1980.8851721191	0.6436216235
1982.8139794921	0.6443127990
1984.7427868652	0.6433743238
1986.6715942382	0.6445804238
1988.6004016113	0.6433702707
1990.5292089843	0.6446638107
1992.4580163574	0.6388754845
1994.3868237304	0.6446803808
1996.3156311035	0.6503465772
1998.2444384765	0.6419641972
2000.1732458496	0.6462699175
2002.1020532226	0.6521109343
2004.0308605956	0.6493688822
2005.9596679687	0.6440262794
2007.8884753417	0.6426960230
2009.8172827148	0.6360499263
2011.7460900878	0.6345578432
2013.6748974609	0.6396318078
2015.6037048339	0.6370263696
2017.5325122070	0.6444510221
2019.4613195800	0.6451317072
2021.3901269531	0.6406912804
2023.3189343261	0.6439318657
2025.2477416992	0.6411774158
2027.1765490722	0.6389123797
2029.1053564453	0.6420122385
2031.0341638183	0.6429184079
2032.9629711914	0.6394577026
2034.8917785644	0.6427905560
2036.8205859374	0.6428068280
2038.7493933105	0.6368280053
2040.6782006835	0.6413570046
2042.6070080566	0.6439787745
2044.5358154296	0.6397566199
2046.4646228027	0.6410908699
2048.3934301757	0.6399560571
2050.3222375488	0.6407216787
2052.2510449218	0.6467124224
2054.1798522949	0.6421916485
2056.1086596679	0.6420795918
2058.0374670410	0.6409904957
2059.9662744140	0.6364502907
2061.8950817871	0.6396020055
2063.8238891601	0.6368772388
2065.7526965331	0.6387597322
2067.6815039062	0.6394404769
2069.6103112792	0.6383114457
2071.5391186523	0.6423583031
2073.4679260253	0.6412359476
2075.3967333984	0.6411035657
2077.3255407714	0.6420549154
2079.2543481445	0.6408477426
2081.1831555175	0.6393501759
2083.1119628906	0.6409935951
2085.0407702636	0.6401270628
2086.9695776367	0.6404177547
2088.8983850097	0.6392785907
2090.8271923828	0.6347962022
2092.7559997558	0.6394230723
2094.6848071288	0.6422929168
2096.6136145019	0.6449175477
2098.5424218749	0.6421198249
2100.4712292480	0.6355304122
2102.4000366210	0.6396609545
2104.3288439941	0.6426194906
2106.2576513671	0.6406558752
2108.1864587402	0.6368982792
2110.1152661132	0.6334456205
2112.0440734863	0.6357960105
2113.9728808593	0.6409577131
2115.9016882324	0.6373184323
2117.8304956054	0.6413789988
2119.7593029785	0.6463658810
2121.6881103515	0.6391019225
2123.6169177245	0.6438297033
2125.5457250976	0.6384580135
2127.4745324706	0.6315144897
2129.4033398437	0.6420586109
2131.3321472167	0.6379362345
2133.2609545898	0.6286075115
2135.1897619628	0.6361750364
2137.1185693359	0.6410433054
2139.0473767089	0.6398451328
2140.9761840820	0.6459062696
2142.9049914550	0.6419034004
2144.8337988281	0.6419603229
2146.7626062011	0.6436708570
2148.6914135742	0.6355024576
2150.6202209472	0.6374820471
2152.5490283203	0.6372554898
2154.4778356933	0.6381035447
2156.4066430663	0.6385205984
2158.3354504394	0.6389098763
2160.2642578124	0.6404600143
2162.1930651855	0.6399683356
2164.1218725585	0.6409465671
2166.0506799316	0.6327624321
2167.9794873046	0.6371597648
2169.9082946777	0.6394503117
2171.8371020507	0.6341327429
2173.7659094238	0.6363744736
2175.6947167968	0.6337788701
2177.6235241699	0.6438839436
2179.5523315429	0.6440351605
2181.4811389160	0.6333485842
2183.4099462890	0.6430597305
2185.3387536620	0.6446049213
2187.2675610351	0.6359983087
2189.1963684081	0.6436508894
2191.1251757812	0.6489363909
2193.0539831542	0.6419427395
2194.9827905273	0.6393166184
2196.9115979003	0.6385993361
2198.8404052734	0.6351284981
2200.7692126464	0.6314494610
2202.6980200195	0.6332092881
2204.6268273925	0.6352857351
2206.5556347656	0.6385284662
2208.4844421386	0.6396238208
2210.4132495117	0.6343036890
2212.3420568847	0.6379709840
2214.2708642577	0.6385538578
2216.1996716308	0.6375619173
2218.1284790038	0.6402507424
2220.0572863769	0.6408554316
2221.9860937499	0.6385200024
2223.9149011230	0.6338743567
2225.8437084960	0.6363706589
2227.7725158691	0.6356815100
2229.7013232421	0.6368374825
2231.6301306152	0.6308984160
2233.5589379882	0.6288387179
2235.4877453613	0.6375011802
2237.4165527343	0.6282058954
2239.3453601074	0.6312764883
2241.2741674804	0.6406502128
2243.2029748534	0.6438514590
2245.1317822265	0.6451502442
2247.0605895995	0.6346548796
2248.9893969726	0.6357192397
2250.9182043456	0.6441119313
2252.8470117187	0.6419188380
2254.7758190917	0.6317358017
2256.7046264648	0.6370587945
2258.6334338378	0.6386194825
2260.5622412109	0.6268764734
2262.4910485839	0.6350606084
2264.4198559570	0.6378347278
2266.3486633300	0.6325662732
2268.2774707031	0.6356312633
2270.2062780761	0.6414444447
2272.1350854491	0.6393636465
2274.0638928222	0.6308056116
2275.9927001952	0.6364066601
2277.9215075683	0.6382880211
2279.8503149413	0.6313194633
2281.7791223144	0.6299281716
2283.7079296874	0.6352159381
2285.6367370605	0.6357296705
2287.5655444335	0.6346054673
2289.4943518066	0.6397525072
2291.4231591796	0.6311903596
2293.3519665527	0.6335843801
2295.2807739257	0.6417353153
2297.2095812988	0.6351569295
2299.1383886718	0.6373615265
2301.0671960449	0.6347008944
2302.9960034179	0.6414536238
2304.9248107909	0.6461538076
2306.8536181640	0.6318240166
2308.7824255370	0.6360642314
2310.7112329101	0.6351966858
2312.6400402831	0.6309255362
2314.5688476562	0.6346201301
2316.4976550292	0.6302697659
2318.4264624023	0.6355037689
2320.3552697753	0.6358737946
2322.2840771484	0.6278921366
2324.2128845214	0.6269859076
2326.1416918945	0.6317851543
2328.0704992675	0.6350336671
2329.9993066406	0.6274078488
2331.9281140136	0.6246215105
2333.8569213866	0.6220446825
2335.7857287597	0.6186179519
2337.7145361327	0.6288630962
2339.6433435058	0.6288427114
2341.5721508788	0.6182341576
2343.5009582519	0.6239078641
2345.4297656249	0.6296762824
2347.3585729980	0.6256783605
2349.2873803710	0.6246030331
2351.2161877441	0.6239450574
2353.1449951171	0.6215130687
2355.0738024902	0.6183673739
2357.0026098632	0.6265663505
2358.9314172363	0.6288443208
2360.8602246093	0.6199371815
2362.7890319823	0.6188545823
2364.7178393554	0.6105973125
2366.6466467284	0.6174098253
2368.5754541015	0.6265621781
2370.5042614745	0.6218450069
2372.4330688476	0.6306561232
2374.3618762206	0.6356762052
2376.2906835937	0.6308942437
2378.2194909667	0.6292870641
2380.1482983398	0.6363348365
2382.0771057128	0.6344920993
2384.0059130859	0.6296374202
2385.9347204589	0.6351618171
2387.8635278320	0.6286429167
2389.7923352050	0.6216515303
2391.7211425780	0.6257009506
2393.6499499511	0.6276040077
2395.5787573241	0.6267196536
2397.5075646972	0.6316090822
2399.4363720702	0.6251317859
2401.3651794433	0.6184784770
2403.2939868163	0.6250702739
2405.2227941894	0.6235529184
2407.1516015624	0.6296575069
2409.0804089355	0.6228820086
2411.0092163085	0.6172181368
2412.9380236816	0.6279058456
2414.8668310546	0.6198884249
2416.7956384277	0.6193179488
2418.7244458007	0.6210303307
2420.6532531738	0.6270218492
2422.5820605468	0.6330471039
2424.5108679198	0.6248742342
2426.4396752929	0.6258853078
2428.3684826659	0.6246274114
2430.2972900390	0.6269597411
2432.2260974120	0.6296818256
2434.1549047851	0.6273076534
2436.0837121581	0.6279614568
2438.0125195312	0.6256137490
2439.9413269042	0.6249524355
2441.8701342773	0.6247321367
2443.7989416503	0.6216012239
2445.7277490234	0.6210969687
2447.6565563964	0.6297250986
2449.5853637695	0.6281300783
2451.5141711425	0.6213093400
2453.4429785155	0.6257490516
2455.3717858886	0.6250551939
2457.3005932616	0.6172530651
2459.2294006347	0.6199993491
2461.1582080077	0.6282085180
2463.0870153808	0.6151236892
2465.0158227538	0.6183930635
2466.9446301269	0.6295425892
2468.8734374999	0.6169818640
2470.8022448730	0.6248601079
2472.7310522460	0.6266104579
2474.6598596191	0.6192139387
2476.5886669921	0.6238247752
2478.5174743652	0.6220165491
2480.4462817382	0.6274492741
2482.3750891112	0.6281811595
2484.3038964843	0.6191486120
2486.2327038573	0.6158142686
2488.1615112304	0.6196726561
2490.0903186034	0.6234674454
2492.0191259765	0.6238431334
2493.9479333495	0.6240346432
2495.8767407226	0.6166644096
2497.8055480956	0.6150937676
2499.7343554687	0.6173632741
2501.6631628417	0.6096839905
2503.5919702148	0.6119037271
2505.5207775878	0.6202915311
2507.4495849609	0.6162393093
2509.3783923339	0.6109107733
2511.3071997069	0.6152485013
2513.2360070800	0.6190995574
2515.1648144530	0.6173633337
2517.0936218261	0.6189233661
2519.0224291991	0.6246989965
2520.9512365722	0.6267006993
2522.8800439452	0.6160981655
2524.8088513183	0.6126974225
2526.7376586913	0.6211547256
2528.6664660644	0.6182039380
2530.5952734374	0.6214901209
2532.5240808105	0.6211815476
2534.4528881835	0.6120709181
2536.3816955566	0.6143577695
2538.3105029296	0.6195105314
2540.2393103027	0.6232054830
2542.1681176757	0.6141839623
2544.0969250487	0.6169945002
2546.0257324218	0.6217288971
2547.9545397948	0.6166660786
2549.8833471679	0.6236514449
2551.8121545409	0.6161630154
2553.7409619140	0.6162735224
2555.6697692870	0.6144153476
2557.5985766601	0.6128180623
2559.5273840331	0.6244361997
2561.4561914062	0.6161206961
2563.3849987792	0.6181030273
2565.3138061523	0.6177357435
2567.2426135253	0.6159611344
2569.1714208984	0.6175307035
2571.1002282714	0.6125639081
2573.0290356444	0.6129149795
2574.9578430175	0.6080782413
2576.8866503905	0.6176209450
2578.8154577636	0.6125984788
2580.7442651366	0.6089352369
2582.6730725097	0.6190428734
2584.6018798827	0.6121454239
2586.5306872558	0.6151661873
2588.4594946288	0.6091988683
2590.3883020019	0.6100494862
2592.3171093749	0.6199917197
2594.2459167480	0.6157344580
2596.1747241210	0.6142296791
2598.1035314941	0.6111864448
2600.0323388671	0.6095036268
2601.9611462401	0.6039808989
2603.8899536132	0.6047948003
2605.8187609862	0.6086254120
2607.7475683593	0.6073768139
2609.6763757323	0.6136885881
2611.6051831054	0.6165685058
2613.5339904784	0.6105501056
2615.4627978515	0.6113356352
2617.3916052245	0.6171498895
2619.3204125976	0.6058812141
2621.2492199706	0.6050557494
2623.1780273437	0.6102737188
2625.1068347167	0.6071496010
2627.0356420898	0.6155433655
2628.9644494628	0.6111778021
2630.8932568358	0.6033329964
2632.8220642089	0.6045182347
2634.7508715819	0.6067032218
2636.6796789550	0.6063162684
2638.6084863280	0.6065186262
2640.5372937011	0.6085209250
2642.4661010741	0.6031262279
2644.3949084472	0.6043745279
2646.3237158202	0.6018891335
2648.2525231933	0.6018031240
2650.1813305663	0.6070489883
2652.1101379394	0.6065602303
2654.0389453124	0.6106930971
2655.9677526855	0.6103224158
2657.8965600585	0.6102852225
2659.8253674315	0.6062690616
2661.7541748046	0.6042979360
2663.6829821776	0.6053847075
2665.6117895507	0.5994428992
2667.5405969237	0.6012585163
2669.4694042968	0.6111960411
2671.3982116698	0.6164771914
2673.3270190429	0.6020762324
2675.2558264159	0.6023906469
2677.1846337890	0.6130659580
2679.1134411620	0.6043226719
2681.0422485351	0.6001710892
2682.9710559081	0.5960316062
2684.8998632812	0.5949049592
2686.8286706542	0.5947828889
2688.7574780273	0.5984858274
2690.6862854003	0.6015217304
2692.6150927733	0.5913702250
2694.5439001464	0.5965302587
2696.4727075194	0.5988591909
2698.4015148925	0.5984078646
2700.3303222655	0.6041325927
2702.2591296386	0.5990036130
2704.1879370116	0.6027125120
2706.1167443847	0.6043940187
2708.0455517577	0.6016989350
2709.9743591308	0.6007134914
2711.9031665038	0.5943353772
2713.8319738769	0.6004697084
2715.7607812499	0.6014786363
2717.6895886230	0.5986503959
2719.6183959960	0.6071645021
2721.5472033690	0.6020271778
2723.4760107421	0.5967206955
2725.4048181151	0.5972400904
2727.3336254882	0.5952408910
2729.2624328612	0.5941606760
2731.1912402343	0.5909445286
2733.1200476073	0.5942115188
2735.0488549804	0.5943660736
2736.9776623534	0.5962646008
2738.9064697265	0.5966762900
2740.8352770995	0.5958430767
2742.7640844726	0.6037568450
2744.6928918456	0.5994043946
2746.6216992187	0.5955359936
2748.5505065917	0.5954995155
2750.4793139647	0.6005636454
2752.4081213378	0.6013079882
2754.3369287108	0.5871302485
2756.2657360839	0.5866654515
2758.1945434569	0.5964742899
2760.1233508300	0.6042456627
2762.0521582030	0.5969021916
2763.9809655761	0.5969062448
2765.9097729491	0.5981454253
2767.8385803222	0.5893828869
2769.7673876952	0.6020477414
2771.6961950683	0.5988967419
2773.6250024413	0.5930400491
2775.5538098144	0.5963345170
2777.4826171874	0.5934073329
2779.4114245604	0.5939274430
2781.3402319335	0.5895984173
2783.2690393065	0.5953557491
2785.1978466796	0.5949810147
2787.1266540526	0.5903341174
2789.0554614257	0.5893590450
2790.9842687987	0.5845295191
2792.9130761718	0.5821943283
2794.8418835448	0.5880971551
2796.7706909179	0.5956566930
2798.6994982909	0.5908409357
2800.6283056640	0.5965440273
2802.5571130370	0.5880318284
2804.4859204101	0.5882591605
2806.4147277831	0.6009585857
2808.3435351562	0.5849502087
2810.2723425292	0.5898863077
2812.2011499022	0.5927467346
2814.1299572753	0.5817562938
2816.0587646483	0.5724440813
2817.9875720214	0.5772684813
2819.9163793944	0.5906788707
2821.8451867675	0.5776559114
2823.7739941405	0.5770118833
2825.7028015136	0.5798859000
2827.6316088866	0.5837631226
2829.5604162597	0.5837815404
2831.4892236327	0.5823366642
2833.4180310058	0.5934179425
2835.3468383788	0.5865125060
2837.2756457519	0.5898749828
2839.2044531249	0.5861441493
2841.1332604979	0.5758962631
2843.0620678710	0.5807262659
2844.9908752440	0.5905407071
2846.9196826171	0.5888835788
2848.8484899901	0.5674535632
2850.7772973632	0.5757430196
2852.7061047362	0.5796065927
2854.6349121093	0.5734430552
2856.5637194823	0.5839124322
2858.4925268554	0.5767295957
2860.4213342284	0.5688657165
2862.3501416015	0.5792127252
2864.2789489745	0.5841488242
2866.2077563476	0.5740815401
2868.1365637206	0.5843551159
2870.0653710936	0.5855908990
2871.9941784667	0.5775794983
2873.9229858397	0.5816259980
2875.8517932128	0.5679500699
2877.7806005858	0.5723091960
2879.7094079589	0.5741745830
2881.6382153319	0.5680090189
2883.5670227050	0.5809785724
2885.4958300780	0.5775232911
2887.4246374511	0.5695755482
2889.3534448241	0.5707798600
2891.2822521972	0.5667191744
2893.2110595702	0.5687331557
2895.1398669433	0.5769608021
2897.0686743163	0.5698878169
2898.9974816893	0.5694485903
2900.9262890624	0.5731248856
2902.8550964354	0.5667395592
2904.7839038085	0.5701678991
2906.7127111815	0.5697476268
2908.6415185546	0.5636588335
2910.5703259276	0.5652511716
2912.4991333007	0.5732772946
2914.4279406737	0.5723699331
2916.3567480468	0.5703102946
2918.2855554198	0.5687243342
2920.2143627929	0.5654453635
2922.1431701659	0.5700495839
2924.0719775390	0.5628438592
2926.0007849120	0.5631526113
2927.9295922851	0.5666562319
2929.8583996581	0.5661464334
2931.7872070311	0.5627476573
2933.7160144042	0.5531506538
2935.6448217772	0.5643314719
2937.5736291503	0.5656068921
2939.5024365233	0.5646680593
2941.4312438964	0.5751898289
2943.3600512694	0.5646880269
2945.2888586425	0.5536912680
2947.2176660155	0.5623722672
2949.1464733886	0.5633741617
2951.0752807616	0.5585185289
2953.0040881347	0.5644505024
2954.9328955077	0.5551347733
2956.8617028808	0.5549750328
2958.7905102538	0.5540144444
2960.7193176268	0.5515929461
2962.6481249999	0.5645204186
2964.5769323729	0.5607636571
2966.5057397460	0.5652494431
2968.4345471190	0.5558859110
2970.3633544921	0.5521043539
2972.2921618651	0.5605147481
2974.2209692382	0.5496365428
2976.1497766112	0.5552384257
2978.0785839843	0.5532808900
2980.0073913573	0.5476126671
2981.9361987304	0.5545254350
2983.8650061034	0.5603615046
2985.7938134765	0.5512108207
2987.7226208495	0.5427096486
2989.6514282225	0.5426473618
2991.5802355956	0.5380259156
2993.5090429686	0.5474650860
2995.4378503417	0.5383651853
2997.3666577147	0.5459647179
2999.2954650878	0.5589619875
3001.2242724608	0.5402308106
3003.1530798339	0.5508731008
3005.0818872069	0.5523531437
3007.0106945800	0.5447078943
3008.9395019530	0.5495433807
3010.8683093261	0.5397469997
3012.7971166991	0.5299668908
3014.7259240722	0.5319215059
3016.6547314452	0.5383718610
3018.5835388182	0.5424206257
3020.5123461913	0.5454685092
3022.4411535643	0.5381761789
3024.3699609374	0.5366242528
3026.2987683104	0.5382395983
3028.2275756835	0.5372769237
3030.1563830565	0.5365520716
3032.0851904296	0.5367681384
3034.0139978026	0.5412545800
3035.9428051757	0.5321019292
3037.8716125487	0.5367467403
3039.8004199218	0.5394099951
3041.7292272948	0.5272404552
3043.6580346679	0.5268175006
3045.5868420409	0.5396684408
3047.5156494139	0.5555807948
3049.4444567870	0.5443548560
3051.3732641600	0.5361135602
3053.3020715331	0.5335900187
3055.2308789061	0.5275986791
3057.1596862792	0.5312340856
3059.0884936522	0.5339014530
3061.0173010253	0.5303230286
3062.9461083983	0.5201468468
3064.8749157714	0.5244563818
3066.8037231444	0.5247976184
3068.7325305175	0.5272465348
3070.6613378905	0.5265420079
3072.5901452636	0.5228481293
3074.5189526366	0.5332779288
3076.4477600097	0.5288323760
3078.3765673827	0.5427396894
3080.3053747557	0.5344751477
3082.2341821288	0.5161963701
3084.1629895018	0.5325163007
3086.0917968749	0.5267847776
3088.0206042479	0.5261022449
3089.9494116210	0.5232765079
3091.8782189940	0.5208172202
3093.8070263671	0.5253939629
3095.7358337401	0.5184907913
3097.6646411132	0.5180870295
3099.5934484862	0.5150439739
3101.5222558593	0.5289722681
3103.4510632323	0.5310201645
3105.3798706054	0.5191937089
3107.3086779784	0.5208347440
3109.2374853514	0.5149353743
3111.1662927245	0.5143173933
3113.0951000975	0.5131603479
3115.0239074706	0.5175048709
3116.9527148436	0.5212414265
3118.8815222167	0.5126300454
3120.8103295897	0.5142326951
3122.7391369628	0.5188273191
3124.6679443358	0.5236518383
3126.5967517089	0.5257931352
3128.5255590819	0.5185271502
3130.4543664550	0.5157254934
3132.3831738280	0.5197402239
3134.3119812011	0.5161499381
3136.2407885741	0.5148908496
3138.1695959471	0.5196999311
3140.0984033202	0.5147474408
3142.0272106932	0.5153979659
3143.9560180663	0.5181560516
3145.8848254393	0.5134159923
3147.8136328124	0.5159538388
3149.7424401854	0.5216114521
3151.6712475585	0.5198813081
3153.6000549315	0.5157823563
3155.5288623046	0.5147792101
3157.4576696776	0.5099245906
3159.3864770507	0.5034124255
3161.3152844237	0.5091331601
3163.2440917968	0.5222630501
3165.1728991698	0.5166815519
3167.1017065428	0.5122729540
3169.0305139159	0.5197216868
3170.9593212889	0.5149140358
3172.8881286620	0.5201286674
3174.8169360350	0.5210456848
3176.7457434081	0.5222174525
3178.6745507811	0.5263345242
3180.6033581542	0.5188801885
3182.5321655272	0.5241447687
3184.4609729003	0.5113107562
3186.3897802733	0.5251796246
3188.3185876464	0.5444239974
3190.2473950194	0.5174877048
3192.1762023925	0.5240934491
3194.1050097655	0.5282976031
3196.0338171386	0.5274736881
3197.9626245116	0.5298456550
3199.8914318846	0.5250028372
3201.8202392577	0.5441349149
3203.7490466307	0.5348360538
3205.6778540038	0.5268157721
3207.6066613768	0.5354276299
3209.5354687499	0.5348173380
3211.4642761229	0.5371283889
3213.3930834960	0.5346074700
3215.3218908690	0.5301792026
3217.2506982421	0.5319996476
3219.1795056151	0.5510583520
3221.1083129882	0.5421184301
3223.0371203612	0.5345000625
3224.9659277343	0.5517219305
3226.8947351073	0.5439277887
3228.8235424803	0.5385540724
3230.7523498534	0.5331743360
3232.6811572264	0.5444718599
3234.6099645995	0.5478832126
3236.5387719725	0.5307080746
3238.4675793456	0.5444141030
3240.3963867186	0.5451195836
3242.3251940917	0.5495724082
3244.2540014647	0.5517974496
3246.1828088378	0.5382838249
3248.1116162108	0.5505394936
3250.0404235839	0.5492975116
3251.9692309569	0.5511640310
3253.8980383300	0.5666010976
3255.8268457030	0.5610792637
3257.7556530760	0.5619472265
3259.6844604491	0.5715957284
3261.6132678221	0.5694679618
3263.5420751952	0.5669940710
3265.4708825682	0.5688812733
3267.3996899413	0.5632368326
3269.3284973143	0.5679553151
3271.2573046874	0.5715087652
3273.1861120604	0.5595558286
3275.1149194335	0.5754402280
3277.0437268065	0.5869269967
3278.9725341796	0.5720700026
3280.9013415526	0.5751428604
3282.8301489257	0.5792601705
3284.7589562987	0.5779526830
3286.6877636717	0.5759782791
3288.6165710448	0.5836889148
3290.5453784178	0.5956696868
3292.4741857909	0.5799980164
3294.4029931639	0.5780554414
3296.3318005370	0.5877441764
3298.2606079100	0.5822877884
3300.1894152831	0.5829101801
3302.1182226561	0.5926216841
3304.0470300292	0.5913144946
3305.9758374022	0.5759357810
3307.9046447753	0.5934650302
3309.8334521483	0.6011914611
3311.7622595214	0.5863121748
3313.6910668944	0.5982227325
3315.6198742675	0.5937091708
3317.5486816405	0.6002431512
3319.4774890135	0.6117453575
3321.4062963866	0.6039659977
3323.3351037596	0.6134215593
3325.2639111327	0.6137042642
3327.1927185057	0.6187160611
3329.1215258788	0.6174799204
3331.0503332518	0.6022482514
3332.9791406249	0.6140080094
3334.9079479979	0.6288634539
3336.8367553710	0.6319667697
3338.7655627440	0.6293408275
3340.6943701171	0.6281286478
3342.6231774901	0.6294461489
3344.5519848632	0.6243899465
3346.4807922362	0.6263126731
3348.4095996092	0.6367607713
3350.3384069823	0.6350423694
3352.2672143553	0.6292229891
3354.1960217284	0.6380274892
3356.1248291014	0.6428909898
3358.0536364745	0.6457026005
3359.9824438475	0.6501660347
3361.9112512206	0.6467592716
3363.8400585936	0.6524159908
3365.7688659667	0.6515725255
3367.6976733397	0.6424114704
3369.6264807128	0.6562229395
3371.5552880858	0.6644694805
3373.4840954589	0.6533984542
3375.4129028319	0.6678379178
3377.3417102049	0.6770124435
3379.2705175780	0.6665100455
3381.1993249510	0.6789716482
3383.1281323241	0.6822599769
3385.0569396971	0.6738702655
3386.9857470702	0.6735773087
3388.9145544432	0.6830618382
3390.8433618163	0.6934022307
3392.7721691893	0.6939207315
3394.7009765624	0.6961603165
3396.6297839354	0.6913776994
3398.5585913085	0.7035896778
3400.4873986815	0.7110739946
3402.4162060546	0.7052456737
3404.3450134276	0.7098720074
3406.2738208006	0.7148569226
3408.2026281737	0.7304294705
3410.1314355467	0.7184489965
3412.0602429198	0.7217674851
3413.9890502928	0.7323225141
3415.9178576659	0.7228816152
3417.8466650389	0.7473850250
3419.7754724120	0.7469784021
3421.7042797850	0.7349675894
3423.6330871581	0.7237442732
3425.5618945311	0.7286174893
3427.4907019042	0.7511668205
3429.4195092772	0.7361170053
3431.3483166503	0.7384806275
3433.2771240233	0.7475739717
3435.2059313963	0.7552501559
3437.1347387694	0.7653636932
3439.0635461424	0.7608049512
3440.9923535155	0.7570842505
3442.9211608885	0.7685642242
3444.8499682616	0.7757110000
3446.7787756346	0.7581264377
3448.7075830077	0.7802065015
3450.6363903807	0.7705497146
3452.5651977538	0.7556600571
3454.4940051268	0.7935200930
3456.4228124999	0.7836838961
3458.3516198729	0.7883614302
3460.2804272460	0.8068961501
3462.2092346190	0.8037014008
3464.1380419921	0.7906758785
3466.0668493651	0.7815860510
3467.9956567381	0.7957251668
3469.9244641112	0.7919052243
3471.8532714842	0.8073602319
3473.7820788573	0.8195226192
3475.7108862303	0.7976311445
3477.6396936034	0.7907940149
3479.5685009764	0.7996620536
3481.4973083495	0.7927132845
3483.4261157225	0.8015331626
3485.3549230956	0.8337800503
3487.2837304686	0.8109868765
3489.2125378417	0.8099284768
3491.1413452147	0.8406990170
3493.0701525878	0.8305733800
3494.9989599608	0.8152695298
3496.9277673338	0.8102644682
3498.8565747069	0.8257781267
3500.7853820799	0.8284612298
3502.7141894530	0.8235011697
3504.6429968260	0.8223133087
3506.5718041991	0.8267014623
3508.5006115721	0.8455151320
3510.4294189452	0.8340668082
3512.3582263182	0.8312662840
3514.2870336913	0.8385140300
3516.2158410643	0.8240534067
3518.1446484374	0.8315076828
3520.0734558104	0.8448458910
3522.0022631835	0.8346563578
3523.9310705565	0.8302882314
3525.8598779295	0.8383904696
3527.7886853026	0.8555253148
3529.7174926756	0.8680516481
3531.6463000487	0.8532800674
3533.5751074217	0.8489971757
3535.5039147948	0.8430818915
3537.4327221678	0.8431118131
3539.3615295409	0.8652273417
3541.2903369139	0.8518169522
3543.2191442870	0.8552004099
3545.1479516600	0.8726642132
3547.0767590331	0.8558673263
3549.0055664061	0.8590850234
3550.9343737792	0.8543043137
3552.8631811522	0.8436658382
3554.7919885252	0.8474645019
3556.7207958983	0.8424568176
3558.6496032713	0.8545122743
3560.5784106444	0.8434949517
3562.5072180174	0.8378398418
3564.4360253905	0.8586841226
3566.3648327635	0.8431592584
3568.2936401366	0.8394424319
3570.2224475096	0.8502587676
3572.1512548827	0.8598762155
3574.0800622557	0.8581085205
3576.0088696288	0.8577361703
3577.9376770018	0.8674755096
3579.8664843749	0.8388667107
3581.7952917479	0.8552674651
3583.7240991210	0.8780833483
3585.6529064940	0.8536149263
3587.5817138670	0.8613957763
3589.5105212401	0.8756701946
3591.4393286131	0.8574351072
3593.3681359862	0.8268364668
3595.2969433592	0.8439671397
3597.2257507323	0.8526578546
3599.1545581053	0.8337869644
3601.0833654784	0.8511933088
3603.0121728514	0.8563846350
3604.9409802245	0.8504242897
3606.8697875975	0.8432407379
3608.7985949706	0.8288346529
3610.7274023436	0.8384402990
3612.6562097167	0.8479080200
3614.5850170897	0.8367999196
3616.5138244627	0.8581629992
3618.4426318358	0.8620325327
3620.3714392088	0.8300280571
3622.3002465819	0.8450156450
3624.2290539549	0.8516997099
3626.1578613280	0.8630074263
3628.0866687010	0.8422489762
3630.0154760741	0.8134958744
3631.9442834471	0.8556335568
3633.8730908202	0.8489195108
3635.8018981932	0.8392390013
3637.7307055663	0.8353633881
3639.6595129393	0.8428625464
3641.5883203124	0.8554581404
3643.5171276854	0.8372957706
3645.4459350584	0.8502852321
3647.3747424315	0.8325392604
3649.3035498045	0.8151739836
3651.2323571776	0.8384000659
3653.1611645506	0.8421750665
3655.0899719237	0.8421487212
3657.0187792967	0.8206334710
3658.9475866698	0.8147181869
3660.8763940428	0.8354279399
3662.8052014159	0.8330922723
3664.7340087889	0.8281472921
3666.6628161620	0.8365899920
3668.5916235350	0.8175010085
3670.5204309081	0.8259084821
3672.4492382811	0.8213050961
3674.3780456541	0.7949996591
3676.3068530272	0.8269718289
3678.2356604002	0.8167996407
3680.1644677733	0.8115920424
3682.0932751463	0.8287817240
3684.0220825194	0.8175551891
3685.9508898924	0.8112631440
3687.8796972655	0.8001590371
3689.8085046385	0.8051674962
3691.7373120116	0.8032524586
3693.6661193846	0.8029963374
3695.5949267577	0.8046231270
3697.5237341307	0.7955400348
3699.4525415038	0.7932617068
3701.3813488768	0.7973389626
3703.3101562499	0.7941063046
3705.2389636229	0.7617216706
3707.1677709959	0.7728065848
3709.0965783690	0.7950936556
3711.0253857420	0.7687522173
3712.9541931151	0.7724723816
3714.8830004881	0.7842641473
3716.8118078612	0.7806343436
3718.7406152342	0.7811648250
3720.6694226073	0.7813600302
3722.5982299803	0.7849329710
3724.5270373534	0.7877135873
3726.4558447264	0.7849838138
3728.3846520995	0.7857528925
3730.3134594725	0.7715589404
3732.2422668456	0.7614964247
3734.1710742186	0.7750526071
3736.0998815916	0.7521066666
3738.0286889647	0.7551298738
3739.9574963377	0.7712561488
3741.8863037108	0.7544435263
3743.8151110838	0.7570725679
3745.7439184569	0.7494471073
3747.6727258299	0.7404738665
3749.6015332030	0.7614656687
3751.5303405760	0.7747111320
3753.4591479491	0.7592488527
3755.3879553221	0.7557926774
3757.3167626952	0.7500742674
3759.2455700682	0.7456566095
3761.1743774413	0.7600755692
3763.1031848143	0.7635278106
3765.0319921873	0.7638878822
3766.9607995604	0.7532427907
3768.8896069334	0.7558040619
3770.8184143065	0.7601847649
3772.7472216795	0.7295346856
3774.6760290526	0.7333248854
3776.6048364256	0.7473921776
3778.5336437987	0.7386826277
3780.4624511717	0.7515646219
3782.3912585448	0.7577992678
3784.3200659178	0.7542775869
3786.2488732909	0.7622589469
3788.1776806639	0.7568789124
3790.1064880370	0.7392083406
3792.0352954100	0.7481264472
3793.9641027830	0.7623475194
3795.8929101561	0.7415230870
3797.8217175291	0.7424140573
3799.7505249022	0.7590765357
3801.6793322752	0.7449809313
3803.6081396483	0.7406184077
3805.5369470213	0.7418264747
3807.4657543944	0.7525781989
3809.3945617674	0.7639107108
3811.3233691405	0.7512438297
3813.2521765135	0.7335855961
3815.1809838866	0.7269240618
3817.1097912596	0.7477949262
3819.0385986327	0.7470110655
3820.9674060057	0.7262411714
3822.8962133787	0.7365363240
3824.8250207518	0.7467403412
3826.7538281248	0.7446355224
3828.6826354979	0.7521536946
3830.6114428709	0.7460187078
3832.5402502440	0.7330014706
3834.4690576170	0.7432543635
3836.3978649901	0.7203463912
3838.3266723631	0.7317317724
3840.2554797362	0.7518093586
3842.1842871092	0.7222310901
3844.1130944823	0.7461507320
3846.0419018553	0.7319282889
3847.9707092284	0.7215132713
3849.8995166014	0.7369799018
3851.8283239745	0.7046847343
3853.7571313475	0.7064494491
3855.6859387205	0.7191494107
3857.6147460936	0.7289035916
3859.5435534666	0.7341475487
3861.4723608397	0.7298086882
3863.4011682127	0.7291480303
3865.3299755858	0.7431055307
3867.2587829588	0.7618361712
3869.1875903319	0.7251712680
3871.1163977049	0.7238314152
3873.0452050780	0.7232688665
3874.9740124510	0.7215953469
3876.9028198241	0.7501171231
3878.8316271971	0.7150085568
3880.7604345702	0.7076359391
3882.6892419432	0.7135126591
3884.6180493162	0.7088036537
3886.5468566893	0.7311792970
3888.4756640623	0.7379769683
3890.4044714354	0.7354190946
3892.3332788084	0.7104808092
3894.2620861815	0.7196673155
3896.1908935545	0.7313352823
3898.1197009276	0.7250652313
3900.0485083006	0.7363766432
3901.9773156737	0.7322143316
3903.9061230467	0.7117157578
3905.8349304198	0.7015583515
3907.7637377928	0.7174003720
3909.6925451659	0.7209872007
3911.6213525389	0.7275213003
3913.5501599119	0.7182756066
3915.4789672850	0.6940695047
3917.4077746580	0.7156377435
3919.3365820311	0.7059869766
3921.2653894041	0.7040587664
3923.1941967772	0.7302128077
3925.1230041502	0.7179462314
3927.0518115233	0.7204679251
3928.9806188963	0.7121761441
3930.9094262694	0.7069298625
3932.8382336424	0.7222574353
3934.7670410155	0.7175989747
3936.6958483885	0.7310867310
3938.6246557616	0.7176757455
3940.5534631346	0.7072095275
3942.4822705076	0.7160212398
3944.4110778807	0.7011212111
3946.3398852537	0.7303389907
3948.2686926268	0.7313220501
3950.1974999998	0.7097239494
3952.1263073729	0.7209826112
3954.0551147459	0.7205843329
3955.9839221190	0.7253888845
3957.9127294920	0.6821975708
3959.8415368651	0.6877146959
3961.7703442381	0.7301430106
3963.6991516112	0.7017434835
3965.6279589842	0.7140408158
3967.5567663573	0.7085257769
3969.4855737303	0.7023952603
3971.4143811034	0.7124992013
3973.3431884764	0.6925324202
3975.2719958494	0.7116971612
3977.2008032225	0.7050430179
3979.1296105955	0.6883929968
3981.0584179686	0.6932668686
3982.9872253416	0.7105200887
3984.9160327147	0.7184377313
3986.8448400877	0.7032078505
3988.7736474608	0.7110520601
3990.7024548338	0.6971312165
3992.6312622069	0.7053999305
3994.5600695799	0.7086049914
3996.4888769530	0.6936337352
3998.4176843260	0.7043367028
4000.3464916991	0.7050613165
4002.2752990721	0.7252373695
4004.2041064451	0.6882268786
4006.1329138182	0.6857185960
4008.0617211912	0.7360166907
4009.9905285643	0.7016385198
4011.9193359373	0.6925740838
4013.8481433104	0.7139483690
4015.7769506834	0.7205445170
4017.7057580565	0.7007372975
4019.6345654295	0.6830503941
4021.5633728026	0.6927515864
4023.4921801756	0.6929625869
4025.4209875487	0.7166643143
4027.3497949217	0.7296863794
4029.2786022948	0.7042829990
4031.2074096678	0.7006980777
4033.1362170408	0.7246940136
4035.0650244139	0.6984805465
4036.9938317869	0.6977879405
4038.9226391600	0.7310085297
4040.8514465330	0.7089247108
4042.7802539061	0.7283083797
4044.7090612791	0.7192189693
4046.6378686522	0.6939923763
4048.5666760252	0.6994125247
4050.4954833983	0.6865775585
4052.4242907713	0.7097414732
4054.3530981444	0.7092186213
4056.2819055174	0.7232366204
4058.2107128905	0.7355909348
4060.1395202635	0.6795549393
4062.0683276365	0.6828641891
4063.9971350096	0.7132710218
4065.9259423826	0.6901764870
4067.8547497557	0.6968440413
4069.7835571287	0.7137262225
4071.7123645018	0.6958895922
4073.6411718748	0.6980400681
4075.5699792479	0.6960930228
4077.4987866209	0.7183369994
4079.4275939940	0.6969510913
4081.3564013670	0.6694810987
4083.2852087401	0.7357763052
4085.2140161131	0.7123999000
4087.1428234862	0.6885808110
4089.0716308592	0.6993288994
4091.0004382323	0.6781299114
4092.9292456053	0.7055895329
4094.8580529783	0.7104349136
4096.7868603514	0.6882188916
4098.7156677244	0.6894352436
4100.6444750975	0.7063677311
4102.5732824705	0.6952350140
4104.5020898436	0.7050542831
4106.4308972166	0.7097070217
4108.3597045897	0.6804160476
4110.2885119627	0.7108405232
4112.2173193358	0.7014978528
4114.1461267088	0.6842272282
4116.0749340819	0.6892858148
4118.0037414549	0.6793727875
4119.9325488280	0.6832674742
4121.8613562010	0.6727221012
4123.7901635740	0.7103584409
4125.7189709471	0.7209783792
4127.6477783201	0.6747305393
4129.5765856932	0.6774127483
4131.5053930662	0.6994426250
4133.4342004393	0.7140969634
4135.3630078123	0.7122753263
4137.2918151854	0.6927194595
4139.2206225584	0.6966442466
4141.1494299315	0.7153364420
4143.0782373045	0.7010546923
4145.0070446776	0.7082712650
4146.9358520506	0.7168419957
4148.8646594237	0.6913082600
4150.7934667967	0.6874510050
4152.7222741697	0.7013753653
4154.6510815428	0.7262328267
4156.5798889158	0.7004885077
4158.5086962889	0.6847527027
4160.4375036619	0.7191261649
4162.3663110350	0.7075913548
4164.2951184080	0.7060688138
4166.2239257811	0.6937108636
4168.1527331541	0.6732463241
4170.0815405272	0.6963897943
4172.0103479002	0.7000596523
4173.9391552733	0.7196586132
4175.8679626463	0.7153171301
4177.7967700194	0.6918844581
4179.7255773924	0.7066686153
4181.6543847654	0.6849156618
4183.5831921385	0.6940580606
4185.5119995115	0.6972210407
4187.4408068846	0.6799070835
4189.3696142576	0.6922662258
4191.2984216307	0.6887289286
4193.2272290037	0.7171748877
4195.1560363768	0.6862859130
4197.0848437498	0.6653488874
4199.0136511229	0.6962729692
4200.9424584959	0.6967419982
4202.8712658690	0.7157632709
4204.8000732420	0.6907177567
4206.7288806151	0.6878687739
4208.6576879881	0.6911074519
4210.5864953611	0.6903029084
4212.5153027342	0.7114291787
4214.4441101072	0.6885612607
4216.3729174803	0.6907760501
4218.3017248533	0.6721979976
4220.2305322264	0.6723142266
4222.1593395994	0.6919841170
4224.0881469725	0.6955736876
4226.0169543455	0.7084740996
4227.9457617186	0.6998213530
4229.8745690916	0.7040168643
4231.8033764647	0.7061854005
4233.7321838377	0.6976882815
4235.6609912108	0.6610590816
4237.5897985838	0.6871381998
4239.5186059569	0.7175351977
4241.4474133299	0.6678564548
4243.3762207029	0.6682751179
4245.3050280760	0.6861175299
4247.2338354490	0.7179525495
4249.1626428221	0.7004048228
4251.0914501951	0.6856417060
4253.0202575682	0.7122489810
4254.9490649412	0.6983265877
4256.8778723143	0.7067509890
4258.8066796873	0.6911143661
4260.7354870604	0.6910402775
4262.6642944334	0.7043030858
4264.5931018065	0.6940945387
4266.5219091795	0.6800165176
4268.4507165526	0.6886495948
4270.3795239256	0.7152727842
4272.3083312986	0.6792746186
4274.2371386717	0.6674667001
4276.1659460447	0.6788461804
4278.0947534178	0.6787731051
4280.0235607908	0.6864606142
4281.9523681639	0.6944285035
4283.8811755369	0.6604412794
4285.8099829100	0.6413354278
4287.7387902830	0.7019974589
4289.6675976561	0.6860327125
4291.5964050291	0.6756968498
4293.5252124022	0.6909092069
4295.4540197752	0.6914873719
4297.3828271483	0.7001497746
4299.3116345213	0.6599647999
4301.2404418943	0.6825298667
4303.1692492674	0.6961237788
4305.0980566404	0.6807370186
4307.0268640135	0.6932856441
4308.9556713865	0.6869770885
4310.8844787596	0.6929649711
4312.8132861326	0.6880987287
4314.7420935057	0.6669006348
4316.6709008787	0.6913232207
4318.5997082518	0.7080883384
4320.5285156248	0.6692081094
4322.4573229979	0.7091894150
4324.3861303709	0.7110118270
4326.3149377440	0.6787278652
4328.2437451170	0.7055810690
4330.1725524900	0.6921132803
4332.1013598631	0.7087799907
4334.0301672361	0.6949281693
4335.9589746092	0.6919710040
4337.8877819822	0.6865503192
4339.8165893553	0.6741508842
4341.7453967283	0.7149358988
4343.6742041014	0.7075282931
4345.6030114744	0.6888948083
4347.5318188475	0.6532815099
4349.4606262205	0.6922279596
4351.3894335936	0.6963136792
4353.3182409666	0.6713596582
4355.2470483397	0.7174753547
4357.1758557127	0.6863590479
4359.1046630858	0.7210702300
4361.0334704588	0.7266591191
4362.9622778318	0.7201259136
4364.8910852049	0.7285794020
4366.8198925779	0.6755821109
4368.7486999510	0.7001832724
4370.6775073240	0.6900549531
4372.6063146971	0.6700629592
4374.5351220701	0.6891754866
4376.4639294432	0.7117882371
4378.3927368162	0.6719832420
4380.3215441893	0.6808576584
4382.2503515623	0.7133688331
4384.1791589354	0.6310123801
4386.1079663084	0.6952659488
4388.0367736815	0.7305610180
4389.9655810545	0.6781006455
4391.8943884275	0.6818193197
4393.8231958006	0.6823033094
4395.7520031736	0.7112534642
4397.6808105467	0.6796238422
4399.6096179197	0.6801010966
4401.5384252928	0.6832507253
4403.4672326658	0.6805726290
4405.3960400389	0.7134717703
4407.3248474119	0.7163126469
4409.2536547850	0.7079212070
4411.1824621580	0.6741055250
4413.1112695311	0.6913790703
4415.0400769041	0.6970076561
4416.9688842772	0.6935785413
4418.8976916502	0.6734595895
4420.8264990232	0.6560717225
4422.7553063963	0.6973065734
4424.6841137693	0.6789868474
4426.6129211424	0.6967112422
4428.5417285154	0.7043702006
4430.4705358885	0.6967698336
4432.3993432615	0.7074041367
4434.3281506346	0.6889046431
4436.2569580076	0.7280286551
4438.1857653807	0.7046826482
4440.1145727537	0.6776818633
4442.0433801268	0.6933846474
4443.9721874998	0.6759451628
4445.9009948729	0.6922157407
4447.8298022459	0.6813064218
4449.7586096189	0.6606604457
4451.6874169920	0.6799741387
4453.6162243650	0.6910849214
4455.5450317381	0.7325158715
4457.4738391111	0.7399103642
4459.4026464842	0.6794854999
4461.3314538572	0.6976788640
4463.2602612303	0.7191729546
4465.1890686033	0.6808523536
4467.1178759764	0.6605963707
4469.0466833494	0.6709602475
4470.9754907225	0.7012976408
4472.9042980955	0.6727950573
4474.8331054686	0.6793569326
4476.7619128416	0.7089161277
4478.6907202147	0.6936663389
4480.6195275877	0.6890850663
4482.5483349607	0.6611198187
4484.4771423338	0.6924389601
4486.4059497068	0.7085078955
4488.3347570799	0.6716107726
4490.2635644529	0.6758134365
4492.1923718260	0.6682255864
4494.1211791990	0.6809094548
4496.0499865721	0.6751124859
4497.9787939451	0.6624189615
4499.9076013182	0.7051593065
4501.8364086912	0.6914073229
4503.7652160643	0.6606613994
4505.6940234373	0.7073967457
4507.6228308104	0.6966788769
4509.5516381834	0.6741475463
4511.4804455564	0.7234849334
4513.4092529295	0.6907073855
4515.3380603025	0.6476317048
4517.2668676756	0.6671214700
4519.1956750486	0.7119945884
4521.1244824217	0.7347669601
4523.0532897947	0.6756277680
4524.9820971678	0.6610361934
4526.9109045408	0.7059337497
4528.8397119139	0.6987023354
4530.7685192869	0.6912381053
4532.6973266600	0.7416246533
4534.6261340330	0.7049752474
4536.5549414061	0.6710855365
4538.4837487791	0.7352104783
4540.4125561521	0.6881467700
4542.3413635252	0.6573146582
4544.2701708982	0.7106418014
4546.1989782713	0.6955591440
4548.1277856443	0.6696056128
4550.0565930174	0.6835125089
4551.9854003904	0.6825125217
4553.9142077635	0.6648174524
4555.8430151365	0.6667963266
4557.7718225096	0.6688565016
4559.7006298826	0.6835411787
4561.6294372557	0.7043117285
4563.5582446287	0.7213347554
4565.4870520018	0.7133857012
4567.4158593748	0.6612296104
4569.3446667478	0.6378497481
4571.2734741209	0.6640051007
4573.2022814939	0.6993018985
4575.1310888670	0.6766015291
4577.0598962400	0.6767987013
4578.9887036131	0.6825748086
4580.9175109861	0.6678473353
4582.8463183592	0.6600643396
4584.7751257322	0.6224864721
4586.7039331053	0.6699942350
4588.6327404783	0.6948045492
4590.5615478514	0.6761805415
4592.4903552244	0.6879512668
4594.4191625975	0.6533410549
4596.3479699705	0.6310409307
4598.2767773435	0.6702059507
4600.2055847166	0.7219673395
4602.1343920896	0.6901461482
4604.0631994627	0.7145774961
4605.9920068357	0.6940097809
4607.9208142088	0.6459026337
4609.8496215818	0.6853700876
4611.7784289549	0.6389201880
4613.7072363279	0.6675646305
4615.6360437010	0.6819885373
4617.5648510740	0.7103559971
4619.4936584471	0.7250365615
4621.4224658201	0.6442715526
4623.3512731932	0.7143957019
4625.2800805662	0.6716578007
4627.2088879393	0.6759899855
4629.1376953123	0.7161122561
4631.0665026853	0.6719104648
4632.9953100584	0.7192060351
4634.9241174314	0.6292365789
4636.8529248045	0.6536387801
4638.7817321775	0.7263864279
4640.7105395506	0.6666221619
4642.6393469236	0.6723945737
4644.5681542967	0.6926255822
4646.4969616697	0.6618101597
4648.4257690428	0.6122206450
4650.3545764158	0.6938392520
4652.2833837889	0.7268327475
4654.2121911619	0.6538086534
4656.1409985350	0.6737581491
4658.0698059080	0.6801982522
4659.9986132810	0.7066056728
4661.9274206541	0.7171793580
4663.8562280271	0.6481614709
4665.7850354002	0.6691030264
4667.7138427732	0.7227293253
4669.6426501463	0.6735465527
4671.5714575193	0.6699109674
4673.5002648924	0.6715154052
4675.4290722654	0.6634727716
4677.3578796385	0.6859390736
4679.2866870115	0.6539871693
4681.2154943846	0.6634876728
4683.1443017576	0.6784237027
4685.0731091307	0.6923156977
4687.0019165037	0.6784034967
4688.9307238767	0.6693580747
4690.8595312498	0.7336599231
4692.7883386228	0.6723918319
4694.7171459959	0.6508980393
4696.6459533689	0.6840972304
4698.5747607420	0.6459729075
4700.5035681150	0.6612364650
4702.4323754881	0.6861885190
4704.3611828611	0.7103561163
4706.2899902342	0.6771897674
4708.2187976072	0.6602591276
4710.1476049803	0.7312548161
4712.0764123533	0.7156528234
4714.0052197264	0.6837983727
4715.9340270994	0.7051939964
4717.8628344724	0.7317202687
4719.7916418455	0.7125629783
4721.7204492185	0.6533685327
4723.6492565916	0.6902495623
4725.5780639646	0.7254833579
4727.5068713377	0.6990090609
4729.4356787107	0.6728397608
4731.3644860838	0.6483709812
4733.2932934568	0.7169442773
4735.2221008299	0.6883721948
4737.1509082029	0.6474665403
4739.0797155760	0.6934495568
4741.0085229490	0.6312612295
4742.9373303221	0.6870034337
4744.8661376951	0.7044076920
4746.7949450682	0.6316899657
4748.7237524412	0.6694766283
4750.6525598142	0.6794537306
4752.5813671873	0.7025731802
4754.5101745603	0.6774565578
4756.4389819334	0.6660389900
4758.3677893064	0.6818723083
4760.2965966795	0.6493660212
4762.2254040525	0.6962814331
4764.1542114256	0.6655851007
4766.0830187986	0.6414954662
4768.0118261717	0.7254099846
4769.9406335447	0.7158994079
4771.8694409178	0.6905217171
4773.7982482908	0.6741657853
4775.7270556639	0.6599876881
4777.6558630369	0.6726177335
4779.5846704099	0.6125357151
4781.5134777830	0.6075978875
4783.4422851560	0.6837952137
4785.3710925291	0.6930256486
4787.2998999021	0.7012710571
4789.2287072752	0.6961237192
4791.1575146482	0.7312342525
4793.0863220213	0.7207036614
4795.0151293943	0.6651716828
4796.9439367674	0.7168719769
4798.8727441404	0.7064559460
4800.8015515135	0.6775476336
4802.7303588865	0.7108443975
4804.6591662596	0.6905775666
4806.5879736326	0.6443282962
4808.5167810056	0.6524719000
4810.4455883787	0.6568700075
4812.3743957517	0.6451689005
4814.3032031248	0.7207569480
4816.2320104978	0.7190334797
4818.1608178709	0.6643108130
4820.0896252439	0.6752423644
4822.0184326170	0.7053686380
4823.9472399900	0.7050894499
4825.8760473631	0.7000929117
4827.8048547361	0.6988368630
4829.7336621092	0.6213489175
4831.6624694822	0.6333565116
4833.5912768553	0.6996462941
4835.5200842283	0.7056701183
4837.4488916013	0.6527776122
4839.3776989744	0.6203554273
4841.3065063474	0.7383733392
4843.2353137205	0.7044867277
4845.1641210935	0.6786742210
4847.0929284666	0.6844913363
4849.0217358396	0.5992081761
4850.9505432127	0.6330046058
4852.8793505857	0.6101170778
4854.8081579588	0.6210770607
4856.7369653318	0.6487386823
4858.6657727049	0.6614952087
4860.5945800779	0.6975746751
4862.5233874510	0.6564241052
4864.4521948240	0.6796926856
4866.3810021971	0.6624386311
4868.3098095701	0.6918554306
4870.2386169431	0.6818072200
4872.1674243162	0.6347752213
4874.0962316892	0.7395635247
4876.0250390623	0.6696709394
4877.9538464353	0.6310960054
4879.8826538084	0.6790770292
4881.8114611814	0.6711995006
4883.7402685545	0.6843220592
4885.6690759275	0.6873530149
4887.5978833006	0.7483366132
4889.5266906736	0.6968371868
4891.4554980467	0.6533381939
4893.3843054197	0.6881102920
4895.3131127928	0.6851183176
4897.2419201658	0.7268846631
4899.1707275388	0.6764879823
4901.0995349119	0.6284481883
4903.0283422849	0.6575914025
4904.9571496580	0.7212272882
4906.8859570310	0.7381262779
4908.8147644041	0.6595050693
4910.7435717771	0.6782209873
4912.6723791502	0.7152844667
4914.6011865232	0.7177475691
4916.5299938963	0.6560962200
4918.4588012693	0.5740198493
4920.3876086424	0.6229363084
4922.3164160154	0.6813361049
4924.2452233885	0.6895028353
4926.1740307615	0.6523392200
4928.1028381345	0.6597650051
4930.0316455076	0.6895212531
4931.9604528806	0.6633165479
4933.8892602537	0.6722993851
4935.8180676267	0.6565737724
4937.7468749998	0.6478891969
4939.6756823728	0.6616137028
4941.6044897459	0.6233583689
4943.5332971189	0.6191951036
4945.4621044920	0.6938776374
4947.3909118650	0.7218781710
4949.3197192381	0.6857023835
4951.2485266111	0.6898605227
4953.1773339842	0.6642290354
4955.1061413572	0.6202975512
4957.0349487302	0.6222559810
4958.9637561033	0.6212233305
4960.8925634763	0.6006092429
4962.8213708494	0.6479420066
4964.7501782224	0.7309848070
4966.6789855955	0.7049037814
4968.6077929685	0.6959841847
4970.5366003416	0.6853887439
4972.4654077146	0.6062813401
4974.3942150877	0.6434623003
4976.3230224607	0.7231437564
4978.2518298338	0.6549063921
4980.1806372068	0.6711554527
4982.1094445799	0.7410155535
4984.0382519529	0.6713154912
4985.9670593259	0.7009016275
4987.8958666990	0.7168022990
4989.8246740720	0.6800303459
4991.7534814451	0.6519771218
4993.6822888181	0.6525064111
4995.6110961912	0.7587866187
4997.5399035642	0.7004510760
4999.4687109373	0.6202318668
5001.3975183103	0.6510821581
5003.3263256834	0.7048071027
5005.2551330564	0.6531779170
5007.1839404295	0.6439245343
5009.1127478025	0.7294534445
5011.0415551756	0.6179965734
5012.9703625486	0.6621887684
5014.8991699217	0.6947593093
5016.8279772947	0.6282595396
5018.7567846677	0.7326431274
5020.6855920408	0.7273691297
5022.6143994138	0.6550098658
5024.5432067869	0.6118043661
5026.4720141599	0.6719790101
5028.4008215330	0.6489827633
5030.3296289060	0.6106376648
5032.2584362791	0.6595793366
5034.1872436521	0.6251292825
5036.1160510252	0.6931083798
5038.0448583982	0.6736906767
5039.9736657713	0.6942064762
5041.9024731443	0.7061302066
5043.8312805174	0.7029964328
5045.7600878904	0.7616750002
5047.6888952634	0.6785400510
5049.6177026365	0.7950713038
5051.5465100095	0.6971122026
5053.4753173826	0.6019940972
5055.4041247556	0.6958474517
5057.3329321287	0.5962070227
5059.2617395017	0.6722793579
5061.1905468748	0.6619416475
5063.1193542478	0.5940424204
5065.0481616209	0.6792822480
5066.9769689939	0.7211052179
5068.9057763670	0.6936087608
5070.8345837400	0.6661943197
5072.7633911131	0.7092767358
5074.6921984861	0.6890504956
5076.6210058591	0.6447068453
5078.5498132322	0.6567547321
5080.4786206052	0.7582114935
5082.4074279783	0.6664060950
5084.3362353513	0.5606800318
5086.2650427244	0.6788588166
5088.1938500974	0.6748129129
5090.1226574705	0.7051894665
5092.0514648435	0.6591742635
5093.9802722166	0.5912199616
5095.9090795896	0.6860355139
5097.8378869627	0.6444246173
5099.7666943357	0.6136579514
5101.6955017088	0.6085705161
5103.6243090818	0.6280326843
5105.5531164548	0.6700811386
5107.4819238279	0.6306368709
5109.4107312009	0.5862531662
5111.3395385740	0.6684911251
5113.2683459470	0.7724764943
5115.1971533201	0.6560665369
5117.1259606931	0.7184745073
5119.0547680662	0.7719307542
5120.9835754392	0.6782646775
5122.9123828123	0.7134253383
5124.8411901853	0.6592899561
5126.7699975584	0.6313556433
5128.6988049314	0.6656381488
5130.6276123045	0.6830936670
5132.5564196775	0.7184438705
5134.4852270506	0.6698918939
5136.4140344236	0.7112454772
5138.3428417966	0.7574048638
5140.2716491697	0.6630535722
5142.2004565427	0.6549086571
5144.1292639158	0.6682600379
5146.0580712888	0.6243695021
5147.9868786619	0.6483054757
5149.9156860349	0.6145250201
5151.8444934080	0.6990653872
5153.7733007810	0.7709327340
5155.7021081541	0.6446876526
5157.6309155271	0.7097811103
5159.5597229002	0.7358217835
5161.4885302732	0.6837086678
5163.4173376463	0.6958243251
5165.3461450193	0.6468805671
5167.2749523923	0.6718245149
5169.2037597654	0.6556547880
5171.1325671384	0.6420177221
5173.0613745115	0.6211543083
5174.9901818845	0.6400005817
5176.9189892576	0.7086061239
5178.8477966306	0.6697064638
5180.7766040037	0.6897457242
5182.7054113767	0.7011310458
5184.6342187498	0.6965384483
5186.5630261228	0.7262022495
5188.4918334959	0.6783878207
5190.4206408689	0.6207252145
5192.3494482420	0.6741043329
5194.2782556150	0.6700678468
5196.2070629880	0.6037926078
5198.1358703611	0.6422016621
5200.0646777341	0.6004121900
5201.9934851072	0.6649008393
5203.9222924802	0.7004043460
5205.8510998533	0.6639168262
5207.7799072263	0.7188588977
5209.7087145994	0.6631941199
5211.6375219724	0.7035533786
5213.5663293455	0.6180924177
5215.4951367185	0.6045324206
5217.4239440916	0.7284044623
5219.3527514646	0.6259141564
5221.2815588377	0.6256057024
5223.2103662107	0.7124335766
5225.1391735837	0.7650915384
5227.0679809568	0.6334001422
5228.9967883298	0.6291522980
5230.9255957029	0.7019813061
5232.8544030759	0.5814962983
5234.7832104490	0.7428041101
5236.7120178220	0.7077540755
5238.6408251951	0.6071673036
5240.5696325681	0.6707989573
5242.4984399412	0.6614673138
5244.4272473142	0.6881933808
5246.3560546873	0.5948433876
5248.2848620603	0.6248867512
5250.2136694334	0.7194792032
5252.1424768064	0.6700578928
5254.0712841795	0.7031072974
5256.0000915525	0.6991060972
5257.9288989255	0.5935487747
5259.8577062986	0.6552605629
5261.7865136716	0.7674633861
5263.7153210447	0.7133167386
5265.6441284177	0.8494553566
5267.5729357908	0.7452335358
5269.5017431638	0.6503908634
5271.4305505369	0.8369936347
5273.3593579099	0.6063312888
5275.2881652830	0.6001751423
5277.2169726560	0.7532817125
5279.1457800291	0.6495440602
5281.0745874021	0.7273557782
5283.0033947752	0.6690557003
5284.9322021482	0.5788698196
5286.8610095212	0.6193717122
5288.7898168943	0.6468216181
5290.7186242673	0.7567632198
5292.6474316404	0.6450999379
5294.5762390134	0.5743402839
5296.5050463865	0.6850858927
5298.4338537595	0.6666647196
5300.3626611326	0.7660216093
5302.2914685056	0.7830806971
5304.2202758787	0.6417801380
5306.1490832517	0.6414645314
5308.0778906248	0.5715579987
5310.0066979978	0.5600931048
5311.9355053709	0.6111571193
5313.8643127439	0.7410690784
5315.7931201169	0.7538483143
5317.7219274900	0.6377542615
5319.6507348630	0.7660849690
5321.5795422361	0.7226046920
5323.5083496091	0.6408618093
5325.4371569822	0.6349586844
5327.3659643552	0.6394383311
5329.2947717283	0.6993365288
5331.2235791013	0.5804734230
5333.1523864744	0.6766322255
5335.0811938474	0.7182815075
5337.0100012205	0.6028268933
5338.9388085935	0.7607080340
5340.8676159666	0.7742699385
5342.7964233396	0.6356649995
5344.7252307126	0.6380457878
5346.6540380857	0.7738658190
5348.5828454587	0.7618562579
5350.5116528318	0.6858222485
5352.4404602048	0.8091352582
5354.3692675779	0.6799013615
5356.2980749509	0.6582669616
5358.2268823240	0.7969543338
5360.1556896970	0.6646406054
5362.0844970701	0.6674135327
5364.0133044431	0.7575525641
5365.9421118162	0.7334002256
5367.8709191892	0.6230092049
5369.7997265623	0.5522833467
5371.7285339353	0.6789101958
5373.6573413083	0.6496287584
5375.5861486814	0.5619975924
5377.5149560544	0.6038141847
5379.4437634275	0.6384197474
5381.3725708005	0.6561275721
5383.3013781736	0.6321366429
5385.2301855466	0.6397070289
5387.1589929197	0.6902377009
5389.0878002927	0.7083851695
5391.0166076658	0.6826291084
5392.9454150388	0.7049974799
5394.8742224119	0.7516709566
5396.8030297849	0.6922433972
5398.7318371580	0.6487300992
5400.6606445310	0.7070757151
5402.5894519041	0.7594047785
5404.5182592771	0.6719845533
5406.4470666501	0.6724516749
5408.3758740232	0.7818919420
5410.3046813962	0.6726414561
5412.2334887693	0.5700808167
5414.1622961423	0.6128503680
5416.0911035154	0.5866971016
5418.0199108884	0.6053828597
5419.9487182615	0.6773284674
5421.8775256345	0.7053256631
5423.8063330076	0.6310668588
5425.7351403806	0.5871430635
5427.6639477537	0.6799983978
5429.5927551267	0.7575070262
5431.5215624998	0.6939132214
5433.4503698728	0.6165323257
5435.3791772458	0.6322083473
5437.3079846189	0.6407681704
5439.2367919919	0.6235607862
5441.1655993650	0.7893277407
5443.0944067380	0.7943060398
5445.0232141111	0.6994242668
5446.9520214841	0.7423130870
5448.8808288572	0.8216624856
5450.8096362302	0.8249280453
5452.7384436033	0.5863180161
5454.6672509763	0.6140654683
5456.5960583494	0.8042392731
5458.5248657224	0.7425069213
5460.4536730955	0.7200599909
5462.3824804685	0.7028545737
5464.3112878415	0.6205323339
5466.2400952146	0.5814687014
5468.1689025876	0.6746738553
5470.0977099607	0.6623436809
5472.0265173337	0.6652938128
5473.9553247068	0.6671894789
5475.8841320798	0.6079549193
5477.8129394529	0.6523720622
5479.7417468259	0.6244310141
5481.6705541990	0.8061304688
5483.5993615720	0.7228393555
5485.5281689451	0.6204683781
5487.4569763181	0.7920643687
5489.3857836912	0.7195855975
5491.3145910642	0.8672261238
5493.2433984372	0.7129237056
5495.1722058103	0.6493403912
5497.1010131833	0.7086282372
5499.0298205564	0.6527605653
5500.9586279294	0.8402101994
5502.8874353025	0.6656051278
5504.8162426755	0.6458855867
5506.7450500486	0.6843600273
5508.6738574216	0.6076036692
5510.6026647947	0.6770812869
5512.5314721677	0.6998804808
5514.4602795408	0.7953662872
5516.3890869138	0.7289521694
5518.3178942869	0.7564690113
5520.2467016599	0.5979730487
5522.1755090330	0.4740548432
5524.1043164060	0.5987995863
5526.0331237790	0.5540614128
5527.9619311521	0.6910104156
5529.8907385251	0.7037013769
5531.8195458982	0.5915205479
5533.7483532712	0.5661730766
5535.6771606443	0.5787431002
5537.6059680173	0.6950920224
5539.5347753904	0.6860257983
5541.4635827634	0.7106649876
5543.3923901365	0.7000647783
5545.3211975095	0.6566826701
5547.2500048826	0.7450304031
5549.1788122556	0.8049849272
5551.1076196287	0.7387244701
5553.0364270017	0.6709125042
5554.9652343747	0.6396015882
5556.8940417478	0.7834907770
5558.8228491208	0.8097901940
5560.7516564939	0.5864640474
5562.6804638669	0.6365712881
5564.6092712400	0.6669992208
5566.5380786130	0.7140355110
5568.4668859861	0.6996149421
5570.3956933591	0.6438571215
5572.3245007322	0.7155936360
5574.2533081052	0.4515800476
5576.1821154783	0.6361075640
5578.1109228513	0.8298734426
5580.0397302244	0.6550371051
5581.9685375974	0.7625058293
5583.8973449704	0.6004171371
5585.8261523435	0.7329658270
5587.7549597165	0.8211188316
5589.6837670896	0.7316401601
5591.6125744626	0.7776338458
5593.5413818357	0.7336938381
5595.4701892087	0.7736914158
5597.3989965818	0.6910776496
5599.3278039548	0.7488400936
5601.2566113279	0.7674170136
5603.1854187009	0.6713460684
5605.1142260740	0.6355539560
5607.0430334470	0.5613394380
5608.9718408201	0.6988710165
5610.9006481931	0.7961657643
5612.8294555661	0.6441358924
5614.7582629392	0.7606804371
5616.6870703122	0.8557989597
5618.6158776853	0.7042090893
5620.5446850583	0.7113168240
5622.4734924314	0.6899261475
5624.4022998044	0.6008087397
5626.3311071775	0.6120444536
5628.2599145505	0.6602866650
5630.1887219236	0.7569943070
5632.1175292966	0.8419389725
5634.0463366697	0.7618127465
5635.9751440427	0.5617966056
5637.9039514158	0.5660185814
5639.8327587888	0.5811263919
5641.7615661619	0.6857451797
5643.6903735349	0.7862149477
5645.6191809079	0.5459553599
5647.5479882810	0.6787571311
5649.4767956540	0.7276851535
5651.4056030271	0.6726468801
5653.3344104001	0.8790769577
5655.2632177732	0.7749946713
5657.1920251462	0.6718085408
5659.1208325193	0.5529283881
5661.0496398923	0.5404286981
5662.9784472654	0.5030047894
5664.9072546384	0.5999826193
5666.8360620115	0.7474702597
5668.7648693845	0.6483532786
5670.6936767576	0.8499885201
5672.6224841306	0.6628122926
5674.5512915036	0.5691263676
5676.4800988767	0.6884357929
5678.4089062497	0.5922665596
5680.3377136228	0.7659536004
5682.2665209958	0.8173009753
5684.1953283689	0.7063573599
5686.1241357419	0.6172087193
5688.0529431150	0.6148799658
5689.9817504880	0.6909487844
5691.9105578611	0.6332730055
5693.8393652341	0.5841751099
5695.7681726072	0.7480008602
5697.6969799802	0.8768300414
5699.6257873533	0.7361455560
5701.5545947263	0.6274079084
5703.4834020993	0.6671165824
5705.4122094724	0.7453754544
5707.3410168454	0.7001231313
5709.2698242185	0.7390128970
5711.1986315915	0.7383249998
5713.1274389646	0.5764390826
5715.0562463376	0.6724690795
5716.9850537107	0.6181693673
5718.9138610837	0.6516140699
5720.8426684568	0.8358135223
5722.7714758298	0.5799081922
5724.7002832029	0.6927614808
5726.6290905759	0.7507590055
5728.5578979490	0.7460116148
5730.4867053220	0.7702083588
5732.4155126950	0.7013372779
5734.3443200681	0.9145205021
5736.2731274411	0.8976770639
5738.2019348142	0.7648858428
5740.1307421872	0.7065027952
5742.0595495603	0.6972622275
5743.9883569333	0.7749507427
5745.9171643064	0.8426032662
5747.8459716794	0.6996242404
5749.7747790525	0.6460546255
5751.7035864255	0.7514907718
5753.6323937986	0.6473089457
5755.5612011716	0.7115365863
5757.4900085447	0.7012891173
5759.4188159177	0.6571457386
5761.3476232907	0.7348112464
5763.2764306638	0.7155973315
5765.2052380368	1.0033025742
5767.1340454099	0.6534377337
5769.0628527829	0.5905616283
5770.9916601560	0.8973128796
5772.9204675290	0.5951403379
5774.8492749021	0.6348850727
5776.7780822751	0.6620271206
5778.7068896482	0.6629392505
5780.6356970212	0.6483178139
5782.5645043943	0.6548246145
5784.4933117673	0.6695640087
5786.4221191404	0.5114336014
5788.3509265134	0.6952631474
5790.2797338865	0.5498422384
5792.2085412595	0.5244557858
5794.1373486325	0.7916562557
5796.0661560056	0.5640229583
5797.9949633786	0.7133760452
5799.9237707517	0.7598794103
5801.8525781247	0.5295535326
5803.7813854978	0.6452147365
5805.7101928708	0.7777617574
5807.6390002439	0.7794855237
5809.5678076169	0.9413657188
5811.4966149900	0.6737130880
5813.4254223630	0.5966010094
5815.3542297361	0.8753693104
5817.2830371091	0.6658666134
5819.2118444822	0.6803049445
5821.1406518552	0.9005039334
5823.0694592282	0.8616775274
5824.9982666013	0.7391168475
5826.9270739743	0.7526983023
5828.8558813474	0.7380446792
5830.7846887204	0.5790131092
5832.7134960935	0.7245539427
5834.6423034665	0.8175394535
5836.5711108396	0.7894526124
5838.4999182126	0.8385202885
5840.4287255857	0.8596506715
5842.3575329587	0.7552573681
5844.2863403318	0.6020659804
5846.2151477048	0.7208430171
5848.1439550779	0.7491489649
5850.0727624509	0.8242914677
5852.0015698239	0.9564089775
5853.9303771970	0.7935284972
5855.8591845700	0.6771197319
5857.7879919431	0.6654147506
5859.7167993161	0.5767068863
5861.6456066892	0.6183969975
5863.5744140622	0.7330719829
5865.5032214353	0.6708993912
5867.4320288083	0.8008140922
5869.3608361814	0.8682633042
5871.2896435544	0.8498108387
5873.2184509275	0.7450542450
5875.1472583005	0.5156064034
5877.0760656736	0.7076389194
5879.0048730466	0.8712080717
5880.9336804196	0.7737191319
5882.8624877927	0.8272746205
5884.7912951657	0.7133327127
5886.7201025388	0.4082446992
5888.6489099118	0.5092201233
5890.5777172849	1.1844527721
5892.5065246579	0.5039890409
5894.4353320310	0.4235444069
5896.3641394040	0.8454043865
5898.2929467771	0.5989770293
5900.2217541501	0.4776351154
5902.1505615232	0.5617851615
5904.0793688962	0.4468066692
5906.0081762693	0.5954322219
5907.9369836423	0.8229207397
5909.8657910154	0.6973634958
5911.7945983884	0.6065106392
5913.7234057614	0.3811516762
5915.6522131345	0.7012652159
5917.5810205075	0.9988899231
5919.5098278806	0.4401176274
5921.4386352536	0.9386719465
5923.3674426267	0.7547069192
5925.2962499997	0.6160573363
5927.2250573728	0.8715865612
5929.1538647458	0.5437270999
5931.0826721189	0.8562700748
5933.0114794919	0.5788488388
5934.9402868650	0.6681596637
5936.8690942380	0.9790722728
5938.7979016111	0.4246843755
5940.7267089841	0.5120541453
5942.6555163571	0.5836315155
5944.5843237302	0.6864732504
5946.5131311032	0.5463390350
5948.4419384763	0.6300746799
5950.3707458493	0.8678092957
5952.2995532224	0.4992800951
5954.2283605954	0.7135463953
5956.1571679685	0.7701680660
5958.0859753415	0.4852480292
5960.0147827146	0.4964874983
5961.9435900876	0.8106162548
5963.8723974607	0.6899152398
5965.8012048337	0.5344207883
5967.7300122068	0.6063832045
5969.6588195798	0.6455016136
5971.5876269528	0.7757358551
5973.5164343259	0.7286936641
5975.4452416989	0.7522690296
5977.3740490720	0.6230808496
5979.3028564450	0.5584263206
5981.2316638181	0.7037874460
5983.1604711911	0.4536201060
5985.0892785642	0.5978263021
5987.0180859372	0.9293124080
5988.9468933103	0.7776159048
5990.8757006833	0.6831938624
5992.8045080564	0.6432487369
5994.7333154294	0.7520795465
5996.6621228025	0.8782218695
5998.5909301755	0.5027709007
6000.5197375485	0.5141395926
