399.2631262207	0.1949717402
401.1919335938	0.0304421335
403.1207409668	0.2116044313
405.0495483398	0.2767991722
406.9783557129	0.1541005671
408.9071630859	0.1135659441
410.8359704590	0.1915492862
412.7647778320	0.1120842099
414.6935852051	0.0356029868
416.6223925781	0.3314077258
418.5511999512	0.2415214032
420.4800073242	0.0936448276
422.4088146973	0.2528572679
424.3376220703	0.0432940423
426.2664294434	0.1157123744
428.1952368164	0.1867952645
430.1240441895	0.2276666164
432.0528515625	0.2878706157
433.9816589355	0.0767949298
435.9104663086	0.1988673508
437.8392736816	0.2628678679
439.7680810547	0.2130689472
441.6968884277	0.2215609550
443.6256958008	0.2183125317
445.5545031738	0.2966378927
447.4833105469	0.2359723002
449.4121179199	0.1501320899
451.3409252930	0.1167678386
453.2697326660	0.1256281883
455.1985400391	0.1631201506
457.1273474121	0.1136102527
459.0561547852	0.1272789091
460.9849621582	0.3040710092
462.9137695313	0.2584038377
464.8425769043	0.1698933244
466.7713842773	0.2989920974
468.7001916504	0.4092269838
470.6289990234	0.4392050207
472.5578063965	0.2879386544
474.4866137695	0.7377275229
476.4154211426	0.5245657563
478.3442285156	0.2500647306
480.2730358887	0.4147075117
482.2018432617	-0.0311159808
484.1306506348	0.5032899976
486.0594580078	0.5941734314
487.9882653809	0.8646254539
489.9170727539	1.2974195480
491.8458801270	0.7448145747
493.7746875000	0.9760251641
495.7034948730	-0.0831284150
497.6323022461	0.2066961527
499.5611096191	0.3859212995
501.4899169922	0.0411156937
503.4187243652	0.6051276326
505.3475317383	-0.1619522572
507.2763391113	-0.4924229681
509.2051464844	0.5295235515
511.1339538574	0.1566194743
513.0627612305	0.6436527967
514.9915686035	0.5482434630
516.9203759766	1.6679668427
518.8491833496	-29.6290607452
520.7779907227	-1.3540539742
522.7067980957	-0.6741238236
524.6356054688	0.1216798723
526.5644128418	0.2888935804
528.4932202148	0.0695150122
530.4220275879	1.3124519587
532.3508349609	10.7721996307
534.2796423340	-0.0544352755
536.2084497070	0.4348891377
538.1372570801	3.4957776070
540.0660644531	-1.7482488155
541.9948718262	4.2303795815
543.9236791992	0.4946584404
545.8524865723	1.4468191862
547.7812939453	0.0721528903
549.7101013184	-1.5281372070
551.6389086914	1.4653786421
553.5677160645	0.0778386742
555.4965234375	0.1705126017
557.4253308105	-10.3187932968
559.3541381836	-0.1087953001
561.2829455566	0.1268080175
563.2117529297	0.4140003622
565.1405603027	0.1260231584
567.0693676758	-1.0089411736
568.9981750488	-16.8963718414
570.9269824219	15.0316553116
572.8557897949	-1.9203624725
574.7845971680	1.3126631975
576.7134045410	0.6267843246
578.6422119141	-0.4590536654
580.5710192871	-0.4677476287
582.4998266602	-3.3715834618
584.4286340332	0.3930586576
586.3574414063	-0.6702584028
588.2862487793	0.4085102975
590.2150561523	-0.2566983402
592.1438635254	0.4891213477
594.0726708984	-0.0525721535
596.0014782715	-52.2592315674
597.9302856445	0.6094560623
599.8590930176	0.6693803072
601.7879003906	0.6458835602
603.7167077637	0.2733910382
605.6455151367	-1.8595708609
607.5743225098	1.3762501478
609.5031298828	-0.1815224141
611.4319372559	-0.4977035224
613.3607446289	0.7241749167
615.2895520020	5.4142079353
617.2183593750	-5.5500764847
619.1471667480	-4.9482297897
621.0759741211	0.4740611613
623.0047814941	0.1541123986
624.9335888672	-1.3534564972
626.8623962402	0.9861802459
628.7912036133	-5.3029804230
630.7200109863	0.5126515627
632.6488183594	0.2710588574
634.5776257324	0.2838356495
636.5064331055	0.2337357700
638.4352404785	0.3585906029
640.3640478516	0.3103431463
642.2928552246	0.4154649079
644.2216625977	0.2219677418
646.1504699707	0.2240456641
648.0792773438	0.4157148600
650.0080847168	0.1873932183
651.9368920898	0.2277398705
653.8656994629	0.3355782032
655.7945068359	0.2798047662
657.7233142090	0.2636983097
659.6521215820	0.2585695386
661.5809289551	0.2961881757
663.5097363281	0.3259268701
665.4385437012	0.2670156360
667.3673510742	0.2917532027
669.2961584473	0.3525850773
671.2249658203	0.2979550958
673.1537731934	0.2917733788
675.0825805664	0.2634639144
677.0113879395	0.3282880187
678.9401953125	0.3734950721
680.8690026855	0.2826046944
682.7978100586	0.3323087096
684.7266174316	0.3233512342
686.6554248047	0.2856884599
688.5842321777	0.3289837837
690.5130395508	0.3163940609
692.4418469238	0.3194007576
694.3706542969	0.3167511225
696.2994616699	0.3036980927
698.2282690430	0.3295710385
700.1570764160	0.3644537628
702.0858837891	0.3426935077
704.0146911621	0.3374688625
705.9434985352	0.3772405386
707.8723059082	0.3342841864
709.8011132813	0.2850182652
711.7299206543	0.3113726079
713.6587280273	0.3506254554
715.5875354004	0.4499935806
717.5163427734	0.5052250028
719.4451501465	0.5481114388
721.3739575195	0.3607732952
723.3027648926	0.1546170861
725.2315722656	1.3329359293
727.1603796387	-0.3262464106
729.0891870117	0.5971508622
731.0179943848	0.8610367179
732.9468017578	0.6398586631
734.8756091309	1.5755742788
736.8044165039	-2.1869745255
738.7332238770	0.5370342731
740.6620312500	0.5070041418
742.5908386230	3.9311184883
744.5196459961	-8.7427129745
746.4484533691	0.6431404352
748.3772607422	0.4938313663
750.3060681152	1.4482051134
752.2348754883	0.9384852648
754.1636828613	1.5824686289
756.0924902344	1.2840731144
758.0212976074	0.8222494125
759.9501049805	0.7868373394
761.8789123535	0.5474413037
763.8077197266	0.6692906618
765.7365270996	0.8924283385
767.6653344727	1.2777675390
769.5941418457	0.8771690130
771.5229492188	0.1667698473
773.4517565918	0.6215032339
775.3805639648	1.0198962688
777.3093713379	0.2616955042
779.2381787109	0.5805160403
781.1669860840	0.8617156744
783.0957934570	0.2251137346
785.0246008301	0.8359776735
786.9534082031	1.0652079582
788.8822155762	0.3806948960
790.8110229492	1.9416062832
792.7398303223	0.6704617739
794.6686376953	0.5707157254
796.5974450684	1.2472809553
798.5262524414	0.5550271273
800.4550598145	0.5583128333
802.3838671875	0.5528308153
804.3126745605	0.7316918969
806.2414819336	0.5898708701
808.1702893066	0.4715553820
810.0990966797	0.7456422448
812.0279040527	1.2956120968
813.9567114258	0.8661479950
815.8855187988	-0.0724619180
817.8143261719	0.5234602690
819.7431335449	0.9663481712
821.6719409180	0.1284602582
823.6007482910	0.7806014419
825.5295556641	0.7389251590
827.4583630371	0.6127218604
829.3871704102	0.3551767766
831.3159777832	0.4136365652
833.2447851563	0.5478867888
835.1735925293	0.4192973375
837.1023999023	0.5381476879
839.0312072754	0.3855784237
840.9600146484	0.5320960879
842.8888220215	0.5431066751
844.8176293945	0.4572583139
846.7464367676	0.5479905009
848.6752441406	0.2811897099
850.6040515137	0.5129317045
852.5328588867	0.7179507613
854.4616662598	0.8500242233
856.3904736328	0.8980800509
858.3192810059	0.6047624946
860.2480883789	0.4929782748
862.1768957520	0.5097855330
864.1057031250	0.5271410346
866.0345104980	0.6443310380
867.9633178711	1.1263649464
869.8921252441	0.7251589894
871.8209326172	1.3511856794
873.7497399902	1.1348943710
875.6785473633	0.3737897575
877.6073547363	1.4603197575
879.5361621094	0.5042520761
881.4649694824	0.3173886836
883.3937768555	1.2773507833
885.3225842285	0.7188501358
887.2513916016	0.5692465305
889.1801989746	1.8898109198
891.1090063477	1.2160685062
893.0378137207	0.9056780934
894.9666210938	0.8388479352
896.8954284668	0.9870630503
898.8242358398	1.6691598892
900.7530432129	0.9069034457
902.6818505859	0.9850237966
904.6106579590	1.1487975121
906.5394653320	0.9809867144
908.4682727051	1.1591259241
910.3970800781	0.4512749612
912.3258874512	0.4253140390
914.2546948242	0.9958598018
916.1835021973	1.0314918756
918.1123095703	0.6546335816
920.0411169434	0.5882787108
921.9699243164	0.6199500561
923.8987316895	0.6747646928
925.8275390625	0.6187093854
927.7563464355	0.5526335239
929.6851538086	0.7689109445
931.6139611816	0.4990091026
933.5427685547	0.5328819752
935.4715759277	0.5102279782
937.4003833008	0.3853220046
939.3291906738	0.5522837639
941.2579980469	0.4267441034
943.1868054199	0.5167138577
945.1156127930	0.5144987106
947.0444201660	0.4667052031
948.9732275391	0.5622397661
950.9020349121	0.3604417145
952.8308422852	0.4742496610
954.7596496582	0.5177384615
956.6884570313	0.3715593517
958.6172644043	0.5076363087
960.5460717773	0.5526912212
962.4748791504	0.3769358993
964.4036865234	0.4264795780
966.3324938965	0.5365130901
968.2613012695	0.4199130833
970.1901086426	0.5034049153
972.1189160156	0.4662168324
974.0477233887	0.4188491702
975.9765307617	0.4952068031
977.9053381348	0.4317465723
979.8341455078	0.4635849893
981.7629528809	0.4701026976
983.6917602539	0.4278393388
985.6205676270	0.4481599927
987.5493750000	0.4192018509
989.4781823730	0.3842166364
991.4069897461	0.4155803323
993.3357971191	0.4062150419
995.2646044922	0.4214768410
997.1934118652	0.4620386958
999.1222192383	0.4161086380
1001.0510266113	0.3900586665
1002.9798339844	0.4032521844
1004.9086413574	0.4187154770
1006.8374487305	0.4017016888
1008.7662561035	0.4126430452
1010.6950634766	0.4331681728
1012.6238708496	0.3940198123
1014.5526782227	0.3983553350
1016.4814855957	0.3951100111
1018.4102929688	0.3828136325
1020.3391003418	0.3960395455
1022.2679077148	0.3883544803
1024.1967150879	0.3850668073
1026.1255224609	0.3830724955
1028.0543298340	0.3872724473
1029.9831372070	0.3826372623
1031.9119445801	0.3799758255
1033.8407519531	0.3829912543
1035.7695593262	0.3808448613
1037.6983666992	0.3889226913
1039.6271740723	0.3793950379
1041.5559814453	0.3674961030
1043.4847888184	0.3672262728
1045.4135961914	0.3770945072
1047.3424035645	0.3766167164
1049.2712109375	0.3666076660
1051.2000183105	0.3787985146
1053.1288256836	0.3763114214
1055.0576330566	0.3729728162
1056.9864404297	0.3779736161
1058.9152478027	0.3782791793
1060.8440551758	0.3772307932
1062.7728625488	0.3642284274
1064.7016699219	0.3717465997
1066.6304772949	0.3799057007
1068.5592846680	0.3706084192
1070.4880920410	0.3751498163
1072.4168994141	0.3777728677
1074.3457067871	0.3634869456
1076.2745141602	0.3632736206
1078.2033215332	0.3848654032
1080.1321289062	0.3822537959
1082.0609362793	0.3686831295
1083.9897436523	0.3686453700
1085.9185510254	0.3715132177
1087.8473583984	0.3712068498
1089.7761657715	0.3560219109
1091.7049731445	0.3827712238
1093.6337805176	0.3964701295
1095.5625878906	0.3650624752
1097.4913952637	0.3985136151
1099.4202026367	0.3935345113
1101.3490100098	0.3611306846
1103.2778173828	0.3908903301
1105.2066247559	0.3885552883
1107.1354321289	0.3676641881
1109.0642395019	0.3813556731
1110.9930468750	0.4147961438
1112.9218542480	0.4003175795
1114.8506616211	0.3719888926
1116.7794689941	0.3738110662
1118.7082763672	0.3697868586
1120.6370837402	0.3986831009
1122.5658911133	0.4032761157
1124.4946984863	0.3762468398
1126.4235058594	0.4023923576
1128.3523132324	0.4176124930
1130.2811206055	0.3880815208
1132.2099279785	0.3702801764
1134.1387353516	0.3842361569
1136.0675427246	0.3921504319
1137.9963500977	0.3710623980
1139.9251574707	0.3803709745
1141.8539648437	0.3768140972
1143.7827722168	0.3519129157
1145.7115795898	0.3689609468
1147.6403869629	0.3582842052
1149.5691943359	0.3446518481
1151.4980017090	0.3599525988
1153.4268090820	0.3668154478
1155.3556164551	0.3638139963
1157.2844238281	0.3454939723
1159.2132312012	0.3467550874
1161.1420385742	0.3468157053
1163.0708459473	0.3436668515
1164.9996533203	0.3343913555
1166.9284606934	0.3411151469
1168.8572680664	0.3681378663
1170.7860754394	0.3442383707
1172.7148828125	0.3458935320
1174.6436901855	0.3454124331
1176.5724975586	0.3301578462
1178.5013049316	0.3482268751
1180.4301123047	0.3399263322
1182.3589196777	0.3460117877
1184.2877270508	0.3408996165
1186.2165344238	0.3297339976
1188.1453417969	0.3391954899
1190.0741491699	0.3292397261
1192.0029565430	0.3328501582
1193.9317639160	0.3326807618
1195.8605712891	0.3270479739
1197.7893786621	0.3330412209
1199.7181860351	0.3371218741
1201.6469934082	0.3391609192
1203.5758007812	0.3366909325
1205.5046081543	0.3303743303
1207.4334155273	0.3269496262
1209.3622229004	0.3321905136
1211.2910302734	0.3283658326
1213.2198376465	0.3253988028
1215.1486450195	0.3276948929
1217.0774523926	0.3237162232
1219.0062597656	0.3284615278
1220.9350671387	0.3290141523
1222.8638745117	0.3235801458
1224.7926818848	0.3240834177
1226.7214892578	0.3232071698
1228.6502966308	0.3233303130
1230.5791040039	0.3252756596
1232.5079113769	0.3251886070
1234.4367187500	0.3243420422
1236.3655261230	0.3232080638
1238.2943334961	0.3263303936
1240.2231408691	0.3263077736
1242.1519482422	0.3204948604
1244.0807556152	0.3236061335
1246.0095629883	0.3233039081
1247.9383703613	0.3226373792
1249.8671777344	0.3245242238
1251.7959851074	0.3240667582
1253.7247924805	0.3278948665
1255.6535998535	0.3220809102
1257.5824072266	0.3244076669
1259.5112145996	0.3250406384
1261.4400219726	0.3205553889
1263.3688293457	0.3282166123
1265.2976367187	0.3234926760
1267.2264440918	0.3226834536
1269.1552514648	0.3210898042
1271.0840588379	0.3221360743
1273.0128662109	0.3293730617
1274.9416735840	0.3211233020
1276.8704809570	0.3225346804
1278.7992883301	0.3234897256
1280.7280957031	0.3222190440
1282.6569030762	0.3264148533
1284.5857104492	0.3246311247
1286.5145178223	0.3269585967
1288.4433251953	0.3301348984
1290.3721325683	0.3280406594
1292.3009399414	0.3252466321
1294.2297473144	0.3247412741
1296.1585546875	0.3224439919
1298.0873620605	0.3260590732
1300.0161694336	0.3255270422
1301.9449768066	0.3211269081
1303.8737841797	0.3225829005
1305.8025915527	0.3197753429
1307.7313989258	0.3236852884
1309.6602062988	0.3226247728
1311.5890136719	0.3202828467
1313.5178210449	0.3218572438
1315.4466284180	0.3193359971
1317.3754357910	0.3208674490
1319.3042431640	0.3157444894
1321.2330505371	0.3186601996
1323.1618579101	0.3233712018
1325.0906652832	0.3173400760
1327.0194726562	0.3190647364
1328.9482800293	0.3186996281
1330.8770874023	0.3172873259
1332.8058947754	0.3196879029
1334.7347021484	0.3152399063
1336.6635095215	0.3143137991
1338.5923168945	0.3178643584
1340.5211242676	0.3145217001
1342.4499316406	0.3153300881
1344.3787390137	0.3158733845
1346.3075463867	0.3126972914
1348.2363537597	0.3162925541
1350.1651611328	0.3154743016
1352.0939685058	0.3152267933
1354.0227758789	0.3158180416
1355.9515832519	0.3125414550
1357.8803906250	0.3150054216
1359.8091979980	0.3145282269
1361.7380053711	0.3130763471
1363.6668127441	0.3132034540
1365.5956201172	0.3145501912
1367.5244274902	0.3177342415
1369.4532348633	0.3164636493
1371.3820422363	0.3159991503
1373.3108496094	0.3160631657
1375.2396569824	0.3142898977
1377.1684643555	0.3121076524
1379.0972717285	0.3119490445
1381.0260791015	0.3131101429
1382.9548864746	0.3125747442
1384.8836938476	0.3133518994
1386.8125012207	0.3150415421
1388.7413085937	0.3160426915
1390.6701159668	0.3146098554
1392.5989233398	0.3148129880
1394.5277307129	0.3137354851
1396.4565380859	0.3127462566
1398.3853454590	0.3150175512
1400.3141528320	0.3116264939
1402.2429602051	0.3117748797
1404.1717675781	0.3131482601
1406.1005749512	0.3110141158
1408.0293823242	0.3115719557
1409.9581896972	0.3129224181
1411.8869970703	0.3147580624
1413.8158044433	0.3125040829
1415.7446118164	0.3142413497
1417.6734191894	0.3145295680
1419.6022265625	0.3090001047
1421.5310339355	0.3139942586
1423.4598413086	0.3119701445
1425.3886486816	0.3093502522
1427.3174560547	0.3135758936
1429.2462634277	0.3088795543
1431.1750708008	0.3112404048
1433.1038781738	0.3169311285
1435.0326855469	0.3153639138
1436.9614929199	0.3185247779
1438.8903002929	0.3183508515
1440.8191076660	0.3174494803
1442.7479150390	0.3221151531
1444.6767224121	0.3232382238
1446.6055297851	0.3197309077
1448.5343371582	0.3139746785
1450.4631445312	0.3143774867
1452.3919519043	0.3153602481
1454.3207592773	0.3162223995
1456.2495666504	0.3214848936
1458.1783740234	0.3179218769
1460.1071813965	0.3124350011
1462.0359887695	0.3083426058
1463.9647961426	0.3065980673
1465.8936035156	0.3077477515
1467.8224108886	0.3053205907
1469.7512182617	0.3069810271
1471.6800256347	0.3075132966
1473.6088330078	0.3046135604
1475.5376403808	0.3032492697
1477.4664477539	0.3021368086
1479.3952551269	0.3037906289
1481.3240625000	0.2998869717
1483.2528698730	0.2983173132
1485.1816772461	0.3006789088
1487.1104846191	0.2968465984
1489.0392919922	0.2972542942
1490.9680993652	0.2969429791
1492.8969067383	0.2949585319
1494.8257141113	0.2958475053
1496.7545214843	0.2945517302
1498.6833288574	0.2958851755
1500.6121362304	0.2943328023
1502.5409436035	0.2924498320
1504.4697509765	0.2941300571
1506.3985583496	0.2929131985
1508.3273657226	0.2922569513
1510.2561730957	0.2905614078
1512.1849804687	0.2911733985
1514.1137878418	0.2929723263
1516.0425952148	0.2903681099
1517.9714025879	0.2908823490
1519.9002099609	0.2900350392
1521.8290173340	0.2874624729
1523.7578247070	0.2893422544
1525.6866320801	0.2892690599
1527.6154394531	0.2873718441
1529.5442468261	0.2872665823
1531.4730541992	0.2894561887
1533.4018615722	0.2892867625
1535.3306689453	0.2867069840
1537.2594763183	0.2869194746
1539.1882836914	0.2878666520
1541.1170910644	0.2862900496
1543.0458984375	0.2842142582
1544.9747058105	0.2846944034
1546.9035131836	0.2848872244
1548.8323205566	0.2832387388
1550.7611279297	0.2833782732
1552.6899353027	0.2835191488
1554.6187426758	0.2835921347
1556.5475500488	0.2837579846
1558.4763574218	0.2836244702
1560.4051647949	0.2836796045
1562.3339721679	0.2817048132
1564.2627795410	0.2803120911
1566.1915869140	0.2804043889
1568.1203942871	0.2798639238
1570.0492016601	0.2806447744
1571.9780090332	0.2804442346
1573.9068164062	0.2790214419
1575.8356237793	0.2795037627
1577.7644311523	0.2790650129
1579.6932385254	0.2782307565
1581.6220458984	0.2783969343
1583.5508532715	0.2771839201
1585.4796606445	0.2768549323
1587.4084680175	0.2763221860
1589.3372753906	0.2747192383
1591.2660827636	0.2757714689
1593.1948901367	0.2749123275
1595.1236975097	0.2742747366
1597.0525048828	0.2747400403
1598.9813122558	0.2721954882
1600.9101196289	0.2735583186
1602.8389270019	0.2738411725
1604.7677343750	0.2718679607
1606.6965417480	0.2739247978
1608.6253491211	0.2752109170
1610.5541564941	0.2746403217
1612.4829638672	0.2736717761
1614.4117712402	0.2749643922
1616.3405786132	0.2758189440
1618.2693859863	0.2747308314
1620.1981933593	0.2765865624
1622.1270007324	0.2772335708
1624.0558081054	0.2775753438
1625.9846154785	0.2805392742
1627.9134228515	0.2831723392
1629.8422302246	0.2850654423
1631.7710375976	0.2869448662
1633.6998449707	0.2900781035
1635.6286523437	0.2929100096
1637.5574597168	0.2943108380
1639.4862670898	0.2979264259
1641.4150744629	0.3000862896
1643.3438818359	0.3032877743
1645.2726892090	0.3085062504
1647.2014965820	0.3110071719
1649.1303039550	0.3121635318
1651.0591113281	0.3142319024
1652.9879187011	0.3196760118
1654.9167260742	0.3210607171
1656.8455334472	0.3237994313
1658.7743408203	0.3287476003
1660.7031481933	0.3291260302
1662.6319555664	0.3326224387
1664.5607629394	0.3354871571
1666.4895703125	0.3361268044
1668.4183776855	0.3398967087
1670.3471850586	0.3432353437
1672.2759924316	0.3446749151
1674.2047998047	0.3463564515
1676.1336071777	0.3475643694
1678.0624145507	0.3488596082
1679.9912219238	0.3516971767
1681.9200292968	0.3535700440
1683.8488366699	0.3556120992
1685.7776440429	0.3574785888
1687.7064514160	0.3580297530
1689.6352587890	0.3597908318
1691.5640661621	0.3600556850
1693.4928735351	0.3611758649
1695.4216809082	0.3628639281
1697.3504882812	0.3621686101
1699.2792956543	0.3629676402
1701.2081030273	0.3640048504
1703.1369104004	0.3643643558
1705.0657177734	0.3650929332
1706.9945251464	0.3635368049
1708.9233325195	0.3637609482
1710.8521398925	0.3656296134
1712.7809472656	0.3642440140
1714.7097546386	0.3630338907
1716.6385620117	0.3630740643
1718.5673693847	0.3639957607
1720.4961767578	0.3639488518
1722.4249841308	0.3621684015
1724.3537915039	0.3612009287
1726.2825988769	0.3603087962
1728.2114062500	0.3602509797
1730.1402136230	0.3606693447
1732.0690209961	0.3598492742
1733.9978283691	0.3591906428
1735.9266357421	0.3584734201
1737.8554431152	0.3567284644
1739.7842504882	0.3553464115
1741.7130578613	0.3565875888
1743.6418652343	0.3556320071
1745.5706726074	0.3530965745
1747.4994799804	0.3528450727
1749.4282873535	0.3519672751
1751.3570947265	0.3511591554
1753.2859020996	0.3521883488
1755.2147094726	0.3510007560
1757.1435168457	0.3496664166
1759.0723242187	0.3498862684
1761.0011315918	0.3481287062
1762.9299389648	0.3483078778
1764.8587463379	0.3482275903
1766.7875537109	0.3459968567
1768.7163610839	0.3466403186
1770.6451684570	0.3456561565
1772.5739758300	0.3427112699
1774.5027832031	0.3429808915
1776.4315905761	0.3436537087
1778.3603979492	0.3425274789
1780.2892053222	0.3408000469
1782.2180126953	0.3398484290
1784.1468200683	0.3390242457
1786.0756274414	0.3384002149
1788.0044348144	0.3380868435
1789.9332421875	0.3371960521
1791.8620495605	0.3366845846
1793.7908569336	0.3374421299
1795.7196643066	0.3361779153
1797.6484716796	0.3351763487
1799.5772790527	0.3350428939
1801.5060864257	0.3333126307
1803.4348937988	0.3337640762
1805.3637011718	0.3325691819
1807.2925085449	0.3310902119
1809.2213159179	0.3327111900
1811.1501232910	0.3322052956
1813.0789306640	0.3311545849
1815.0077380371	0.3303034604
1816.9365454101	0.3298760056
1818.8653527832	0.3299374282
1820.7941601562	0.3288682997
1822.7229675293	0.3281705081
1824.6517749023	0.3281722665
1826.5805822753	0.3268191218
1828.5093896484	0.3256483972
1830.4381970214	0.3266736567
1832.3670043945	0.3254804909
1834.2958117675	0.3247451186
1836.2246191406	0.3246059120
1838.1534265136	0.3227235377
1840.0822338867	0.3227620423
1842.0110412597	0.3229352534
1843.9398486328	0.3232237101
1845.8686560058	0.3221508265
1847.7974633789	0.3215588033
1849.7262707519	0.3219330013
1851.6550781250	0.3205463290
1853.5838854980	0.3210873604
1855.5126928710	0.3215547502
1857.4415002441	0.3207064867
1859.3703076171	0.3200910985
1861.2991149902	0.3205782771
1863.2279223632	0.3198577762
1865.1567297363	0.3180696666
1867.0855371093	0.3182761669
1869.0143444824	0.3173266649
1870.9431518554	0.3167305291
1872.8719592285	0.3165548742
1874.8007666015	0.3164767325
1876.7295739746	0.3160043657
1878.6583813476	0.3162946999
1880.5871887207	0.3174127042
1882.5159960937	0.3149313629
1884.4448034667	0.3149636686
1886.3736108398	0.3154415786
1888.3024182128	0.3139636517
1890.2312255859	0.3133968413
1892.1600329589	0.3134965301
1894.0888403320	0.3143155575
1896.0176477050	0.3126139641
1897.9464550781	0.3132343292
1899.8752624511	0.3128932118
1901.8040698242	0.3111004531
1903.7328771972	0.3131237030
1905.6616845703	0.3131135404
1907.5904919433	0.3119219244
1909.5192993164	0.3103742003
1911.4481066894	0.3104098737
1913.3769140625	0.3116585612
1915.3057214355	0.3104769289
1917.2345288085	0.3093242049
1919.1633361816	0.3093362749
1921.0921435546	0.3093495071
1923.0209509277	0.3083493114
1924.9497583007	0.3083435297
1926.8785656738	0.3084306717
1928.8073730468	0.3082219958
1930.7361804199	0.3089329600
1932.6649877929	0.3091475666
1934.5937951660	0.3073555827
1936.5226025390	0.3061114550
1938.4514099121	0.3067695498
1940.3802172851	0.3064111769
1942.3090246582	0.3071208596
1944.2378320312	0.3050577641
1946.1666394042	0.3040671349
1948.0954467773	0.3064608574
1950.0242541503	0.3053029180
1951.9530615234	0.3065113723
1953.8818688964	0.3052337766
1955.8106762695	0.3031709790
1957.7394836425	0.3045502305
1959.6682910156	0.3030989468
1961.5970983886	0.3038205504
1963.5259057617	0.3046024740
1965.4547131347	0.3040615916
1967.3835205078	0.3026230931
1969.3123278808	0.3017108440
1971.2411352539	0.3024939299
1973.1699426269	0.3010401726
1975.0987499999	0.3026508689
1977.0275573730	0.3041144907
1978.9563647460	0.3022489548
1980.8851721191	0.3012575805
1982.8139794921	0.3010906875
1984.7427868652	0.3014585674
1986.6715942382	0.2998603284
1988.6004016113	0.3005297482
1990.5292089843	0.3024666309
1992.4580163574	0.3000462949
1994.3868237304	0.3003939092
1996.3156311035	0.3016453981
1998.2444384765	0.2994218767
2000.1732458496	0.3001054525
2002.1020532226	0.3010538816
2004.0308605956	0.2998595238
2005.9596679687	0.2989723384
2007.8884753417	0.2985270917
2009.8172827148	0.2999914587
2011.7460900878	0.2997155488
2013.6748974609	0.2980300784
2015.6037048339	0.2986032069
2017.5325122070	0.2993928492
2019.4613195800	0.2986780107
2021.3901269531	0.2982926667
2023.3189343261	0.2985251844
2025.2477416992	0.2971518338
2027.1765490722	0.2981618047
2029.1053564453	0.2984792888
2031.0341638183	0.2965347171
2032.9629711914	0.2975859046
2034.8917785644	0.2976788878
2036.8205859374	0.2979396284
2038.7493933105	0.2981520295
2040.6782006835	0.2974390090
2042.6070080566	0.2973118722
2044.5358154296	0.2977414131
2046.4646228027	0.2985828221
2048.3934301757	0.2962112427
2050.3222375488	0.2969178557
2052.2510449218	0.2973555028
2054.1798522949	0.2952009439
2056.1086596679	0.2973972261
2058.0374670410	0.2969193459
2059.9662744140	0.2960732579
2061.8950817871	0.2965606153
2063.8238891601	0.2964173257
2065.7526965331	0.2971315086
2067.6815039062	0.2970083356
2069.6103112792	0.2972458899
2071.5391186523	0.2959274352
2073.4679260253	0.2963176370
2075.3967333984	0.2972289026
2077.3255407714	0.2966237068
2079.2543481445	0.2972328067
2081.1831555175	0.2967862785
2083.1119628906	0.2961611152
2085.0407702636	0.2949014008
2086.9695776367	0.2964378595
2088.8983850097	0.2973324358
2090.8271923828	0.2949572504
2092.7559997558	0.2958617210
2094.6848071288	0.2954717875
2096.6136145019	0.2947335839
2098.5424218749	0.2955868244
2100.4712292480	0.2964429259
2102.4000366210	0.2971087694
2104.3288439941	0.2958690822
2106.2576513671	0.2955616117
2108.1864587402	0.2961889803
2110.1152661132	0.2975421250
2112.0440734863	0.2970158756
2113.9728808593	0.2958236933
2115.9016882324	0.2975878716
2117.8304956054	0.2967347205
2119.7593029785	0.2956703305
2121.6881103515	0.2965210676
2123.6169177245	0.2952291071
2125.5457250976	0.2954350412
2127.4745324706	0.2965585589
2129.4033398437	0.2950656116
2131.3321472167	0.2951556146
2133.2609545898	0.2961025834
2135.1897619628	0.2950319648
2137.1185693359	0.2950713336
2139.0473767089	0.2958223522
2140.9761840820	0.2959138155
2142.9049914550	0.2955272198
2144.8337988281	0.2934398055
2146.7626062011	0.2928838730
2148.6914135742	0.2954185605
2150.6202209472	0.2954686880
2152.5490283203	0.2954910398
2154.4778356933	0.2971003056
2156.4066430663	0.2960298359
2158.3354504394	0.2958943844
2160.2642578124	0.2961763740
2162.1930651855	0.2960082889
2164.1218725585	0.2962377071
2166.0506799316	0.2960317135
2167.9794873046	0.2957640588
2169.9082946777	0.2950144410
2171.8371020507	0.2963857651
2173.7659094238	0.2957885265
2175.6947167968	0.2948168516
2177.6235241699	0.2964005172
2179.5523315429	0.2958191037
2181.4811389160	0.2958116829
2183.4099462890	0.2953028679
2185.3387536620	0.2955137193
2187.2675610351	0.2962678969
2189.1963684081	0.2950385213
2191.1251757812	0.2954949141
2193.0539831542	0.2948689759
2194.9827905273	0.2938429713
2196.9115979003	0.2951739430
2198.8404052734	0.2961233854
2200.7692126464	0.2950452566
2202.6980200195	0.2940872014
2204.6268273925	0.2950610518
2206.5556347656	0.2949230075
2208.4844421386	0.2936051190
2210.4132495117	0.2937633693
2212.3420568847	0.2940660715
2214.2708642577	0.2941179872
2216.1996716308	0.2949871123
2218.1284790038	0.2945899367
2220.0572863769	0.2938223183
2221.9860937499	0.2938793898
2223.9149011230	0.2944658995
2225.8437084960	0.2945691049
2227.7725158691	0.2937561870
2229.7013232421	0.2944303453
2231.6301306152	0.2937849760
2233.5589379882	0.2932953537
2235.4877453613	0.2932283282
2237.4165527343	0.2929156721
2239.3453601074	0.2944057882
2241.2741674804	0.2932460606
2243.2029748534	0.2931341231
2245.1317822265	0.2938603759
2247.0605895995	0.2932953537
2248.9893969726	0.2933529913
2250.9182043456	0.2923840582
2252.8470117187	0.2919939160
2254.7758190917	0.2914947271
2256.7046264648	0.2925930321
2258.6334338378	0.2922301590
2260.5622412109	0.2912325263
2262.4910485839	0.2929710150
2264.4198559570	0.2920936942
2266.3486633300	0.2924129963
2268.2774707031	0.2934519053
2270.2062780761	0.2923423350
2272.1350854491	0.2909184694
2274.0638928222	0.2907969952
2275.9927001952	0.2924387753
2277.9215075683	0.2920260727
2279.8503149413	0.2917648852
2281.7791223144	0.2930788100
2283.7079296874	0.2934490740
2285.6367370605	0.2918591499
2287.5655444335	0.2913624048
2289.4943518066	0.2920447290
2291.4231591796	0.2908315361
2293.3519665527	0.2903896570
2295.2807739257	0.2909883261
2297.2095812988	0.2927137613
2299.1383886718	0.2909876406
2301.0671960449	0.2883149981
2302.9960034179	0.2914313674
2304.9248107909	0.2910027504
2306.8536181640	0.2893657684
2308.7824255370	0.2915250063
2310.7112329101	0.2908318937
2312.6400402831	0.2881547511
2314.5688476562	0.2883124352
2316.4976550292	0.2895771861
2318.4264624023	0.2883075774
2320.3552697753	0.2896115184
2322.2840771484	0.2904043496
2324.2128845214	0.2880883515
2326.1416918945	0.2891280353
2328.0704992675	0.2888924778
2329.9993066406	0.2888005078
2331.9281140136	0.2899213135
2333.8569213866	0.2888075113
2335.7857287597	0.2891047895
2337.7145361327	0.2880901992
2339.6433435058	0.2876266241
2341.5721508788	0.2893625498
2343.5009582519	0.2886420488
2345.4297656249	0.2891873419
2347.3585729980	0.2902170718
2349.2873803710	0.2881311774
2351.2161877441	0.2871575058
2353.1449951171	0.2890014946
2355.0738024902	0.2898638844
2357.0026098632	0.2877654731
2358.9314172363	0.2868139446
2360.8602246093	0.2870047688
2362.7890319823	0.2871072590
2364.7178393554	0.2899799347
2366.6466467284	0.2882249057
2368.5754541015	0.2852511108
2370.5042614745	0.2867583036
2372.4330688476	0.2861929834
2374.3618762206	0.2863031328
2376.2906835937	0.2860655785
2378.2194909667	0.2869582474
2380.1482983398	0.2879687548
2382.0771057128	0.2868500948
2384.0059130859	0.2883104980
2385.9347204589	0.2872110605
2387.8635278320	0.2872220874
2389.7923352050	0.2868434191
2391.7211425780	0.2850199640
2393.6499499511	0.2874664068
2395.5787573241	0.2853270769
2397.5075646972	0.2843279541
2399.4363720702	0.2875525653
2401.3651794433	0.2867215872
2403.2939868163	0.2848027647
2405.2227941894	0.2853145599
2407.1516015624	0.2859924138
2409.0804089355	0.2856165171
2411.0092163085	0.2867587507
2412.9380236816	0.2864749134
2414.8668310546	0.2848328352
2416.7956384277	0.2852630615
2418.7244458007	0.2863161564
2420.6532531738	0.2855134010
2422.5820605468	0.2846109569
2424.5108679198	0.2833468020
2426.4396752929	0.2837221622
2428.3684826659	0.2873365283
2430.2972900390	0.2853337526
2432.2260974120	0.2847362161
2434.1549047851	0.2841796875
2436.0837121581	0.2830997705
2438.0125195312	0.2863609195
2439.9413269042	0.2823392749
2441.8701342773	0.2831954360
2443.7989416503	0.2842459381
2445.7277490234	0.2817095816
2447.6565563964	0.2847464085
2449.5853637695	0.2825159729
2451.5141711425	0.2826660573
2453.4429785155	0.2834163606
2455.3717858886	0.2827155292
2457.3005932616	0.2834779322
2459.2294006347	0.2830263376
2461.1582080077	0.2846474349
2463.0870153808	0.2826870382
2465.0158227538	0.2807771862
2466.9446301269	0.2819523811
2468.8734374999	0.2831698060
2470.8022448730	0.2821992934
2472.7310522460	0.2816936076
2474.6598596191	0.2823213041
2476.5886669921	0.2817308307
2478.5174743652	0.2839260101
2480.4462817382	0.2828848660
2482.3750891112	0.2815981805
2484.3038964843	0.2819686234
2486.2327038573	0.2811723053
2488.1615112304	0.2812477946
2490.0903186034	0.2804358602
2492.0191259765	0.2823014855
2493.9479333495	0.2821240723
2495.8767407226	0.2813425362
2497.8055480956	0.2817233801
2499.7343554687	0.2801706493
2501.6631628417	0.2808600962
2503.5919702148	0.2803938687
2505.5207775878	0.2802710533
2507.4495849609	0.2800210118
2509.3783923339	0.2784424126
2511.3071997069	0.2795009315
2513.2360070800	0.2791554630
2515.1648144530	0.2794234157
2517.0936218261	0.2816799879
2519.0224291991	0.2808160782
2520.9512365722	0.2811377048
2522.8800439452	0.2819555700
2524.8088513183	0.2802521884
2526.7376586913	0.2804954648
2528.6664660644	0.2801045775
2530.5952734374	0.2806836069
2532.5240808105	0.2815342546
2534.4528881835	0.2792671323
2536.3816955566	0.2798282206
2538.3105029296	0.2796634138
2540.2393103027	0.2773484886
2542.1681176757	0.2782690823
2544.0969250487	0.2781178951
2546.0257324218	0.2770639658
2547.9545397948	0.2789881527
2549.8833471679	0.2787285149
2551.8121545409	0.2784124613
2553.7409619140	0.2788899243
2555.6697692870	0.2781191170
2557.5985766601	0.2794699073
2559.5273840331	0.2779218853
2561.4561914062	0.2772334516
2563.3849987792	0.2787489295
2565.3138061523	0.2786409557
2567.2426135253	0.2784052491
2569.1714208984	0.2774123847
2571.1002282714	0.2776508331
2573.0290356444	0.2760321796
2574.9578430175	0.2770346105
2576.8866503905	0.2775206864
2578.8154577636	0.2749756873
2580.7442651366	0.2765162289
2582.6730725097	0.2762691975
2584.6018798827	0.2776062191
2586.5306872558	0.2777334750
2588.4594946288	0.2744131982
2590.3883020019	0.2749092877
2592.3171093749	0.2760182023
2594.2459167480	0.2759723663
2596.1747241210	0.2761400044
2598.1035314941	0.2764175236
2600.0323388671	0.2758862078
2601.9611462401	0.2760046721
2603.8899536132	0.2740782201
2605.8187609862	0.2742032111
2607.7475683593	0.2759989500
2609.6763757323	0.2754865885
2611.6051831054	0.2765458822
2613.5339904784	0.2747394443
2615.4627978515	0.2757400274
2617.3916052245	0.2748995423
2619.3204125976	0.2723279297
2621.2492199706	0.2756911218
2623.1780273437	0.2742637694
2625.1068347167	0.2729402184
2627.0356420898	0.2722807229
2628.9644494628	0.2724433839
2630.8932568358	0.2744675875
2632.8220642089	0.2735027373
2634.7508715819	0.2735042274
2636.6796789550	0.2730708420
2638.6084863280	0.2744574249
2640.5372937011	0.2744153738
2642.4661010741	0.2725871503
2644.3949084472	0.2728302181
2646.3237158202	0.2720741034
2648.2525231933	0.2725522518
2650.1813305663	0.2721203566
2652.1101379394	0.2715306878
2654.0389453124	0.2717747092
2655.9677526855	0.2704482973
2657.8965600585	0.2700873017
2659.8253674315	0.2712696195
2661.7541748046	0.2719204426
2663.6829821776	0.2718493044
2665.6117895507	0.2714258432
2667.5405969237	0.2697885633
2669.4694042968	0.2708698511
2671.3982116698	0.2713110745
2673.3270190429	0.2690848112
2675.2558264159	0.2712597549
2677.1846337890	0.2713508904
2679.1134411620	0.2699166834
2681.0422485351	0.2705558538
2682.9710559081	0.2676045895
2684.8998632812	0.2672061324
2686.8286706542	0.2696192861
2688.7574780273	0.2712193727
2690.6862854003	0.2703489959
2692.6150927733	0.2677089870
2694.5439001464	0.2700507343
2696.4727075194	0.2694768906
2698.4015148925	0.2670082450
2700.3303222655	0.2686777711
2702.2591296386	0.2681061625
2704.1879370116	0.2668643594
2706.1167443847	0.2678680122
2708.0455517577	0.2700987458
2709.9743591308	0.2688153982
2711.9031665038	0.2666673958
2713.8319738769	0.2670792639
2715.7607812499	0.2676597536
2717.6895886230	0.2679739892
2719.6183959960	0.2673112452
2721.5472033690	0.2686174810
2723.4760107421	0.2661710382
2725.4048181151	0.2649153173
2727.3336254882	0.2695100904
2729.2624328612	0.2668554485
2731.1912402343	0.2651220560
2733.1200476073	0.2680913806
2735.0488549804	0.2662200928
2736.9776623534	0.2657724321
2738.9064697265	0.2671053410
2740.8352770995	0.2652949393
2742.7640844726	0.2653650045
2744.6928918456	0.2653283775
2746.6216992187	0.2646298707
2748.5505065917	0.2653408647
2750.4793139647	0.2648095191
2752.4081213378	0.2652294636
2754.3369287108	0.2644990683
2756.2657360839	0.2650530338
2758.1945434569	0.2653380036
2760.1233508300	0.2634394467
2762.0521582030	0.2641426623
2763.9809655761	0.2637440860
2765.9097729491	0.2631322443
2767.8385803222	0.2621136606
2769.7673876952	0.2625347972
2771.6961950683	0.2632771432
2773.6250024413	0.2632656991
2775.5538098144	0.2631527483
2777.4826171874	0.2620519400
2779.4114245604	0.2640211880
2781.3402319335	0.2622101307
2783.2690393065	0.2622536421
2785.1978466796	0.2630947828
2787.1266540526	0.2613724172
2789.0554614257	0.2630032301
2790.9842687987	0.2617740333
2792.9130761718	0.2619318664
2794.8418835448	0.2610962093
2796.7706909179	0.2620280385
2798.6994982909	0.2617593706
2800.6283056640	0.2593977451
2802.5571130370	0.2622953057
2804.4859204101	0.2601367235
2806.4147277831	0.2601225972
2808.3435351562	0.2591115236
2810.2723425292	0.2579166889
2812.2011499022	0.2606901526
2814.1299572753	0.2598425448
2816.0587646483	0.2604344189
2817.9875720214	0.2596104741
2819.9163793944	0.2595513761
2821.8451867675	0.2570644319
2823.7739941405	0.2573231459
2825.7028015136	0.2607367933
2827.6316088866	0.2587441206
2829.5604162597	0.2594350278
2831.4892236327	0.2574386299
2833.4180310058	0.2564834654
2835.3468383788	0.2573628724
2837.2756457519	0.2578741014
2839.2044531249	0.2576910853
2841.1332604979	0.2539161742
2843.0620678710	0.2553514838
2844.9908752440	0.2554273605
2846.9196826171	0.2551729679
2848.8484899901	0.2561076880
2850.7772973632	0.2549861073
2852.7061047362	0.2554262877
2854.6349121093	0.2540478706
2856.5637194823	0.2541310489
2858.4925268554	0.2562936842
2860.4213342284	0.2573308349
2862.3501416015	0.2551203370
2864.2789489745	0.2544138134
2866.2077563476	0.2563121915
2868.1365637206	0.2554552555
2870.0653710936	0.2538658679
2871.9941784667	0.2535380125
2873.9229858397	0.2556779981
2875.8517932128	0.2538793981
2877.7806005858	0.2529306412
2879.7094079589	0.2539782822
2881.6382153319	0.2507553399
2883.5670227050	0.2517964840
2885.4958300780	0.2511899471
2887.4246374511	0.2498461753
2889.3534448241	0.2521916330
2891.2822521972	0.2522284389
2893.2110595702	0.2505763769
2895.1398669433	0.2488041520
2897.0686743163	0.2519485950
2898.9974816893	0.2516047060
2900.9262890624	0.2480954677
2902.8550964354	0.2488286197
2904.7839038085	0.2472470701
2906.7127111815	0.2487211376
2908.6415185546	0.2515402436
2910.5703259276	0.2504580319
2912.4991333007	0.2478564829
2914.4279406737	0.2465948761
2916.3567480468	0.2476502806
2918.2855554198	0.2483256012
2920.2143627929	0.2492753118
2922.1431701659	0.2462388724
2924.0719775390	0.2477350235
2926.0007849120	0.2507676482
2927.9295922851	0.2461272478
2929.8583996581	0.2476727366
2931.7872070311	0.2488013804
2933.7160144042	0.2466196567
2935.6448217772	0.2458661199
2937.5736291503	0.2463250309
2939.5024365233	0.2491723895
2941.4312438964	0.2458356470
2943.3600512694	0.2455569655
2945.2888586425	0.2484502047
2947.2176660155	0.2447263300
2949.1464733886	0.2441480458
2951.0752807616	0.2460467219
2953.0040881347	0.2437637448
2954.9328955077	0.2422083169
2956.8617028808	0.2441506684
2958.7905102538	0.2448734343
2960.7193176268	0.2428961843
2962.6481249999	0.2435035408
2964.5769323729	0.2453809381
2966.5057397460	0.2411418110
2968.4345471190	0.2412493527
2970.3633544921	0.2443155646
2972.2921618651	0.2404945940
2974.2209692382	0.2416930050
2976.1497766112	0.2408352643
2978.0785839843	0.2381169945
2980.0073913573	0.2411461174
2981.9361987304	0.2387070954
2983.8650061034	0.2370591909
2985.7938134765	0.2395488322
2987.7226208495	0.2397954613
2989.6514282225	0.2396357507
2991.5802355956	0.2399404198
2993.5090429686	0.2393353581
2995.4378503417	0.2393839508
2997.3666577147	0.2395261526
2999.2954650878	0.2380355299
3001.2242724608	0.2389506251
3003.1530798339	0.2394313216
3005.0818872069	0.2370069772
3007.0106945800	0.2371112108
3008.9395019530	0.2372128367
3010.8683093261	0.2359708846
3012.7971166991	0.2381447405
3014.7259240722	0.2359537631
3016.6547314452	0.2333714664
3018.5835388182	0.2374418080
3020.5123461913	0.2365699410
3022.4411535643	0.2343690246
3024.3699609374	0.2340923697
3026.2987683104	0.2356668264
3028.2275756835	0.2361794859
3030.1563830565	0.2328885347
3032.0851904296	0.2337215245
3034.0139978026	0.2356359363
3035.9428051757	0.2367584705
3037.8716125487	0.2316872030
3039.8004199218	0.2294770032
3041.7292272948	0.2348344922
3043.6580346679	0.2338310927
3045.5868420409	0.2321202606
3047.5156494139	0.2314861119
3049.4444567870	0.2334758937
3051.3732641600	0.2339121401
3053.3020715331	0.2305193543
3055.2308789061	0.2306323051
3057.1596862792	0.2309920639
3059.0884936522	0.2280719429
3061.0173010253	0.2266549617
3062.9461083983	0.2310905159
3064.8749157714	0.2288526297
3066.8037231444	0.2275034189
3068.7325305175	0.2303118110
3070.6613378905	0.2281792164
3072.5901452636	0.2277186066
3074.5189526366	0.2269036621
3076.4477600097	0.2294042259
3078.3765673827	0.2285638005
3080.3053747557	0.2282837778
3082.2341821288	0.2302566469
3084.1629895018	0.2244515717
3086.0917968749	0.2268979251
3088.0206042479	0.2312020212
3089.9494116210	0.2280350626
3091.8782189940	0.2250851542
3093.8070263671	0.2248844355
3095.7358337401	0.2257063687
3097.6646411132	0.2237379849
3099.5934484862	0.2246654183
3101.5222558593	0.2278920859
3103.4510632323	0.2251951694
3105.3798706054	0.2231222987
3107.3086779784	0.2257745862
3109.2374853514	0.2256356031
3111.1662927245	0.2255528867
3113.0951000975	0.2234281152
3115.0239074706	0.2234831601
3116.9527148436	0.2236041278
3118.8815222167	0.2207067758
3120.8103295897	0.2252206355
3122.7391369628	0.2251116782
3124.6679443358	0.2243646085
3126.5967517089	0.2221195847
3128.5255590819	0.2222347409
3130.4543664550	0.2252664268
3132.3831738280	0.2208025903
3134.3119812011	0.2247296870
3136.2407885741	0.2223411351
3138.1695959471	0.2243783027
3140.0984033202	0.2270532399
3142.0272106932	0.2201486230
3143.9560180663	0.2242284715
3145.8848254393	0.2222714573
3147.8136328124	0.2260547429
3149.7424401854	0.2242959738
3151.6712475585	0.2181123644
3153.6000549315	0.2241634429
3155.5288623046	0.2214786112
3157.4576696776	0.2237182856
3159.3864770507	0.2254638821
3161.3152844237	0.2236209810
3163.2440917968	0.2234820127
3165.1728991698	0.2229381949
3167.1017065428	0.2236595452
3169.0305139159	0.2228278965
3170.9593212889	0.2255197018
3172.8881286620	0.2241096348
3174.8169360350	0.2242663652
3176.7457434081	0.2238284200
3178.6745507811	0.2227348238
3180.6033581542	0.2267528623
3182.5321655272	0.2273585498
3184.4609729003	0.2277788371
3186.3897802733	0.2269153297
3188.3185876464	0.2265329957
3190.2473950194	0.2260803282
3192.1762023925	0.2285331041
3194.1050097655	0.2286796421
3196.0338171386	0.2249346077
3197.9626245116	0.2281404734
3199.8914318846	0.2290505171
3201.8202392577	0.2290006429
3203.7490466307	0.2290101200
3205.6778540038	0.2280684561
3207.6066613768	0.2289005816
3209.5354687499	0.2319345772
3211.4642761229	0.2329285443
3213.3930834960	0.2307613194
3215.3218908690	0.2325568199
3217.2506982421	0.2294469476
3219.1795056151	0.2300750315
3221.1083129882	0.2349004894
3223.0371203612	0.2340215296
3224.9659277343	0.2318265885
3226.8947351073	0.2309733927
3228.8235424803	0.2366171926
3230.7523498534	0.2347194105
3232.6811572264	0.2330134511
3234.6099645995	0.2366850972
3236.5387719725	0.2351374626
3238.4675793456	0.2397390902
3240.3963867186	0.2393740863
3242.3251940917	0.2370313108
3244.2540014647	0.2423614860
3246.1828088378	0.2422430664
3248.1116162108	0.2397566736
3250.0404235839	0.2392796576
3251.9692309569	0.2433318347
3253.8980383300	0.2458847612
3255.8268457030	0.2416946888
3257.7556530760	0.2427721471
3259.6844604491	0.2438441962
3261.6132678221	0.2441588342
3263.5420751952	0.2463695556
3265.4708825682	0.2454676330
3267.3996899413	0.2494808137
3269.3284973143	0.2487483472
3271.2573046874	0.2463161945
3273.1861120604	0.2495232224
3275.1149194335	0.2513354719
3277.0437268065	0.2545257211
3278.9725341796	0.2510572076
3280.9013415526	0.2515225112
3282.8301489257	0.2536476552
3284.7589562987	0.2529818118
3286.6877636717	0.2577866912
3288.6165710448	0.2526820004
3290.5453784178	0.2543640435
3292.4741857909	0.2598641217
3294.4029931639	0.2537115216
3296.3318005370	0.2573739290
3298.2606079100	0.2639256120
3300.1894152831	0.2603535950
3302.1182226561	0.2584277093
3304.0470300292	0.2618956566
3305.9758374022	0.2616562843
3307.9046447753	0.2625668347
3309.8334521483	0.2640835345
3311.7622595214	0.2633909881
3313.6910668944	0.2636475563
3315.6198742675	0.2632805109
3317.5486816405	0.2689290047
3319.4774890135	0.2692443132
3321.4062963866	0.2675360441
3323.3351037596	0.2684565187
3325.2639111327	0.2650326192
3327.1927185057	0.2709559798
3329.1215258788	0.2719411552
3331.0503332518	0.2696290016
3332.9791406249	0.2731118500
3334.9079479979	0.2728113532
3336.8367553710	0.2776553035
3338.7655627440	0.2783142030
3340.6943701171	0.2765229642
3342.6231774901	0.2776189744
3344.5519848632	0.2772262692
3346.4807922362	0.2800390124
3348.4095996092	0.2793553770
3350.3384069823	0.2836568058
3352.2672143553	0.2876085639
3354.1960217284	0.2855074704
3356.1248291014	0.2886236608
3358.0536364745	0.2881196737
3359.9824438475	0.2904608846
3361.9112512206	0.2917537689
3363.8400585936	0.2890571058
3365.7688659667	0.2936927080
3367.6976733397	0.2950630486
3369.6264807128	0.2971857488
3371.5552880858	0.2986231148
3373.4840954589	0.2963996828
3375.4129028319	0.2995054424
3377.3417102049	0.3040267825
3379.2705175780	0.3063066900
3381.1993249510	0.3043400049
3383.1281323241	0.3045139313
3385.0569396971	0.3066878617
3386.9857470702	0.3074902892
3388.9145544432	0.3088239133
3390.8433618163	0.3118155897
3392.7721691893	0.3149594069
3394.7009765624	0.3133492172
3396.6297839354	0.3180488944
3398.5585913085	0.3232381344
3400.4873986815	0.3218533397
3402.4162060546	0.3214024007
3404.3450134276	0.3231439292
3406.2738208006	0.3289009929
3408.2026281737	0.3274569511
3410.1314355467	0.3294191658
3412.0602429198	0.3362256885
3413.9890502928	0.3355239332
3415.9178576659	0.3382619917
3417.8466650389	0.3375001252
3419.7754724120	0.3368397355
3421.7042797850	0.3425094485
3423.6330871581	0.3455595970
3425.5618945311	0.3452866077
3427.4907019042	0.3452652395
3429.4195092772	0.3511043489
3431.3483166503	0.3550369740
3433.2771240233	0.3550121784
3435.2059313963	0.3573250771
3437.1347387694	0.3565931618
3439.0635461424	0.3570534289
3440.9923535155	0.3643588126
3442.9211608885	0.3623418212
3444.8499682616	0.3600121737
3446.7787756346	0.3676664829
3448.7075830077	0.3659833968
3450.6363903807	0.3682280183
3452.5651977538	0.3733667731
3454.4940051268	0.3720976114
3456.4228124999	0.3763182461
3458.3516198729	0.3782194555
3460.2804272460	0.3795734644
3462.2092346190	0.3826522231
3464.1380419921	0.3852565587
3466.0668493651	0.3860206008
3467.9956567381	0.3871626258
3469.9244641112	0.3895632625
3471.8532714842	0.3897001147
3473.7820788573	0.3970381320
3475.7108862303	0.4008910954
3477.6396936034	0.3983887434
3479.5685009764	0.3978268802
3481.4973083495	0.4002679884
3483.4261157225	0.4064887762
3485.3549230956	0.4071002007
3487.2837304686	0.4085716009
3489.2125378417	0.4117375910
3491.1413452147	0.4128030539
3493.0701525878	0.4104396701
3494.9989599608	0.4105252624
3496.9277673338	0.4174605012
3498.8565747069	0.4164514244
3500.7853820799	0.4192903340
3502.7141894530	0.4237883091
3504.6429968260	0.4214130640
3506.5718041991	0.4246266186
3508.5006115721	0.4264553785
3510.4294189452	0.4284292161
3512.3582263182	0.4295742214
3514.2870336913	0.4296600819
3516.2158410643	0.4354402125
3518.1446484374	0.4387081563
3520.0734558104	0.4388036430
3522.0022631835	0.4382545054
3523.9310705565	0.4380162656
3525.8598779295	0.4406201839
3527.7886853026	0.4432029724
3529.7174926756	0.4475105107
3531.6463000487	0.4513496161
3533.5751074217	0.4504318535
3535.5039147948	0.4513480663
3537.4327221678	0.4540598094
3539.3615295409	0.4552358091
3541.2903369139	0.4542809129
3543.2191442870	0.4552851021
3545.1479516600	0.4583548605
3547.0767590331	0.4557880163
3549.0055664061	0.4604967833
3550.9343737792	0.4647389352
3552.8631811522	0.4588930905
3554.7919885252	0.4634423852
3556.7207958983	0.4700404406
3558.6496032713	0.4690979719
3560.5784106444	0.4679289758
3562.5072180174	0.4693067968
3564.4360253905	0.4707861543
3566.3648327635	0.4726071358
3568.2936401366	0.4773535132
3570.2224475096	0.4750987589
3572.1512548827	0.4750661552
3574.0800622557	0.4781771302
3576.0088696288	0.4768474698
3577.9376770018	0.4812876880
3579.8664843749	0.4833717048
3581.7952917479	0.4830081165
3583.7240991210	0.4870586097
3585.6529064940	0.4863769710
3587.5817138670	0.4858348966
3589.5105212401	0.4886742830
3591.4393286131	0.4881882966
3593.3681359862	0.4904329777
3595.2969433592	0.4927601516
3597.2257507323	0.4911056161
3599.1545581053	0.4951316118
3601.0833654784	0.4968654811
3603.0121728514	0.4960730672
3604.9409802245	0.5015486479
3606.8697875975	0.5026419759
3608.7985949706	0.4980635941
3610.7274023436	0.4976869226
3612.6562097167	0.5029782653
3614.5850170897	0.5072161555
3616.5138244627	0.5096887946
3618.4426318358	0.5098196864
3620.3714392088	0.5082857013
3622.3002465819	0.5132069588
3624.2290539549	0.5120332241
3626.1578613280	0.5084080100
3628.0866687010	0.5129956007
3630.0154760741	0.5151824355
3631.9442834471	0.5155698061
3633.8730908202	0.5198283792
3635.8018981932	0.5204374790
3637.7307055663	0.5175631046
3639.6595129393	0.5228141546
3641.5883203124	0.5265709162
3643.5171276854	0.5230501294
3645.4459350584	0.5244844556
3647.3747424315	0.5311803222
3649.3035498045	0.5335260034
3651.2323571776	0.5288189054
3653.1611645506	0.5343813300
3655.0899719237	0.5382052660
3657.0187792967	0.5371897817
3658.9475866698	0.5427454114
3660.8763940428	0.5427932739
3662.8052014159	0.5432299376
3664.7340087889	0.5452017188
3666.6628161620	0.5448023677
3668.5916235350	0.5462990403
3670.5204309081	0.5495610833
3672.4492382811	0.5527799726
3674.3780456541	0.5527520180
3676.3068530272	0.5532933474
3678.2356604002	0.5532150865
3680.1644677733	0.5550553799
3682.0932751463	0.5549084544
3684.0220825194	0.5547398925
3685.9508898924	0.5573224425
3687.8796972655	0.5552376509
3689.8085046385	0.5523538589
3691.7373120116	0.5497221947
3693.6661193846	0.5521053672
3695.5949267577	0.5496215820
3697.5237341307	0.5473165512
3699.4525415038	0.5500342250
3701.3813488768	0.5412918925
3703.3101562499	0.5428332090
3705.2389636229	0.5458506346
3707.1677709959	0.5414332747
3709.0965783690	0.5436819196
3711.0253857420	0.5421463251
3712.9541931151	0.5390783548
3714.8830004881	0.5355319977
3716.8118078612	0.5340837240
3718.7406152342	0.5364384651
3720.6694226073	0.5337586403
3722.5982299803	0.5289943814
3724.5270373534	0.5315493345
3726.4558447264	0.5293396115
3728.3846520995	0.5248358846
3730.3134594725	0.5247045159
3732.2422668456	0.5164638758
3734.1710742186	0.5189358592
3736.0998815916	0.5194362402
3738.0286889647	0.5149719119
3739.9574963377	0.5174835920
3741.8863037108	0.5118843317
3743.8151110838	0.5140240192
3745.7439184569	0.5143589973
3747.6727258299	0.5107316971
3749.6015332030	0.5106090903
3751.5303405760	0.5054132938
3753.4591479491	0.5091566443
3755.3879553221	0.5082539916
3757.3167626952	0.5046315193
3759.2455700682	0.5019999146
3761.1743774413	0.4988867044
3763.1031848143	0.5019361377
3765.0319921873	0.4983232319
3766.9607995604	0.4926086664
3768.8896069334	0.4937810004
3770.8184143065	0.4928097129
3772.7472216795	0.4930106103
3774.6760290526	0.4900242388
3776.6048364256	0.4874998927
3778.5336437987	0.4939844012
3780.4624511717	0.4898572564
3782.3912585448	0.4849888682
3784.3200659178	0.4859027863
3786.2488732909	0.4813057184
3788.1776806639	0.4822313190
3790.1064880370	0.4850235879
3792.0352954100	0.4827554822
3793.9641027830	0.4782288074
3795.8929101561	0.4799626172
3797.8217175291	0.4784386456
3799.7505249022	0.4725649953
3801.6793322752	0.4742895067
3803.6081396483	0.4741094112
3805.5369470213	0.4726694226
3807.4657543944	0.4705630243
3809.3945617674	0.4701211452
3811.3233691405	0.4683412313
3813.2521765135	0.4661963582
3815.1809838866	0.4687847197
3817.1097912596	0.4693081081
3819.0385986327	0.4683750570
3820.9674060057	0.4667951167
3822.8962133787	0.4658716321
3824.8250207518	0.4625303745
3826.7538281248	0.4616705477
3828.6826354979	0.4622686207
3830.6114428709	0.4585810602
3832.5402502440	0.4598400593
3834.4690576170	0.4614302218
3836.3978649901	0.4634703100
3838.3266723631	0.4592905641
3840.2554797362	0.4570325911
3842.1842871092	0.4578031301
3844.1130944823	0.4540217519
3846.0419018553	0.4541678131
3847.9707092284	0.4544340968
3849.8995166014	0.4565635920
3851.8283239745	0.4529241025
3853.7571313475	0.4513557851
3855.6859387205	0.4521085322
3857.6147460936	0.4513523579
3859.5435534666	0.4508996010
3861.4723608397	0.4458122849
3863.4011682127	0.4511036575
3865.3299755858	0.4469522238
3867.2587829588	0.4452970326
3869.1875903319	0.4484026730
3871.1163977049	0.4390589893
3873.0452050780	0.4400912821
3874.9740124510	0.4446728826
3876.9028198241	0.4451245666
3878.8316271971	0.4369552135
3880.7604345702	0.4409489334
3882.6892419432	0.4414265752
3884.6180493162	0.4343377054
3886.5468566893	0.4406655729
3888.4756640623	0.4328131080
3890.4044714354	0.4348416924
3892.3332788084	0.4369695783
3894.2620861815	0.4344364405
3896.1908935545	0.4425642788
3898.1197009276	0.4387021065
3900.0485083006	0.4370895624
3901.9773156737	0.4316057563
3903.9061230467	0.4279791415
3905.8349304198	0.4346956015
3907.7637377928	0.4353047311
3909.6925451659	0.4354316890
3911.6213525389	0.4337200224
3913.5501599119	0.4298799634
3915.4789672850	0.4279633760
3917.4077746580	0.4289946258
3919.3365820311	0.4313027561
3921.2653894041	0.4301302433
3923.1941967772	0.4241949022
3925.1230041502	0.4249063432
3927.0518115233	0.4256413579
3928.9806188963	0.4252282083
3930.9094262694	0.4277813733
3932.8382336424	0.4256509542
3934.7670410155	0.4278986752
3936.6958483885	0.4248659313
3938.6246557616	0.4253120422
3940.5534631346	0.4226326942
3942.4822705076	0.4160093665
3944.4110778807	0.4240209162
3946.3398852537	0.4222309291
3948.2686926268	0.4255315065
3950.1974999998	0.4221463203
3952.1263073729	0.4157013595
3954.0551147459	0.4278278053
3955.9839221190	0.4235569537
3957.9127294920	0.4164844751
3959.8415368651	0.4159455597
3961.7703442381	0.4167498946
3963.6991516112	0.4191159010
3965.6279589842	0.4148690403
3967.5567663573	0.4123245478
3969.4855737303	0.4129895568
3971.4143811034	0.4112200439
3973.3431884764	0.4074824750
3975.2719958494	0.4121380746
3977.2008032225	0.4135492742
3979.1296105955	0.4130369127
3981.0584179686	0.4135679901
3982.9872253416	0.4122650921
3984.9160327147	0.4143615663
3986.8448400877	0.4066914618
3988.7736474608	0.4089971185
3990.7024548338	0.4137065709
3992.6312622069	0.4111167789
3994.5600695799	0.4106116295
3996.4888769530	0.4051694870
3998.4176843260	0.4133934677
4000.3464916991	0.4151498377
4002.2752990721	0.4110346735
4004.2041064451	0.4103012085
4006.1329138182	0.4042932391
4008.0617211912	0.4087122083
4009.9905285643	0.4075358510
4011.9193359373	0.4093193412
4013.8481433104	0.4123547971
4015.7769506834	0.4074458182
4017.7057580565	0.4051018059
4019.6345654295	0.4023806155
4021.5633728026	0.4116982818
4023.4921801756	0.4100597203
4025.4209875487	0.4020272791
4027.3497949217	0.4085878730
4029.2786022948	0.4082707465
4031.2074096678	0.4049731195
4033.1362170408	0.4033105373
4035.0650244139	0.4056139290
4036.9938317869	0.4068429768
4038.9226391600	0.3988087177
4040.8514465330	0.3990340829
4042.7802539061	0.4081355333
4044.7090612791	0.4048775434
4046.6378686522	0.3985511363
4048.5666760252	0.4014389813
4050.4954833983	0.3976736963
4052.4242907713	0.4001495242
4054.3530981444	0.4062731862
4056.2819055174	0.4008332789
4058.2107128905	0.4013876915
4060.1395202635	0.4008767307
4062.0683276365	0.3943682313
4063.9971350096	0.3916323483
4065.9259423826	0.3934392631
4067.8547497557	0.3984138966
4069.7835571287	0.3995375931
4071.7123645018	0.3973692358
4073.6411718748	0.3975551128
4075.5699792479	0.3943257630
4077.4987866209	0.3900423348
4079.4275939940	0.3984377980
4081.3564013670	0.4074940979
4083.2852087401	0.4016363323
4085.2140161131	0.3941196799
4087.1428234862	0.3972414136
4089.0716308592	0.3967217207
4091.0004382323	0.3959093988
4092.9292456053	0.4015139937
4094.8580529783	0.3975244462
4096.7868603514	0.3978770077
4098.7156677244	0.3979413211
4100.6444750975	0.3969215751
4102.5732824705	0.3994759321
4104.5020898436	0.3906526566
4106.4308972166	0.3926998973
4108.3597045897	0.3969987631
4110.2885119627	0.3947372139
4112.2173193358	0.3971224129
4114.1461267088	0.3976411521
4116.0749340819	0.3936975002
4118.0037414549	0.3926877081
4119.9325488280	0.3991391957
4121.8613562010	0.3887205720
4123.7901635740	0.3875502050
4125.7189709471	0.3990064561
4127.6477783201	0.3917711675
4129.5765856932	0.3874101043
4131.5053930662	0.3865424395
4133.4342004393	0.3918257058
4135.3630078123	0.3926938772
4137.2918151854	0.3929811418
4139.2206225584	0.3974280655
4141.1494299315	0.3869087100
4143.0782373045	0.3896273673
4145.0070446776	0.3892733455
4146.9358520506	0.3837510943
4148.8646594237	0.3904711902
4150.7934667967	0.3835095167
4152.7222741697	0.3855044544
4154.6510815428	0.3899946809
4156.5798889158	0.3810672462
4158.5086962889	0.3858544230
4160.4375036619	0.3880116642
4162.3663110350	0.3853118122
4164.2951184080	0.3863270581
4166.2239257811	0.3819773495
4168.1527331541	0.3898715973
4170.0815405272	0.3937527537
4172.0103479002	0.3789394498
4173.9391552733	0.3787063360
4175.8679626463	0.3862940371
4177.7967700194	0.3809205592
4179.7255773924	0.3805535436
4181.6543847654	0.3834912777
4183.5831921385	0.3820578754
4185.5119995115	0.3838076293
4187.4408068846	0.3767523468
4189.3696142576	0.3767544925
4191.2984216307	0.3846742809
4193.2272290037	0.3840981424
4195.1560363768	0.3830420375
4197.0848437498	0.3799176812
4199.0136511229	0.3851421773
4200.9424584959	0.3812466860
4202.8712658690	0.3819925189
4204.8000732420	0.3903010190
4206.7288806151	0.3825189173
4208.6576879881	0.3913682997
4210.5864953611	0.3872565329
4212.5153027342	0.3818083704
4214.4441101072	0.3866656423
4216.3729174803	0.3817440867
4218.3017248533	0.3846856654
4220.2305322264	0.3711488545
4222.1593395994	0.3781919777
4224.0881469725	0.3825240135
4226.0169543455	0.3698853552
4227.9457617186	0.3843521774
4229.8745690916	0.3796921372
4231.8033764647	0.3756513298
4233.7321838377	0.3773409426
4235.6609912108	0.3781525493
4237.5897985838	0.3819239438
4239.5186059569	0.3742877841
4241.4474133299	0.3819356859
4243.3762207029	0.3801371455
4245.3050280760	0.3750141859
4247.2338354490	0.3758133948
4249.1626428221	0.3758631945
4251.0914501951	0.3837160170
4253.0202575682	0.3786975443
4254.9490649412	0.3769417703
4256.8778723143	0.3747260869
4258.8066796873	0.3717812300
4260.7354870604	0.3728497028
4262.6642944334	0.3728462160
4264.5931018065	0.3821248710
4266.5219091795	0.3789278567
4268.4507165526	0.3762173653
4270.3795239256	0.3740352988
4272.3083312986	0.3663910329
4274.2371386717	0.3729813099
4276.1659460447	0.3738631606
4278.0947534178	0.3727951646
4280.0235607908	0.3731970489
4281.9523681639	0.3721604347
4283.8811755369	0.3763062656
4285.8099829100	0.3698781431
4287.7387902830	0.3706717193
4289.6675976561	0.3820000291
4291.5964050291	0.3735186160
4293.5252124022	0.3715543449
4295.4540197752	0.3828058541
4297.3828271483	0.3801372945
4299.3116345213	0.3777727187
4301.2404418943	0.3740654290
4303.1692492674	0.3753325641
4305.0980566404	0.3754166365
4307.0268640135	0.3676455617
4308.9556713865	0.3739883602
4310.8844787596	0.3718585670
4312.8132861326	0.3728561103
4314.7420935057	0.3744269311
4316.6709008787	0.3610450625
4318.5997082518	0.3622851968
4320.5285156248	0.3709800541
4322.4573229979	0.3770892918
4324.3861303709	0.3731139898
4326.3149377440	0.3722594082
4328.2437451170	0.3701809645
4330.1725524900	0.3679648936
4332.1013598631	0.3760345280
4334.0301672361	0.3646791875
4335.9589746092	0.3634600639
4337.8877819822	0.3675669730
4339.8165893553	0.3687933683
4341.7453967283	0.3758626878
4343.6742041014	0.3693366647
4345.6030114744	0.3692867458
4347.5318188475	0.3638849556
4349.4606262205	0.3646684885
4351.3894335936	0.3717224300
4353.3182409666	0.3672581315
4355.2470483397	0.3643218577
4357.1758557127	0.3627694845
4359.1046630858	0.3747359216
4361.0334704588	0.3756208718
4362.9622778318	0.3659735322
4364.8910852049	0.3692703545
4366.8198925779	0.3713764846
4368.7486999510	0.3658432364
4370.6775073240	0.3687440157
4372.6063146971	0.3768064380
4374.5351220701	0.3706349134
4376.4639294432	0.3646850586
4378.3927368162	0.3600647151
4380.3215441893	0.3650070727
4382.2503515623	0.3633704185
4384.1791589354	0.3578613400
4386.1079663084	0.3716028929
4388.0367736815	0.3665156066
4389.9655810545	0.3652360737
4391.8943884275	0.3720786273
4393.8231958006	0.3720283210
4395.7520031736	0.3666814864
4397.6808105467	0.3603254557
4399.6096179197	0.3722276688
4401.5384252928	0.3656879067
4403.4672326658	0.3688113987
4405.3960400389	0.3749556839
4407.3248474119	0.3565021455
4409.2536547850	0.3602076769
4411.1824621580	0.3666812778
4413.1112695311	0.3723298609
4415.0400769041	0.3746945560
4416.9688842772	0.3671507835
4418.8976916502	0.3644304872
4420.8264990232	0.3604172468
4422.7553063963	0.3618143499
4424.6841137693	0.3595616817
4426.6129211424	0.3593728840
4428.5417285154	0.3568323255
4430.4705358885	0.3580222428
4432.3993432615	0.3712629080
4434.3281506346	0.3593052626
4436.2569580076	0.3593596220
4438.1857653807	0.3719090819
4440.1145727537	0.3611313403
4442.0433801268	0.3701510727
4443.9721874998	0.3724517226
4445.9009948729	0.3633503318
4447.8298022459	0.3713587821
4449.7586096189	0.3617272079
4451.6874169920	0.3586285412
4453.6162243650	0.3690962493
4455.5450317381	0.3622047603
4457.4738391111	0.3574763238
4459.4026464842	0.3656489253
4461.3314538572	0.3635832965
4463.2602612303	0.3535947800
4465.1890686033	0.3602196276
4467.1178759764	0.3686516583
4469.0466833494	0.3681719303
4470.9754907225	0.3595315516
4472.9042980955	0.3527921736
4474.8331054686	0.3604140878
4476.7619128416	0.3588231504
4478.6907202147	0.3532151878
4480.6195275877	0.3567221761
4482.5483349607	0.3627337813
4484.4771423338	0.3628753722
4486.4059497068	0.3571138084
4488.3347570799	0.3638141453
4490.2635644529	0.3656147122
4492.1923718260	0.3585859239
4494.1211791990	0.3605966568
4496.0499865721	0.3640663028
4497.9787939451	0.3724017739
4499.9076013182	0.3637441099
4501.8364086912	0.3500599265
4503.7652160643	0.3628128171
4505.6940234373	0.3605650365
4507.6228308104	0.3582786620
4509.5516381834	0.3567453027
4511.4804455564	0.3485863805
4513.4092529295	0.3661614358
4515.3380603025	0.3596772850
4517.2668676756	0.3583648205
4519.1956750486	0.3650023341
4521.1244824217	0.3463195562
4523.0532897947	0.3562102914
4524.9820971678	0.3607774079
4526.9109045408	0.3550349474
4528.8397119139	0.3508112431
4530.7685192869	0.3483002484
4532.6973266600	0.3597623706
4534.6261340330	0.3564737439
4536.5549414061	0.3539152145
4538.4837487791	0.3496158123
4540.4125561521	0.3499520123
4542.3413635252	0.3531689644
4544.2701708982	0.3554674387
4546.1989782713	0.3617876768
4548.1277856443	0.3506025076
4550.0565930174	0.3575062156
4551.9854003904	0.3638417423
4553.9142077635	0.3567179143
4555.8430151365	0.3585048914
4557.7718225096	0.3554359078
4559.7006298826	0.3598593473
4561.6294372557	0.3574145138
4563.5582446287	0.3510575891
4565.4870520018	0.3546938002
4567.4158593748	0.3551233113
4569.3446667478	0.3523055613
4571.2734741209	0.3584783077
4573.2022814939	0.3571616113
4575.1310888670	0.3467084467
4577.0598962400	0.3632281125
4578.9887036131	0.3629678190
4580.9175109861	0.3508024216
4582.8463183592	0.3602063060
4584.7751257322	0.3565080166
4586.7039331053	0.3506928980
4588.6327404783	0.3507505357
4590.5615478514	0.3620522916
4592.4903552244	0.3613143861
4594.4191625975	0.3540722132
4596.3479699705	0.3592932224
4598.2767773435	0.3505944014
4600.2055847166	0.3621125519
4602.1343920896	0.3583712578
4604.0631994627	0.3436807096
4605.9920068357	0.3586595058
4607.9208142088	0.3603981733
4609.8496215818	0.3541842103
4611.7784289549	0.3497154713
4613.7072363279	0.3653074205
4615.6360437010	0.3610087633
4617.5648510740	0.3430225849
4619.4936584471	0.3495691419
4621.4224658201	0.3464968801
4623.3512731932	0.3632084131
4625.2800805662	0.3576965034
4627.2088879393	0.3443597555
4629.1376953123	0.3492504954
4631.0665026853	0.3460127413
4632.9953100584	0.3632604480
4634.9241174314	0.3482935727
4636.8529248045	0.3519166112
4638.7817321775	0.3713754714
4640.7105395506	0.3450714350
4642.6393469236	0.3336510360
4644.5681542967	0.3395405114
4646.4969616697	0.3549739122
4648.4257690428	0.3638665676
4650.3545764158	0.3632406294
4652.2833837889	0.3536254466
4654.2121911619	0.3527671993
4656.1409985350	0.3614660203
4658.0698059080	0.3490867019
4659.9986132810	0.3462519348
4661.9274206541	0.3499474823
4663.8562280271	0.3506358564
4665.7850354002	0.3465351462
4667.7138427732	0.3550938368
4669.6426501463	0.3585591316
4671.5714575193	0.3509683311
4673.5002648924	0.3601764441
4675.4290722654	0.3496983349
4677.3578796385	0.3533292413
4679.2866870115	0.3582748473
4681.2154943846	0.3489764929
4683.1443017576	0.3498369455
4685.0731091307	0.3543701768
4687.0019165037	0.3565963507
4688.9307238767	0.3437835872
4690.8595312498	0.3630076647
4692.7883386228	0.3543563485
4694.7171459959	0.3287545145
4696.6459533689	0.3415321708
4698.5747607420	0.3494979441
4700.5035681150	0.3618155122
4702.4323754881	0.3495519757
4704.3611828611	0.3526986837
4706.2899902342	0.3549796343
4708.2187976072	0.3395073414
4710.1476049803	0.3587514162
4712.0764123533	0.3551353514
4714.0052197264	0.3530161679
4715.9340270994	0.3512201309
4717.8628344724	0.3476817906
4719.7916418455	0.3566136956
4721.7204492185	0.3437995315
4723.6492565916	0.3507382870
4725.5780639646	0.3520435691
4727.5068713377	0.3413293660
4729.4356787107	0.3475606740
4731.3644860838	0.3480015099
4733.2932934568	0.3515728712
4735.2221008299	0.3466204107
4737.1509082029	0.3512744009
4739.0797155760	0.3676729500
4741.0085229490	0.3541919589
4742.9373303221	0.3515119553
4744.8661376951	0.3465461731
4746.7949450682	0.3388132453
4748.7237524412	0.3586328924
4750.6525598142	0.3486631215
4752.5813671873	0.3523142636
4754.5101745603	0.3675006628
4756.4389819334	0.3372844756
4758.3677893064	0.3303200901
4760.2965966795	0.3414331675
4762.2254040525	0.3341967165
4764.1542114256	0.3360939920
4766.0830187986	0.3501244187
4768.0118261717	0.3483564258
4769.9406335447	0.3456041217
4771.8694409178	0.3476909995
4773.7982482908	0.3398017883
4775.7270556639	0.3539479375
4777.6558630369	0.3626817167
4779.5846704099	0.3446789980
4781.5134777830	0.3406936824
4783.4422851560	0.3452926576
4785.3710925291	0.3478300571
4787.2998999021	0.3569515646
4789.2287072752	0.3631059825
4791.1575146482	0.3528631330
4793.0863220213	0.3451462686
4795.0151293943	0.3536065519
4796.9439367674	0.3510512710
4798.8727441404	0.3477250934
4800.8015515135	0.3509123623
4802.7303588865	0.3341463208
4804.6591662596	0.3390286565
4806.5879736326	0.3538912237
4808.5167810056	0.3464645743
4810.4455883787	0.3474971354
4812.3743957517	0.3444509804
4814.3032031248	0.3454290330
4816.2320104978	0.3402439952
4818.1608178709	0.3413995802
4820.0896252439	0.3614731133
4822.0184326170	0.3568058312
4823.9472399900	0.3488993049
4825.8760473631	0.3481604457
4827.8048547361	0.3517477810
4829.7336621092	0.3486856222
4831.6624694822	0.3420509696
4833.5912768553	0.3472590446
4835.5200842283	0.3460038900
4837.4488916013	0.3441531062
4839.3776989744	0.3454447687
4841.3065063474	0.3464368284
4843.2353137205	0.3398090303
4845.1641210935	0.3477826715
4847.0929284666	0.3533112109
4849.0217358396	0.3363337219
4850.9505432127	0.3447758555
4852.8793505857	0.3578008711
4854.8081579588	0.3399664462
4856.7369653318	0.3320312798
4858.6657727049	0.3582676649
4860.5945800779	0.3518268764
4862.5233874510	0.3370556533
4864.4521948240	0.3454413116
4866.3810021971	0.3391486704
4868.3098095701	0.3486810029
4870.2386169431	0.3457131982
4872.1674243162	0.3460341990
4874.0962316892	0.3532625735
4876.0250390623	0.3307954073
4877.9538464353	0.3272184730
4879.8826538084	0.3391245306
4881.8114611814	0.3479869068
4883.7402685545	0.3462795615
4885.6690759275	0.3356707096
4887.5978833006	0.3351013958
4889.5266906736	0.3413859606
4891.4554980467	0.3305446208
4893.3843054197	0.3346340656
4895.3131127928	0.3442735672
4897.2419201658	0.3276813030
4899.1707275388	0.3442220092
4901.0995349119	0.3452202380
4903.0283422849	0.3323679566
4904.9571496580	0.3327906728
4906.8859570310	0.3330973983
4908.8147644041	0.3481907547
4910.7435717771	0.3381574750
4912.6723791502	0.3490632176
4914.6011865232	0.3549718857
4916.5299938963	0.3459974825
4918.4588012693	0.3503203690
4920.3876086424	0.3384568393
4922.3164160154	0.3484443724
4924.2452233885	0.3360619247
4926.1740307615	0.3239099085
4928.1028381345	0.3428689539
4930.0316455076	0.3429126143
4931.9604528806	0.3392336369
4933.8892602537	0.3332108855
4935.8180676267	0.3301963806
4937.7468749998	0.3214529753
4939.6756823728	0.3193406165
4941.6044897459	0.3318356574
4943.5332971189	0.3437608778
4945.4621044920	0.3547282219
4947.3909118650	0.3492383659
4949.3197192381	0.3494600952
4951.2485266111	0.3539611399
4953.1773339842	0.3464446962
4955.1061413572	0.3425899744
4957.0349487302	0.3421998024
4958.9637561033	0.3442788720
4960.8925634763	0.3377875686
4962.8213708494	0.3351187706
4964.7501782224	0.3432003558
4966.6789855955	0.3370428979
4968.6077929685	0.3411966860
4970.5366003416	0.3473361135
4972.4654077146	0.3451609612
4974.3942150877	0.3378508389
4976.3230224607	0.3245967031
4978.2518298338	0.3499193192
4980.1806372068	0.3475588262
4982.1094445799	0.3296989202
4984.0382519529	0.3545348048
4985.9670593259	0.3493354619
4987.8958666990	0.3465928733
4989.8246740720	0.3456805646
4991.7534814451	0.3265738785
4993.6822888181	0.3374004364
4995.6110961912	0.3391079903
4997.5399035642	0.3230881393
4999.4687109373	0.3424365520
5001.3975183103	0.3575296104
5003.3263256834	0.3358042538
5005.2551330564	0.3296839595
5007.1839404295	0.3336983919
5009.1127478025	0.3365757167
5011.0415551756	0.3345752954
5012.9703625486	0.3287640512
5014.8991699217	0.3373228014
5016.8279772947	0.3480789065
5018.7567846677	0.3374267220
5020.6855920408	0.3201511800
5022.6143994138	0.3436351120
5024.5432067869	0.3398201764
5026.4720141599	0.3338098228
5028.4008215330	0.3527522087
5030.3296289060	0.3184621930
5032.2584362791	0.3289195001
5034.1872436521	0.3610899150
5036.1160510252	0.3281211555
5038.0448583982	0.3116226494
5039.9736657713	0.3227841556
5041.9024731443	0.3218163252
5043.8312805174	0.3401108980
5045.7600878904	0.3592740893
5047.6888952634	0.3370648324
5049.6177026365	0.3375661075
5051.5465100095	0.3484063148
5053.4753173826	0.3413852453
5055.4041247556	0.3366526067
5057.3329321287	0.3468846083
5059.2617395017	0.3489764929
5061.1905468748	0.3295195103
5063.1193542478	0.3490617573
5065.0481616209	0.3476687372
5066.9769689939	0.3271720111
5068.9057763670	0.3374460340
5070.8345837400	0.3341911435
5072.7633911131	0.3313224912
5074.6921984861	0.3413247168
5076.6210058591	0.3429667354
5078.5498132322	0.3422549665
5080.4786206052	0.3522371948
5082.4074279783	0.3260402977
5084.3362353513	0.3236299753
5086.2650427244	0.3430461287
5088.1938500974	0.3402910829
5090.1226574705	0.3600502908
5092.0514648435	0.3266534209
5093.9802722166	0.3198858798
5095.9090795896	0.3417915702
5097.8378869627	0.3212468624
5099.7666943357	0.3246415854
5101.6955017088	0.3144121468
5103.6243090818	0.3358875215
5105.5531164548	0.3521721661
5107.4819238279	0.3300880790
5109.4107312009	0.3411173522
5111.3395385740	0.3393105865
5113.2683459470	0.3347656727
5115.1971533201	0.3346614242
5117.1259606931	0.3433839977
5119.0547680662	0.3489038050
5120.9835754392	0.3148620725
5122.9123828123	0.3211168647
5124.8411901853	0.3303389847
5126.7699975584	0.3159302175
5128.6988049314	0.3480241597
5130.6276123045	0.3369820416
5132.5564196775	0.3257632852
5134.4852270506	0.3420177996
5136.4140344236	0.3162327111
5138.3428417966	0.3339795470
5140.2716491697	0.3451834023
5142.2004565427	0.3398298025
5144.1292639158	0.3391474187
5146.0580712888	0.3180360198
5147.9868786619	0.3288778067
5149.9156860349	0.3323223293
5151.8444934080	0.3308505416
5153.7733007810	0.3351006508
5155.7021081541	0.3332832158
5157.6309155271	0.3281494081
5159.5597229002	0.3074545264
5161.4885302732	0.3139565289
5163.4173376463	0.3527016342
5165.3461450193	0.3496408761
5167.2749523923	0.3286703825
5169.2037597654	0.3401153386
5171.1325671384	0.3362159133
5173.0613745115	0.3463091552
5174.9901818845	0.3254948854
5176.9189892576	0.3170938790
5178.8477966306	0.3616702259
5180.7766040037	0.3255509436
5182.7054113767	0.3084589243
5184.6342187498	0.3103087544
5186.5630261228	0.3153469861
5188.4918334959	0.3254053891
5190.4206408689	0.3094949424
5192.3494482420	0.3370436728
5194.2782556150	0.3247045577
5196.2070629880	0.3269494474
5198.1358703611	0.3519114554
5200.0646777341	0.3490684927
5201.9934851072	0.3471951485
5203.9222924802	0.3297401369
5205.8510998533	0.3444894552
5207.7799072263	0.3421316743
5209.7087145994	0.3371366858
5211.6375219724	0.3369385600
5213.5663293455	0.3333833814
5215.4951367185	0.3480966985
5217.4239440916	0.3558368385
5219.3527514646	0.3536186516
5221.2815588377	0.3200415671
5223.2103662107	0.3132063746
5225.1391735837	0.3179198503
5227.0679809568	0.3370930254
5228.9967883298	0.3558715880
5230.9255957029	0.3367109001
5232.8544030759	0.3535334170
5234.7832104490	0.3443876803
5236.7120178220	0.3372807205
5238.6408251951	0.3439181447
5240.5696325681	0.3459742963
5242.4984399412	0.3621317148
5244.4272473142	0.3109149337
5246.3560546873	0.3138706386
5248.2848620603	0.3436352015
5250.2136694334	0.3041678369
5252.1424768064	0.3415012360
5254.0712841795	0.3612896204
5256.0000915525	0.3419040442
5257.9288989255	0.3598011732
5259.8577062986	0.3275655210
5261.7865136716	0.3395105004
5263.7153210447	0.3450359404
5265.6441284177	0.3097974658
5267.5729357908	0.3419015110
5269.5017431638	0.3428249061
5271.4305505369	0.3409322798
5273.3593579099	0.3425847292
5275.2881652830	0.3320263326
5277.2169726560	0.3466208577
5279.1457800291	0.3306594491
5281.0745874021	0.3135907352
5283.0033947752	0.3313306272
5284.9322021482	0.3622840643
5286.8610095212	0.3403800726
5288.7898168943	0.3248484135
5290.7186242673	0.3443577290
5292.6474316404	0.3321889341
5294.5762390134	0.3290443122
5296.5050463865	0.3226163983
5298.4338537595	0.3253237605
5300.3626611326	0.3219526112
5302.2914685056	0.3166196346
5304.2202758787	0.3317207098
5306.1490832517	0.3235642612
5308.0778906248	0.3368691504
5310.0066979978	0.3360669911
5311.9355053709	0.3298653662
5313.8643127439	0.3453281224
5315.7931201169	0.3324765861
5317.7219274900	0.3226154149
5319.6507348630	0.3115717769
5321.5795422361	0.3454666436
5323.5083496091	0.3622534871
5325.4371569822	0.3205935061
5327.3659643552	0.3508871794
5329.2947717283	0.3615945280
5331.2235791013	0.3492964804
5333.1523864744	0.3579758108
5335.0811938474	0.3327369094
5337.0100012205	0.3383019269
5338.9388085935	0.3293015063
5340.8676159666	0.3211328089
5342.7964233396	0.3368035257
5344.7252307126	0.3405438662
5346.6540380857	0.3543154895
5348.5828454587	0.3454982638
5350.5116528318	0.3399112821
5352.4404602048	0.3203428686
5354.3692675779	0.3200524449
5356.2980749509	0.3272187710
5358.2268823240	0.3063342571
5360.1556896970	0.3403563201
5362.0844970701	0.3615818322
5364.0133044431	0.3427076340
5365.9421118162	0.3252076805
5367.8709191892	0.3352288902
5369.7997265623	0.3422337770
5371.7285339353	0.3397370279
5373.6573413083	0.3508298397
5375.5861486814	0.3327479362
5377.5149560544	0.3279411793
5379.4437634275	0.3287684619
5381.3725708005	0.3331514299
5383.3013781736	0.3040276468
5385.2301855466	0.3027800322
5387.1589929197	0.3465585411
5389.0878002927	0.3107394874
5391.0166076658	0.3123542070
5392.9454150388	0.3203379214
5394.8742224119	0.3277045488
5396.8030297849	0.3294943869
5398.7318371580	0.3086481690
5400.6606445310	0.3354439139
5402.5894519041	0.3364928663
5404.5182592771	0.3485645652
5406.4470666501	0.3293962479
5408.3758740232	0.3385180235
5410.3046813962	0.3634552658
5412.2334887693	0.3312913179
5414.1622961423	0.3352947831
5416.0911035154	0.3171217442
5418.0199108884	0.3242500126
5419.9487182615	0.3000945449
5421.8775256345	0.2982932329
5423.8063330076	0.3400448561
5425.7351403806	0.3370446861
5427.6639477537	0.3802753389
5429.5927551267	0.3436931670
5431.5215624998	0.3350957930
5433.4503698728	0.3670212328
5435.3791772458	0.3258890212
5437.3079846189	0.3545660079
5439.2367919919	0.3277649879
5441.1655993650	0.2943146229
5443.0944067380	0.3529771566
5445.0232141111	0.3489359021
5446.9520214841	0.3504402936
5448.8808288572	0.3501130641
5450.8096362302	0.3104996681
5452.7384436033	0.3176943958
5454.6672509763	0.3062309623
5456.5960583494	0.2942440510
5458.5248657224	0.3129037023
5460.4536730955	0.3359232247
5462.3824804685	0.3371053338
5464.3112878415	0.2936354280
5466.2400952146	0.3349414170
5468.1689025876	0.3539504707
5470.0977099607	0.3026161790
5472.0265173337	0.3047249317
5473.9553247068	0.3083316982
5475.8841320798	0.3177894652
5477.8129394529	0.3221853375
5479.7417468259	0.3326604664
5481.6705541990	0.3372760713
5483.5993615720	0.3276084065
5485.5281689451	0.3228810132
5487.4569763181	0.3441346288
5489.3857836912	0.3462738991
5491.3145910642	0.3243877590
5493.2433984372	0.3634541035
5495.1722058103	0.3365397155
5497.1010131833	0.3254772723
5499.0298205564	0.3339549005
5500.9586279294	0.3278055489
5502.8874353025	0.3581646979
5504.8162426755	0.3083419800
5506.7450500486	0.3600336015
5508.6738574216	0.3594202101
5510.6026647947	0.2801618874
5512.5314721677	0.3193162680
5514.4602795408	0.3283518255
5516.3890869138	0.3351486623
5518.3178942869	0.3271581531
5520.2467016599	0.3362381160
5522.1755090330	0.3567330539
5524.1043164060	0.3600013852
5526.0331237790	0.3498039544
5527.9619311521	0.3067584932
5529.8907385251	0.3775871694
5531.8195458982	0.3704655468
5533.7483532712	0.3254088163
5535.6771606443	0.3475329280
5537.6059680173	0.2972560525
5539.5347753904	0.3246577382
5541.4635827634	0.3150877059
5543.3923901365	0.2856378555
5545.3211975095	0.3518138230
5547.2500048826	0.3438227475
5549.1788122556	0.3368393481
5551.1076196287	0.3564831614
5553.0364270017	0.3159655631
5554.9652343747	0.3017800152
5556.8940417478	0.3469213545
5558.8228491208	0.3423105478
5560.7516564939	0.3271684647
5562.6804638669	0.3918814063
5564.6092712400	0.3738104403
5566.5380786130	0.3134008050
5568.4668859861	0.3515644968
5570.3956933591	0.3448979855
5572.3245007322	0.3221000731
5574.2533081052	0.3511144817
5576.1821154783	0.3266168535
5578.1109228513	0.3022113740
5580.0397302244	0.3333371580
5581.9685375974	0.3245649338
5583.8973449704	0.3194677532
5585.8261523435	0.3577613831
5587.7549597165	0.3594215810
5589.6837670896	0.3537317812
5591.6125744626	0.3192614615
5593.5413818357	0.3023336530
5595.4701892087	0.3603131175
5597.3989965818	0.3612074554
5599.3278039548	0.3371946216
5601.2566113279	0.3218212128
5603.1854187009	0.3097916543
5605.1142260740	0.3244228959
5607.0430334470	0.3382403255
5608.9718408201	0.3386251330
5610.9006481931	0.3331470788
5612.8294555661	0.3355047107
5614.7582629392	0.3125310242
5616.6870703122	0.3277620077
5618.6158776853	0.3265594542
5620.5446850583	0.3011500239
5622.4734924314	0.3048714697
5624.4022998044	0.3064098060
5626.3311071775	0.3394256234
5628.2599145505	0.2863983214
5630.1887219236	0.2890396118
5632.1175292966	0.3260354698
5634.0463366697	0.3099758625
5635.9751440427	0.3853173852
5637.9039514158	0.3077991605
5639.8327587888	0.2618879080
5641.7615661619	0.3376341462
5643.6903735349	0.3162790835
5645.6191809079	0.3214007318
5647.5479882810	0.3312662244
5649.4767956540	0.3139371872
5651.4056030271	0.2933068871
5653.3344104001	0.3110462427
5655.2632177732	0.3000140786
5657.1920251462	0.2677959502
5659.1208325193	0.2823511064
5661.0496398923	0.3210662603
5662.9784472654	0.3941921592
5664.9072546384	0.3368826509
5666.8360620115	0.3010651469
5668.7648693845	0.3513295352
5670.6936767576	0.3874217868
5672.6224841306	0.3665811718
5674.5512915036	0.2574317157
5676.4800988767	0.3137132227
5678.4089062497	0.3562940061
5680.3377136228	0.2885726392
5682.2665209958	0.3134602606
5684.1953283689	0.3457825482
5686.1241357419	0.3875370324
5688.0529431150	0.3564638197
5689.9817504880	0.3522962630
5691.9105578611	0.3277221918
5693.8393652341	0.2686254978
5695.7681726072	0.3319447637
5697.6969799802	0.3266903758
5699.6257873533	0.3344388604
5701.5545947263	0.3643068075
5703.4834020993	0.3297507465
5705.4122094724	0.3390793800
5707.3410168454	0.3303130865
5709.2698242185	0.3270666003
5711.1986315915	0.3418842554
5713.1274389646	0.3287626505
5715.0562463376	0.3184990883
5716.9850537107	0.3390944600
5718.9138610837	0.3764657378
5720.8426684568	0.3542107344
5722.7714758298	0.3208062351
5724.7002832029	0.3471930921
5726.6290905759	0.3542461097
5728.5578979490	0.3565467000
5730.4867053220	0.3859018385
5732.4155126950	0.3464418352
5734.3443200681	0.3465804458
5736.2731274411	0.4071033299
5738.2019348142	0.4065155685
5740.1307421872	0.3920066059
5742.0595495603	0.3197390735
5743.9883569333	0.3158527613
5745.9171643064	0.3533041179
5747.8459716794	0.2904831767
5749.7747790525	0.3355057836
5751.7035864255	0.3587065339
5753.6323937986	0.2991604209
5755.5612011716	0.3168947101
5757.4900085447	0.2610756457
5759.4188159177	0.3340536058
5761.3476232907	0.3836183250
5763.2764306638	0.3116659522
5765.2052380368	0.3748564422
5767.1340454099	0.2750566602
5769.0628527829	0.2518064082
5770.9916601560	0.3245412111
5772.9204675290	0.2983172834
5774.8492749021	0.3695608675
5776.7780822751	0.2947588265
5778.7068896482	0.2974341810
5780.6356970212	0.3271306157
5782.5645043943	0.2562637925
5784.4933117673	0.3106311262
5786.4221191404	0.2696192861
5788.3509265134	0.3259593248
5790.2797338865	0.3575284481
5792.2085412595	0.3226076066
5794.1373486325	0.3190371990
5796.0661560056	0.2601437271
5797.9949633786	0.3349593282
5799.9237707517	0.3377305567
5801.8525781247	0.3760795593
5803.7813854978	0.4079568684
5805.7101928708	0.3728955686
5807.6390002439	0.3490676284
5809.5678076169	0.2639603913
5811.4966149900	0.3562385440
5813.4254223630	0.3337270319
5815.3542297361	0.3121036887
5817.2830371091	0.3998831809
5819.2118444822	0.3387351632
5821.1406518552	0.3704932332
5823.0694592282	0.3477747738
5824.9982666013	0.3096426427
5826.9270739743	0.3334590495
5828.8558813474	0.2953071594
5830.7846887204	0.3221027553
5832.7134960935	0.3812640905
5834.6423034665	0.3910112679
5836.5711108396	0.3664138019
5838.4999182126	0.3533372581
5840.4287255857	0.3385827839
5842.3575329587	0.3433795869
5844.2863403318	0.3350685239
5846.2151477048	0.2867335081
5848.1439550779	0.2667628825
5850.0727624509	0.2895379364
5852.0015698239	0.3727946579
5853.9303771970	0.3517158031
5855.8591845700	0.2663558722
5857.7879919431	0.3467382491
5859.7167993161	0.4024110734
5861.6456066892	0.2968255877
5863.5744140622	0.3206411898
5865.5032214353	0.3989822567
5867.4320288083	0.3721616268
5869.3608361814	0.3280853927
5871.2896435544	0.3036247194
5873.2184509275	0.4085673094
5875.1472583005	0.3900199831
5877.0760656736	0.2863024175
5879.0048730466	0.3582608998
5880.9336804196	0.3217227459
5882.8624877927	0.2948449850
5884.7912951657	0.3392627835
5886.7201025388	0.3458200991
5888.6489099118	0.2921703756
5890.5777172849	0.3014559448
5892.5065246579	0.3795138597
5894.4353320310	0.2939060032
5896.3641394040	0.3310985565
5898.2929467771	0.3673460186
5900.2217541501	0.2612568736
5902.1505615232	0.2997873425
5904.0793688962	0.3839955926
5906.0081762693	0.3661469519
5907.9369836423	0.2699860930
5909.8657910154	0.3012464046
5911.7945983884	0.3528011441
5913.7234057614	0.3310398757
5915.6522131345	0.3424970210
5917.5810205075	0.3071737885
5919.5098278806	0.2923260033
5921.4386352536	0.3509167433
5923.3674426267	0.3709597588
5925.2962499997	0.3641312718
5927.2250573728	0.3831937909
5929.1538647458	0.3309334517
5931.0826721189	0.3417296708
5933.0114794919	0.3725939989
5934.9402868650	0.2640638947
5936.8690942380	0.3193214238
5938.7979016111	0.3432103097
5940.7267089841	0.2946114838
5942.6555163571	0.3528189957
5944.5843237302	0.3502236307
5946.5131311032	0.3510355651
5948.4419384763	0.2945635617
5950.3707458493	0.3376813829
5952.2995532224	0.4357016087
5954.2283605954	0.4014936388
5956.1571679685	0.3709146678
5958.0859753415	0.3091177344
5960.0147827146	0.3367892802
5961.9435900876	0.2771179080
5963.8723974607	0.3041823208
5965.8012048337	0.3923759758
5967.7300122068	0.2468696237
5969.6588195798	0.3178518116
5971.5876269528	0.3245582283
5973.5164343259	0.2471470237
5975.4452416989	0.3369897604
5977.3740490720	0.3603138328
5979.3028564450	0.3307216167
5981.2316638181	0.2501970530
5983.1604711911	0.3763653934
5985.0892785642	0.3716101646
5987.0180859372	0.3245721459
5988.9468933103	0.4855044782
5990.8757006833	0.3619962633
5992.8045080564	0.3339583874
5994.7333154294	0.3804676533
5996.6621228025	0.3400192559
5998.5909301755	0.3103356063
6000.5197375485	0.3116459846
