399.2631262207	0.2267447710
401.1919335938	0.6498831511
403.1207409668	0.6557832360
405.0495483398	0.4348324537
406.9783557129	0.6292245388
408.9071630859	0.3404349685
410.8359704590	0.4315752387
412.7647778320	0.6411563158
414.6935852051	0.6197838783
416.6223925781	0.6390584707
418.5511999512	0.4716356695
420.4800073242	0.5801810026
422.4088146973	0.6897042394
424.3376220703	0.4566391408
426.2664294434	0.4045110643
428.1952368164	0.6083595157
430.1240441895	0.5512487888
432.0528515625	0.2734489441
433.9816589355	0.5922128558
435.9104663086	0.7628217936
437.8392736816	0.6217693090
439.7680810547	0.5798543692
441.6968884277	0.3964781463
443.6256958008	0.5493174791
445.5545031738	0.6700875163
447.4833105469	0.5776272416
449.4121179199	0.6614056230
451.3409252930	0.4485346079
453.2697326660	0.4065174460
455.1985400391	0.6499031782
457.1273474121	0.5102818608
459.0561547852	0.1922596544
460.9849621582	0.4024920166
462.9137695313	0.5797238350
464.8425769043	0.3145906329
466.7713842773	0.3313995302
468.7001916504	0.4555438459
470.6289990234	0.3223792017
472.5578063965	0.5085498095
474.4866137695	0.7276482582
476.4154211426	0.3374526501
478.3442285156	0.3274816573
480.2730358887	0.3359499872
482.2018432617	0.4063663781
484.1306506348	0.8628863692
486.0594580078	0.2279692143
487.9882653809	0.0989535153
489.9170727539	0.8974032998
491.8458801270	0.7211174369
493.7746875000	0.3483128250
495.7034948730	0.1791635454
497.6323022461	0.7333457470
499.5611096191	0.4393393993
501.4899169922	0.1577169150
503.4187243652	0.2803133726
505.3475317383	0.0192174036
507.2763391113	0.1071124896
509.2051464844	0.1611959189
511.1339538574	0.5581265688
513.0627612305	0.2783345878
514.9915686035	-0.3241038322
516.9203759766	0.3613301516
518.8491833496	0.3171215355
520.7779907227	0.0746467859
522.7067980957	0.1092954949
524.6356054688	0.0526995920
526.5644128418	0.3294319510
528.4932202148	1.2257941961
530.4220275879	0.7369788885
532.3508349609	0.2869519293
534.2796423340	-0.0077525317
536.2084497070	-0.4136076570
538.1372570801	-0.1886372864
540.0660644531	0.2006062418
541.9948718262	-0.2011983395
543.9236791992	0.4628008604
545.8524865723	0.2658321559
547.7812939453	-0.4414885640
549.7101013184	0.1584399492
551.6389086914	0.4304762483
553.5677160645	0.6470552683
555.4965234375	-0.0058013820
557.4253308105	0.0566507392
559.3541381836	0.1001302078
561.2829455566	1.1549648046
563.2117529297	0.4564614594
565.1405603027	0.4911619127
567.0693676758	0.6915463209
568.9981750488	-0.0760106444
570.9269824219	0.6567819118
572.8557897949	0.3163060248
574.7845971680	0.0212807357
576.7134045410	0.2348865718
578.6422119141	0.1033396423
580.5710192871	1.1034607887
582.4998266602	0.2968135476
584.4286340332	0.1118766740
586.3574414063	0.5440915227
588.2862487793	0.1952607185
590.2150561523	0.5151174664
592.1438635254	0.2870084047
594.0726708984	0.2062046230
596.0014782715	0.4138823748
597.9302856445	0.2271411866
599.8590930176	0.0963854194
601.7879003906	-0.0984650329
603.7167077637	-0.1782062799
605.6455151367	0.1444925517
607.5743225098	0.4528982341
609.5031298828	0.2135120332
611.4319372559	-0.0040326691
613.3607446289	-3.1604199409
615.2895520020	0.1323878020
617.2183593750	0.1295665801
619.1471667480	-0.2249932885
621.0759741211	-0.3829839826
623.0047814941	-0.4626220167
624.9335888672	-0.3030357361
626.8623962402	-0.8702070713
628.7912036133	-0.1312519014
630.7200109863	0.3691247404
632.6488183594	0.5309493542
634.5776257324	0.5796278119
636.5064331055	0.4587893188
638.4352404785	0.6009954214
640.3640478516	0.6952273250
642.2928552246	0.5981835127
644.2216625977	0.6976774335
646.1504699707	0.5460223556
648.0792773438	0.5404036045
650.0080847168	0.8011365533
651.9368920898	0.6446569562
653.8656994629	0.6825370193
655.7945068359	0.6922046542
657.7233142090	0.5187796950
659.6521215820	0.6456366181
661.5809289551	0.6844940186
663.5097363281	0.6626604199
665.4385437012	0.7078145146
667.3673510742	0.6522809863
669.2961584473	0.6178571582
671.2249658203	0.6593601704
673.1537731934	0.7836863399
675.0825805664	0.7116186023
677.0113879395	0.6793304086
678.9401953125	0.7003164291
680.8690026855	0.6088835597
682.7978100586	0.6250604391
684.7266174316	0.6510025859
686.6554248047	0.6588876247
688.5842321777	0.6686421633
690.5130395508	0.7186706662
692.4418469238	0.7294489741
694.3706542969	0.7230569720
696.2994616699	0.7906735539
698.2282690430	0.7456732392
700.1570764160	0.7182348371
702.0858837891	0.7014383674
704.0146911621	0.7092891335
705.9434985352	0.7493426204
707.8723059082	0.7203106284
709.8011132813	0.7329136729
711.7299206543	0.7247329950
713.6587280273	0.6888256669
715.5875354004	0.6316552162
717.5163427734	0.7913440466
719.4451501465	0.3874579072
721.3739575195	-0.0670789480
723.3027648926	0.4264195561
725.2315722656	0.3584582508
727.1603796387	0.2655611634
729.0891870117	0.2471204251
731.0179943848	0.0301404856
732.9468017578	0.1136649847
734.8756091309	-0.2907457650
736.8044165039	-0.0108990772
738.7332238770	-0.0281831697
740.6620312500	-0.0221629962
742.5908386230	0.1522942334
744.5196459961	0.4306645989
746.4484533691	0.4417189658
748.3772607422	-0.3267745674
750.3060681152	0.2413005978
752.2348754883	-0.1666922867
754.1636828613	-0.0140455980
756.0924902344	0.1509099603
758.0212976074	0.1046285182
759.9501049805	0.8640624285
761.8789123535	0.0289549120
763.8077197266	0.2386263907
765.7365270996	0.2530753016
767.6653344727	0.3249984384
769.5941418457	0.3543029130
771.5229492188	-0.0042375163
773.4517565918	0.3121611476
775.3805639648	0.3686287105
777.3093713379	0.1865690500
779.2381787109	0.2964755893
781.1669860840	0.6060755849
783.0957934570	0.4064430296
785.0246008301	0.0753580630
786.9534082031	0.4119305611
788.8822155762	0.5903729200
790.8110229492	0.3195841312
792.7398303223	0.4505082965
794.6686376953	0.4134625494
796.5974450684	0.5628409982
798.5262524414	1.0182279348
800.4550598145	0.7862216234
802.3838671875	0.4337606728
804.3126745605	0.4421823621
806.2414819336	0.4539446235
808.1702893066	0.4660380483
810.0990966797	1.0799933672
812.0279040527	0.9291172624
813.9567114258	0.5524103045
815.8855187988	0.5701474547
817.8143261719	0.2254712284
819.7431335449	0.2881197035
821.6719409180	0.3232108951
823.6007482910	0.2884599566
825.5295556641	0.4290105104
827.4583630371	0.3877654076
829.3871704102	0.8439221382
831.3159777832	1.0664266348
833.2447851563	0.7503958941
835.1735925293	0.7920477986
837.1023999023	0.6739564538
839.0312072754	0.6848254204
840.9600146484	0.6582397819
842.8888220215	0.7613834143
844.8176293945	0.9354636073
846.7464367676	0.7869004011
848.6752441406	0.7975092530
850.6040515137	0.8696588278
852.5328588867	0.8036743402
854.4616662598	0.7214460373
856.3904736328	0.6296222210
858.3192810059	0.6201944351
860.2480883789	0.7352436185
862.1768957520	0.4386714399
864.1057031250	0.2051983625
866.0345104980	1.0070911646
867.9633178711	0.6195152998
869.8921252441	0.6818049550
871.8209326172	0.6912545562
873.7497399902	0.3024227619
875.6785473633	0.7298123837
877.6073547363	0.4175575376
879.5361621094	0.3272419870
881.4649694824	0.6244156957
883.3937768555	0.4043319523
885.3225842285	0.3741876483
887.2513916016	0.2299227715
889.1801989746	0.3090650439
891.1090063477	0.4788349569
893.0378137207	0.8755019903
894.9666210938	0.9623293281
896.8954284668	0.8746351600
898.8242358398	0.5225458145
900.7530432129	0.9489701390
902.6818505859	1.0335922241
904.6106579590	0.6821164489
906.5394653320	0.7716012597
908.4682727051	0.7019565701
910.3970800781	0.5833842754
912.3258874512	0.7858747244
914.2546948242	0.8881496191
916.1835021973	0.7437604070
918.1123095703	0.6659009457
920.0411169434	0.7102606893
921.9699243164	0.7312668562
923.8987316895	0.8984155059
925.8275390625	1.1479846239
927.7563464355	1.0361869335
929.6851538086	0.8613585234
931.6139611816	0.8890662789
933.5427685547	0.8100638986
935.4715759277	0.8790292144
937.4003833008	1.0029019117
939.3291906738	0.8808195591
941.2579980469	0.9747905135
943.1868054199	0.9021108747
945.1156127930	0.8799590468
947.0444201660	1.0762989521
948.9732275391	1.0394644737
950.9020349121	1.0251183510
952.8308422852	0.9064964652
954.7596496582	0.9177351594
956.6884570313	0.9902121425
958.6172644043	0.8128427267
960.5460717773	0.7518368363
962.4748791504	0.8169320226
964.4036865234	0.9379622340
966.3324938965	0.8496002555
968.2613012695	0.9573598504
970.1901086426	1.0579848289
972.1189160156	0.8924894333
974.0477233887	0.9017913342
975.9765307617	0.8879726529
977.9053381348	0.9345100522
979.8341455078	0.9691985250
981.7629528809	0.9166913629
983.6917602539	1.0057066679
985.6205676270	1.0447297096
987.5493750000	0.9687355757
989.4781823730	0.9587069154
991.4069897461	0.9831233621
993.3357971191	1.0013383627
995.2646044922	1.0158801079
997.1934118652	0.9794024825
999.1222192383	0.9815740585
1001.0510266113	0.9988654256
1002.9798339844	0.9848688245
1004.9086413574	0.9873338938
1006.8374487305	0.9841703773
1008.7662561035	0.9974761605
1010.6950634766	0.9852650762
1012.6238708496	0.9875264764
1014.5526782227	1.0093940496
1016.4814855957	0.9848102331
1018.4102929688	0.9683865309
1020.3391003418	0.9764459133
1022.2679077148	1.0037314892
1024.1967150879	1.0011392832
1026.1255224609	0.9975041747
1028.0543298340	0.9997937083
1029.9831372070	0.9887906909
1031.9119445801	1.0120650530
1033.8407519531	1.0038151741
1035.7695593262	0.9968798161
1037.6983666992	1.0118863583
1039.6271740723	1.0101734400
1041.5559814453	1.0106993914
1043.4847888184	0.9992432594
1045.4135961914	1.0031262636
1047.3424035645	1.0068563223
1049.2712109375	1.0043845177
1051.2000183105	0.9985658526
1053.1288256836	0.9957211018
1055.0576330566	1.0067210197
1056.9864404297	0.9992026687
1058.9152478027	1.0074056387
1060.8440551758	1.0132614374
1062.7728625488	1.0175795555
1064.7016699219	1.0042376518
1066.6304772949	0.9699167013
1068.5592846680	1.0024077892
1070.4880920410	1.0189770460
1072.4168994141	0.9972533584
1074.3457067871	1.0146478415
1076.2745141602	1.0260313749
1078.2033215332	1.0074280500
1080.1321289062	1.0101320744
1082.0609362793	1.0082913637
1083.9897436523	0.9684180021
1085.9185510254	0.9678239822
1087.8473583984	0.9881054163
1089.7761657715	1.0061484575
1091.7049731445	1.0170177221
1093.6337805176	0.9906864762
1095.5625878906	0.9654241800
1097.4913952637	0.9950487018
1099.4202026367	1.0444426537
1101.3490100098	1.0087959766
1103.2778173828	0.9667842984
1105.2066247559	0.9445759058
1107.1354321289	0.9755170345
1109.0642395019	1.0293920040
1110.9930468750	0.9662787914
1112.9218542480	0.9610756040
1114.8506616211	0.9796609879
1116.7794689941	0.9932699203
1118.7082763672	1.0332747698
1120.6370837402	0.9496083260
1122.5658911133	0.9490967393
1124.4946984863	0.9926762581
1126.4235058594	0.9553880692
1128.3523132324	0.9969736934
1130.2811206055	1.0183178186
1132.2099279785	0.9938973784
1134.1387353516	1.0064061880
1136.0675427246	1.0123718977
1137.9963500977	0.9850163460
1139.9251574707	0.9576305747
1141.8539648437	0.9858888984
1143.7827722168	0.9857663512
1145.7115795898	0.9824861884
1147.6403869629	1.0197085142
1149.5691943359	0.9967197180
1151.4980017090	0.9906650186
1153.4268090820	1.0191214085
1155.3556164551	1.0105416775
1157.2844238281	1.0067203045
1159.2132312012	1.0050411224
1161.1420385742	1.0009928942
1163.0708459473	1.0001024008
1164.9996533203	1.0007340908
1166.9284606934	1.0113584995
1168.8572680664	1.0155771971
1170.7860754394	1.0056061745
1172.7148828125	1.0045826435
1174.6436901855	1.0200543404
1176.5724975586	1.0083903074
1178.5013049316	0.9998227954
1180.4301123047	1.0139790773
1182.3589196777	1.0097210407
1184.2877270508	1.0087741613
1186.2165344238	1.0063511133
1188.1453417969	1.0054488182
1190.0741491699	1.0094348192
1192.0029565430	1.0071135759
1193.9317639160	1.0117413998
1195.8605712891	1.0043867826
1197.7893786621	1.0120140314
1199.7181860351	1.0239834785
1201.6469934082	1.0073510408
1203.5758007812	1.0064584017
1205.5046081543	1.0122494698
1207.4334155273	1.0134944916
1209.3622229004	1.0128965378
1211.2910302734	1.0043171644
1213.2198376465	1.0080854893
1215.1486450195	1.0127811432
1217.0774523926	1.0141477585
1219.0062597656	1.0162758827
1220.9350671387	1.0104056597
1222.8638745117	1.0074309111
1224.7926818848	1.0110169649
1226.7214892578	1.0147098303
1228.6502966308	1.0153114796
1230.5791040039	1.0168764591
1232.5079113769	1.0160777569
1234.4367187500	1.0128134489
1236.3655261230	1.0127042532
1238.2943334961	1.0105689764
1240.2231408691	1.0110175610
1242.1519482422	1.0096824169
1244.0807556152	1.0109633207
1246.0095629883	1.0173072815
1247.9383703613	1.0114287138
1249.8671777344	1.0093598366
1251.7959851074	1.0126503706
1253.7247924805	1.0116636753
1255.6535998535	1.0132100582
1257.5824072266	1.0104833841
1259.5112145996	1.0104850531
1261.4400219726	1.0147917271
1263.3688293457	1.0076138973
1265.2976367187	1.0019271374
1267.2264440918	1.0132575035
1269.1552514648	1.0136264563
1271.0840588379	1.0050400496
1273.0128662109	1.0118945837
1274.9416735840	1.0143538713
1276.8704809570	1.0121302605
1278.7992883301	1.0104758739
1280.7280957031	1.0108944178
1282.6569030762	1.0090425014
1284.5857104492	1.0025862455
1286.5145178223	1.0115617514
1288.4433251953	1.0125492811
1290.3721325683	1.0117375851
1292.3009399414	1.0145761967
1294.2297473144	1.0072841644
1296.1585546875	1.0137705803
1298.0873620605	1.0112148523
1300.0161694336	1.0067614317
1301.9449768066	1.0127182007
1303.8737841797	1.0077550411
1305.8025915527	1.0072958469
1307.7313989258	1.0120192766
1309.6602062988	1.0185153484
1311.5890136719	1.0225211382
1313.5178210449	1.0173932314
1315.4466284180	1.0103508234
1317.3754357910	1.0053771734
1319.3042431640	1.0078268051
1321.2330505371	1.0153952837
1323.1618579101	1.0161973238
1325.0906652832	1.0116854906
1327.0194726562	1.0142179728
1328.9482800293	1.0122063160
1330.8770874023	1.0072838068
1332.8058947754	1.0161511898
1334.7347021484	1.0180704594
1336.6635095215	1.0114351511
1338.5923168945	1.0120474100
1340.5211242676	1.0120692253
1342.4499316406	1.0144522190
1344.3787390137	1.0152903795
1346.3075463867	1.0098611116
1348.2363537597	1.0113563538
1350.1651611328	1.0126396418
1352.0939685058	1.0076577663
1354.0227758789	1.0106569529
1355.9515832519	1.0179497004
1357.8803906250	1.0125770569
1359.8091979980	1.0079693794
1361.7380053711	1.0146535635
1363.6668127441	1.0132452250
1365.5956201172	1.0109726191
1367.5244274902	1.0107327700
1369.4532348633	1.0053688288
1371.3820422363	1.0090111494
1373.3108496094	1.0120708942
1375.2396569824	1.0108703375
1377.1684643555	1.0131559372
1379.0972717285	1.0155030489
1381.0260791015	1.0177007914
1382.9548864746	1.0149539709
1384.8836938476	1.0120831728
1386.8125012207	1.0127526522
1388.7413085937	1.0130711794
1390.6701159668	1.0139486790
1392.5989233398	1.0138891935
1394.5277307129	1.0148408413
1396.4565380859	1.0147827864
1398.3853454590	1.0145162344
1400.3141528320	1.0155119896
1402.2429602051	1.0136617422
1404.1717675781	1.0150587559
1406.1005749512	1.0174356699
1408.0293823242	1.0145314932
1409.9581896972	1.0103837252
1411.8869970703	1.0127978325
1413.8158044433	1.0148568153
1415.7446118164	1.0094505548
1417.6734191894	1.0135707855
1419.6022265625	1.0155391693
1421.5310339355	1.0117110014
1423.4598413086	1.0128082037
1425.3886486816	1.0078128576
1427.3174560547	1.0138075352
1429.2462634277	1.0161073208
1431.1750708008	1.0116416216
1433.1038781738	1.0113707781
1435.0326855469	1.0099184513
1436.9614929199	1.0231376886
1438.8903002929	1.0147858858
1440.8191076660	1.0058636665
1442.7479150390	1.0080541372
1444.6767224121	1.0035611391
1446.6055297851	1.0143669844
1448.5343371582	1.0146930218
1450.4631445312	1.0052555799
1452.3919519043	1.0090445280
1454.3207592773	1.0158439875
1456.2495666504	1.0111726522
1458.1783740234	1.0057467222
1460.1071813965	1.0134913921
1462.0359887695	1.0131911039
1463.9647961426	1.0177890062
1465.8936035156	1.0180815458
1467.8224108886	1.0107837915
1469.7512182617	1.0126460791
1471.6800256347	1.0113930702
1473.6088330078	1.0118440390
1475.5376403808	1.0148925781
1477.4664477539	1.0131516457
1479.3952551269	1.0133730173
1481.3240625000	1.0133054256
1483.2528698730	1.0109423399
1485.1816772461	1.0115212202
1487.1104846191	1.0114951134
1489.0392919922	1.0116931200
1490.9680993652	1.0139636993
1492.8969067383	1.0111442804
1494.8257141113	1.0106297731
1496.7545214843	1.0134156942
1498.6833288574	1.0098663568
1500.6121362304	1.0089081526
1502.5409436035	1.0118277073
1504.4697509765	1.0116403103
1506.3985583496	1.0127838850
1508.3273657226	1.0093156099
1510.2561730957	1.0064096451
1512.1849804687	1.0092363358
1514.1137878418	1.0092506409
1516.0425952148	1.0111165047
1517.9714025879	1.0106010437
1519.9002099609	1.0084420443
1521.8290173340	1.0113649368
1523.7578247070	1.0072851181
1525.6866320801	1.0057389736
1527.6154394531	1.0083802938
1529.5442468261	1.0057426691
1531.4730541992	1.0036884546
1533.4018615722	1.0080411434
1535.3306689453	1.0064828396
1537.2594763183	1.0036053658
1539.1882836914	1.0102682114
1541.1170910644	1.0072044134
1543.0458984375	1.0040812492
1544.9747058105	1.0028756857
1546.9035131836	1.0016244650
1548.8323205566	1.0026863813
1550.7611279297	0.9991154671
1552.6899353027	1.0012708902
1554.6187426758	0.9995865822
1556.5475500488	1.0012559891
1558.4763574218	1.0080590248
1560.4051647949	1.0019609928
1562.3339721679	1.0001255274
1564.2627795410	0.9977519512
1566.1915869140	0.9983151555
1568.1203942871	0.9981722236
1570.0492016601	0.9980812073
1571.9780090332	0.9971590042
1573.9068164062	0.9921816587
1575.8356237793	0.9960591793
1577.7644311523	0.9953222871
1579.6932385254	0.9940046668
1581.6220458984	0.9934967756
1583.5508532715	0.9892960191
1585.4796606445	0.9868090153
1587.4084680175	0.9820787311
1589.3372753906	0.9850675464
1591.2660827636	0.9849281311
1593.1948901367	0.9801668525
1595.1236975097	0.9803552032
1597.0525048828	0.9786025882
1598.9813122558	0.9745784402
1600.9101196289	0.9695528150
1602.8389270019	0.9683657885
1604.7677343750	0.9670261145
1606.6965417480	0.9623228312
1608.6253491211	0.9591727257
1610.5541564941	0.9557037354
1612.4829638672	0.9505723715
1614.4117712402	0.9510909915
1616.3405786132	0.9530978203
1618.2693859863	0.9465466142
1620.1981933593	0.9418168068
1622.1270007324	0.9387635589
1624.0558081054	0.9341382384
1625.9846154785	0.9322021604
1627.9134228515	0.9319245219
1629.8422302246	0.9279062748
1631.7710375976	0.9263870120
1633.6998449707	0.9281221628
1635.6286523437	0.9275101423
1637.5574597168	0.9260473847
1639.4862670898	0.9225237966
1641.4150744629	0.9225919843
1643.3438818359	0.9251083732
1645.2726892090	0.9254335165
1647.2014965820	0.9286907911
1649.1303039550	0.9271981120
1651.0591113281	0.9294562936
1652.9879187011	0.9411588311
1654.9167260742	0.9343506098
1656.8455334472	0.9327943325
1658.7743408203	0.9376447201
1660.7031481933	0.9387118220
1662.6319555664	0.9445244670
1664.5607629394	0.9475647807
1666.4895703125	0.9503023624
1668.4183776855	0.9533942342
1670.3471850586	0.9541946054
1672.2759924316	0.9567732811
1674.2047998047	0.9587276578
1676.1336071777	0.9641448259
1678.0624145507	0.9638767242
1679.9912219238	0.9654309154
1681.9200292968	0.9709177613
1683.8488366699	0.9753273726
1685.7776440429	0.9775360227
1687.7064514160	0.9767300487
1689.6352587890	0.9820422530
1691.5640661621	0.9824182391
1693.4928735351	0.9860610962
1695.4216809082	0.9941256046
1697.3504882812	0.9907441735
1699.2792956543	0.9939982891
1701.2081030273	0.9968436360
1703.1369104004	0.9976414442
1705.0657177734	1.0027760267
1706.9945251464	1.0019457340
1708.9233325195	1.0015159845
1710.8521398925	1.0072735548
1712.7809472656	1.0069203377
1714.7097546386	1.0083676577
1716.6385620117	1.0156933069
1718.5673693847	1.0141125917
1720.4961767578	1.0121542215
1722.4249841308	1.0115349293
1724.3537915039	1.0138260126
1726.2825988769	1.0162529945
1728.2114062500	1.0167113543
1730.1402136230	1.0160149336
1732.0690209961	1.0164643526
1733.9978283691	1.0254477262
1735.9266357421	1.0202639103
1737.8554431152	1.0181537867
1739.7842504882	1.0237255096
1741.7130578613	1.0229015350
1743.6418652343	1.0224753618
1745.5706726074	1.0209743977
1747.4994799804	1.0233682394
1749.4282873535	1.0246915817
1751.3570947265	1.0253671408
1753.2859020996	1.0236040354
1755.2147094726	1.0244083405
1757.1435168457	1.0292788744
1759.0723242187	1.0241385698
1761.0011315918	1.0264617205
1762.9299389648	1.0285211802
1764.8587463379	1.0258641243
1766.7875537109	1.0286955833
1768.7163610839	1.0286525488
1770.6451684570	1.0308091640
1772.5739758300	1.0300285816
1774.5027832031	1.0287489891
1776.4315905761	1.0308698416
1778.3603979492	1.0284135342
1780.2892053222	1.0275433064
1782.2180126953	1.0301401615
1784.1468200683	1.0287379026
1786.0756274414	1.0271445513
1788.0044348144	1.0295180082
1789.9332421875	1.0303974152
1791.8620495605	1.0328433514
1793.7908569336	1.0330364704
1795.7196643066	1.0312975645
1797.6484716796	1.0321624279
1799.5772790527	1.0312759876
1801.5060864257	1.0300043821
1803.4348937988	1.0295790434
1805.3637011718	1.0301443338
1807.2925085449	1.0311505795
1809.2213159179	1.0339094400
1811.1501232910	1.0334292650
1813.0789306640	1.0308649540
1815.0077380371	1.0327208042
1816.9365454101	1.0325832367
1818.8653527832	1.0333905220
1820.7941601562	1.0330581665
1822.7229675293	1.0304257870
1824.6517749023	1.0309978724
1826.5805822753	1.0304712057
1828.5093896484	1.0323057175
1830.4381970214	1.0341420174
1832.3670043945	1.0319309235
1834.2958117675	1.0336427689
1836.2246191406	1.0344389677
1838.1534265136	1.0332759619
1840.0822338867	1.0339004993
1842.0110412597	1.0316938162
1843.9398486328	1.0311429501
1845.8686560058	1.0325944424
1847.7974633789	1.0326328278
1849.7262707519	1.0325006247
1851.6550781250	1.0318695307
1853.5838854980	1.0322291851
1855.5126928710	1.0319277048
1857.4415002441	1.0340123177
1859.3703076171	1.0335398912
1861.2991149902	1.0315476656
1863.2279223632	1.0344250202
1865.1567297363	1.0341544151
1867.0855371093	1.0329341888
1869.0143444824	1.0328170061
1870.9431518554	1.0333153009
1872.8719592285	1.0339103937
1874.8007666015	1.0343383551
1876.7295739746	1.0340282917
1878.6583813476	1.0320255756
1880.5871887207	1.0325900316
1882.5159960937	1.0333020687
1884.4448034667	1.0342556238
1886.3736108398	1.0338886976
1888.3024182128	1.0327613354
1890.2312255859	1.0323934555
1892.1600329589	1.0334618092
1894.0888403320	1.0346612930
1896.0176477050	1.0316921473
1897.9464550781	1.0330095291
1899.8752624511	1.0331408978
1901.8040698242	1.0323268175
1903.7328771972	1.0340567827
1905.6616845703	1.0335730314
1907.5904919433	1.0346270800
1909.5192993164	1.0321745872
1911.4481066894	1.0319368839
1913.3769140625	1.0327457190
1915.3057214355	1.0316342115
1917.2345288085	1.0331707001
1919.1633361816	1.0328989029
1921.0921435546	1.0325778723
1923.0209509277	1.0324052572
1924.9497583007	1.0322797298
1926.8785656738	1.0316332579
1928.8073730468	1.0325341225
1930.7361804199	1.0320740938
1932.6649877929	1.0324003696
1934.5937951660	1.0347793102
1936.5226025390	1.0321079493
1938.4514099121	1.0320044756
1940.3802172851	1.0311235189
1942.3090246582	1.0316563845
1944.2378320312	1.0330442190
1946.1666394042	1.0308349133
1948.0954467773	1.0319025517
1950.0242541503	1.0305410624
1951.9530615234	1.0311868191
1953.8818688964	1.0315616131
1955.8106762695	1.0310745239
1957.7394836425	1.0323431492
1959.6682910156	1.0300276279
1961.5970983886	1.0312675238
1963.5259057617	1.0324646235
1965.4547131347	1.0311462879
1967.3835205078	1.0299826860
1969.3123278808	1.0306853056
1971.2411352539	1.0321743488
1973.1699426269	1.0304632187
1975.0987499999	1.0308265686
1977.0275573730	1.0308754444
1978.9563647460	1.0292315483
1980.8851721191	1.0289847851
1982.8139794921	1.0288295746
1984.7427868652	1.0306174755
1986.6715942382	1.0326980352
1988.6004016113	1.0314830542
1990.5292089843	1.0294935703
1992.4580163574	1.0294203758
1994.3868237304	1.0307335854
1996.3156311035	1.0291395187
1998.2444384765	1.0269265175
2000.1732458496	1.0301467180
2002.1020532226	1.0309532881
2004.0308605956	1.0292211771
2005.9596679687	1.0291959047
2007.8884753417	1.0302492380
2009.8172827148	1.0312601328
2011.7460900878	1.0282796621
2013.6748974609	1.0285367966
2015.6037048339	1.0282707214
2017.5325122070	1.0271724463
2019.4613195800	1.0303891897
2021.3901269531	1.0292453766
2023.3189343261	1.0289397240
2025.2477416992	1.0289134979
2027.1765490722	1.0279458761
2029.1053564453	1.0290719271
2031.0341638183	1.0278147459
2032.9629711914	1.0286868811
2034.8917785644	1.0291520357
2036.8205859374	1.0276595354
2038.7493933105	1.0272222757
2040.6782006835	1.0269095898
2042.6070080566	1.0284198523
2044.5358154296	1.0278518200
2046.4646228027	1.0291348696
2048.3934301757	1.0299926996
2050.3222375488	1.0257849693
2052.2510449218	1.0282626152
2054.1798522949	1.0275527239
2056.1086596679	1.0248218775
2058.0374670410	1.0289902687
2059.9662744140	1.0273151398
2061.8950817871	1.0280787945
2063.8238891601	1.0279734135
2065.7526965331	1.0245524645
2067.6815039062	1.0270475149
2069.6103112792	1.0272216797
2071.5391186523	1.0284147263
2073.4679260253	1.0268143415
2075.3967333984	1.0238087177
2077.3255407714	1.0257546902
2079.2543481445	1.0262262821
2081.1831555175	1.0274195671
2083.1119628906	1.0261780024
2085.0407702636	1.0241365433
2086.9695776367	1.0249541998
2088.8983850097	1.0251404047
2090.8271923828	1.0254796743
2092.7559997558	1.0252221823
2094.6848071288	1.0237749815
2096.6136145019	1.0240192413
2098.5424218749	1.0273098946
2100.4712292480	1.0277327299
2102.4000366210	1.0252002478
2104.3288439941	1.0250602961
2106.2576513671	1.0256212950
2108.1864587402	1.0252881050
2110.1152661132	1.0261117220
2112.0440734863	1.0258122683
2113.9728808593	1.0247201920
2115.9016882324	1.0264538527
2117.8304956054	1.0244910717
2119.7593029785	1.0236303806
2121.6881103515	1.0263212919
2123.6169177245	1.0246126652
2125.5457250976	1.0254493952
2127.4745324706	1.0265955925
2129.4033398437	1.0249652863
2131.3321472167	1.0250418186
2133.2609545898	1.0251674652
2135.1897619628	1.0260329247
2137.1185693359	1.0258911848
2139.0473767089	1.0238457918
2140.9761840820	1.0241801739
2142.9049914550	1.0257970095
2144.8337988281	1.0246636868
2146.7626062011	1.0259433985
2148.6914135742	1.0267066956
2150.6202209472	1.0237889290
2152.5490283203	1.0242624283
2154.4778356933	1.0239415169
2156.4066430663	1.0245206356
2158.3354504394	1.0254797935
2160.2642578124	1.0253320932
2162.1930651855	1.0269346237
2164.1218725585	1.0246417522
2166.0506799316	1.0247626305
2167.9794873046	1.0257203579
2169.9082946777	1.0248012543
2171.8371020507	1.0263364315
2173.7659094238	1.0265845060
2175.6947167968	1.0259706974
2177.6235241699	1.0252723694
2179.5523315429	1.0269222260
2181.4811389160	1.0250000954
2183.4099462890	1.0232671499
2185.3387536620	1.0273348093
2187.2675610351	1.0266865492
2189.1963684081	1.0247015953
2191.1251757812	1.0241135359
2193.0539831542	1.0257762671
2194.9827905273	1.0264666080
2196.9115979003	1.0262459517
2198.8404052734	1.0301814079
2200.7692126464	1.0298558474
2202.6980200195	1.0267643929
2204.6268273925	1.0251216888
2206.5556347656	1.0275385380
2208.4844421386	1.0288312435
2210.4132495117	1.0261018276
2212.3420568847	1.0275079012
2214.2708642577	1.0280506611
2216.1996716308	1.0268161297
2218.1284790038	1.0267271996
2220.0572863769	1.0280143023
2221.9860937499	1.0284518003
2223.9149011230	1.0284832716
2225.8437084960	1.0287187099
2227.7725158691	1.0270987749
2229.7013232421	1.0276067257
2231.6301306152	1.0268728733
2233.5589379882	1.0272517204
2235.4877453613	1.0283905268
2237.4165527343	1.0277996063
2239.3453601074	1.0281771421
2241.2741674804	1.0271127224
2243.2029748534	1.0274766684
2245.1317822265	1.0277299881
2247.0605895995	1.0289213657
2248.9893969726	1.0295462608
2250.9182043456	1.0270458460
2252.8470117187	1.0269041061
2254.7758190917	1.0291419029
2256.7046264648	1.0284156799
2258.6334338378	1.0263934135
2260.5622412109	1.0287594795
2262.4910485839	1.0275206566
2264.4198559570	1.0274991989
2266.3486633300	1.0293216705
2268.2774707031	1.0272072554
2270.2062780761	1.0279904604
2272.1350854491	1.0285578966
2274.0638928222	1.0301778316
2275.9927001952	1.0286201239
2277.9215075683	1.0287368298
2279.8503149413	1.0322916508
2281.7791223144	1.0298832655
2283.7079296874	1.0291680098
2285.6367370605	1.0284180641
2287.5655444335	1.0276371241
2289.4943518066	1.0274579525
2291.4231591796	1.0272282362
2293.3519665527	1.0270559788
2295.2807739257	1.0272700787
2297.2095812988	1.0277276039
2299.1383886718	1.0245491266
2301.0671960449	1.0261318684
2302.9960034179	1.0265214443
2304.9248107909	1.0267078876
2306.8536181640	1.0284723043
2308.7824255370	1.0230252743
2310.7112329101	1.0206429958
2312.6400402831	1.0211703777
2314.5688476562	1.0199434757
2316.4976550292	1.0154179335
2318.4264624023	1.0129842758
2320.3552697753	1.0139812231
2322.2840771484	1.0110104084
2324.2128845214	1.0094889402
2326.1416918945	1.0092847347
2328.0704992675	1.0077177286
2329.9993066406	1.0047800541
2331.9281140136	1.0042421818
2333.8569213866	1.0059009790
2335.7857287597	1.0052009821
2337.7145361327	1.0021940470
2339.6433435058	1.0008707047
2341.5721508788	1.0050823689
2343.5009582519	1.0066455603
2345.4297656249	1.0076081753
2347.3585729980	1.0145512819
2349.2873803710	1.0208683014
2351.2161877441	1.0158151388
2353.1449951171	1.0046372414
2355.0738024902	1.0000628233
2357.0026098632	0.9958053827
2358.9314172363	0.9943438172
2360.8602246093	0.9935393929
2362.7890319823	0.9936153293
2364.7178393554	0.9976429343
2366.6466467284	0.9990538359
2368.5754541015	1.0008319616
2370.5042614745	1.0031841993
2372.4330688476	1.0101020336
2374.3618762206	1.0149571896
2376.2906835937	1.0181896687
2378.2194909667	1.0253201723
2380.1482983398	1.0273323059
2382.0771057128	1.0302444696
2384.0059130859	1.0316199064
2385.9347204589	1.0313160419
2387.8635278320	1.0342916250
2389.7923352050	1.0321781635
2391.7211425780	1.0314034224
2393.6499499511	1.0320558548
2395.5787573241	1.0304085016
2397.5075646972	1.0312069654
2399.4363720702	1.0310645103
2401.3651794433	1.0304923058
2403.2939868163	1.0309890509
2405.2227941894	1.0322262049
2407.1516015624	1.0312291384
2409.0804089355	1.0293083191
2411.0092163085	1.0308439732
2412.9380236816	1.0301573277
2414.8668310546	1.0316092968
2416.7956384277	1.0338476896
2418.7244458007	1.0309861898
2420.6532531738	1.0310966969
2422.5820605468	1.0331918001
2424.5108679198	1.0335462093
2426.4396752929	1.0317569971
2428.3684826659	1.0323853493
2430.2972900390	1.0336377621
2432.2260974120	1.0303102732
2434.1549047851	1.0312188864
2436.0837121581	1.0342636108
2438.0125195312	1.0335103273
2439.9413269042	1.0317199230
2441.8701342773	1.0317367315
2443.7989416503	1.0341603756
2445.7277490234	1.0344685316
2447.6565563964	1.0321216583
2449.5853637695	1.0323773623
2451.5141711425	1.0335366726
2453.4429785155	1.0317957401
2455.3717858886	1.0320768356
2457.3005932616	1.0334517956
2459.2294006347	1.0328183174
2461.1582080077	1.0323470831
2463.0870153808	1.0330168009
2465.0158227538	1.0339484215
2466.9446301269	1.0347614288
2468.8734374999	1.0337710381
2470.8022448730	1.0322296619
2472.7310522460	1.0354768038
2474.6598596191	1.0333496332
2476.5886669921	1.0317068100
2478.5174743652	1.0338898897
2480.4462817382	1.0304893255
2482.3750891112	1.0344742537
2484.3038964843	1.0338678360
2486.2327038573	1.0298119783
2488.1615112304	1.0340462923
2490.0903186034	1.0337293148
2492.0191259765	1.0332409143
2493.9479333495	1.0332797766
2495.8767407226	1.0327404737
2497.8055480956	1.0324940681
2499.7343554687	1.0336358547
2501.6631628417	1.0351947546
2503.5919702148	1.0336246490
2505.5207775878	1.0315983295
2507.4495849609	1.0317353010
2509.3783923339	1.0354439020
2511.3071997069	1.0332946777
2513.2360070800	1.0345301628
2515.1648144530	1.0373901129
2517.0936218261	1.0317206383
2519.0224291991	1.0335962772
2520.9512365722	1.0350837708
2522.8800439452	1.0334944725
2524.8088513183	1.0354142189
2526.7376586913	1.0339792967
2528.6664660644	1.0318925381
2530.5952734374	1.0331561565
2532.5240808105	1.0351442099
2534.4528881835	1.0343663692
2536.3816955566	1.0329082012
2538.3105029296	1.0325728655
2540.2393103027	1.0324038267
2542.1681176757	1.0304809809
2544.0969250487	1.0320088863
2546.0257324218	1.0336984396
2547.9545397948	1.0315948725
2549.8833471679	1.0327224731
2551.8121545409	1.0324434042
2553.7409619140	1.0328662395
2555.6697692870	1.0331374407
2557.5985766601	1.0320470333
2559.5273840331	1.0325835943
2561.4561914062	1.0323656797
2563.3849987792	1.0338338614
2565.3138061523	1.0318281651
2567.2426135253	1.0313615799
2569.1714208984	1.0343860388
2571.1002282714	1.0345617533
2573.0290356444	1.0342179537
2574.9578430175	1.0330466032
2576.8866503905	1.0334745646
2578.8154577636	1.0337634087
2580.7442651366	1.0334118605
2582.6730725097	1.0341063738
2584.6018798827	1.0341536999
2586.5306872558	1.0331246853
2588.4594946288	1.0329718590
2590.3883020019	1.0337784290
2592.3171093749	1.0331354141
2594.2459167480	1.0328299999
2596.1747241210	1.0315358639
2598.1035314941	1.0316927433
2600.0323388671	1.0328230858
2601.9611462401	1.0343962908
2603.8899536132	1.0355494022
2605.8187609862	1.0314996243
2607.7475683593	1.0323628187
2609.6763757323	1.0341370106
2611.6051831054	1.0323234797
2613.5339904784	1.0323008299
2615.4627978515	1.0308539867
2617.3916052245	1.0323430300
2619.3204125976	1.0327771902
2621.2492199706	1.0323920250
2623.1780273437	1.0347448587
2625.1068347167	1.0340713263
2627.0356420898	1.0332014561
2628.9644494628	1.0325026512
2630.8932568358	1.0329644680
2632.8220642089	1.0331451893
2634.7508715819	1.0322819948
2636.6796789550	1.0333533287
2638.6084863280	1.0317398310
2640.5372937011	1.0331631899
2642.4661010741	1.0369025469
2644.3949084472	1.0347708464
2646.3237158202	1.0342549086
2648.2525231933	1.0341352224
2650.1813305663	1.0319020748
2652.1101379394	1.0336472988
2654.0389453124	1.0338840485
2655.9677526855	1.0317013264
2657.8965600585	1.0323897600
2659.8253674315	1.0331554413
2661.7541748046	1.0334386826
2663.6829821776	1.0318452120
2665.6117895507	1.0309277773
2667.5405969237	1.0324046612
2669.4694042968	1.0327501297
2671.3982116698	1.0354479551
2673.3270190429	1.0350102186
2675.2558264159	1.0324646235
2677.1846337890	1.0339678526
2679.1134411620	1.0340479612
2681.0422485351	1.0324133635
2682.9710559081	1.0308169127
2684.8998632812	1.0329531431
2686.8286706542	1.0329800844
2688.7574780273	1.0306315422
2690.6862854003	1.0335613489
2692.6150927733	1.0344339609
2694.5439001464	1.0312932730
2696.4727075194	1.0311008692
2698.4015148925	1.0350039005
2700.3303222655	1.0330592394
2702.2591296386	1.0325071812
2704.1879370116	1.0346838236
2706.1167443847	1.0312592983
2708.0455517577	1.0327975750
2709.9743591308	1.0324221849
2711.9031665038	1.0325134993
2713.8319738769	1.0335615873
2715.7607812499	1.0325458050
2717.6895886230	1.0353796482
2719.6183959960	1.0320231915
2721.5472033690	1.0305042267
2723.4760107421	1.0315299034
2725.4048181151	1.0324075222
2727.3336254882	1.0317790508
2729.2624328612	1.0289870501
2731.1912402343	1.0320461988
2733.1200476073	1.0291631222
2735.0488549804	1.0300022364
2736.9776623534	1.0351511240
2738.9064697265	1.0305260420
2740.8352770995	1.0282384157
2742.7640844726	1.0306570530
2744.6928918456	1.0315908194
2746.6216992187	1.0309836864
2748.5505065917	1.0317292213
2750.4793139647	1.0302288532
2752.4081213378	1.0300356150
2754.3369287108	1.0314766169
2756.2657360839	1.0270305872
2758.1945434569	1.0273096561
2760.1233508300	1.0325684547
2762.0521582030	1.0314718485
2763.9809655761	1.0289868116
2765.9097729491	1.0296795368
2767.8385803222	1.0295408964
2769.7673876952	1.0305595398
2771.6961950683	1.0301659107
2773.6250024413	1.0300236940
2775.5538098144	1.0302860737
2777.4826171874	1.0277055502
2779.4114245604	1.0307751894
2781.3402319335	1.0300039053
2783.2690393065	1.0287077427
2785.1978466796	1.0323003531
2787.1266540526	1.0306975842
2789.0554614257	1.0310362577
2790.9842687987	1.0298981667
2792.9130761718	1.0286360979
2794.8418835448	1.0298342705
2796.7706909179	1.0280205011
2798.6994982909	1.0271427631
2800.6283056640	1.0275256634
2802.5571130370	1.0276122093
2804.4859204101	1.0276128054
2806.4147277831	1.0292073488
2808.3435351562	1.0286859274
2810.2723425292	1.0285683870
2812.2011499022	1.0298126936
2814.1299572753	1.0298801661
2816.0587646483	1.0316678286
2817.9875720214	1.0279179811
2819.9163793944	1.0251327753
2821.8451867675	1.0271527767
2823.7739941405	1.0254136324
2825.7028015136	1.0267680883
2827.6316088866	1.0275357962
2829.5604162597	1.0230861902
2831.4892236327	1.0244290829
2833.4180310058	1.0274667740
2835.3468383788	1.0238609314
2837.2756457519	1.0214018822
2839.2044531249	1.0247000456
2841.1332604979	1.0251410007
2843.0620678710	1.0223439932
2844.9908752440	1.0231298208
2846.9196826171	1.0217812061
2848.8484899901	1.0218670368
2850.7772973632	1.0227875710
2852.7061047362	1.0206938982
2854.6349121093	1.0241252184
2856.5637194823	1.0229951143
2858.4925268554	1.0218302011
2860.4213342284	1.0242222548
2862.3501416015	1.0206847191
2864.2789489745	1.0219638348
2866.2077563476	1.0230060816
2868.1365637206	1.0199526548
2870.0653710936	1.0223928690
2871.9941784667	1.0233772993
2873.9229858397	1.0186059475
2875.8517932128	1.0194774866
2877.7806005858	1.0189597607
2879.7094079589	1.0170722008
2881.6382153319	1.0256643295
2883.5670227050	1.0235478878
2885.4958300780	1.0167402029
2887.4246374511	1.0191781521
2889.3534448241	1.0205719471
2891.2822521972	1.0207912922
2893.2110595702	1.0193244219
2895.1398669433	1.0221436024
2897.0686743163	1.0197438002
2898.9974816893	1.0148229599
2900.9262890624	1.0177426338
2902.8550964354	1.0153317451
2904.7839038085	1.0139709711
2906.7127111815	1.0154857635
2908.6415185546	1.0162589550
2910.5703259276	1.0162348747
2912.4991333007	1.0132429600
2914.4279406737	1.0135790110
2916.3567480468	1.0133117437
2918.2855554198	1.0132914782
2920.2143627929	1.0146112442
2922.1431701659	1.0121380091
2924.0719775390	1.0106337070
2926.0007849120	1.0105804205
2927.9295922851	1.0111781359
2929.8583996581	1.0135182142
2931.7872070311	1.0139455795
2933.7160144042	1.0121567249
2935.6448217772	1.0103253126
2937.5736291503	1.0084084272
2939.5024365233	1.0096555948
2941.4312438964	1.0121467113
2943.3600512694	1.0100345612
2945.2888586425	1.0102313757
2947.2176660155	1.0111415386
2949.1464733886	1.0092859268
2951.0752807616	1.0091911554
2953.0040881347	1.0080740452
2954.9328955077	1.0105611086
2956.8617028808	1.0090363026
2958.7905102538	1.0054334402
2960.7193176268	1.0099765062
2962.6481249999	1.0079170465
2964.5769323729	1.0043910742
2966.5057397460	1.0043326616
2968.4345471190	1.0065480471
2970.3633544921	1.0064777136
2972.2921618651	1.0025449991
2974.2209692382	1.0078148842
2976.1497766112	1.0072883368
2978.0785839843	1.0027258396
2980.0073913573	1.0030364990
2981.9361987304	1.0028665066
2983.8650061034	1.0032228231
2985.7938134765	1.0011678934
2987.7226208495	1.0026994944
2989.6514282225	1.0003306866
2991.5802355956	0.9962564111
2993.5090429686	0.9972058535
2995.4378503417	0.9955553412
2997.3666577147	0.9943097830
2999.2954650878	0.9954720140
3001.2242724608	0.9970158339
3003.1530798339	0.9926416874
3005.0818872069	0.9915012121
3007.0106945800	0.9936761856
3008.9395019530	0.9906569719
3010.8683093261	0.9924114347
3012.7971166991	0.9936589599
3014.7259240722	0.9903153777
3016.6547314452	0.9897995591
3018.5835388182	0.9911531210
3020.5123461913	0.9907107353
3022.4411535643	0.9892287254
3024.3699609374	0.9857532978
3026.2987683104	0.9858356714
3028.2275756835	0.9875248075
3030.1563830565	0.9836474657
3032.0851904296	0.9843071103
3034.0139978026	0.9838949442
3035.9428051757	0.9817532301
3037.8716125487	0.9813970327
3039.8004199218	0.9801593423
3041.7292272948	0.9804280400
3043.6580346679	0.9769444466
3045.5868420409	0.9787741899
3047.5156494139	0.9804157019
3049.4444567870	0.9733449817
3051.3732641600	0.9708305597
3053.3020715331	0.9729378223
3055.2308789061	0.9717816114
3057.1596862792	0.9713526368
3059.0884936522	0.9712586999
3061.0173010253	0.9653869271
3062.9461083983	0.9663220644
3064.8749157714	0.9682470560
3066.8037231444	0.9669359326
3068.7325305175	0.9648863077
3070.6613378905	0.9593163729
3072.5901452636	0.9636218548
3074.5189526366	0.9622372985
3076.4477600097	0.9563617706
3078.3765673827	0.9569228292
3080.3053747557	0.9544041753
3082.2341821288	0.9544728994
3084.1629895018	0.9554879665
3086.0917968749	0.9556892514
3088.0206042479	0.9517551661
3089.9494116210	0.9477109313
3091.8782189940	0.9462572336
3093.8070263671	0.9459625483
3095.7358337401	0.9475791454
3097.6646411132	0.9438574314
3099.5934484862	0.9438812733
3101.5222558593	0.9428711534
3103.4510632323	0.9381249547
3105.3798706054	0.9392341375
3107.3086779784	0.9395334125
3109.2374853514	0.9374235272
3111.1662927245	0.9322095513
3113.0951000975	0.9299384356
3115.0239074706	0.9315512776
3116.9527148436	0.9296004176
3118.8815222167	0.9277680516
3120.8103295897	0.9254647493
3122.7391369628	0.9238170981
3124.6679443358	0.9226154685
3126.5967517089	0.9184669256
3128.5255590819	0.9185969234
3130.4543664550	0.9161040187
3132.3831738280	0.9115371108
3134.3119812011	0.9135186076
3136.2407885741	0.9087125659
3138.1695959471	0.9061741233
3140.0984033202	0.9089975357
3142.0272106932	0.9067602754
3143.9560180663	0.9034053087
3145.8848254393	0.8991448283
3147.8136328124	0.9010280967
3149.7424401854	0.8995880485
3151.6712475585	0.8931257129
3153.6000549315	0.8932052255
3155.5288623046	0.8947823048
3157.4576696776	0.8909656405
3159.3864770507	0.8855156898
3161.3152844237	0.8863471150
3163.2440917968	0.8820864558
3165.1728991698	0.8813646436
3167.1017065428	0.8814603686
3169.0305139159	0.8743432760
3170.9593212889	0.8773300052
3172.8881286620	0.8743265271
3174.8169360350	0.8690394759
3176.7457434081	0.8695032001
3178.6745507811	0.8691346049
3180.6033581542	0.8682184815
3182.5321655272	0.8613975048
3184.4609729003	0.8595781922
3186.3897802733	0.8564981222
3188.3185876464	0.8553701043
3190.2473950194	0.8573532701
3192.1762023925	0.8514750004
3194.1050097655	0.8524501324
3196.0338171386	0.8509738445
3197.9626245116	0.8462064862
3199.8914318846	0.8474978209
3201.8202392577	0.8453301787
3203.7490466307	0.8442004323
3205.6778540038	0.8416510820
3207.6066613768	0.8390480876
3209.5354687499	0.8404988647
3211.4642761229	0.8366892338
3213.3930834960	0.8321588039
3215.3218908690	0.8321832418
3217.2506982421	0.8337453604
3219.1795056151	0.8287706971
3221.1083129882	0.8254960775
3223.0371203612	0.8312354088
3224.9659277343	0.8262597322
3226.8947351073	0.8229889870
3228.8235424803	0.8234694600
3230.7523498534	0.8188962340
3232.6811572264	0.8236396313
3234.6099645995	0.8229287267
3236.5387719725	0.8197951317
3238.4675793456	0.8191718459
3240.3963867186	0.8141792417
3242.3251940917	0.8136729002
3244.2540014647	0.8154022098
3246.1828088378	0.8178703785
3248.1116162108	0.8168732524
3250.0404235839	0.8140084743
3251.9692309569	0.8136994839
3253.8980383300	0.8124787211
3255.8268457030	0.8043451905
3257.7556530760	0.8035504222
3259.6844604491	0.8128315806
3261.6132678221	0.8097910285
3263.5420751952	0.8083801270
3265.4708825682	0.8057111502
3267.3996899413	0.8039309382
3269.3284973143	0.8074715137
3271.2573046874	0.8016840219
3273.1861120604	0.8027519584
3275.1149194335	0.8026042581
3277.0437268065	0.8017080426
3278.9725341796	0.8020944595
3280.9013415526	0.8017199636
3282.8301489257	0.8047205210
3284.7589562987	0.8011728525
3286.6877636717	0.8028768301
3288.6165710448	0.8005862832
3290.5453784178	0.8007978797
3292.4741857909	0.8035026193
3294.4029931639	0.7977135777
3296.3318005370	0.7995521426
3298.2606079100	0.7973143458
3300.1894152831	0.7973992229
3302.1182226561	0.8000029922
3304.0470300292	0.7973440886
3305.9758374022	0.7946689725
3307.9046447753	0.7940419316
3309.8334521483	0.7980440855
3311.7622595214	0.7970633507
3313.6910668944	0.7980372906
3315.6198742675	0.7948751450
3317.5486816405	0.7914450765
3319.4774890135	0.7943475246
3321.4062963866	0.7900061607
3323.3351037596	0.7909736037
3325.2639111327	0.7941783071
3327.1927185057	0.7893116474
3329.1215258788	0.7879792452
3331.0503332518	0.7906692624
3332.9791406249	0.7892450094
3334.9079479979	0.7907619476
3336.8367553710	0.7867240310
3338.7655627440	0.7832133174
3340.6943701171	0.7910723090
3342.6231774901	0.7879270315
3344.5519848632	0.7883099318
3346.4807922362	0.7877571583
3348.4095996092	0.7845043540
3350.3384069823	0.7907595634
3352.2672143553	0.7886504531
3354.1960217284	0.7893146873
3356.1248291014	0.7873572111
3358.0536364745	0.7870079875
3359.9824438475	0.7906169295
3361.9112512206	0.7864235044
3363.8400585936	0.7891254425
3365.7688659667	0.7893496156
3367.6976733397	0.7864060402
3369.6264807128	0.7895376086
3371.5552880858	0.7895255089
3373.4840954589	0.7851172686
3375.4129028319	0.7867414355
3377.3417102049	0.7883242369
3379.2705175780	0.7880769968
3381.1993249510	0.7893056273
3383.1281323241	0.7884271145
3385.0569396971	0.7903456688
3386.9857470702	0.7882680893
3388.9145544432	0.7914633155
3390.8433618163	0.7907156944
3392.7721691893	0.7894913554
3394.7009765624	0.7951143384
3396.6297839354	0.7893000841
3398.5585913085	0.7968809605
3400.4873986815	0.7980350256
3402.4162060546	0.7919130921
3404.3450134276	0.7998065352
3406.2738208006	0.8032217622
3408.2026281737	0.8015381694
3410.1314355467	0.7959402800
3412.0602429198	0.8005728722
3413.9890502928	0.7989580035
3415.9178576659	0.7989103198
3417.8466650389	0.8066248298
3419.7754724120	0.8037269115
3421.7042797850	0.8080641031
3423.6330871581	0.8058472276
3425.5618945311	0.8057082295
3427.4907019042	0.8128365874
3429.4195092772	0.8148254156
3431.3483166503	0.8162041903
3433.2771240233	0.8166851997
3435.2059313963	0.8175009489
3437.1347387694	0.8149449229
3439.0635461424	0.8157144189
3440.9923535155	0.8157663941
3442.9211608885	0.8208451271
3444.8499682616	0.8249825835
3446.7787756346	0.8252826929
3448.7075830077	0.8271754384
3450.6363903807	0.8269019723
3452.5651977538	0.8330426812
3454.4940051268	0.8280115128
3456.4228124999	0.8301389813
3458.3516198729	0.8369740248
3460.2804272460	0.8362390399
3462.2092346190	0.8404148221
3464.1380419921	0.8374807835
3466.0668493651	0.8412128091
3467.9956567381	0.8395111561
3469.9244641112	0.8419963717
3471.8532714842	0.8477976322
3473.7820788573	0.8447795510
3475.7108862303	0.8502605557
3477.6396936034	0.8465316892
3479.5685009764	0.8482068181
3481.4973083495	0.8530403972
3483.4261157225	0.8529627919
3485.3549230956	0.8540826440
3487.2837304686	0.8579317927
3489.2125378417	0.8645846844
3491.1413452147	0.8603957295
3493.0701525878	0.8668038845
3494.9989599608	0.8674107194
3496.9277673338	0.8640975356
3498.8565747069	0.8705881834
3500.7853820799	0.8663129210
3502.7141894530	0.8682054877
3504.6429968260	0.8718824983
3506.5718041991	0.8744318485
3508.5006115721	0.8781479001
3510.4294189452	0.8822267652
3512.3582263182	0.8836590052
3514.2870336913	0.8781009316
3516.2158410643	0.8804758787
3518.1446484374	0.8831208348
3520.0734558104	0.8882407546
3522.0022631835	0.8904080987
3523.9310705565	0.8883982301
3525.8598779295	0.8922998905
3527.7886853026	0.8917563558
3529.7174926756	0.8946227431
3531.6463000487	0.8958308101
3533.5751074217	0.8951076269
3535.5039147948	0.8951453567
3537.4327221678	0.8971692324
3539.3615295409	0.9038489461
3541.2903369139	0.8993694186
3543.2191442870	0.9012551308
3545.1479516600	0.9066711664
3547.0767590331	0.9039217234
3549.0055664061	0.9067330360
3550.9343737792	0.9081511497
3552.8631811522	0.9126895070
3554.7919885252	0.9157677293
3556.7207958983	0.9166774154
3558.6496032713	0.9204340577
3560.5784106444	0.9198343754
3562.5072180174	0.9207748175
3564.4360253905	0.9250161052
3566.3648327635	0.9293768406
3568.2936401366	0.9251849651
3570.2224475096	0.9259392619
3572.1512548827	0.9324352145
3574.0800622557	0.9310947061
3576.0088696288	0.9320486188
3577.9376770018	0.9326293468
3579.8664843749	0.9343425035
3581.7952917479	0.9358150959
3583.7240991210	0.9391308427
3585.6529064940	0.9406367540
3587.5817138670	0.9344876409
3589.5105212401	0.9399307966
3591.4393286131	0.9419578314
3593.3681359862	0.9434881210
3595.2969433592	0.9491742849
3597.2257507323	0.9475573301
3599.1545581053	0.9501659870
3601.0833654784	0.9495933056
3603.0121728514	0.9486530423
3604.9409802245	0.9521573186
3606.8697875975	0.9552374482
3608.7985949706	0.9551369548
3610.7274023436	0.9526717067
3612.6562097167	0.9586533308
3614.5850170897	0.9608414769
3616.5138244627	0.9546060562
3618.4426318358	0.9575509429
3620.3714392088	0.9646395445
3622.3002465819	0.9641951323
3624.2290539549	0.9654511213
3626.1578613280	0.9646578431
3628.0866687010	0.9671903253
3630.0154760741	0.9736926556
3631.9442834471	0.9702252150
3633.8730908202	0.9735650420
3635.8018981932	0.9763646722
3637.7307055663	0.9743337035
3639.6595129393	0.9758148789
3641.5883203124	0.9785766602
3643.5171276854	0.9784499407
3645.4459350584	0.9772707224
3647.3747424315	0.9842991233
3649.3035498045	0.9861122370
3651.2323571776	0.9859830737
3653.1611645506	0.9865542054
3655.0899719237	0.9850180745
3657.0187792967	0.9894878864
3658.9475866698	0.9882683158
3660.8763940428	0.9908216596
3662.8052014159	0.9939581752
3664.7340087889	0.9915740490
3666.6628161620	0.9945821762
3668.5916235350	0.9969141483
3670.5204309081	0.9955515265
3672.4492382811	0.9972773194
3674.3780456541	1.0068149567
3676.3068530272	1.0080389977
3678.2356604002	1.0028301477
3680.1644677733	1.0078374147
3682.0932751463	1.0065833330
3684.0220825194	1.0070048571
3685.9508898924	1.0100425482
3687.8796972655	1.0057855844
3689.8085046385	1.0064898729
3691.7373120116	1.0129849911
3693.6661193846	1.0118459463
3695.5949267577	1.0106618404
3697.5237341307	1.0130010843
3699.4525415038	1.0110154152
3701.3813488768	1.0120612383
3703.3101562499	1.0135414600
3705.2389636229	1.0140178204
3707.1677709959	1.0152502060
3709.0965783690	1.0148299932
3711.0253857420	1.0172798634
3712.9541931151	1.0111639500
3714.8830004881	1.0097998381
3716.8118078612	1.0133397579
3718.7406152342	1.0116688013
3720.6694226073	1.0171788931
3722.5982299803	1.0155936480
3724.5270373534	1.0159256458
3726.4558447264	1.0216202736
3728.3846520995	1.0151721239
3730.3134594725	1.0183933973
3732.2422668456	1.0240114927
3734.1710742186	1.0185813904
3736.0998815916	1.0131795406
3738.0286889647	1.0175869465
3739.9574963377	1.0209486485
3741.8863037108	1.0176719427
3743.8151110838	1.0207301378
3745.7439184569	1.0183408260
3747.6727258299	1.0155516863
3749.6015332030	1.0186684132
3751.5303405760	1.0253297091
3753.4591479491	1.0239467621
3755.3879553221	1.0175778866
3757.3167626952	1.0232647657
3759.2455700682	1.0190095901
3761.1743774413	1.0127465725
3763.1031848143	1.0183899403
3765.0319921873	1.0171767473
3766.9607995604	1.0185903311
3768.8896069334	1.0229455233
3770.8184143065	1.0190792084
3772.7472216795	1.0164614916
3774.6760290526	1.0212979317
3776.6048364256	1.0198897123
3778.5336437987	1.0177720785
3780.4624511717	1.0134580135
3782.3912585448	1.0102647543
3784.3200659178	1.0163158178
3786.2488732909	1.0159938335
3788.1776806639	1.0209001303
3790.1064880370	1.0225000381
3792.0352954100	1.0169979334
3793.9641027830	1.0186263323
3795.8929101561	1.0172781944
3797.8217175291	1.0198667049
3799.7505249022	1.0239715576
3801.6793322752	1.0220466852
3803.6081396483	1.0208081007
3805.5369470213	1.0238201618
3807.4657543944	1.0172896385
3809.3945617674	1.0183408260
3811.3233691405	1.0196462870
3813.2521765135	1.0115091801
3815.1809838866	1.0201594830
3817.1097912596	1.0172160864
3819.0385986327	1.0149850845
3820.9674060057	1.0190390348
3822.8962133787	1.0147665739
3824.8250207518	1.0205609798
3826.7538281248	1.0208544731
3828.6826354979	1.0231455564
3830.6114428709	1.0204195976
3832.5402502440	1.0154420137
3834.4690576170	1.0182136297
3836.3978649901	1.0208507776
3838.3266723631	1.0260379314
3840.2554797362	1.0210576057
3842.1842871092	1.0197345018
3844.1130944823	1.0167927742
3846.0419018553	1.0169296265
3847.9707092284	1.0157305002
3849.8995166014	1.0157496929
3851.8283239745	1.0260760784
3853.7571313475	1.0212334394
3855.6859387205	1.0199058056
3857.6147460936	1.0205171108
3859.5435534666	1.0177316666
3861.4723608397	1.0149543285
3863.4011682127	1.0151259899
3865.3299755858	1.0222827196
3867.2587829588	1.0156636238
3869.1875903319	1.0139120817
3871.1163977049	1.0142890215
3873.0452050780	1.0146404505
3874.9740124510	1.0188471079
3876.9028198241	1.0207525492
3878.8316271971	1.0195276737
3880.7604345702	1.0113466978
3882.6892419432	1.0127341747
3884.6180493162	1.0138581991
3886.5468566893	1.0182979107
3888.4756640623	1.0212920904
3890.4044714354	1.0176227093
3892.3332788084	1.0174635649
3894.2620861815	1.0166424513
3896.1908935545	1.0157451630
3898.1197009276	1.0156898499
3900.0485083006	1.0228430033
3901.9773156737	1.0180258751
3903.9061230467	1.0157854557
3905.8349304198	1.0188176632
3907.7637377928	1.0125814676
3909.6925451659	1.0176458359
3911.6213525389	1.0184711218
3913.5501599119	1.0223968029
3915.4789672850	1.0180706978
3917.4077746580	1.0166226625
3919.3365820311	1.0244671106
3921.2653894041	1.0103851557
3923.1941967772	1.0162762403
3925.1230041502	1.0182772875
3927.0518115233	1.0102530718
3928.9806188963	1.0162426233
3930.9094262694	1.0162872076
3932.8382336424	1.0187712908
3934.7670410155	1.0195068121
3936.6958483885	1.0230526924
3938.6246557616	1.0177885294
3940.5534631346	1.0127593279
3942.4822705076	1.0160835981
3944.4110778807	1.0107952356
3946.3398852537	1.0139149427
3948.2686926268	1.0150330067
3950.1974999998	1.0141712427
3952.1263073729	1.0159715414
3954.0551147459	1.0112599134
3955.9839221190	1.0124006271
3957.9127294920	1.0177917480
3959.8415368651	1.0122979879
3961.7703442381	1.0118964911
3963.6991516112	1.0191897154
3965.6279589842	1.0099362135
3967.5567663573	1.0131186247
3969.4855737303	1.0215703249
3971.4143811034	1.0155797005
3973.3431884764	1.0168697834
3975.2719958494	1.0176066160
3977.2008032225	1.0184911489
3979.1296105955	1.0165607929
3981.0584179686	1.0167447329
3982.9872253416	1.0186620951
3984.9160327147	1.0150914192
3986.8448400877	1.0151845217
3988.7736474608	1.0118503571
3990.7024548338	1.0115092993
3992.6312622069	1.0137789249
3994.5600695799	1.0115802288
3996.4888769530	1.0112427473
3998.4176843260	1.0180255175
4000.3464916991	1.0174053907
4002.2752990721	1.0133404732
4004.2041064451	1.0182650089
4006.1329138182	1.0130523443
4008.0617211912	1.0177669525
4009.9905285643	1.0218322277
4011.9193359373	1.0130782127
4013.8481433104	1.0160559416
4015.7769506834	1.0178196430
4017.7057580565	1.0185315609
4019.6345654295	1.0130341053
4021.5633728026	1.0131909847
4023.4921801756	1.0205495358
4025.4209875487	1.0167200565
4027.3497949217	1.0151823759
4029.2786022948	1.0162128210
4031.2074096678	1.0171424150
4033.1362170408	1.0163822174
4035.0650244139	1.0164774656
4036.9938317869	1.0120565891
4038.9226391600	1.0149363279
4040.8514465330	1.0241432190
4042.7802539061	1.0153918266
4044.7090612791	1.0114785433
4046.6378686522	1.0145134926
4048.5666760252	1.0173554420
4050.4954833983	1.0153657198
4052.4242907713	1.0146497488
4054.3530981444	1.0208183527
4056.2819055174	1.0164108276
4058.2107128905	1.0173393488
4060.1395202635	1.0170339346
4062.0683276365	1.0144664049
4063.9971350096	1.0165780783
4065.9259423826	1.0176149607
4067.8547497557	1.0182060003
4069.7835571287	1.0127682686
4071.7123645018	1.0159550905
4073.6411718748	1.0133539438
4075.5699792479	1.0089132786
4077.4987866209	1.0140596628
4079.4275939940	1.0148895979
4081.3564013670	1.0205845833
4083.2852087401	1.0127443075
4085.2140161131	1.0029281378
4087.1428234862	1.0143573284
4089.0716308592	1.0174062252
4091.0004382323	1.0130362511
4092.9292456053	1.0152769089
4094.8580529783	1.0137743950
4096.7868603514	1.0138560534
4098.7156677244	1.0110554695
4100.6444750975	1.0065249205
4102.5732824705	1.0156677961
4104.5020898436	1.0193760395
4106.4308972166	1.0141030550
4108.3597045897	1.0141334534
4110.2885119627	1.0202769041
4112.2173193358	1.0184742212
4114.1461267088	1.0082249641
4116.0749340819	1.0119190216
4118.0037414549	1.0127950907
4119.9325488280	1.0108386278
4121.8613562010	1.0186574459
4123.7901635740	1.0174820423
4125.7189709471	1.0141240358
4127.6477783201	1.0200875998
4129.5765856932	1.0153779984
4131.5053930662	1.0072793961
4133.4342004393	1.0175542831
4135.3630078123	1.0143959522
4137.2918151854	1.0090367794
4139.2206225584	1.0152851343
4141.1494299315	1.0095897913
4143.0782373045	1.0154594183
4145.0070446776	1.0155693293
4146.9358520506	1.0023829937
4148.8646594237	1.0080981255
4150.7934667967	1.0153332949
4152.7222741697	1.0123952627
4154.6510815428	1.0112301111
4156.5798889158	1.0148622990
4158.5086962889	1.0184760094
4160.4375036619	1.0116654634
4162.3663110350	1.0073647499
4164.2951184080	1.0171113014
4166.2239257811	1.0193258524
4168.1527331541	1.0232701302
4170.0815405272	1.0237354040
4172.0103479002	1.0131462812
4173.9391552733	1.0156164169
4175.8679626463	1.0154997110
4177.7967700194	1.0147867203
4179.7255773924	1.0124083757
4181.6543847654	1.0077524185
4183.5831921385	1.0087367296
4185.5119995115	1.0089387894
4187.4408068846	1.0145096779
4189.3696142576	1.0102084875
4191.2984216307	1.0102905035
4193.2272290037	1.0139279366
4195.1560363768	1.0115541220
4197.0848437498	1.0098758936
4199.0136511229	1.0056470633
4200.9424584959	1.0159190893
4202.8712658690	1.0119013786
4204.8000732420	1.0081921816
4206.7288806151	1.0175880194
4208.6576879881	1.0107556581
4210.5864953611	1.0084233284
4212.5153027342	1.0030714273
4214.4441101072	1.0046352148
4216.3729174803	1.0126715899
4218.3017248533	1.0102329254
4220.2305322264	1.0090473890
4222.1593395994	1.0081181526
4224.0881469725	1.0112669468
4226.0169543455	1.0114778280
4227.9457617186	1.0139937401
4229.8745690916	1.0088299513
4231.8033764647	1.0040779114
4233.7321838377	1.0134296417
4235.6609912108	1.0082025528
4237.5897985838	1.0124493837
4239.5186059569	1.0185770988
4241.4474133299	1.0072852373
4243.3762207029	1.0030126572
4245.3050280760	1.0029604435
4247.2338354490	1.0102562904
4249.1626428221	1.0132684708
4251.0914501951	1.0117816925
4253.0202575682	1.0123317242
4254.9490649412	1.0086070299
4256.8778723143	1.0102130175
4258.8066796873	1.0060437918
4260.7354870604	1.0048607588
4262.6642944334	1.0130850077
4264.5931018065	1.0142089128
4266.5219091795	1.0161441565
4268.4507165526	1.0149669647
4270.3795239256	1.0054857731
4272.3083312986	1.0060263872
4274.2371386717	1.0121958256
4276.1659460447	1.0054752827
4278.0947534178	1.0061639547
4280.0235607908	1.0105640888
4281.9523681639	1.0038686991
4283.8811755369	1.0092771053
4285.8099829100	1.0119909048
4287.7387902830	1.0089304447
4289.6675976561	1.0101555586
4291.5964050291	1.0050894022
4293.5252124022	1.0072416067
4295.4540197752	1.0138995647
4297.3828271483	1.0168918371
4299.3116345213	1.0130130053
4301.2404418943	1.0073167086
4303.1692492674	1.0099714994
4305.0980566404	1.0119227171
4307.0268640135	1.0136423111
4308.9556713865	1.0089151859
4310.8844787596	1.0035120249
4312.8132861326	1.0084409714
4314.7420935057	1.0099703074
4316.6709008787	1.0149419308
4318.5997082518	1.0199286938
4320.5285156248	1.0137765408
4322.4573229979	1.0114250183
4324.3861303709	1.0103416443
4326.3149377440	1.0087383986
4328.2437451170	1.0074248314
4330.1725524900	1.0041640997
4332.1013598631	1.0049287081
4334.0301672361	1.0073910952
4335.9589746092	1.0163806677
4337.8877819822	1.0134056807
4339.8165893553	1.0026894808
4341.7453967283	1.0116924047
4343.6742041014	1.0152423382
4345.6030114744	1.0125477314
4347.5318188475	1.0090578794
4349.4606262205	1.0091327429
4351.3894335936	1.0158653259
4353.3182409666	1.0117285252
4355.2470483397	1.0128939152
4357.1758557127	1.0064806938
4359.1046630858	1.0056029558
4361.0334704588	1.0159753561
4362.9622778318	1.0095444918
4364.8910852049	1.0103045702
4366.8198925779	1.0074535608
4368.7486999510	1.0104765892
4370.6775073240	1.0167280436
4372.6063146971	1.0100179911
4374.5351220701	1.0126898289
4376.4639294432	1.0049686432
4378.3927368162	1.0087511539
4380.3215441893	1.0174499750
4382.2503515623	1.0098742247
4384.1791589354	1.0077928305
4386.1079663084	1.0088024139
4388.0367736815	1.0150177479
4389.9655810545	1.0050411224
4391.8943884275	1.0116804838
4393.8231958006	1.0210547447
4395.7520031736	0.9996909499
4397.6808105467	1.0077716112
4399.6096179197	1.0101821423
4401.5384252928	1.0070062876
4403.4672326658	1.0155274868
4405.3960400389	1.0071275234
4407.3248474119	1.0121099949
4409.2536547850	1.0150648355
4411.1824621580	1.0130358934
4413.1112695311	1.0148357153
4415.0400769041	1.0126904249
4416.9688842772	1.0113410950
4418.8976916502	1.0086245537
4420.8264990232	1.0060168505
4422.7553063963	1.0061851740
4424.6841137693	1.0132688284
4426.6129211424	1.0045624971
4428.5417285154	1.0031961203
4430.4705358885	1.0135067701
4432.3993432615	1.0086821318
4434.3281506346	1.0094981194
4436.2569580076	1.0051871538
4438.1857653807	1.0029840469
4440.1145727537	1.0035147667
4442.0433801268	1.0053163767
4443.9721874998	1.0095324516
4445.9009948729	1.0112003088
4447.8298022459	1.0172803402
4449.7586096189	1.0043724775
4451.6874169920	1.0066590309
4453.6162243650	1.0085235834
4455.5450317381	0.9947360158
4457.4738391111	1.0035885572
4459.4026464842	1.0054557323
4461.3314538572	1.0064660311
4463.2602612303	0.9975858331
4465.1890686033	0.9921810031
4467.1178759764	1.0101280212
4469.0466833494	1.0124917030
4470.9754907225	1.0090272427
4472.9042980955	1.0098948479
4474.8331054686	1.0107861757
4476.7619128416	1.0095030069
4478.6907202147	1.0159803629
4480.6195275877	1.0116986036
4482.5483349607	1.0016313791
4484.4771423338	1.0130547285
4486.4059497068	1.0029523373
4488.3347570799	0.9990025163
4490.2635644529	1.0051035881
4492.1923718260	0.9942854047
4494.1211791990	1.0007489920
4496.0499865721	1.0079302788
4497.9787939451	1.0098606348
4499.9076013182	1.0053437948
4501.8364086912	1.0042166710
4503.7652160643	1.0104418993
4505.6940234373	1.0017558336
4507.6228308104	1.0023993254
4509.5516381834	1.0045897961
4511.4804455564	1.0079752207
4513.4092529295	1.0127847195
4515.3380603025	1.0077619553
4517.2668676756	1.0047736168
4519.1956750486	0.9955482483
4521.1244824217	1.0097306967
4523.0532897947	1.0131789446
4524.9820971678	0.9909628034
4526.9109045408	1.0037993193
4528.8397119139	1.0091438293
4530.7685192869	1.0066996813
4532.6973266600	1.0089367628
4534.6261340330	1.0010436773
4536.5549414061	1.0072786808
4538.4837487791	1.0058925152
4540.4125561521	1.0055886507
4542.3413635252	1.0061681271
4544.2701708982	0.9951582551
4546.1989782713	1.0003685951
4548.1277856443	1.0085614920
4550.0565930174	1.0095543861
4551.9854003904	1.0097661018
4553.9142077635	0.9986651540
4555.8430151365	0.9982580543
4557.7718225096	1.0104286671
4559.7006298826	1.0000644922
4561.6294372557	1.0005402565
4563.5582446287	1.0063161850
4565.4870520018	0.9996113777
4567.4158593748	1.0073022842
4569.3446667478	1.0034583807
4571.2734741209	1.0125123262
4573.2022814939	1.0197948217
4575.1310888670	1.0039116144
4577.0598962400	1.0089861155
4578.9887036131	1.0043245554
4580.9175109861	0.9968325496
4582.8463183592	1.0104774237
4584.7751257322	1.0152858496
4586.7039331053	0.9969705343
4588.6327404783	0.9894356132
4590.5615478514	1.0005447865
4592.4903552244	1.0041166544
4594.4191625975	1.0113809109
4596.3479699705	1.0030797720
4598.2767773435	0.9987466335
4600.2055847166	1.0070750713
4602.1343920896	0.9980884790
4604.0631994627	1.0037199259
4605.9920068357	1.0053775311
4607.9208142088	0.9973053932
4609.8496215818	1.0026897192
4611.7784289549	1.0027694702
4613.7072363279	0.9994333982
4615.6360437010	1.0003572702
4617.5648510740	1.0014548302
4619.4936584471	1.0021809340
4621.4224658201	1.0073488951
4623.3512731932	1.0076271296
4625.2800805662	1.0011910200
4627.2088879393	0.9971157908
4629.1376953123	0.9980651140
4631.0665026853	1.0037548542
4632.9953100584	0.9968953133
4634.9241174314	0.9905878901
4636.8529248045	1.0036751032
4638.7817321775	1.0059112310
4640.7105395506	0.9997054338
4642.6393469236	1.0039691925
4644.5681542967	0.9982717633
4646.4969616697	0.9954746366
4648.4257690428	1.0026041269
4650.3545764158	0.9979212880
4652.2833837889	1.0003137589
4654.2121911619	1.0073258877
4656.1409985350	0.9992806911
4658.0698059080	1.0006273985
4659.9986132810	1.0091986656
4661.9274206541	1.0035382509
4663.8562280271	1.0064082146
4665.7850354002	1.0139006376
4667.7138427732	1.0128235817
4669.6426501463	1.0142495632
4671.5714575193	1.0104107857
4673.5002648924	1.0133056641
4675.4290722654	1.0133351088
4677.3578796385	0.9993517995
4679.2866870115	0.9992026687
4681.2154943846	1.0067548752
4683.1443017576	1.0066534281
4685.0731091307	0.9982687235
4687.0019165037	0.9948879480
4688.9307238767	1.0057674646
4690.8595312498	1.0061581135
4692.7883386228	0.9980596304
4694.7171459959	1.0038033724
4696.6459533689	1.0042163134
4698.5747607420	1.0055921078
4700.5035681150	1.0131469965
4702.4323754881	1.0037082434
4704.3611828611	1.0110722780
4706.2899902342	1.0108499527
4708.2187976072	0.9905242324
4710.1476049803	1.0004167557
4712.0764123533	1.0031543970
4714.0052197264	1.0031201839
4715.9340270994	1.0061962605
4717.8628344724	0.9845717549
4719.7916418455	0.9890830517
4721.7204492185	1.0051665306
4723.6492565916	1.0016171932
4725.5780639646	1.0064688921
4727.5068713377	1.0053889751
4729.4356787107	1.0019361973
4731.3644860838	1.0032528639
4733.2932934568	0.9994092584
4735.2221008299	1.0038030148
4737.1509082029	1.0005185604
4739.0797155760	0.9932512641
4741.0085229490	0.9965995550
4742.9373303221	1.0009142160
4744.8661376951	1.0038529634
4746.7949450682	1.0078487396
4748.7237524412	1.0093904734
4750.6525598142	0.9949427247
4752.5813671873	1.0014294386
4754.5101745603	1.0075691938
4756.4389819334	0.9862641096
4758.3677893064	0.9950887561
4760.2965966795	1.0003075600
4762.2254040525	0.9977624416
4764.1542114256	1.0114743710
4766.0830187986	1.0051575899
4768.0118261717	0.9970101118
4769.9406335447	1.0022380352
4771.8694409178	1.0015892982
4773.7982482908	0.9939293265
4775.7270556639	0.9925268292
4777.6558630369	1.0013550520
4779.5846704099	1.0080891848
4781.5134777830	0.9935039282
4783.4422851560	1.0029803514
4785.3710925291	1.0165326595
4787.2998999021	0.9924018383
4789.2287072752	1.0053620338
4791.1575146482	1.0085771084
4793.0863220213	0.9978467226
4795.0151293943	1.0113126040
4796.9439367674	1.0002636909
4798.8727441404	0.9961431026
4800.8015515135	0.9938532710
4802.7303588865	0.9954319596
4804.6591662596	1.0020486116
4806.5879736326	1.0043343306
4808.5167810056	1.0072722435
4810.4455883787	1.0025857687
4812.3743957517	1.0055177212
4814.3032031248	0.9939662814
4816.2320104978	0.9972103238
4818.1608178709	1.0110369921
4820.0896252439	1.0101124048
4822.0184326170	1.0018618107
4823.9472399900	0.9935700893
4825.8760473631	1.0095393658
4827.8048547361	1.0019005537
4829.7336621092	0.9993688464
4831.6624694822	1.0040758848
4833.5912768553	1.0015740395
4835.5200842283	1.0114386082
4837.4488916013	0.9922754765
4839.3776989744	1.0051265955
4841.3065063474	1.0132927895
4843.2353137205	0.9959354401
4845.1641210935	1.0052093267
4847.0929284666	1.0004686117
4849.0217358396	1.0058853626
4850.9505432127	1.0012209415
4852.8793505857	0.9989290237
4854.8081579588	1.0074547529
4856.7369653318	0.9907994270
4858.6657727049	1.0002986193
4860.5945800779	1.0074938536
4862.5233874510	0.9889547229
4864.4521948240	0.9922537804
4866.3810021971	1.0098199844
4868.3098095701	1.0060025454
4870.2386169431	0.9998773336
4872.1674243162	0.9985120296
4874.0962316892	0.9861384630
4876.0250390623	0.9962722659
4877.9538464353	0.9970446825
4879.8826538084	0.9882444739
4881.8114611814	1.0062098503
4883.7402685545	1.0145349503
4885.6690759275	1.0070883036
4887.5978833006	0.9907518029
4889.5266906736	0.9950909615
4891.4554980467	1.0074429512
4893.3843054197	1.0026478767
4895.3131127928	1.0085577965
4897.2419201658	1.0012792349
4899.1707275388	0.9944821000
4901.0995349119	0.9934555292
4903.0283422849	0.9973633289
4904.9571496580	1.0047709942
4906.8859570310	0.9865285158
4908.8147644041	1.0028877258
4910.7435717771	1.0120897293
4912.6723791502	0.9864632487
4914.6011865232	0.9959893227
4916.5299938963	0.9928576350
4918.4588012693	0.9880864024
4920.3876086424	1.0059841871
4922.3164160154	1.0060312748
4924.2452233885	0.9974767566
4926.1740307615	0.9942804575
4928.1028381345	1.0021116734
4930.0316455076	1.0048655272
4931.9604528806	0.9956015944
4933.8892602537	0.9942217469
4935.8180676267	0.9990456700
4937.7468749998	1.0072495937
4939.6756823728	1.0015261173
4941.6044897459	0.9936121702
4943.5332971189	1.0153311491
4945.4621044920	0.9993872046
4947.3909118650	0.9878871441
4949.3197192381	1.0206251144
4951.2485266111	0.9950275421
4953.1773339842	0.9913715124
4955.1061413572	1.0020997524
4957.0349487302	0.9836127162
4958.9637561033	1.0106800795
4960.8925634763	1.0085464716
4962.8213708494	0.9860758185
4964.7501782224	0.9906848073
4966.6789855955	0.9991511106
4968.6077929685	0.9969177246
4970.5366003416	0.9945075512
4972.4654077146	0.9979709387
4974.3942150877	0.9822872877
4976.3230224607	1.0008329153
4978.2518298338	1.0067812204
4980.1806372068	0.9855900407
4982.1094445799	0.9952768087
4984.0382519529	0.9995561242
4985.9670593259	1.0098429918
4987.8958666990	1.0005843639
4989.8246740720	0.9924352169
4991.7534814451	1.0046370029
4993.6822888181	0.9982880354
4995.6110961912	0.9910100698
4997.5399035642	0.9907326102
4999.4687109373	0.9949298501
5001.3975183103	0.9938522577
5003.3263256834	1.0055749416
5005.2551330564	1.0083019733
5007.1839404295	0.9969479442
5009.1127478025	1.0027769804
5011.0415551756	1.0043877363
5012.9703625486	1.0094808340
5014.8991699217	1.0138769150
5016.8279772947	1.0003212690
5018.7567846677	0.9827324748
5020.6855920408	0.9934167862
5022.6143994138	0.9972553849
5024.5432067869	0.9886560440
5026.4720141599	0.9973258972
5028.4008215330	0.9988304377
5030.3296289060	1.0153294802
5032.2584362791	1.0034034252
5034.1872436521	0.9938735962
5036.1160510252	1.0075351000
5038.0448583982	0.9844037294
5039.9736657713	0.9955328107
5041.9024731443	0.9999147654
5043.8312805174	0.9861505628
5045.7600878904	1.0069140196
5047.6888952634	1.0046458244
5049.6177026365	0.9933177829
5051.5465100095	0.9968929291
5053.4753173826	0.9924476147
5055.4041247556	0.9987356067
5057.3329321287	1.0087287426
5059.2617395017	0.9990705252
5061.1905468748	1.0178922415
5063.1193542478	1.0168874264
5065.0481616209	0.9754281044
5066.9769689939	0.9831964970
5068.9057763670	1.0019177198
5070.8345837400	0.9987484813
5072.7633911131	0.9934349060
5074.6921984861	0.9914819598
5076.6210058591	0.9844887853
5078.5498132322	0.9875320196
5080.4786206052	1.0018719435
5082.4074279783	0.9810508490
5084.3362353513	0.9792054296
5086.2650427244	0.9897349477
5088.1938500974	0.9888287783
5090.1226574705	1.0044003725
5092.0514648435	0.9922338724
5093.9802722166	0.9938894510
5095.9090795896	1.0096287727
5097.8378869627	0.9875139594
5099.7666943357	0.9905617237
5101.6955017088	1.0021860600
5103.6243090818	0.9991751313
5105.5531164548	1.0112459660
5107.4819238279	0.9913704991
5109.4107312009	0.9856287837
5111.3395385740	1.0191643238
5113.2683459470	1.0080344677
5115.1971533201	0.9851959348
5117.1259606931	0.9920760989
5119.0547680662	0.9981660247
5120.9835754392	0.9904065132
5122.9123828123	0.9965088367
5124.8411901853	0.9967435598
5126.7699975584	0.9761549234
5128.6988049314	0.9826369286
5130.6276123045	0.9761086702
5132.5564196775	0.9770304561
5134.4852270506	1.0061792135
5136.4140344236	0.9922839403
5138.3428417966	0.9824905992
5140.2716491697	1.0028026104
5142.2004565427	1.0053683519
5144.1292639158	0.9709483981
5146.0580712888	0.9525006413
5147.9868786619	0.9922538400
5149.9156860349	1.0037065744
5151.8444934080	0.9828910232
5153.7733007810	0.9999464750
5155.7021081541	1.0122377872
5157.6309155271	0.9926019311
5159.5597229002	0.9716714025
5161.4885302732	0.9739441872
5163.4173376463	0.9742949605
5165.3461450193	0.9736492038
5167.2749523923	0.9939749837
5169.2037597654	0.9670445323
5171.1325671384	0.9623834491
5173.0613745115	1.0095189810
5174.9901818845	0.9945244193
5176.9189892576	0.9877560735
5178.8477966306	0.9974974394
5180.7766040037	0.9895516634
5182.7054113767	0.9945305586
5184.6342187498	0.9928027391
5186.5630261228	0.9942564368
5188.4918334959	0.9833952188
5190.4206408689	0.9859013557
5192.3494482420	0.9973035455
5194.2782556150	0.9851655364
5196.2070629880	0.9919730425
5198.1358703611	0.9982946515
5200.0646777341	0.9865270257
5201.9934851072	0.9923334122
5203.9222924802	1.0017975569
5205.8510998533	0.9768453240
5207.7799072263	0.9717538357
5209.7087145994	0.9891375899
5211.6375219724	0.9814309478
5213.5663293455	0.9883555174
5215.4951367185	0.9921408296
5217.4239440916	0.9820854664
5219.3527514646	0.9822428823
5221.2815588377	0.9879739881
5223.2103662107	0.9852846265
5225.1391735837	0.9820568562
5227.0679809568	0.9993016720
5228.9967883298	1.0002921820
5230.9255957029	0.9996047020
5232.8544030759	0.9958335161
5234.7832104490	0.9850195646
5236.7120178220	0.9872329235
5238.6408251951	0.9724094272
5240.5696325681	0.9786580205
5242.4984399412	0.9879581928
5244.4272473142	0.9868992567
5246.3560546873	0.9982686639
5248.2848620603	0.9776517153
5250.2136694334	0.9864713550
5252.1424768064	1.0126004219
5254.0712841795	0.9987266064
5256.0000915525	0.9973533154
5257.9288989255	0.9918023944
5259.8577062986	0.9826342463
5261.7865136716	1.0009088516
5263.7153210447	0.9987760186
5265.6441284177	0.9820017219
5267.5729357908	0.9976633787
5269.5017431638	0.9991470575
5271.4305505369	0.9928551316
5273.3593579099	1.0092843771
5275.2881652830	0.9859603047
5277.2169726560	0.9751495719
5279.1457800291	0.9995966554
5281.0745874021	0.9893032908
5283.0033947752	0.9845301509
5284.9322021482	0.9993382096
5286.8610095212	0.9998977780
5288.7898168943	0.9879148602
5290.7186242673	0.9858919978
5292.6474316404	0.9969639182
5294.5762390134	0.9909157157
5296.5050463865	0.9810165763
5298.4338537595	0.9970259666
5300.3626611326	1.0002710819
5302.2914685056	0.9706636071
5304.2202758787	0.9828770161
5306.1490832517	1.0048443079
5308.0778906248	0.9855186939
5310.0066979978	0.9911233187
5311.9355053709	0.9977467060
5313.8643127439	0.9867610931
5315.7931201169	0.9850703478
5317.7219274900	0.9908457994
5319.6507348630	1.0014312267
5321.5795422361	0.9972001910
5323.5083496091	0.9851683974
5325.4371569822	1.0028696060
5327.3659643552	1.0108574629
5329.2947717283	0.9678109288
5331.2235791013	0.9682569504
5333.1523864744	0.9819824100
5335.0811938474	0.9672350883
5337.0100012205	0.9806678891
5338.9388085935	0.9879795313
5340.8676159666	0.9930225611
5342.7964233396	0.9904441237
5344.7252307126	0.9878017306
5346.6540380857	0.9902388453
5348.5828454587	0.9889224768
5350.5116528318	1.0074806213
5352.4404602048	0.9951930046
5354.3692675779	0.9997903705
5356.2980749509	0.9946843982
5358.2268823240	0.9696700573
5360.1556896970	0.9872204065
5362.0844970701	0.9690103531
5364.0133044431	0.9792180657
5365.9421118162	1.0027921200
5367.8709191892	0.9991014004
5369.7997265623	1.0151472092
5371.7285339353	0.9847953916
5373.6573413083	0.9811418653
5375.5861486814	1.0025115013
5377.5149560544	0.9823101163
5379.4437634275	0.9794954062
5381.3725708005	0.9917174578
5383.3013781736	0.9906101227
5385.2301855466	0.9788720608
5387.1589929197	0.9928891063
5389.0878002927	1.0095397234
5391.0166076658	0.9896791577
5392.9454150388	0.9753776789
5394.8742224119	1.0035130978
5396.8030297849	1.0035015345
5398.7318371580	0.9698942900
5400.6606445310	0.9892707467
5402.5894519041	0.9902725816
5404.5182592771	0.9799641967
5406.4470666501	0.9847198129
5408.3758740232	0.9816015363
5410.3046813962	0.9949763417
5412.2334887693	0.9690271020
5414.1622961423	0.9732984304
5416.0911035154	0.9903318882
5418.0199108884	0.9879872203
5419.9487182615	1.0131056309
5421.8775256345	0.9888340831
5423.8063330076	0.9846243262
5425.7351403806	0.9951133132
5427.6639477537	0.9881422520
5429.5927551267	1.0051122904
5431.5215624998	1.0122833252
5433.4503698728	1.0143551826
5435.3791772458	1.0024116039
5437.3079846189	1.0012013912
5439.2367919919	0.9908677340
5441.1655993650	0.9808267951
5443.0944067380	1.0030361414
5445.0232141111	0.9921347499
5446.9520214841	0.9839167595
5448.8808288572	0.9969995022
5450.8096362302	0.9963236451
5452.7384436033	0.9961519241
5454.6672509763	0.9970270991
5456.5960583494	0.9930245280
5458.5248657224	0.9937378764
5460.4536730955	0.9789274931
5462.3824804685	0.9806733727
5464.3112878415	0.9939962029
5466.2400952146	0.9646828175
5468.1689025876	0.9750266671
5470.0977099607	1.0081727505
5472.0265173337	1.0164746046
5473.9553247068	1.0018076897
5475.8841320798	0.9740048647
5477.8129394529	0.9909054041
5479.7417468259	0.9945764542
5481.6705541990	0.9980642200
5483.5993615720	0.9920778871
5485.5281689451	0.9764330983
5487.4569763181	0.9917746782
5489.3857836912	0.9868471622
5491.3145910642	0.9909905791
5493.2433984372	0.9777732491
5495.1722058103	0.9700863957
5497.1010131833	0.9943255186
5499.0298205564	1.0026559830
5500.9586279294	0.9891752005
5502.8874353025	0.9473531246
5504.8162426755	0.9823628068
5506.7450500486	1.0261689425
5508.6738574216	0.9877725244
5510.6026647947	0.9820519090
5512.5314721677	0.9722071886
5514.4602795408	0.9821537733
5516.3890869138	1.0080847740
5518.3178942869	0.9744895697
5520.2467016599	0.9547755718
5522.1755090330	0.9442352057
5524.1043164060	0.9796256423
5526.0331237790	1.0075875521
5527.9619311521	0.9612507820
5529.8907385251	0.9789951444
5531.8195458982	0.9889478087
5533.7483532712	0.9895234704
5535.6771606443	0.9829154015
5537.6059680173	0.9514393210
5539.5347753904	0.9965205193
5541.4635827634	1.0040313005
5543.3923901365	0.9861769080
5545.3211975095	0.9735528231
5547.2500048826	0.9688597322
5549.1788122556	0.9910939336
5551.1076196287	0.9730903506
5553.0364270017	0.9813161492
5554.9652343747	0.9773846269
5556.8940417478	0.9684880376
5558.8228491208	0.9745559692
5560.7516564939	0.9879764318
5562.6804638669	1.0053496361
5564.6092712400	0.9865088463
5566.5380786130	1.0013599396
5568.4668859861	0.9818740487
5570.3956933591	0.9741608500
5572.3245007322	1.0078353882
5574.2533081052	0.9994044304
5576.1821154783	0.9882840514
5578.1109228513	0.9621366858
5580.0397302244	0.9861401916
5581.9685375974	1.0121936798
5583.8973449704	0.9745371342
5585.8261523435	0.9975281358
5587.7549597165	1.0272171497
5589.6837670896	0.9692646265
5591.6125744626	0.9748801589
5593.5413818357	1.0241211653
5595.4701892087	1.0074334145
5597.3989965818	1.0087515116
5599.3278039548	0.9826709032
5601.2566113279	0.9726968408
5603.1854187009	0.9774594903
5605.1142260740	0.9619021416
5607.0430334470	0.9779108167
5608.9718408201	0.9579145908
5610.9006481931	0.9739958048
5612.8294555661	1.0109519958
5614.7582629392	0.9992572069
5616.6870703122	0.9751898050
5618.6158776853	0.9511837363
5620.5446850583	0.9500266910
5622.4734924314	0.9800236225
5624.4022998044	0.9919087291
5626.3311071775	0.9698716402
5628.2599145505	0.9976885319
5630.1887219236	0.9890910983
5632.1175292966	0.9575234056
5634.0463366697	0.9511051178
5635.9751440427	0.9661713839
5637.9039514158	0.9828066230
5639.8327587888	0.9591869116
5641.7615661619	1.0029338598
5643.6903735349	0.9874439240
5645.6191809079	0.9854046702
5647.5479882810	1.0117187500
5649.4767956540	0.9530181885
5651.4056030271	0.9880899787
5653.3344104001	0.9771694541
5655.2632177732	0.9571160078
5657.1920251462	0.9915758371
5659.1208325193	0.9919547439
5661.0496398923	0.9902713299
5662.9784472654	1.0065512657
5664.9072546384	1.0133154392
5666.8360620115	0.9697431326
5668.7648693845	1.0010005236
5670.6936767576	0.9774177074
5672.6224841306	0.9855120182
5674.5512915036	1.0301229954
5676.4800988767	0.9624212980
5678.4089062497	0.9942562580
5680.3377136228	0.9703199267
5682.2665209958	0.9705023170
5684.1953283689	1.0211200714
5686.1241357419	0.9927789569
5688.0529431150	0.9883220196
5689.9817504880	0.9603726268
5691.9105578611	0.9975921512
5693.8393652341	0.9707465172
5695.7681726072	0.9524966478
5697.6969799802	0.9949868917
5699.6257873533	0.9543601871
5701.5545947263	0.9748372436
5703.4834020993	0.9808730483
5705.4122094724	0.9736742377
5707.3410168454	0.9734948277
5709.2698242185	0.9644181728
5711.1986315915	0.9612930417
5713.1274389646	0.9536051750
5715.0562463376	0.9991226792
5716.9850537107	0.9771481156
5718.9138610837	0.9753625393
5720.8426684568	1.0205829144
5722.7714758298	0.9963532686
5724.7002832029	0.9660353661
5726.6290905759	0.9565561414
5728.5578979490	1.0026631355
5730.4867053220	0.9838771224
5732.4155126950	0.9643961787
5734.3443200681	1.0035821199
5736.2731274411	0.9657658935
5738.2019348142	0.9563500285
5740.1307421872	0.9601673484
5742.0595495603	0.9750443101
5743.9883569333	0.9754685760
5745.9171643064	0.9406579733
5747.8459716794	0.9701098800
5749.7747790525	0.9578974247
5751.7035864255	0.9657680988
5753.6323937986	1.0013612509
5755.5612011716	1.0025793314
5757.4900085447	1.0037136078
5759.4188159177	0.9640846848
5761.3476232907	0.9854183793
5763.2764306638	1.0187652111
5765.2052380368	1.0246642828
5767.1340454099	0.9954319596
5769.0628527829	0.9334406257
5770.9916601560	0.9765278101
5772.9204675290	1.0159186125
5774.8492749021	0.9680302143
5776.7780822751	0.9631329775
5778.7068896482	0.9998496771
5780.6356970212	0.9901415110
5782.5645043943	1.0046901703
5784.4933117673	1.0084030628
5786.4221191404	0.9685850143
5788.3509265134	0.9872043133
5790.2797338865	0.9603672624
5792.2085412595	0.9646292925
5794.1373486325	0.9993287921
5796.0661560056	0.9699439406
5797.9949633786	0.9759031534
5799.9237707517	0.9931743145
5801.8525781247	0.9849535823
5803.7813854978	0.9541120529
5805.7101928708	0.9746168852
5807.6390002439	0.9769487977
5809.5678076169	0.9612399340
5811.4966149900	1.0061727762
5813.4254223630	0.9887472391
5815.3542297361	0.9658549428
5817.2830371091	0.9814321399
5819.2118444822	1.0058683157
5821.1406518552	0.9879397154
5823.0694592282	0.9636819363
5824.9982666013	0.9786130190
5826.9270739743	0.9645463228
5828.8558813474	0.9675942063
5830.7846887204	0.9793292880
5832.7134960935	0.9846132994
5834.6423034665	0.9900338650
5836.5711108396	1.0227618217
5838.4999182126	1.0023175478
5840.4287255857	0.9141862392
5842.3575329587	0.9390193820
5844.2863403318	0.9879207611
5846.2151477048	0.9806341529
5848.1439550779	0.9682525992
5850.0727624509	0.9780113697
5852.0015698239	0.9961551428
5853.9303771970	1.0032655001
5855.8591845700	1.0102641582
5857.7879919431	0.9701352119
5859.7167993161	0.9296229482
5861.6456066892	0.9742023349
5863.5744140622	1.0245716572
5865.5032214353	0.9667840004
5867.4320288083	0.9839628935
5869.3608361814	1.0150555372
5871.2896435544	0.9433525801
5873.2184509275	0.9800465107
5875.1472583005	0.9621667266
5877.0760656736	0.9269711971
5879.0048730466	0.9959872961
5880.9336804196	0.9891836047
5882.8624877927	0.9694095254
5884.7912951657	0.9395807981
5886.7201025388	0.9289672971
5888.6489099118	0.9770622253
5890.5777172849	0.9683166742
5892.5065246579	0.9431552887
5894.4353320310	0.9776664972
5896.3641394040	0.9869636297
5898.2929467771	0.9752652049
5900.2217541501	0.9826373458
5902.1505615232	0.9745213985
5904.0793688962	0.9826695919
5906.0081762693	0.9756602645
5907.9369836423	1.0001897812
5909.8657910154	1.0109224319
5911.7945983884	0.9774003029
5913.7234057614	0.9926034808
5915.6522131345	0.9598777294
5917.5810205075	1.0027664900
5919.5098278806	1.0283659697
5921.4386352536	0.9459082484
5923.3674426267	0.9642493725
5925.2962499997	0.9384108782
5927.2250573728	0.9719251394
5929.1538647458	1.0232430696
5931.0826721189	0.9497033954
5933.0114794919	1.0267270803
5934.9402868650	1.0262691975
5936.8690942380	0.9548134804
5938.7979016111	0.9865720868
5940.7267089841	0.9586700797
5942.6555163571	0.9840364456
5944.5843237302	0.9719086289
5946.5131311032	0.9387701750
5948.4419384763	0.9760754704
5950.3707458493	0.9764789343
5952.2995532224	0.9935359955
5954.2283605954	0.9676240087
5956.1571679685	0.9667007327
5958.0859753415	0.9756189585
5960.0147827146	0.9724397659
5961.9435900876	1.0251001120
5963.8723974607	0.9645686746
5965.8012048337	0.9526576996
5967.7300122068	1.0257235765
5969.6588195798	1.0041081905
5971.5876269528	0.9884755015
5973.5164343259	0.9955704212
5975.4452416989	0.9852521420
5977.3740490720	0.9805639386
5979.3028564450	0.9595965743
5981.2316638181	0.9417966604
5983.1604711911	0.9676347375
5985.0892785642	1.0134558678
5987.0180859372	1.0150183439
5988.9468933103	0.9691616297
5990.8757006833	1.0094244480
5992.8045080564	1.0173966885
5994.7333154294	0.9406126738
5996.6621228025	0.9840908051
5998.5909301755	0.9987836480
6000.5197375485	1.0028434992
