399.2631262207	1.0049803257
401.1919335938	0.9006934166
403.1207409668	0.3915465772
405.0495483398	0.6347315907
406.9783557129	0.5815160871
408.9071630859	0.6247416735
410.8359704590	1.0347573757
412.7647778320	0.4876154363
414.6935852051	0.5783815384
416.6223925781	0.5956553817
418.5511999512	0.4911764860
420.4800073242	0.7083318233
422.4088146973	0.6057419777
424.3376220703	0.5709189773
426.2664294434	0.6434451938
428.1952368164	0.6688998938
430.1240441895	0.5743392706
432.0528515625	0.8178623915
433.9816589355	1.1491136551
435.9104663086	0.7971824408
437.8392736816	0.7328998446
439.7680810547	0.7404579520
441.6968884277	0.7098235488
443.6256958008	0.5301544666
445.5545031738	0.6061747670
447.4833105469	0.6197117567
449.4121179199	0.4901421964
451.3409252930	0.5854474902
453.2697326660	0.5339949131
455.1985400391	0.7352818251
457.1273474121	0.6812335849
459.0561547852	0.5893903971
460.9849621582	0.5177211761
462.9137695313	0.2532024384
464.8425769043	0.5291528702
466.7713842773	0.3229804635
468.7001916504	0.1250967681
470.6289990234	0.7649808526
472.5578063965	0.6136737466
474.4866137695	0.2133433819
476.4154211426	0.2254983634
478.3442285156	0.5168086290
480.2730358887	0.3006567359
482.2018432617	0.1071105897
484.1306506348	0.1339292228
486.0594580078	0.4965976477
487.9882653809	0.3187932670
489.9170727539	-0.3659011722
491.8458801270	-0.2442204058
493.7746875000	0.4664291143
495.7034948730	0.3231441379
497.6323022461	0.3068751097
499.5611096191	0.9706650972
501.4899169922	0.2702168822
503.4187243652	0.0657814443
505.3475317383	0.6057997942
507.2763391113	0.4566158354
509.2051464844	0.3895242214
511.1339538574	-0.0020618183
513.0627612305	0.2074941844
514.9915686035	0.8791468143
516.9203759766	0.4792797565
518.8491833496	0.2758547068
520.7779907227	0.2038151771
522.7067980957	0.0645255521
524.6356054688	0.2979947329
526.5644128418	0.2191140950
528.4932202148	0.2146799564
530.4220275879	0.8636643887
532.3508349609	0.2128767073
534.2796423340	-0.0953341499
536.2084497070	0.1879666299
538.1372570801	0.1567710936
540.0660644531	-0.1003588438
541.9948718262	0.3902389109
543.9236791992	0.4714179933
545.8524865723	0.6473383904
547.7812939453	0.7128676176
549.7101013184	0.1107587442
551.6389086914	0.2337523401
553.5677160645	0.2478205115
555.4965234375	0.0342673920
557.4253308105	0.0915103629
559.3541381836	0.0829510018
561.2829455566	0.4434608221
563.2117529297	0.4232594371
565.1405603027	0.1376089454
567.0693676758	0.2924990356
568.9981750488	0.4443622828
570.9269824219	0.2866598666
572.8557897949	0.2317813039
574.7845971680	0.1100833267
576.7134045410	-0.2505438328
578.6422119141	-0.0026206840
580.5710192871	0.8530055881
582.4998266602	0.1606038064
584.4286340332	-0.1467642188
586.3574414063	0.2212486118
588.2862487793	0.2261436582
590.2150561523	-0.0037995121
592.1438635254	0.3423997164
594.0726708984	0.4344771802
596.0014782715	0.1741398573
597.9302856445	0.4726498723
599.8590930176	0.5724712610
601.7879003906	0.4240520895
603.7167077637	0.3040950596
605.6455151367	0.0863209888
607.5743225098	0.0621193424
609.5031298828	0.1851378679
611.4319372559	0.0971226096
613.3607446289	0.2708408833
615.2895520020	-0.1687291712
617.2183593750	-0.0875730291
619.1471667480	0.1155476794
621.0759741211	-0.3046786487
623.0047814941	0.3607441187
624.9335888672	-0.0741401836
626.8623962402	-0.0770235285
628.7912036133	0.4653900266
630.7200109863	0.4828249514
632.6488183594	1.0005489588
634.5776257324	0.5879054666
636.5064331055	0.4460066259
638.4352404785	0.7265715003
640.3640478516	0.7724420428
642.2928552246	0.6234092116
644.2216625977	0.6090659499
646.1504699707	0.5721776485
648.0792773438	0.5897018313
650.0080847168	0.6994141936
651.9368920898	0.5862239003
653.8656994629	0.5480228066
655.7945068359	0.5925877094
657.7233142090	0.6471022367
659.6521215820	0.7290455103
661.5809289551	0.6827142239
663.5097363281	0.6754474640
665.4385437012	0.6893145442
667.3673510742	0.6539683342
669.2961584473	0.6735137701
671.2249658203	0.7337853909
673.1537731934	0.8007321358
675.0825805664	0.7432124615
677.0113879395	0.7148677111
678.9401953125	0.7667484283
680.8690026855	0.7269650698
682.7978100586	0.7434703112
684.7266174316	0.7886217833
686.6554248047	0.7149997354
688.5842321777	0.7367107868
690.5130395508	0.7130090594
692.4418469238	0.6637006402
694.3706542969	0.7269390821
696.2994616699	0.7773298025
698.2282690430	0.8061347604
700.1570764160	0.7240605354
702.0858837891	0.7047348619
704.0146911621	0.7858167887
705.9434985352	0.6817659140
707.8723059082	0.6701281667
709.8011132813	0.7176191211
711.7299206543	0.6286688447
713.6587280273	0.6741656661
715.5875354004	0.5112690926
717.5163427734	0.4593461454
719.4451501465	0.7213842273
721.3739575195	0.7329550385
723.3027648926	0.5695706010
725.2315722656	0.2212810218
727.1603796387	0.1976797283
729.0891870117	0.2967004478
731.0179943848	0.3314298987
732.9468017578	0.5508373976
734.8756091309	0.0113529600
736.8044165039	0.3765241802
738.7332238770	0.2398042232
740.6620312500	-0.0706528947
742.5908386230	0.4517578185
744.5196459961	0.3043809831
746.4484533691	0.2578250468
748.3772607422	0.1062765718
750.3060681152	-0.1436284333
752.2348754883	0.0772147998
754.1636828613	0.2829210162
756.0924902344	0.3700090945
758.0212976074	0.7375471592
759.9501049805	0.4268338084
761.8789123535	-0.2017874569
763.8077197266	0.3652557135
765.7365270996	0.1510999501
767.6653344727	0.5859183073
769.5941418457	0.9738314152
771.5229492188	0.6009618640
773.4517565918	0.7620370388
775.3805639648	0.4367477000
777.3093713379	0.3085463643
779.2381787109	0.6153141856
781.1669860840	0.5988732576
783.0957934570	0.6974179745
785.0246008301	0.4296901226
786.9534082031	0.4135926962
788.8822155762	0.4257198274
790.8110229492	0.5460401773
792.7398303223	0.5311813354
794.6686376953	0.5077750087
796.5974450684	0.5592471957
798.5262524414	0.6746691465
800.4550598145	0.8327233195
802.3838671875	0.7810287476
804.3126745605	0.4688701332
806.2414819336	0.3414350152
808.1702893066	0.6458721757
810.0990966797	0.3153266311
812.0279040527	0.3980875909
813.9567114258	0.7312471271
815.8855187988	0.2072464377
817.8143261719	0.6322461963
819.7431335449	0.6488376260
821.6719409180	0.2634071112
823.6007482910	0.5921245217
825.5295556641	0.7435597777
827.4583630371	0.5114814639
829.3871704102	1.0475168228
831.3159777832	1.0022975206
833.2447851563	0.5732173324
835.1735925293	0.9108379483
837.1023999023	0.7749167085
839.0312072754	0.8995202780
840.9600146484	1.0157785416
842.8888220215	0.7193771601
844.8176293945	0.9665107727
846.7464367676	1.0256571770
848.6752441406	0.7955987453
850.6040515137	0.7926835418
852.5328588867	0.9977276921
854.4616662598	0.6576635838
856.3904736328	0.9207116365
858.3192810059	1.3749046326
860.2480883789	0.5601282120
862.1768957520	0.5601416826
864.1057031250	0.8911153674
866.0345104980	0.9663437605
867.9633178711	0.5764859915
869.8921252441	0.7593241930
871.8209326172	0.4870892763
873.7497399902	0.0663218349
875.6785473633	0.9212835431
877.6073547363	0.5240572691
879.5361621094	0.6245623827
881.4649694824	0.8590289950
883.3937768555	0.0616792664
885.3225842285	0.2863732278
887.2513916016	0.1260200143
889.1801989746	0.4491106570
891.1090063477	0.3181867301
893.0378137207	0.3389894068
894.9666210938	1.0059163570
896.8954284668	0.8309850097
898.8242358398	0.9188231230
900.7530432129	0.9561280012
902.6818505859	0.8162581921
904.6106579590	1.1908402443
906.5394653320	1.4000946283
908.4682727051	0.7869809270
910.3970800781	0.8340321183
912.3258874512	0.8254738450
914.2546948242	0.8128002882
916.1835021973	1.3275294304
918.1123095703	1.2814352512
920.0411169434	0.9560233951
921.9699243164	1.1466085911
923.8987316895	1.1221095324
925.8275390625	1.0631153584
927.7563464355	1.1837017536
929.6851538086	1.0283783674
931.6139611816	0.9087338448
933.5427685547	0.9476846457
935.4715759277	0.9484598041
937.4003833008	0.9322270751
939.3291906738	0.9429556131
941.2579980469	1.0512022972
943.1868054199	1.0296318531
945.1156127930	1.0389612913
947.0444201660	1.1847808361
948.9732275391	1.0652704239
950.9020349121	0.9326425195
952.8308422852	0.9591174722
954.7596496582	1.1777590513
956.6884570313	1.0473647118
958.6172644043	0.9054198861
960.5460717773	1.0985747576
962.4748791504	1.0203737020
964.4036865234	1.0472339392
966.3324938965	1.0995205641
968.2613012695	0.9919456244
970.1901086426	1.0001358986
972.1189160156	1.0421091318
974.0477233887	1.0171003342
975.9765307617	0.9848579764
977.9053381348	1.1386148930
979.8341455078	1.0899827480
981.7629528809	1.0305651426
983.6917602539	1.0539934635
985.6205676270	1.0000863075
987.5493750000	1.0587035418
989.4781823730	1.0111801624
991.4069897461	0.9901937842
993.3357971191	1.0307412148
995.2646044922	1.0205742121
997.1934118652	1.0371981859
999.1222192383	1.0057656765
1001.0510266113	0.9787217379
1002.9798339844	1.0062764883
1004.9086413574	1.0431431532
1006.8374487305	1.0294301510
1008.7662561035	0.9892830849
1010.6950634766	0.9936872721
1012.6238708496	1.0123517513
1014.5526782227	1.0013124943
1016.4814855957	0.9939788580
1018.4102929688	1.0062503815
1020.3391003418	0.9991506338
1022.2679077148	1.0004929304
1024.1967150879	0.9964026809
1026.1255224609	0.9934533238
1028.0543298340	1.0054459572
1029.9831372070	0.9977722168
1031.9119445801	1.0156540871
1033.8407519531	1.0221478939
1035.7695593262	1.0046172142
1037.6983666992	1.0058631897
1039.6271740723	1.0063954592
1041.5559814453	1.0121867657
1043.4847888184	1.0084742308
1045.4135961914	0.9986276627
1047.3424035645	1.0002018213
1049.2712109375	1.0088033676
1051.2000183105	1.0122531652
1053.1288256836	1.0106940269
1055.0576330566	1.0154806376
1056.9864404297	1.0129873753
1058.9152478027	1.0046238899
1060.8440551758	1.0075569153
1062.7728625488	1.0302329063
1064.7016699219	1.0229265690
1066.6304772949	1.0061700344
1068.5592846680	1.0292577744
1070.4880920410	1.0197429657
1072.4168994141	0.9885503054
1074.3457067871	0.9899353385
1076.2745141602	1.0018385649
1078.2033215332	1.0049204826
1080.1321289062	1.0067228079
1082.0609362793	1.0077623129
1083.9897436523	1.0136229992
1085.9185510254	1.0231081247
1087.8473583984	1.0104556084
1089.7761657715	0.9931098223
1091.7049731445	1.0307763815
1093.6337805176	1.0636144876
1095.5625878906	1.0100270510
1097.4913952637	1.0170457363
1099.4202026367	1.0228028297
1101.3490100098	1.0152165890
1103.2778173828	1.0545191765
1105.2066247559	0.9823387861
1107.1354321289	0.9971262813
1109.0642395019	1.0458427668
1110.9930468750	1.0306781530
1112.9218542480	1.0333341360
1114.8506616211	0.9806979895
1116.7794689941	1.0229269266
1118.7082763672	1.0140197277
1120.6370837402	1.0129832029
1122.5658911133	1.0833754539
1124.4946984863	1.0282486677
1126.4235058594	1.0230333805
1128.3523132324	1.0072638988
1130.2811206055	0.9894940853
1132.2099279785	1.0370320082
1134.1387353516	1.0313705206
1136.0675427246	1.0161516666
1137.9963500977	1.0047996044
1139.9251574707	0.9869680405
1141.8539648437	0.9953987002
1143.7827722168	1.0052527189
1145.7115795898	1.0282560587
1147.6403869629	1.0598325729
1149.5691943359	1.0321522951
1151.4980017090	1.0139735937
1153.4268090820	1.0126218796
1155.3556164551	0.9983339310
1157.2844238281	1.0147964954
1159.2132312012	1.0239435434
1161.1420385742	1.0139757395
1163.0708459473	1.0174701214
1164.9996533203	1.0283675194
1166.9284606934	1.0096979141
1168.8572680664	0.9987999201
1170.7860754394	1.0149223804
1172.7148828125	1.0103853941
1174.6436901855	1.0194903612
1176.5724975586	1.0214170218
1178.5013049316	1.0027087927
1180.4301123047	1.0086845160
1182.3589196777	1.0221641064
1184.2877270508	1.0105994940
1186.2165344238	0.9983298182
1188.1453417969	1.0140153170
1190.0741491699	1.0086581707
1192.0029565430	1.0045235157
1193.9317639160	1.0122541189
1195.8605712891	1.0029650927
1197.7893786621	1.0158197880
1199.7181860351	1.0166131258
1201.6469934082	1.0027014017
1203.5758007812	1.0066307783
1205.5046081543	1.0098984241
1207.4334155273	1.0119765997
1209.3622229004	1.0122506618
1211.2910302734	1.0171988010
1213.2198376465	1.0100101233
1215.1486450195	1.0006968975
1217.0774523926	1.0107932091
1219.0062597656	1.0085861683
1220.9350671387	1.0071347952
1222.8638745117	1.0113035440
1224.7926818848	1.0078982115
1226.7214892578	1.0118442774
1228.6502966308	1.0107731819
1230.5791040039	1.0059844255
1232.5079113769	1.0090762377
1234.4367187500	1.0112073421
1236.3655261230	1.0090614557
1238.2943334961	1.0088092089
1240.2231408691	1.0087651014
1242.1519482422	1.0074280500
1244.0807556152	1.0118985176
1246.0095629883	1.0110281706
1247.9383703613	1.0056447983
1249.8671777344	1.0095348358
1251.7959851074	1.0143179893
1253.7247924805	1.0123502016
1255.6535998535	1.0084910393
1257.5824072266	1.0034433603
1259.5112145996	1.0019664764
1261.4400219726	1.0070979595
1263.3688293457	1.0063273907
1265.2976367187	1.0086250305
1267.2264440918	1.0078539848
1269.1552514648	1.0042157173
1271.0840588379	1.0116732121
1273.0128662109	1.0052504539
1274.9416735840	1.0048494339
1276.8704809570	1.0115902424
1278.7992883301	1.0105661154
1280.7280957031	1.0157889128
1282.6569030762	1.0074688196
1284.5857104492	1.0078617334
1286.5145178223	1.0188202858
1288.4433251953	1.0140814781
1290.3721325683	1.0126992464
1292.3009399414	1.0147545338
1294.2297473144	1.0087074041
1296.1585546875	1.0096791983
1298.0873620605	1.0151951313
1300.0161694336	1.0106911659
1301.9449768066	1.0126712322
1303.8737841797	1.0092730522
1305.8025915527	1.0079414845
1307.7313989258	1.0138909817
1309.6602062988	1.0126959085
1311.5890136719	1.0153919458
1313.5178210449	1.0049370527
1315.4466284180	1.0073142052
1317.3754357910	1.0155280828
1319.3042431640	1.0077245235
1321.2330505371	1.0120445490
1323.1618579101	1.0106216669
1325.0906652832	1.0089020729
1327.0194726562	1.0097665787
1328.9482800293	1.0073094368
1330.8770874023	1.0105597973
1332.8058947754	1.0121004581
1334.7347021484	1.0122990608
1336.6635095215	1.0086857080
1338.5923168945	1.0132699013
1340.5211242676	1.0168076754
1342.4499316406	1.0098860264
1344.3787390137	1.0135997534
1346.3075463867	1.0142863989
1348.2363537597	1.0101758242
1350.1651611328	1.0079619884
1352.0939685058	1.0047675371
1354.0227758789	1.0111497641
1355.9515832519	1.0107662678
1357.8803906250	1.0045614243
1359.8091979980	1.0069442987
1361.7380053711	1.0061485767
1363.6668127441	1.0087954998
1365.5956201172	1.0151680708
1367.5244274902	1.0103044510
1369.4532348633	1.0078659058
1371.3820422363	1.0157938004
1373.3108496094	1.0095223188
1375.2396569824	1.0078141689
1377.1684643555	1.0171190500
1379.0972717285	1.0084729195
1381.0260791015	1.0093110800
1382.9548864746	1.0134717226
1384.8836938476	1.0149930716
1386.8125012207	1.0140399933
1388.7413085937	1.0041428804
1390.6701159668	1.0142371655
1392.5989233398	1.0101294518
1394.5277307129	1.0051444769
1396.4565380859	1.0138159990
1398.3853454590	1.0083191395
1400.3141528320	1.0112465620
1402.2429602051	1.0121375322
1404.1717675781	1.0109837055
1406.1005749512	1.0088037252
1408.0293823242	1.0072135925
1409.9581896972	1.0077178478
1411.8869970703	1.0090425014
1413.8158044433	1.0170966387
1415.7446118164	1.0140557289
1417.6734191894	1.0106694698
1419.6022265625	1.0070313215
1421.5310339355	1.0106146336
1423.4598413086	1.0126279593
1425.3886486816	1.0078816414
1427.3174560547	1.0137301683
1429.2462634277	1.0082552433
1431.1750708008	1.0107024908
1433.1038781738	1.0110704899
1435.0326855469	1.0033243895
1436.9614929199	1.0082360506
1438.8903002929	1.0102103949
1440.8191076660	1.0085994005
1442.7479150390	1.0057506561
1444.6767224121	1.0169022083
1446.6055297851	1.0172444582
1448.5343371582	1.0115514994
1450.4631445312	1.0098346472
1452.3919519043	1.0095536709
1454.3207592773	1.0181155205
1456.2495666504	1.0113496780
1458.1783740234	1.0110287666
1460.1071813965	1.0083128214
1462.0359887695	1.0083982944
1463.9647961426	1.0084480047
1465.8936035156	1.0063354969
1467.8224108886	1.0134204626
1469.7512182617	1.0036847591
1471.6800256347	1.0061876774
1473.6088330078	1.0111818314
1475.5376403808	1.0065573454
1477.4664477539	1.0117949247
1479.3952551269	1.0088030100
1481.3240625000	1.0080494881
1483.2528698730	1.0095556974
1485.1816772461	1.0096775293
1487.1104846191	1.0074663162
1489.0392919922	1.0056332350
1490.9680993652	1.0082088709
1492.8969067383	1.0068105459
1494.8257141113	1.0068515539
1496.7545214843	1.0057396889
1498.6833288574	1.0045236349
1500.6121362304	1.0046041012
1502.5409436035	1.0048005581
1504.4697509765	1.0047848225
1506.3985583496	1.0025882721
1508.3273657226	1.0041420460
1510.2561730957	1.0025475025
1512.1849804687	1.0017514229
1514.1137878418	1.0030132532
1516.0425952148	1.0011582375
1517.9714025879	1.0025258064
1519.9002099609	1.0029931068
1521.8290173340	1.0028522015
1523.7578247070	1.0042972565
1525.6866320801	1.0014116764
1527.6154394531	0.9983313084
1529.5442468261	1.0009473562
1531.4730541992	1.0014121532
1533.4018615722	0.9997432232
1535.3306689453	1.0013484955
1537.2594763183	1.0000551939
1539.1882836914	0.9973061681
1541.1170910644	0.9987621307
1543.0458984375	0.9975911975
1544.9747058105	0.9951761961
1546.9035131836	0.9956834316
1548.8323205566	0.9943345189
1550.7611279297	0.9955413938
1552.6899353027	0.9971827865
1554.6187426758	0.9945654273
1556.5475500488	0.9953603148
1558.4763574218	0.9923018217
1560.4051647949	0.9897701144
1562.3339721679	0.9945763350
1564.2627795410	0.9915612340
1566.1915869140	0.9891985655
1568.1203942871	0.9901274443
1570.0492016601	0.9889169335
1571.9780090332	0.9890419245
1573.9068164062	0.9870775342
1575.8356237793	0.9848019481
1577.7644311523	0.9823057055
1579.6932385254	0.9800303578
1581.6220458984	0.9811466932
1583.5508532715	0.9807232618
1585.4796606445	0.9773104191
1587.4084680175	0.9772179723
1589.3372753906	0.9757486582
1591.2660827636	0.9717992544
1593.1948901367	0.9713036418
1595.1236975097	0.9684573412
1597.0525048828	0.9674067497
1598.9813122558	0.9655293822
1600.9101196289	0.9596620798
1602.8389270019	0.9577674270
1604.7677343750	0.9539710879
1606.6965417480	0.9513213634
1608.6253491211	0.9482882619
1610.5541564941	0.9439229965
1612.4829638672	0.9423702359
1614.4117712402	0.9378966093
1616.3405786132	0.9333405495
1618.2693859863	0.9285421968
1620.1981933593	0.9260085225
1622.1270007324	0.9252777696
1624.0558081054	0.9200242758
1625.9846154785	0.9169624448
1627.9134228515	0.9166364670
1629.8422302246	0.9126738310
1631.7710375976	0.9093573689
1633.6998449707	0.9083154202
1635.6286523437	0.9065519571
1637.5574597168	0.9065731168
1639.4862670898	0.9076483846
1641.4150744629	0.9062514305
1643.3438818359	0.9063411355
1645.2726892090	0.9098452926
1647.2014965820	0.9128380418
1649.1303039550	0.9124054909
1651.0591113281	0.9107544422
1652.9879187011	0.9148957729
1654.9167260742	0.9182689190
1656.8455334472	0.9190735817
1658.7743408203	0.9229788184
1660.7031481933	0.9253296852
1662.6319555664	0.9300224781
1664.5607629394	0.9324212670
1666.4895703125	0.9347449541
1668.4183776855	0.9372918606
1670.3471850586	0.9391455650
1672.2759924316	0.9450421929
1674.2047998047	0.9470261335
1676.1336071777	0.9497584105
1678.0624145507	0.9543008208
1679.9912219238	0.9557672739
1681.9200292968	0.9588732719
1683.8488366699	0.9631243944
1685.7776440429	0.9641072154
1687.7064514160	0.9676788449
1689.6352587890	0.9710129499
1691.5640661621	0.9738976955
1693.4928735351	0.9786031842
1695.4216809082	0.9795040488
1697.3504882812	0.9829452634
1699.2792956543	0.9849429131
1701.2081030273	0.9851222634
1703.1369104004	0.9907851815
1705.0657177734	0.9944860339
1706.9945251464	0.9961851239
1708.9233325195	0.9961655140
1710.8521398925	0.9985947013
1712.7809472656	0.9992779493
1714.7097546386	1.0022151470
1716.6385620117	1.0039101839
1718.5673693847	1.0010068417
1720.4961767578	1.0077224970
1722.4249841308	1.0083101988
1724.3537915039	1.0082620382
1726.2825988769	1.0112243891
1728.2114062500	1.0094882250
1730.1402136230	1.0112353563
1732.0690209961	1.0126265287
1733.9978283691	1.0134679079
1735.9266357421	1.0154843330
1737.8554431152	1.0158416033
1739.7842504882	1.0163279772
1741.7130578613	1.0175144672
1743.6418652343	1.0166119337
1745.5706726074	1.0179601908
1747.4994799804	1.0188654661
1749.4282873535	1.0173530579
1751.3570947265	1.0209467411
1753.2859020996	1.0210480690
1755.2147094726	1.0222973824
1757.1435168457	1.0237702131
1759.0723242187	1.0236454010
1761.0011315918	1.0263301134
1762.9299389648	1.0233556032
1764.8587463379	1.0242525339
1766.7875537109	1.0251569748
1768.7163610839	1.0242024660
1770.6451684570	1.0260598660
1772.5739758300	1.0252861977
1774.5027832031	1.0272237062
1776.4315905761	1.0266904831
1778.3603979492	1.0255193710
1780.2892053222	1.0274939537
1782.2180126953	1.0274512768
1784.1468200683	1.0272798538
1786.0756274414	1.0274405479
1788.0044348144	1.0272445679
1789.9332421875	1.0271369219
1791.8620495605	1.0291670561
1793.7908569336	1.0311980247
1795.7196643066	1.0291775465
1797.6484716796	1.0282791853
1799.5772790527	1.0300976038
1801.5060864257	1.0282194614
1803.4348937988	1.0278184414
1805.3637011718	1.0306456089
1807.2925085449	1.0285731554
1809.2213159179	1.0282744169
1811.1501232910	1.0310148001
1813.0789306640	1.0291587114
1815.0077380371	1.0286589861
1816.9365454101	1.0315984488
1818.8653527832	1.0310271978
1820.7941601562	1.0303549767
1822.7229675293	1.0318005085
1824.6517749023	1.0305966139
1826.5805822753	1.0302585363
1828.5093896484	1.0303593874
1830.4381970214	1.0286594629
1832.3670043945	1.0304946899
1834.2958117675	1.0330911875
1836.2246191406	1.0311672688
1838.1534265136	1.0299285650
1840.0822338867	1.0325207710
1842.0110412597	1.0318015814
1843.9398486328	1.0302864313
1845.8686560058	1.0321109295
1847.7974633789	1.0313849449
1849.7262707519	1.0314904451
1851.6550781250	1.0337237120
1853.5838854980	1.0310248137
1855.5126928710	1.0298788548
1857.4415002441	1.0323010683
1859.3703076171	1.0301088095
1861.2991149902	1.0300490856
1863.2279223632	1.0317317247
1865.1567297363	1.0312207937
1867.0855371093	1.0311601162
1869.0143444824	1.0289512873
1870.9431518554	1.0295907259
1872.8719592285	1.0329402685
1874.8007666015	1.0335698128
1876.7295739746	1.0323352814
1878.6583813476	1.0315723419
1880.5871887207	1.0312080383
1882.5159960937	1.0307587385
1884.4448034667	1.0316624641
1886.3736108398	1.0318543911
1888.3024182128	1.0313603878
1890.2312255859	1.0310648680
1892.1600329589	1.0312237740
1894.0888403320	1.0311735868
1896.0176477050	1.0297733545
1897.9464550781	1.0303143263
1899.8752624511	1.0310029984
1901.8040698242	1.0313179493
1903.7328771972	1.0319864750
1905.6616845703	1.0313427448
1907.5904919433	1.0308952332
1909.5192993164	1.0302869081
1911.4481066894	1.0308893919
1913.3769140625	1.0324026346
1915.3057214355	1.0314542055
1917.2345288085	1.0293434858
1919.1633361816	1.0303158760
1921.0921435546	1.0324137211
1923.0209509277	1.0309978724
1924.9497583007	1.0306682587
1926.8785656738	1.0319911242
1928.8073730468	1.0307465792
1930.7361804199	1.0302175283
1932.6649877929	1.0310269594
1934.5937951660	1.0311452150
1936.5226025390	1.0301077366
1938.4514099121	1.0301774740
1940.3802172851	1.0319509506
1942.3090246582	1.0306859016
1944.2378320312	1.0287683010
1946.1666394042	1.0286519527
1948.0954467773	1.0295238495
1950.0242541503	1.0316909552
1951.9530615234	1.0314429998
1953.8818688964	1.0301932096
1955.8106762695	1.0291048288
1957.7394836425	1.0290015936
1959.6682910156	1.0306590796
1961.5970983886	1.0295065641
1963.5259057617	1.0292770863
1965.4547131347	1.0302474499
1967.3835205078	1.0293523073
1969.3123278808	1.0298396349
1971.2411352539	1.0290694237
1973.1699426269	1.0292190313
1975.0987499999	1.0310207605
1977.0275573730	1.0287828445
1978.9563647460	1.0276194811
1980.8851721191	1.0286494493
1982.8139794921	1.0283223391
1984.7427868652	1.0273475647
1986.6715942382	1.0262730122
1988.6004016113	1.0278548002
1990.5292089843	1.0282627344
1992.4580163574	1.0269174576
1994.3868237304	1.0273503065
1996.3156311035	1.0270539522
1998.2444384765	1.0266696215
2000.1732458496	1.0254719257
2002.1020532226	1.0249469280
2004.0308605956	1.0251309872
2005.9596679687	1.0259423256
2007.8884753417	1.0286378860
2009.8172827148	1.0279723406
2011.7460900878	1.0266616344
2013.6748974609	1.0256451368
2015.6037048339	1.0262650251
2017.5325122070	1.0287498236
2019.4613195800	1.0272651911
2021.3901269531	1.0259128809
2023.3189343261	1.0247266293
2025.2477416992	1.0255620480
2027.1765490722	1.0260077715
2029.1053564453	1.0242701769
2031.0341638183	1.0256357193
2032.9629711914	1.0242658854
2034.8917785644	1.0252182484
2036.8205859374	1.0258206129
2038.7493933105	1.0242304802
2040.6782006835	1.0269869566
2042.6070080566	1.0250580311
2044.5358154296	1.0246056318
2046.4646228027	1.0247788429
2048.3934301757	1.0236486197
2050.3222375488	1.0269315243
2052.2510449218	1.0254971981
2054.1798522949	1.0237085819
2056.1086596679	1.0242557526
2058.0374670410	1.0240217447
2059.9662744140	1.0236604214
2061.8950817871	1.0239313841
2063.8238891601	1.0240179300
2065.7526965331	1.0220657587
2067.6815039062	1.0234433413
2069.6103112792	1.0241608620
2071.5391186523	1.0246990919
2073.4679260253	1.0243287086
2075.3967333984	1.0219497681
2077.3255407714	1.0237444639
2079.2543481445	1.0230475664
2081.1831555175	1.0224498510
2083.1119628906	1.0221072435
2085.0407702636	1.0217880011
2086.9695776367	1.0235415697
2088.8983850097	1.0222966671
2090.8271923828	1.0234301090
2092.7559997558	1.0239614248
2094.6848071288	1.0227093697
2096.6136145019	1.0234317780
2098.5424218749	1.0235303640
2100.4712292480	1.0221296549
2102.4000366210	1.0220544338
2104.3288439941	1.0237368345
2106.2576513671	1.0240120888
2108.1864587402	1.0242176056
2110.1152661132	1.0209819078
2112.0440734863	1.0217382908
2113.9728808593	1.0240430832
2115.9016882324	1.0200611353
2117.8304956054	1.0214681625
2119.7593029785	1.0224287510
2121.6881103515	1.0230839252
2123.6169177245	1.0239115953
2125.5457250976	1.0203561783
2127.4745324706	1.0205954313
2129.4033398437	1.0210161209
2131.3321472167	1.0211040974
2133.2609545898	1.0215185881
2135.1897619628	1.0212172270
2137.1185693359	1.0225784779
2139.0473767089	1.0242344141
2140.9761840820	1.0239764452
2142.9049914550	1.0215613842
2144.8337988281	1.0218462944
2146.7626062011	1.0231297016
2148.6914135742	1.0232729912
2150.6202209472	1.0236054659
2152.5490283203	1.0220210552
2154.4778356933	1.0220334530
2156.4066430663	1.0244055986
2158.3354504394	1.0241013765
2160.2642578124	1.0234379768
2162.1930651855	1.0225447416
2164.1218725585	1.0227633715
2166.0506799316	1.0250374079
2167.9794873046	1.0221017599
2169.9082946777	1.0206130743
2171.8371020507	1.0228278637
2173.7659094238	1.0236258507
2175.6947167968	1.0241389275
2177.6235241699	1.0242205858
2179.5523315429	1.0256534815
2181.4811389160	1.0242553949
2183.4099462890	1.0238499641
2185.3387536620	1.0248043537
2187.2675610351	1.0226604939
2189.1963684081	1.0224965811
2191.1251757812	1.0223324299
2193.0539831542	1.0236653090
2194.9827905273	1.0239474773
2196.9115979003	1.0210222006
2198.8404052734	1.0232416391
2200.7692126464	1.0261008739
2202.6980200195	1.0228381157
2204.6268273925	1.0216876268
2206.5556347656	1.0237389803
2208.4844421386	1.0246430635
2210.4132495117	1.0254596472
2212.3420568847	1.0232719183
2214.2708642577	1.0230267048
2216.1996716308	1.0243526697
2218.1284790038	1.0256844759
2220.0572863769	1.0260505676
2221.9860937499	1.0225389004
2223.9149011230	1.0246578455
2225.8437084960	1.0270106792
2227.7725158691	1.0264317989
2229.7013232421	1.0250759125
2231.6301306152	1.0248118639
2233.5589379882	1.0265132189
2235.4877453613	1.0245076418
2237.4165527343	1.0257705450
2239.3453601074	1.0248669386
2241.2741674804	1.0233086348
2243.2029748534	1.0249302387
2245.1317822265	1.0242953300
2247.0605895995	1.0270059109
2248.9893969726	1.0277547836
2250.9182043456	1.0264277458
2252.8470117187	1.0260047913
2254.7758190917	1.0251305103
2256.7046264648	1.0250623226
2258.6334338378	1.0258141756
2260.5622412109	1.0268893242
2262.4910485839	1.0283225775
2264.4198559570	1.0280066729
2266.3486633300	1.0248750448
2268.2774707031	1.0265488625
2270.2062780761	1.0268247128
2272.1350854491	1.0253537893
2274.0638928222	1.0261843204
2275.9927001952	1.0255336761
2277.9215075683	1.0257061720
2279.8503149413	1.0257183313
2281.7791223144	1.0276486874
2283.7079296874	1.0265576839
2285.6367370605	1.0279439688
2287.5655444335	1.0286859274
2289.4943518066	1.0239653587
2291.4231591796	1.0276306868
2293.3519665527	1.0262736082
2295.2807739257	1.0249456167
2297.2095812988	1.0288442373
2299.1383886718	1.0257383585
2301.0671960449	1.0251990557
2302.9960034179	1.0253723860
2304.9248107909	1.0239336491
2306.8536181640	1.0228137970
2308.7824255370	1.0213953257
2310.7112329101	1.0216253996
2312.6400402831	1.0192306042
2314.5688476562	1.0159484148
2316.4976550292	1.0174195766
2318.4264624023	1.0179349184
2320.3552697753	1.0129847527
2322.2840771484	1.0090235472
2324.2128845214	1.0108134747
2326.1416918945	1.0117572546
2328.0704992675	1.0076538324
2329.9993066406	1.0065907240
2331.9281140136	1.0054755211
2333.8569213866	1.0057319403
2335.7857287597	1.0079096556
2337.7145361327	1.0044513941
2339.6433435058	1.0034052134
2341.5721508788	1.0071986914
2343.5009582519	1.0104026794
2345.4297656249	1.0084849596
2347.3585729980	1.0147008896
2349.2873803710	1.0212230682
2351.2161877441	1.0143290758
2353.1449951171	1.0093663931
2355.0738024902	1.0017589331
2357.0026098632	0.9982152581
2358.9314172363	0.9994273782
2360.8602246093	0.9958632588
2362.7890319823	0.9970341921
2364.7178393554	0.9970120192
2366.6466467284	1.0005358458
2368.5754541015	1.0030455589
2370.5042614745	1.0059251785
2372.4330688476	1.0114386082
2374.3618762206	1.0144877434
2376.2906835937	1.0194205046
2378.2194909667	1.0213406086
2380.1482983398	1.0242731571
2382.0771057128	1.0266649723
2384.0059130859	1.0289156437
2385.9347204589	1.0304657221
2387.8635278320	1.0310442448
2389.7923352050	1.0328711271
2391.7211425780	1.0281215906
2393.6499499511	1.0281541348
2395.5787573241	1.0323468447
2397.5075646972	1.0310442448
2399.4363720702	1.0296709538
2401.3651794433	1.0303020477
2403.2939868163	1.0318156481
2405.2227941894	1.0325986147
2407.1516015624	1.0318912268
2409.0804089355	1.0304888487
2411.0092163085	1.0318880081
2412.9380236816	1.0311099291
2414.8668310546	1.0300316811
2416.7956384277	1.0314047337
2418.7244458007	1.0294870138
2420.6532531738	1.0289065838
2422.5820605468	1.0314700603
2424.5108679198	1.0326142311
2426.4396752929	1.0311709642
2428.3684826659	1.0327466726
2430.2972900390	1.0330224037
2432.2260974120	1.0302501917
2434.1549047851	1.0302482843
2436.0837121581	1.0302938223
2438.0125195312	1.0313074589
2439.9413269042	1.0308982134
2441.8701342773	1.0312618017
2443.7989416503	1.0327461958
2445.7277490234	1.0326211452
2447.6565563964	1.0322164297
2449.5853637695	1.0309400558
2451.5141711425	1.0320295095
2453.4429785155	1.0315287113
2455.3717858886	1.0311244726
2457.3005932616	1.0311259031
2459.2294006347	1.0295150280
2461.1582080077	1.0318028927
2463.0870153808	1.0317347050
2465.0158227538	1.0290203094
2466.9446301269	1.0306220055
2468.8734374999	1.0318007469
2470.8022448730	1.0303095579
2472.7310522460	1.0307440758
2474.6598596191	1.0316647291
2476.5886669921	1.0326998234
2478.5174743652	1.0324324369
2480.4462817382	1.0319178104
2482.3750891112	1.0329990387
2484.3038964843	1.0322877169
2486.2327038573	1.0332930088
2488.1615112304	1.0333778858
2490.0903186034	1.0342667103
2492.0191259765	1.0336636305
2493.9479333495	1.0323027372
2495.8767407226	1.0363067389
2497.8055480956	1.0338459015
2499.7343554687	1.0310912132
2501.6631628417	1.0292696953
2503.5919702148	1.0295685530
2505.5207775878	1.0332928896
2507.4495849609	1.0315418243
2509.3783923339	1.0334422588
2511.3071997069	1.0321674347
2513.2360070800	1.0304315090
2515.1648144530	1.0311713219
2517.0936218261	1.0300812721
2519.0224291991	1.0332994461
2520.9512365722	1.0334440470
2522.8800439452	1.0330331326
2524.8088513183	1.0320724249
2526.7376586913	1.0334241390
2528.6664660644	1.0348353386
2530.5952734374	1.0312738419
2532.5240808105	1.0327681303
2534.4528881835	1.0340282917
2536.3816955566	1.0336019993
2538.3105029296	1.0310765505
2540.2393103027	1.0306009054
2542.1681176757	1.0334964991
2544.0969250487	1.0309329033
2546.0257324218	1.0309002399
2547.9545397948	1.0341894627
2549.8833471679	1.0339074135
2551.8121545409	1.0314083099
2553.7409619140	1.0330830812
2555.6697692870	1.0347367525
2557.5985766601	1.0335960388
2559.5273840331	1.0335322618
2561.4561914062	1.0316996574
2563.3849987792	1.0317947865
2565.3138061523	1.0311338902
2567.2426135253	1.0313423872
2569.1714208984	1.0326472521
2571.1002282714	1.0317438841
2573.0290356444	1.0330878496
2574.9578430175	1.0323867798
2576.8866503905	1.0324033499
2578.8154577636	1.0323872566
2580.7442651366	1.0327118635
2582.6730725097	1.0344650745
2584.6018798827	1.0333634615
2586.5306872558	1.0339015722
2588.4594946288	1.0342863798
2590.3883020019	1.0353735685
2592.3171093749	1.0344800949
2594.2459167480	1.0319393873
2596.1747241210	1.0319324732
2598.1035314941	1.0335061550
2600.0323388671	1.0360231400
2601.9611462401	1.0311852694
2603.8899536132	1.0295020342
2605.8187609862	1.0332556963
2607.7475683593	1.0324363708
2609.6763757323	1.0326466560
2611.6051831054	1.0327371359
2613.5339904784	1.0329498053
2615.4627978515	1.0321512222
2617.3916052245	1.0323823690
2619.3204125976	1.0331733227
2621.2492199706	1.0314465761
2623.1780273437	1.0351215601
2625.1068347167	1.0357114077
2627.0356420898	1.0320228338
2628.9644494628	1.0340456963
2630.8932568358	1.0340381861
2632.8220642089	1.0320076942
2634.7508715819	1.0328098536
2636.6796789550	1.0316666365
2638.6084863280	1.0315874815
2640.5372937011	1.0331794024
2642.4661010741	1.0318337679
2644.3949084472	1.0317428112
2646.3237158202	1.0334690809
2648.2525231933	1.0332542658
2650.1813305663	1.0306197405
2652.1101379394	1.0312061310
2654.0389453124	1.0337181091
2655.9677526855	1.0320591927
2657.8965600585	1.0317909718
2659.8253674315	1.0323890448
2661.7541748046	1.0308643579
2663.6829821776	1.0305759907
2665.6117895507	1.0335606337
2667.5405969237	1.0336064100
2669.4694042968	1.0310212374
2671.3982116698	1.0327743292
2673.3270190429	1.0311162472
2675.2558264159	1.0304706097
2677.1846337890	1.0328358412
2679.1134411620	1.0316010714
2681.0422485351	1.0319588184
2682.9710559081	1.0321975946
2684.8998632812	1.0316066742
2686.8286706542	1.0311034918
2688.7574780273	1.0319122076
2690.6862854003	1.0324964523
2692.6150927733	1.0327030420
2694.5439001464	1.0325890779
2696.4727075194	1.0287445784
2698.4015148925	1.0306754112
2700.3303222655	1.0326684713
2702.2591296386	1.0301089287
2704.1879370116	1.0318335295
2706.1167443847	1.0318406820
2708.0455517577	1.0313335657
2709.9743591308	1.0313278437
2711.9031665038	1.0291631222
2713.8319738769	1.0304670334
2715.7607812499	1.0318039656
2717.6895886230	1.0320298672
2719.6183959960	1.0329070091
2721.5472033690	1.0300718546
2723.4760107421	1.0306214094
2725.4048181151	1.0323102474
2727.3336254882	1.0300467014
2729.2624328612	1.0312178135
2731.1912402343	1.0305737257
2733.1200476073	1.0309556723
2735.0488549804	1.0328931808
2736.9776623534	1.0310932398
2738.9064697265	1.0310018063
2740.8352770995	1.0312308073
2742.7640844726	1.0314885378
2744.6928918456	1.0318131447
2746.6216992187	1.0319896936
2748.5505065917	1.0289391279
2750.4793139647	1.0285025835
2752.4081213378	1.0318312645
2754.3369287108	1.0288014412
2756.2657360839	1.0286594629
2758.1945434569	1.0278254747
2760.1233508300	1.0264345407
2762.0521582030	1.0296715498
2763.9809655761	1.0302095413
2765.9097729491	1.0300782919
2767.8385803222	1.0280933380
2769.7673876952	1.0296769142
2771.6961950683	1.0298833847
2773.6250024413	1.0287103653
2775.5538098144	1.0305013657
2777.4826171874	1.0266586542
2779.4114245604	1.0291658640
2781.3402319335	1.0306535959
2783.2690393065	1.0270233154
2785.1978466796	1.0290659666
2787.1266540526	1.0281603336
2789.0554614257	1.0289545059
2790.9842687987	1.0278515816
2792.9130761718	1.0257598162
2794.8418835448	1.0302971601
2796.7706909179	1.0273988247
2798.6994982909	1.0249272585
2800.6283056640	1.0268268585
2802.5571130370	1.0245559216
2804.4859204101	1.0257550478
2806.4147277831	1.0260379314
2808.3435351562	1.0267124176
2810.2723425292	1.0264536142
2812.2011499022	1.0236355066
2814.1299572753	1.0277206898
2816.0587646483	1.0265412331
2817.9875720214	1.0261356831
2819.9163793944	1.0292946100
2821.8451867675	1.0260708332
2823.7739941405	1.0264765024
2825.7028015136	1.0259122849
2827.6316088866	1.0249706507
2829.5604162597	1.0259258747
2831.4892236327	1.0256531239
2833.4180310058	1.0231360197
2835.3468383788	1.0215792656
2837.2756457519	1.0242003202
2839.2044531249	1.0204875469
2841.1332604979	1.0217015743
2843.0620678710	1.0234867334
2844.9908752440	1.0215340853
2846.9196826171	1.0247222185
2848.8484899901	1.0180861950
2850.7772973632	1.0172369480
2852.7061047362	1.0217412710
2854.6349121093	1.0173466206
2856.5637194823	1.0158233643
2858.4925268554	1.0175677538
2860.4213342284	1.0197278261
2862.3501416015	1.0185999870
2864.2789489745	1.0212287903
2866.2077563476	1.0214720964
2868.1365637206	1.0168273449
2870.0653710936	1.0209282637
2871.9941784667	1.0202687979
2873.9229858397	1.0173500776
2875.8517932128	1.0207676888
2877.7806005858	1.0213339329
2879.7094079589	1.0210148096
2881.6382153319	1.0191965103
2883.5670227050	1.0161131620
2885.4958300780	1.0179196596
2887.4246374511	1.0190433264
2889.3534448241	1.0174361467
2891.2822521972	1.0164854527
2893.2110595702	1.0148956776
2895.1398669433	1.0161011219
2897.0686743163	1.0155282021
2898.9974816893	1.0133705139
2900.9262890624	1.0142253637
2902.8550964354	1.0146704912
2904.7839038085	1.0147166252
2906.7127111815	1.0126481056
2908.6415185546	1.0136039257
2910.5703259276	1.0143991709
2912.4991333007	1.0127869844
2914.4279406737	1.0128115416
2916.3567480468	1.0092915297
2918.2855554198	1.0077563524
2920.2143627929	1.0084425211
2922.1431701659	1.0097320080
2924.0719775390	1.0094515085
2926.0007849120	1.0068022013
2927.9295922851	1.0084363222
2929.8583996581	1.0086812973
2931.7872070311	1.0076160431
2933.7160144042	1.0085270405
2935.6448217772	1.0082694292
2937.5736291503	1.0063027143
2939.5024365233	1.0060689449
2941.4312438964	1.0064795017
2943.3600512694	1.0060434341
2945.2888586425	1.0078953505
2947.2176660155	1.0079151392
2949.1464733886	1.0065745115
2951.0752807616	1.0045969486
2953.0040881347	1.0034301281
2954.9328955077	1.0049637556
2956.8617028808	1.0036580563
2958.7905102538	1.0018548965
2960.7193176268	1.0033469200
2962.6481249999	1.0027836561
2964.5769323729	0.9992302060
2966.5057397460	0.9993172884
2968.4345471190	0.9993712306
2970.3633544921	1.0003044605
2972.2921618651	1.0005488396
2974.2209692382	0.9982185364
2976.1497766112	0.9995879531
2978.0785839843	0.9970279336
2980.0073913573	0.9971123338
2981.9361987304	0.9982894063
2983.8650061034	0.9954764247
2985.7938134765	0.9948629141
2987.7226208495	0.9930907488
2989.6514282225	0.9948128462
2991.5802355956	0.9923030138
2993.5090429686	0.9912544489
2995.4378503417	0.9940685630
2997.3666577147	0.9895760417
2999.2954650878	0.9888484478
3001.2242724608	0.9896970391
3003.1530798339	0.9894703627
3005.0818872069	0.9875829816
3007.0106945800	0.9866252542
3008.9395019530	0.9880701303
3010.8683093261	0.9853587747
3012.7971166991	0.9848595262
3014.7259240722	0.9843621254
3016.6547314452	0.9838756919
3018.5835388182	0.9838947058
3020.5123461913	0.9807298779
3022.4411535643	0.9789642692
3024.3699609374	0.9793846607
3026.2987683104	0.9802765250
3028.2275756835	0.9795993567
3030.1563830565	0.9782224298
3032.0851904296	0.9759451747
3034.0139978026	0.9741889238
3035.9428051757	0.9736796618
3037.8716125487	0.9714013934
3039.8004199218	0.9720463157
3041.7292272948	0.9744807482
3043.6580346679	0.9692844748
3045.5868420409	0.9661046267
3047.5156494139	0.9695774317
3049.4444567870	0.9661433101
3051.3732641600	0.9647959471
3053.3020715331	0.9659456015
3055.2308789061	0.9617644548
3057.1596862792	0.9606122375
3059.0884936522	0.9585862756
3061.0173010253	0.9581027031
3062.9461083983	0.9591984153
3064.8749157714	0.9549088478
3066.8037231444	0.9515682459
3068.7325305175	0.9523190260
3070.6613378905	0.9516748786
3072.5901452636	0.9499933720
3074.5189526366	0.9519370794
3076.4477600097	0.9488127828
3078.3765673827	0.9450814128
3080.3053747557	0.9466937184
3082.2341821288	0.9442471862
3084.1629895018	0.9428492785
3086.0917968749	0.9398319721
3088.0206042479	0.9379550815
3089.9494116210	0.9408945441
3091.8782189940	0.9358098507
3093.8070263671	0.9342305660
3095.7358337401	0.9340023398
3097.6646411132	0.9265494943
3099.5934484862	0.9260542989
3101.5222558593	0.9263240099
3103.4510632323	0.9263671637
3105.3798706054	0.9256905913
3107.3086779784	0.9219011664
3109.2374853514	0.9215793610
3111.1662927245	0.9171305299
3113.0951000975	0.9181917906
3115.0239074706	0.9191772938
3116.9527148436	0.9115472436
3118.8815222167	0.9110515118
3120.8103295897	0.9074542522
3122.7391369628	0.9048064351
3124.6679443358	0.9061454535
3126.5967517089	0.9018723369
3128.5255590819	0.9001943469
3130.4543664550	0.8975189328
3132.3831738280	0.8968532681
3134.3119812011	0.8956655264
3136.2407885741	0.8888916373
3138.1695959471	0.8885625005
3140.0984033202	0.8902935982
3142.0272106932	0.8881992698
3143.9560180663	0.8845277429
3145.8848254393	0.8827909827
3147.8136328124	0.8817146420
3149.7424401854	0.8783966899
3151.6712475585	0.8756599426
3153.6000549315	0.8724960089
3155.5288623046	0.8730177283
3157.4576696776	0.8699672222
3159.3864770507	0.8654991984
3161.3152844237	0.8658628464
3163.2440917968	0.8585166335
3165.1728991698	0.8579052687
3167.1017065428	0.8597521186
3169.0305139159	0.8531545401
3170.9593212889	0.8522220254
3172.8881286620	0.8518835902
3174.8169360350	0.8502922058
3176.7457434081	0.8444492221
3178.6745507811	0.8411627412
3180.6033581542	0.8436175585
3182.5321655272	0.8396707177
3184.4609729003	0.8353669047
3186.3897802733	0.8322981596
3188.3185876464	0.8323315382
3190.2473950194	0.8317196369
3192.1762023925	0.8266850710
3194.1050097655	0.8259301782
3196.0338171386	0.8265830874
3197.9626245116	0.8232634664
3199.8914318846	0.8210452795
3201.8202392577	0.8223439455
3203.7490466307	0.8169600368
3205.6778540038	0.8121422529
3207.6066613768	0.8142838478
3209.5354687499	0.8119814396
3211.4642761229	0.8086940050
3213.3930834960	0.8078883290
3215.3218908690	0.8067375422
3217.2506982421	0.8061569929
3219.1795056151	0.8061320186
3221.1083129882	0.8063009381
3223.0371203612	0.8051327467
3224.9659277343	0.7990957499
3226.8947351073	0.7948399782
3228.8235424803	0.7954884171
3230.7523498534	0.7945500016
3232.6811572264	0.7934955955
3234.6099645995	0.7920336723
3236.5387719725	0.7900274396
3238.4675793456	0.7870342731
3240.3963867186	0.7874968052
3242.3251940917	0.7899306417
3244.2540014647	0.7881857753
3246.1828088378	0.7866438627
3248.1116162108	0.7835607529
3250.0404235839	0.7846865058
3251.9692309569	0.7852449417
3253.8980383300	0.7810172439
3255.8268457030	0.7833315730
3257.7556530760	0.7846884131
3259.6844604491	0.7781026363
3261.6132678221	0.7728984356
3263.5420751952	0.7758590579
3265.4708825682	0.7781295180
3267.3996899413	0.7780860066
3269.3284973143	0.7764036655
3271.2573046874	0.7752815485
3273.1861120604	0.7765068412
3275.1149194335	0.7748957276
3277.0437268065	0.7790226936
3278.9725341796	0.7771144509
3280.9013415526	0.7715518475
3282.8301489257	0.7747870684
3284.7589562987	0.7737239599
3286.6877636717	0.7732518315
3288.6165710448	0.7725807428
3290.5453784178	0.7685053349
3292.4741857909	0.7691746354
3294.4029931639	0.7721855640
3296.3318005370	0.7713204622
3298.2606079100	0.7694452405
3300.1894152831	0.7683632970
3302.1182226561	0.7690162659
3304.0470300292	0.7687777877
3305.9758374022	0.7636936307
3307.9046447753	0.7670690417
3309.8334521483	0.7681992054
3311.7622595214	0.7635907531
3313.6910668944	0.7659885287
3315.6198742675	0.7661814094
3317.5486816405	0.7642879486
3319.4774890135	0.7627176046
3321.4062963866	0.7645981312
3323.3351037596	0.7636992931
3325.2639111327	0.7629434466
3327.1927185057	0.7645211816
3329.1215258788	0.7603649497
3331.0503332518	0.7610899210
3332.9791406249	0.7607660890
3334.9079479979	0.7595909238
3336.8367553710	0.7587326765
3338.7655627440	0.7597760558
3340.6943701171	0.7635922432
3342.6231774901	0.7579198480
3344.5519848632	0.7582758665
3346.4807922362	0.7590113282
3348.4095996092	0.7540512085
3350.3384069823	0.7595598102
3352.2672143553	0.7611869574
3354.1960217284	0.7558466196
3356.1248291014	0.7563688755
3358.0536364745	0.7562035322
3359.9824438475	0.7566168308
3361.9112512206	0.7584658265
3363.8400585936	0.7571645975
3365.7688659667	0.7593456507
3367.6976733397	0.7583613396
3369.6264807128	0.7592481375
3371.5552880858	0.7610617876
3373.4840954589	0.7574867606
3375.4129028319	0.7592936158
3377.3417102049	0.7575761080
3379.2705175780	0.7577384114
3381.1993249510	0.7581276894
3383.1281323241	0.7584133744
3385.0569396971	0.7623009682
3386.9857470702	0.7596808672
3388.9145544432	0.7632870674
3390.8433618163	0.7629869580
3392.7721691893	0.7616800070
3394.7009765624	0.7648212314
3396.6297839354	0.7631040812
3398.5585913085	0.7664180398
3400.4873986815	0.7675527930
3402.4162060546	0.7709918618
3404.3450134276	0.7725443244
3406.2738208006	0.7707170844
3408.2026281737	0.7730296850
3410.1314355467	0.7722539902
3412.0602429198	0.7753845453
3413.9890502928	0.7767829299
3415.9178576659	0.7790345550
3417.8466650389	0.7817334533
3419.7754724120	0.7783228159
3421.7042797850	0.7820509672
3423.6330871581	0.7864721417
3425.5618945311	0.7847309709
3427.4907019042	0.7875438333
3429.4195092772	0.7925287485
3431.3483166503	0.7872172594
3433.2771240233	0.7869909406
3435.2059313963	0.7948480844
3437.1347387694	0.7945672870
3439.0635461424	0.7966470718
3440.9923535155	0.7973172665
3442.9211608885	0.7972702384
3444.8499682616	0.8006568551
3446.7787756346	0.7993825674
3448.7075830077	0.8036025763
3450.6363903807	0.8055155873
3452.5651977538	0.8039251566
3454.4940051268	0.8087846041
3456.4228124999	0.8099958897
3458.3516198729	0.8136584163
3460.2804272460	0.8179579377
3462.2092346190	0.8158067465
3464.1380419921	0.8210479021
3466.0668493651	0.8232957721
3467.9956567381	0.8200733066
3469.9244641112	0.8224173188
3471.8532714842	0.8216723204
3473.7820788573	0.8268558979
3475.7108862303	0.8315069675
3477.6396936034	0.8290143609
3479.5685009764	0.8324472904
3481.4973083495	0.8323647380
3483.4261157225	0.8354022503
3485.3549230956	0.8391569257
3487.2837304686	0.8366826773
3489.2125378417	0.8414809704
3491.1413452147	0.8444380164
3493.0701525878	0.8435264230
3494.9989599608	0.8465951085
3496.9277673338	0.8500182629
3498.8565747069	0.8502142429
3500.7853820799	0.8511342406
3502.7141894530	0.8537225127
3504.6429968260	0.8556723595
3506.5718041991	0.8578670621
3508.5006115721	0.8582123518
3510.4294189452	0.8617490530
3512.3582263182	0.8650262952
3514.2870336913	0.8670113087
3516.2158410643	0.8677985668
3518.1446484374	0.8669391274
3520.0734558104	0.8724973202
3522.0022631835	0.8764034510
3523.9310705565	0.8785860538
3525.8598779295	0.8747082949
3527.7886853026	0.8724588156
3529.7174926756	0.8816854358
3531.6463000487	0.8831529617
3533.5751074217	0.8831476569
3535.5039147948	0.8843261600
3537.4327221678	0.8847328424
3539.3615295409	0.8872284293
3541.2903369139	0.8883769512
3543.2191442870	0.8927514553
3545.1479516600	0.8950172067
3547.0767590331	0.8948742747
3549.0055664061	0.8972742558
3550.9343737792	0.9016330838
3552.8631811522	0.9014216065
3554.7919885252	0.9033654928
3556.7207958983	0.9095343947
3558.6496032713	0.9072846174
3560.5784106444	0.9074888229
3562.5072180174	0.9107782841
3564.4360253905	0.9111799598
3566.3648327635	0.9096398354
3568.2936401366	0.9088773727
3570.2224475096	0.9153913856
3572.1512548827	0.9218269587
3574.0800622557	0.9239618778
3576.0088696288	0.9234027863
3577.9376770018	0.9240671396
3579.8664843749	0.9265856743
3581.7952917479	0.9310954809
3583.7240991210	0.9289464951
3585.6529064940	0.9246664047
3587.5817138670	0.9299678802
3589.5105212401	0.9323030114
3591.4393286131	0.9326512218
3593.3681359862	0.9342929125
3595.2969433592	0.9366630316
3597.2257507323	0.9389556050
3599.1545581053	0.9391680360
3601.0833654784	0.9431578517
3603.0121728514	0.9459926486
3604.9409802245	0.9438887239
3606.8697875975	0.9419111013
3608.7985949706	0.9448247552
3610.7274023436	0.9479886293
3612.6562097167	0.9495459199
3614.5850170897	0.9487138987
3616.5138244627	0.9502730370
3618.4426318358	0.9531509280
3620.3714392088	0.9502422214
3622.3002465819	0.9561702609
3624.2290539549	0.9609450698
3626.1578613280	0.9631614089
3628.0866687010	0.9641517997
3630.0154760741	0.9582927227
3631.9442834471	0.9624565244
3633.8730908202	0.9640067816
3635.8018981932	0.9672452807
3637.7307055663	0.9718839526
3639.6595129393	0.9714486599
3641.5883203124	0.9696630239
3643.5171276854	0.9703344703
3645.4459350584	0.9757069349
3647.3747424315	0.9750475883
3649.3035498045	0.9775187969
3651.2323571776	0.9809324145
3653.1611645506	0.9805692434
3655.0899719237	0.9849903584
3657.0187792967	0.9904413819
3658.9475866698	0.9890977740
3660.8763940428	0.9899899960
3662.8052014159	0.9941303134
3664.7340087889	0.9915462732
3666.6628161620	0.9993438125
3668.5916235350	0.9990819693
3670.5204309081	0.9894029498
3672.4492382811	0.9978018999
3674.3780456541	0.9993257523
3676.3068530272	1.0011399984
3678.2356604002	1.0035407543
3680.1644677733	1.0048971176
3682.0932751463	1.0034662485
3684.0220825194	1.0027793646
3685.9508898924	1.0096073151
3687.8796972655	1.0065537691
3689.8085046385	1.0044186115
3691.7373120116	1.0100295544
3693.6661193846	1.0135519505
3695.5949267577	1.0115500689
3697.5237341307	1.0123502016
3699.4525415038	1.0132051706
3701.3813488768	1.0102107525
3703.3101562499	1.0153137445
3705.2389636229	1.0151255131
3707.1677709959	1.0146117210
3709.0965783690	1.0115605593
3711.0253857420	1.0130802393
3712.9541931151	1.0208783150
3714.8830004881	1.0162292719
3716.8118078612	1.0148488283
3718.7406152342	1.0126591921
3720.6694226073	1.0155205727
3722.5982299803	1.0193179846
3724.5270373534	1.0206930637
3726.4558447264	1.0212236643
3728.3846520995	1.0137056112
3730.3134594725	1.0169023275
3732.2422668456	1.0189422369
3734.1710742186	1.0135227442
3736.0998815916	1.0153709650
3738.0286889647	1.0219373703
3739.9574963377	1.0166884661
3741.8863037108	1.0135116577
3743.8151110838	1.0206688643
3745.7439184569	1.0134713650
3747.6727258299	1.0097581148
3749.6015332030	1.0145049095
3751.5303405760	1.0201771259
3753.4591479491	1.0176260471
3755.3879553221	1.0175324678
3757.3167626952	1.0202206373
3759.2455700682	1.0190379620
3761.1743774413	1.0224425793
3763.1031848143	1.0212506056
3765.0319921873	1.0239490271
3766.9607995604	1.0219753981
3768.8896069334	1.0182929039
3770.8184143065	1.0202555656
3772.7472216795	1.0185452700
3774.6760290526	1.0202479362
3776.6048364256	1.0170757771
3778.5336437987	1.0223194361
3780.4624511717	1.0227818489
3782.3912585448	1.0179506540
3784.3200659178	1.0195116997
3786.2488732909	1.0190286636
3788.1776806639	1.0234676600
3790.1064880370	1.0168695450
3792.0352954100	1.0209190845
3793.9641027830	1.0203830004
3795.8929101561	1.0146101713
3797.8217175291	1.0229148865
3799.7505249022	1.0152852535
3801.6793322752	1.0227130651
3803.6081396483	1.0226196051
3805.5369470213	1.0144574642
3807.4657543944	1.0233337879
3809.3945617674	1.0169464350
3811.3233691405	1.0145735741
3813.2521765135	1.0185369253
3815.1809838866	1.0186342001
3817.1097912596	1.0191419125
3819.0385986327	1.0212287903
3820.9674060057	1.0196356773
3822.8962133787	1.0165895224
3824.8250207518	1.0206450224
3826.7538281248	1.0151135921
3828.6826354979	1.0161608458
3830.6114428709	1.0193355083
3832.5402502440	1.0152052641
3834.4690576170	1.0208209753
3836.3978649901	1.0180571079
3838.3266723631	1.0140548944
3840.2554797362	1.0196132660
3842.1842871092	1.0158834457
3844.1130944823	1.0192842484
3846.0419018553	1.0238000154
3847.9707092284	1.0136705637
3849.8995166014	1.0182526112
3851.8283239745	1.0258033276
3853.7571313475	1.0136716366
3855.6859387205	1.0145437717
3857.6147460936	1.0159341097
3859.5435534666	1.0106911659
3861.4723608397	1.0115118027
3863.4011682127	1.0161905289
3865.3299755858	1.0236779451
3867.2587829588	1.0223019123
3869.1875903319	1.0198739767
3871.1163977049	1.0189986229
3873.0452050780	1.0205310583
3874.9740124510	1.0252609253
3876.9028198241	1.0197807550
3878.8316271971	1.0181205273
3880.7604345702	1.0195912123
3882.6892419432	1.0187504292
3884.6180493162	1.0216385126
3886.5468566893	1.0180922747
3888.4756640623	1.0158870220
3890.4044714354	1.0184884071
3892.3332788084	1.0156521797
3894.2620861815	1.0120180845
3896.1908935545	1.0151145458
3898.1197009276	1.0189754963
3900.0485083006	1.0203666687
3901.9773156737	1.0225138664
3903.9061230467	1.0195466280
3905.8349304198	1.0126144886
3907.7637377928	1.0105255842
3909.6925451659	1.0171531439
3911.6213525389	1.0229070187
3913.5501599119	1.0205280781
3915.4789672850	1.0177686214
3917.4077746580	1.0171970129
3919.3365820311	1.0142971277
3921.2653894041	1.0106011629
3923.1941967772	1.0185209513
3925.1230041502	1.0205963850
3927.0518115233	1.0152525902
3928.9806188963	1.0170767307
3930.9094262694	1.0161528587
3932.8382336424	1.0184454918
3934.7670410155	1.0167613029
3936.6958483885	1.0175271034
3938.6246557616	1.0208940506
3940.5534631346	1.0192406178
3942.4822705076	1.0191317797
3944.4110778807	1.0146788359
3946.3398852537	1.0201635361
3948.2686926268	1.0206576586
3950.1974999998	1.0158176422
3952.1263073729	1.0209019184
3954.0551147459	1.0216298103
3955.9839221190	1.0189880133
3957.9127294920	1.0148094893
3959.8415368651	1.0170010328
3961.7703442381	1.0166534185
3963.6991516112	1.0190972090
3965.6279589842	1.0224050283
3967.5567663573	1.0184710026
3969.4855737303	1.0183498859
3971.4143811034	1.0123661757
3973.3431884764	1.0202370882
3975.2719958494	1.0235844851
3977.2008032225	1.0156996250
3979.1296105955	1.0196510553
3981.0584179686	1.0154390335
3982.9872253416	1.0176554918
3984.9160327147	1.0186961889
3986.8448400877	1.0178321600
3988.7736474608	1.0211890936
3990.7024548338	1.0143059492
3992.6312622069	1.0191982985
3994.5600695799	1.0229935646
3996.4888769530	1.0176793337
3998.4176843260	1.0181130171
4000.3464916991	1.0151109695
4002.2752990721	1.0176637173
4004.2041064451	1.0235558748
4006.1329138182	1.0185247660
4008.0617211912	1.0220854282
4009.9905285643	1.0253895521
4011.9193359373	1.0169264078
4013.8481433104	1.0175174475
4015.7769506834	1.0149163008
4017.7057580565	1.0170040131
4019.6345654295	1.0184459686
4021.5633728026	1.0114740133
4023.4921801756	1.0193661451
4025.4209875487	1.0186896324
4027.3497949217	1.0157268047
4029.2786022948	1.0166449547
4031.2074096678	1.0180374384
4033.1362170408	1.0237107277
4035.0650244139	1.0182018280
4036.9938317869	1.0224169493
4038.9226391600	1.0199067593
4040.8514465330	1.0138306618
4042.7802539061	1.0174332857
4044.7090612791	1.0109897852
4046.6378686522	1.0171892643
4048.5666760252	1.0186862946
4050.4954833983	1.0114018917
4052.4242907713	1.0140277147
4054.3530981444	1.0176792145
4056.2819055174	1.0146920681
4058.2107128905	1.0111376047
4060.1395202635	1.0182691813
4062.0683276365	1.0137805939
4063.9971350096	1.0173336267
4065.9259423826	1.0202900171
4067.8547497557	1.0120533705
4069.7835571287	1.0201610327
4071.7123645018	1.0142439604
4073.6411718748	1.0152815580
4075.5699792479	1.0211244822
4077.4987866209	1.0133255720
4079.4275939940	1.0151619911
4081.3564013670	1.0178803205
4083.2852087401	1.0163112879
4085.2140161131	1.0082011223
4087.1428234862	1.0120837688
4089.0716308592	1.0130665302
4091.0004382323	1.0115497112
4092.9292456053	1.0170558691
4094.8580529783	1.0109014511
4096.7868603514	1.0168726444
4098.7156677244	1.0171005726
4100.6444750975	1.0125596523
4102.5732824705	1.0163714886
4104.5020898436	1.0134203434
4106.4308972166	1.0113073587
4108.3597045897	1.0155820847
4110.2885119627	1.0203908682
4112.2173193358	1.0146899223
4114.1461267088	1.0175809860
4116.0749340819	1.0173504353
4118.0037414549	1.0151821375
4119.9325488280	1.0187585354
4121.8613562010	1.0170319080
4123.7901635740	1.0218876600
4125.7189709471	1.0140399933
4127.6477783201	1.0121308565
4129.5765856932	1.0160871744
4131.5053930662	1.0135564804
4133.4342004393	1.0105620623
4135.3630078123	1.0085989237
4137.2918151854	1.0231211185
4139.2206225584	1.0204045773
4141.1494299315	1.0149548054
4143.0782373045	1.0142234564
4145.0070446776	1.0089470148
4146.9358520506	1.0149284601
4148.8646594237	1.0153300762
4150.7934667967	1.0169167519
4152.7222741697	1.0128264427
4154.6510815428	1.0135023594
4156.5798889158	1.0163210630
4158.5086962889	1.0134780407
4160.4375036619	1.0199333429
4162.3663110350	1.0171072483
4164.2951184080	1.0132339001
4166.2239257811	1.0118783712
4168.1527331541	1.0134593248
4170.0815405272	1.0168031454
4172.0103479002	1.0145710707
4173.9391552733	1.0156993866
4175.8679626463	1.0179016590
4177.7967700194	1.0145223141
4179.7255773924	1.0111423731
4181.6543847654	1.0190407038
4183.5831921385	1.0159538984
4185.5119995115	1.0078042746
4187.4408068846	1.0155544281
4189.3696142576	1.0210902691
4191.2984216307	1.0168144703
4193.2272290037	1.0166131258
4195.1560363768	1.0179888010
4197.0848437498	1.0111238956
4199.0136511229	1.0152955055
4200.9424584959	1.0118252039
4202.8712658690	1.0100173950
4204.8000732420	1.0216695070
4206.7288806151	1.0165408850
4208.6576879881	1.0165362358
4210.5864953611	1.0134154558
4212.5153027342	1.0161516666
4214.4441101072	1.0198426247
4216.3729174803	1.0095269680
4218.3017248533	1.0185213089
4220.2305322264	1.0179886818
4222.1593395994	1.0103304386
4224.0881469725	1.0146117210
4226.0169543455	1.0175248384
4227.9457617186	1.0125222206
4229.8745690916	1.0059305429
4231.8033764647	1.0116333961
4233.7321838377	1.0102399588
4235.6609912108	1.0089654922
4237.5897985838	1.0140981674
4239.5186059569	1.0142854452
4241.4474133299	1.0124400854
4243.3762207029	1.0122861862
4245.3050280760	1.0182993412
4247.2338354490	1.0172685385
4249.1626428221	1.0113846064
4251.0914501951	1.0100698471
4253.0202575682	1.0131494999
4254.9490649412	1.0113841295
4256.8778723143	1.0051271915
4258.8066796873	1.0085680485
4260.7354870604	1.0132694244
4262.6642944334	1.0176112652
4264.5931018065	1.0188260078
4266.5219091795	1.0153583288
4268.4507165526	1.0137783289
4270.3795239256	1.0110620260
4272.3083312986	1.0149748325
4274.2371386717	1.0176501274
4276.1659460447	1.0102363825
4278.0947534178	1.0114805698
4280.0235607908	1.0178763866
4281.9523681639	1.0179916620
4283.8811755369	1.0160026550
4285.8099829100	1.0063834190
4287.7387902830	1.0104246140
4289.6675976561	1.0215445757
4291.5964050291	1.0080797672
4293.5252124022	1.0065867901
4295.4540197752	1.0156831741
4297.3828271483	1.0134451389
4299.3116345213	1.0144994259
4301.2404418943	1.0195631981
4303.1692492674	1.0242857933
4305.0980566404	1.0105265379
4307.0268640135	1.0046283007
4308.9556713865	1.0167207718
4310.8844787596	1.0084266663
4312.8132861326	1.0069900751
4314.7420935057	1.0186415911
4316.6709008787	1.0155127048
4318.5997082518	1.0130057335
4320.5285156248	1.0126271248
4322.4573229979	1.0116920471
4324.3861303709	1.0168284178
4326.3149377440	1.0146119595
4328.2437451170	1.0112557411
4330.1725524900	1.0117894411
4332.1013598631	1.0107783079
4334.0301672361	1.0132027864
4335.9589746092	1.0096303225
4337.8877819822	1.0095839500
4339.8165893553	1.0112162828
4341.7453967283	1.0098623037
4343.6742041014	1.0118649006
4345.6030114744	1.0126016140
4347.5318188475	1.0220751762
4349.4606262205	1.0136294365
4351.3894335936	1.0017697811
4353.3182409666	1.0114831924
4355.2470483397	1.0146255493
4357.1758557127	1.0147786140
4359.1046630858	1.0078513622
4361.0334704588	1.0065206289
4362.9622778318	1.0134779215
4364.8910852049	1.0179015398
4366.8198925779	1.0139867067
4368.7486999510	1.0065978765
4370.6775073240	1.0201624632
4372.6063146971	1.0123914480
4374.5351220701	1.0072082281
4376.4639294432	1.0162770748
4378.3927368162	1.0005570650
4380.3215441893	1.0112308264
4382.2503515623	1.0228196383
4384.1791589354	1.0150983334
4386.1079663084	1.0163018703
4388.0367736815	1.0065832138
4389.9655810545	1.0076274872
4391.8943884275	1.0157828331
4393.8231958006	1.0049147606
4395.7520031736	1.0097725391
4397.6808105467	1.0200725794
4399.6096179197	1.0085892677
4401.5384252928	1.0128407478
4403.4672326658	1.0173610449
4405.3960400389	1.0069013834
4407.3248474119	1.0058699846
4409.2536547850	1.0056972504
4411.1824621580	1.0063376427
4413.1112695311	1.0124375820
4415.0400769041	1.0153362751
4416.9688842772	1.0046262741
4418.8976916502	1.0050663948
4420.8264990232	1.0095379353
4422.7553063963	1.0068867207
4424.6841137693	1.0112326145
4426.6129211424	1.0053751469
4428.5417285154	1.0179206133
4430.4705358885	1.0219054222
4432.3993432615	1.0091885328
4434.3281506346	1.0170925856
4436.2569580076	1.0096521378
4438.1857653807	1.0045968294
4440.1145727537	1.0125881433
4442.0433801268	1.0203509331
4443.9721874998	1.0147727728
4445.9009948729	1.0093755722
4447.8298022459	1.0173093081
4449.7586096189	1.0104725361
4451.6874169920	1.0135413408
4453.6162243650	1.0085265636
4455.5450317381	1.0034466982
4457.4738391111	1.0132336617
4459.4026464842	1.0129394531
4461.3314538572	1.0159634352
4463.2602612303	1.0056507587
4465.1890686033	1.0092556477
4467.1178759764	1.0110890865
4469.0466833494	0.9998407364
4470.9754907225	1.0080701113
4472.9042980955	1.0076522827
4474.8331054686	1.0182145834
4476.7619128416	1.0145717859
4478.6907202147	1.0008854866
4480.6195275877	1.0147223473
4482.5483349607	1.0161368847
4484.4771423338	1.0159136057
4486.4059497068	1.0109508038
4488.3347570799	1.0031816959
4490.2635644529	1.0098406076
4492.1923718260	1.0129280090
4494.1211791990	1.0136547089
4496.0499865721	1.0129697323
4497.9787939451	1.0145140886
4499.9076013182	1.0092206001
4501.8364086912	1.0025233030
4503.7652160643	1.0116717815
4505.6940234373	1.0161292553
4507.6228308104	1.0067237616
4509.5516381834	1.0058469772
4511.4804455564	1.0154662132
4513.4092529295	1.0159977674
4515.3380603025	1.0105832815
4517.2668676756	1.0094190836
4519.1956750486	1.0133326054
4521.1244824217	1.0068173409
4523.0532897947	1.0071955919
4524.9820971678	1.0194979906
4526.9109045408	1.0088855028
4528.8397119139	1.0083732605
4530.7685192869	1.0068502426
4532.6973266600	0.9993341565
4534.6261340330	1.0120211840
4536.5549414061	1.0072053671
4538.4837487791	1.0109307766
4540.4125561521	1.0188729763
4542.3413635252	1.0155328512
4544.2701708982	1.0183609724
4546.1989782713	1.0069316626
4548.1277856443	1.0077673197
4550.0565930174	1.0109779835
4551.9854003904	1.0035399199
4553.9142077635	1.0049272776
4555.8430151365	1.0090730190
4557.7718225096	1.0215129852
4559.7006298826	1.0180895329
4561.6294372557	1.0030018091
4563.5582446287	1.0021123886
4565.4870520018	1.0016703606
4567.4158593748	1.0103210211
4569.3446667478	1.0210585594
4571.2734741209	1.0138343573
4573.2022814939	1.0063353777
4575.1310888670	1.0068778992
4577.0598962400	1.0093951225
4578.9887036131	1.0108381510
4580.9175109861	1.0080585480
4582.8463183592	1.0084147453
4584.7751257322	1.0155779123
4586.7039331053	1.0110788345
4588.6327404783	1.0059103966
4590.5615478514	1.0163903236
4592.4903552244	1.0135227442
4594.4191625975	1.0085841417
4596.3479699705	1.0044267178
4598.2767773435	1.0012733936
4600.2055847166	1.0169380903
4602.1343920896	1.0101072788
4604.0631994627	1.0027637482
4605.9920068357	1.0108422041
4607.9208142088	1.0112867355
4609.8496215818	1.0181070566
4611.7784289549	1.0139425993
4613.7072363279	1.0095088482
4615.6360437010	1.0135329962
4617.5648510740	1.0073467493
4619.4936584471	1.0037409067
4621.4224658201	1.0161650181
4623.3512731932	1.0218739510
4625.2800805662	1.0153709650
4627.2088879393	1.0115389824
4629.1376953123	1.0094411373
4631.0665026853	1.0102860928
4632.9953100584	0.9999161959
4634.9241174314	1.0131771564
4636.8529248045	1.0173791647
4638.7817321775	0.9931908846
4640.7105395506	1.0067437887
4642.6393469236	1.0080775023
4644.5681542967	1.0105853081
4646.4969616697	1.0218892097
4648.4257690428	1.0121141672
4650.3545764158	1.0089055300
4652.2833837889	1.0033360720
4654.2121911619	1.0074341297
4656.1409985350	1.0091750622
4658.0698059080	1.0160889626
4659.9986132810	1.0160914660
4661.9274206541	1.0072146654
4663.8562280271	1.0081157684
4665.7850354002	0.9978162646
4667.7138427732	1.0038423538
4669.6426501463	1.0085268021
4671.5714575193	1.0095993280
4673.5002648924	1.0054851770
4675.4290722654	1.0039609671
4677.3578796385	1.0163302422
4679.2866870115	1.0011266470
4681.2154943846	1.0006362200
4683.1443017576	1.0045535564
4685.0731091307	1.0068248510
4687.0019165037	1.0178811550
4688.9307238767	1.0017125607
4690.8595312498	1.0063412189
4692.7883386228	1.0201116800
4694.7171459959	1.0043570995
4696.6459533689	1.0019848347
4698.5747607420	1.0069673061
4700.5035681150	1.0022674799
4702.4323754881	1.0122318268
4704.3611828611	1.0091048479
4706.2899902342	1.0050776005
4708.2187976072	1.0130131245
4710.1476049803	1.0012633801
4712.0764123533	1.0024827719
4714.0052197264	0.9996692538
4715.9340270994	0.9919226170
4717.8628344724	1.0072060823
4719.7916418455	1.0214792490
4721.7204492185	1.0107911825
4723.6492565916	0.9979106784
4725.5780639646	1.0234769583
4727.5068713377	1.0238459110
4729.4356787107	0.9985191226
4731.3644860838	0.9989199042
4733.2932934568	1.0018837452
4735.2221008299	1.0051684380
4737.1509082029	1.0022039413
4739.0797155760	1.0008391142
4741.0085229490	1.0116941929
4742.9373303221	1.0156849623
4744.8661376951	1.0070362091
4746.7949450682	1.0076501369
4748.7237524412	1.0092029572
4750.6525598142	1.0060789585
4752.5813671873	1.0098443031
4754.5101745603	0.9992320538
4756.4389819334	0.9984185100
4758.3677893064	1.0138458014
4760.2965966795	1.0145474672
4762.2254040525	0.9992522001
4764.1542114256	0.9946474433
4766.0830187986	1.0042073727
4768.0118261717	1.0069556236
4769.9406335447	1.0166875124
4771.8694409178	1.0044962168
4773.7982482908	0.9926987290
4775.7270556639	1.0128220320
4777.6558630369	1.0079489946
4779.5846704099	1.0005006790
4781.5134777830	1.0036044121
4783.4422851560	1.0022878647
4785.3710925291	1.0124951601
4787.2998999021	1.0075879097
4789.2287072752	1.0053282976
4791.1575146482	1.0112375021
4793.0863220213	0.9953281879
4795.0151293943	1.0023697615
4796.9439367674	1.0184035301
4798.8727441404	1.0062479973
4800.8015515135	0.9980083704
4802.7303588865	1.0009118319
4804.6591662596	1.0139743090
4806.5879736326	1.0158640146
4808.5167810056	0.9994554520
4810.4455883787	0.9936925173
4812.3743957517	1.0072532892
4814.3032031248	1.0031492710
4816.2320104978	0.9899336696
4818.1608178709	1.0035934448
4820.0896252439	0.9919913411
4822.0184326170	0.9943075776
4823.9472399900	1.0169913769
4825.8760473631	1.0014854670
4827.8048547361	1.0050430298
4829.7336621092	1.0086481571
4831.6624694822	1.0041528940
4833.5912768553	1.0095708370
4835.5200842283	1.0022491217
4837.4488916013	1.0098817348
4839.3776989744	1.0180426836
4841.3065063474	1.0155051947
4843.2353137205	1.0091947317
4845.1641210935	1.0013353825
4847.0929284666	1.0095511675
4849.0217358396	1.0042359829
4850.9505432127	1.0070155859
4852.8793505857	1.0125930309
4854.8081579588	0.9865083694
4856.7369653318	1.0056048632
4858.6657727049	1.0107368231
4860.5945800779	0.9824563861
4862.5233874510	0.9957187176
4864.4521948240	0.9933853745
4866.3810021971	1.0096068382
4868.3098095701	1.0164402723
4870.2386169431	1.0063027143
4872.1674243162	1.0214636326
4874.0962316892	0.9981688857
4876.0250390623	1.0035941601
4877.9538464353	1.0149894953
4879.8826538084	0.9977102876
4881.8114611814	1.0029255152
4883.7402685545	1.0071419477
4885.6690759275	1.0101702213
4887.5978833006	0.9951040149
4889.5266906736	0.9919916987
4891.4554980467	1.0059006214
4893.3843054197	1.0043021441
4895.3131127928	1.0133765936
4897.2419201658	1.0133212805
4899.1707275388	1.0007947683
4901.0995349119	1.0104625225
4903.0283422849	1.0056695938
4904.9571496580	0.9941890836
4906.8859570310	1.0182136297
4908.8147644041	1.0143502951
4910.7435717771	1.0035940409
4912.6723791502	1.0077763796
4914.6011865232	0.9930484295
4916.5299938963	0.9987774491
4918.4588012693	1.0018856525
4920.3876086424	0.9982981682
4922.3164160154	1.0057501793
4924.2452233885	1.0130233765
4926.1740307615	1.0117106438
4928.1028381345	1.0059007406
4930.0316455076	1.0047372580
4931.9604528806	0.9936020970
4933.8892602537	1.0035015345
4935.8180676267	1.0011556149
4937.7468749998	0.9867669344
4939.6756823728	1.0124126673
4941.6044897459	1.0131689310
4943.5332971189	0.9959914088
4945.4621044920	1.0054252148
4947.3909118650	1.0105501413
4949.3197192381	1.0099704266
4951.2485266111	1.0134327412
4953.1773339842	1.0050921440
4955.1061413572	1.0053025484
4957.0349487302	1.0151910782
4958.9637561033	0.9945183992
4960.8925634763	0.9829362035
4962.8213708494	0.9943446517
4964.7501782224	0.9879701734
4966.6789855955	0.9930064678
4968.6077929685	1.0136073828
4970.5366003416	1.0046480894
4972.4654077146	0.9902235866
4974.3942150877	0.9968875647
4976.3230224607	0.9924407005
4978.2518298338	0.9931956530
4980.1806372068	1.0119804144
4982.1094445799	1.0027186871
4984.0382519529	1.0020718575
4985.9670593259	1.0066370964
4987.8958666990	0.9869386554
4989.8246740720	1.0080933571
4991.7534814451	1.0162905455
4993.6822888181	0.9933376312
4995.6110961912	0.9959873557
4997.5399035642	1.0042477846
4999.4687109373	1.0045642853
5001.3975183103	0.9884937406
5003.3263256834	1.0019282103
5005.2551330564	0.9952955842
5007.1839404295	0.9818006754
5009.1127478025	1.0132094622
5011.0415551756	0.9910079837
5012.9703625486	0.9882485271
5014.8991699217	1.0054504871
5016.8279772947	0.9969961047
5018.7567846677	0.9943632483
5020.6855920408	0.9856506586
5022.6143994138	1.0103263855
5024.5432067869	1.0105702877
5026.4720141599	1.0072301626
5028.4008215330	1.0123337507
5030.3296289060	0.9918742776
5032.2584362791	0.9909882545
5034.1872436521	0.9782246351
5036.1160510252	0.9967710972
5038.0448583982	1.0220404863
5039.9736657713	1.0043669939
5041.9024731443	0.9973977208
5043.8312805174	1.0047152042
5045.7600878904	1.0154087543
5047.6888952634	0.9991950989
5049.6177026365	1.0038325787
5051.5465100095	1.0153868198
5053.4753173826	0.9952984452
5055.4041247556	1.0068987608
5057.3329321287	0.9952086210
5059.2617395017	0.9815894365
5061.1905468748	1.0073169470
5063.1193542478	1.0079649687
5065.0481616209	0.9984053969
5066.9769689939	0.9910138845
5068.9057763670	1.0024559498
5070.8345837400	1.0054786205
5072.7633911131	0.9987581372
5074.6921984861	1.0166621208
5076.6210058591	1.0020233393
5078.5498132322	0.9958897829
5080.4786206052	1.0005686283
5082.4074279783	0.9988767505
5084.3362353513	0.9966124296
5086.2650427244	0.9796667695
5088.1938500974	1.0053169727
5090.1226574705	0.9936652780
5092.0514648435	0.9694591165
5093.9802722166	1.0070488453
5095.9090795896	1.0091552734
5097.8378869627	1.0108708143
5099.7666943357	1.0199422836
5101.6955017088	0.9865130782
5103.6243090818	0.9955956936
5105.5531164548	1.0263649225
5107.4819238279	0.9928628802
5109.4107312009	0.9929190278
5111.3395385740	1.0089533329
5113.2683459470	0.9916405082
5115.1971533201	1.0070048571
5117.1259606931	1.0019912720
5119.0547680662	0.9928511977
5120.9835754392	0.9840707183
5122.9123828123	0.9932796955
5124.8411901853	1.0137727261
5126.7699975584	0.9956916571
5128.6988049314	1.0102761984
5130.6276123045	1.0042051077
5132.5564196775	1.0029959679
5134.4852270506	1.0060825348
5136.4140344236	0.9864169955
5138.3428417966	1.0092747211
5140.2716491697	1.0062267780
5142.2004565427	1.0044269562
5144.1292639158	1.0047080517
5146.0580712888	0.9995360970
5147.9868786619	1.0011706352
5149.9156860349	0.9844147563
5151.8444934080	0.9956226349
5153.7733007810	0.9980706573
5155.7021081541	0.9963939190
5157.6309155271	1.0054274797
5159.5597229002	1.0067949295
5161.4885302732	0.9997283220
5163.4173376463	0.9896722436
5165.3461450193	1.0040346384
5167.2749523923	1.0065352917
5169.2037597654	0.9882442355
5171.1325671384	0.9893898368
5173.0613745115	1.0082826614
5174.9901818845	0.9855879545
5176.9189892576	0.9758812785
5178.8477966306	1.0047702789
5180.7766040037	0.9947003126
5182.7054113767	0.9913344979
5184.6342187498	0.9892511964
5186.5630261228	1.0027022362
5188.4918334959	1.0088109970
5190.4206408689	0.9647710919
5192.3494482420	0.9850285649
5194.2782556150	1.0125707388
5196.2070629880	0.9905145764
5198.1358703611	0.9912507534
5200.0646777341	0.9950086474
5201.9934851072	0.9947209358
5203.9222924802	0.9984996915
5205.8510998533	0.9991433024
5207.7799072263	1.0035285950
5209.7087145994	1.0000646114
5211.6375219724	1.0046572685
5213.5663293455	1.0129663944
5215.4951367185	0.9946430922
5217.4239440916	1.0100389719
5219.3527514646	1.0193203688
5221.2815588377	0.9818111062
5223.2103662107	0.9880895019
5225.1391735837	0.9878922701
5227.0679809568	0.9813176990
5228.9967883298	0.9908225536
5230.9255957029	0.9862424731
5232.8544030759	1.0008674860
5234.7832104490	0.9936116338
5236.7120178220	0.9934884310
5238.6408251951	0.9990063906
5240.5696325681	0.9743461013
5242.4984399412	0.9917795062
5244.4272473142	1.0111055374
5246.3560546873	0.9972444773
5248.2848620603	0.9910472631
5250.2136694334	0.9890452027
5252.1424768064	0.9826973081
5254.0712841795	1.0015199184
5256.0000915525	1.0225478411
5257.9288989255	0.9944684505
5259.8577062986	0.9950313568
5261.7865136716	0.9896592498
5263.7153210447	0.9667701125
5265.6441284177	1.0002139807
5267.5729357908	1.0109759569
5269.5017431638	1.0028867722
5271.4305505369	1.0002429485
5273.3593579099	0.9830713272
5275.2881652830	0.9857821465
5277.2169726560	0.9885291457
5279.1457800291	0.9905530214
5281.0745874021	1.0035722256
5283.0033947752	1.0070658922
5284.9322021482	1.0029976368
5286.8610095212	0.9975652099
5288.7898168943	0.9878491163
5290.7186242673	0.9778461456
5292.6474316404	0.9849485159
5294.5762390134	0.9956040978
5296.5050463865	1.0011590719
5298.4338537595	1.0062451363
5300.3626611326	0.9907673597
5302.2914685056	0.9902619720
5304.2202758787	0.9958522320
5306.1490832517	0.9857648015
5308.0778906248	1.0030521154
5310.0066979978	0.9958935976
5311.9355053709	0.9858469963
5313.8643127439	0.9989432096
5315.7931201169	0.9945178032
5317.7219274900	1.0104539394
5319.6507348630	1.0186442137
5321.5795422361	1.0031943321
5323.5083496091	0.9950556159
5325.4371569822	1.0044692755
5327.3659643552	0.9971398711
5329.2947717283	0.9969796538
5331.2235791013	0.9951377511
5333.1523864744	0.9658309817
5335.0811938474	1.0015288591
5337.0100012205	0.9937005043
5338.9388085935	0.9794233441
5340.8676159666	1.0016293526
5342.7964233396	0.9781165719
5344.7252307126	0.9947577119
5346.6540380857	0.9656282663
5348.5828454587	0.9730750322
5350.5116528318	1.0070017576
5352.4404602048	0.9945625663
5354.3692675779	1.0281292200
5356.2980749509	1.0000799894
5358.2268823240	0.9909238219
5360.1556896970	0.9974569082
5362.0844970701	0.9967929125
5364.0133044431	1.0115627050
5365.9421118162	0.9915936589
5367.8709191892	0.9966319799
5369.7997265623	0.9939017892
5371.7285339353	1.0055445433
5373.6573413083	0.9812000394
5375.5861486814	0.9663895369
5377.5149560544	1.0236310959
5379.4437634275	1.0050466061
5381.3725708005	0.9795423746
5383.3013781736	0.9931699038
5385.2301855466	0.9982537031
5387.1589929197	0.9963856936
5389.0878002927	1.0077549219
5391.0166076658	1.0104162693
5392.9454150388	0.9873881340
5394.8742224119	0.9731639028
5396.8030297849	0.9653101563
5398.7318371580	0.9976976514
5400.6606445310	1.0118618011
5402.5894519041	0.9936103225
5404.5182592771	1.0050642490
5406.4470666501	0.9966506958
5408.3758740232	0.9782583117
5410.3046813962	0.9919651151
5412.2334887693	1.0135735273
5414.1622961423	0.9968757033
5416.0911035154	0.9803330302
5418.0199108884	0.9939534664
5419.9487182615	0.9835872054
5421.8775256345	0.9838337302
5423.8063330076	1.0053077936
5425.7351403806	0.9996127486
5427.6639477537	0.9964229465
5429.5927551267	0.9822304249
5431.5215624998	0.9830289483
5433.4503698728	0.9948371649
5435.3791772458	0.9807875752
5437.3079846189	0.9930927157
5439.2367919919	0.9582011104
5441.1655993650	0.9490802884
5443.0944067380	1.0024808645
5445.0232141111	1.0199177265
5446.9520214841	1.0209192038
5448.8808288572	0.9723208547
5450.8096362302	0.9921320677
5452.7384436033	1.0035575628
5454.6672509763	0.9778121710
5456.5960583494	1.0242403746
5458.5248657224	0.9969713092
5460.4536730955	0.9755325317
5462.3824804685	0.9933789372
5464.3112878415	0.9871515036
5466.2400952146	0.9748318791
5468.1689025876	0.9879771471
5470.0977099607	0.9806559086
5472.0265173337	0.9607618451
5473.9553247068	1.0215010643
5475.8841320798	0.9882104397
5477.8129394529	0.9691542983
5479.7417468259	1.0132138729
5481.6705541990	0.9730603099
5483.5993615720	0.9797862768
5485.5281689451	0.9968686700
5487.4569763181	0.9964570403
5489.3857836912	1.0052355528
5491.3145910642	0.9847757816
5493.2433984372	0.9707150459
5495.1722058103	1.0010850430
5497.1010131833	1.0014431477
5499.0298205564	0.9748278260
5500.9586279294	1.0008438826
5502.8874353025	1.0078779459
5504.8162426755	0.9963318110
5506.7450500486	0.9587109089
5508.6738574216	0.9867395163
5510.6026647947	1.0213034153
5512.5314721677	0.9626967907
5514.4602795408	0.9881778955
5516.3890869138	0.9850767255
5518.3178942869	0.9783330560
5520.2467016599	1.0057516098
5522.1755090330	0.9770046473
5524.1043164060	0.9775364399
5526.0331237790	0.9786126614
5527.9619311521	1.0089975595
5529.8907385251	1.0042511225
5531.8195458982	0.9549156427
5533.7483532712	0.9913048744
5535.6771606443	1.0128370523
5537.6059680173	0.9590406418
5539.5347753904	0.9718585610
5541.4635827634	1.0094020367
5543.3923901365	0.9886308312
5545.3211975095	1.0004153252
5547.2500048826	0.9676226377
5549.1788122556	0.9534299970
5551.1076196287	1.0079078674
5553.0364270017	0.9965163469
5554.9652343747	1.0102664232
5556.8940417478	1.0193698406
5558.8228491208	0.9901578426
5560.7516564939	0.9903606772
5562.6804638669	0.9838744402
5564.6092712400	0.9901674390
5566.5380786130	0.9752403498
5568.4668859861	0.9659216404
5570.3956933591	1.0207437277
5572.3245007322	1.0273499489
5574.2533081052	0.9874410629
5576.1821154783	0.9900448918
5578.1109228513	1.0095794201
5580.0397302244	1.0060806274
5581.9685375974	0.9811854362
5583.8973449704	0.9913502336
5585.8261523435	0.9809947610
5587.7549597165	0.9702097178
5589.6837670896	1.0010603666
5591.6125744626	0.9862611294
5593.5413818357	1.0006419420
5595.4701892087	0.9907439947
5597.3989965818	0.9727919102
5599.3278039548	1.0190593004
5601.2566113279	0.9970659614
5603.1854187009	0.9781252742
5605.1142260740	0.9814395308
5607.0430334470	0.9915249944
5608.9718408201	1.0048397779
5610.9006481931	0.9779725075
5612.8294555661	0.9845417142
5614.7582629392	0.9942396283
5616.6870703122	1.0073140860
5618.6158776853	1.0143908262
5620.5446850583	0.9946166873
5622.4734924314	1.0069934130
5624.4022998044	1.0080735683
5626.3311071775	0.9984490871
5628.2599145505	0.9761580825
5630.1887219236	0.9461296201
5632.1175292966	1.0037748814
5634.0463366697	1.0407599211
5635.9751440427	0.9878662825
5637.9039514158	0.9907729626
5639.8327587888	0.9954328537
5641.7615661619	0.9821981192
5643.6903735349	0.9714586139
5645.6191809079	0.9503617287
5647.5479882810	0.9837630987
5649.4767956540	1.0052632093
5651.4056030271	1.0198359489
5653.3344104001	1.0088098049
5655.2632177732	0.9625855088
5657.1920251462	0.9848192930
5659.1208325193	0.9930875301
5661.0496398923	1.0055392981
5662.9784472654	0.9991174936
5664.9072546384	0.9588718414
5666.8360620115	0.9815343618
5668.7648693845	0.9731675386
5670.6936767576	0.9713374972
5672.6224841306	1.0098836422
5674.5512915036	1.0101515055
5676.4800988767	0.9824414849
5678.4089062497	1.0015470982
5680.3377136228	1.0473777056
5682.2665209958	0.9854790568
5684.1953283689	0.9709430933
5686.1241357419	0.9916826487
5688.0529431150	0.9543159604
5689.9817504880	0.9934887290
5691.9105578611	0.9909001589
5693.8393652341	0.9632354975
5695.7681726072	0.9804725647
5697.6969799802	0.9809929132
5699.6257873533	0.9810812473
5701.5545947263	0.9664401412
5703.4834020993	0.9737540483
5705.4122094724	0.9584566355
5707.3410168454	0.9790171981
5709.2698242185	1.0151895285
5711.1986315915	0.9731181860
5713.1274389646	0.9819644094
5715.0562463376	0.9912255406
5716.9850537107	0.9794107676
5718.9138610837	0.9680089951
5720.8426684568	0.9872840047
5722.7714758298	1.0226169825
5724.7002832029	0.9776538014
5726.6290905759	0.9617470503
5728.5578979490	0.9483689666
5730.4867053220	0.9738653302
5732.4155126950	1.0546916723
5734.3443200681	1.0113781691
5736.2731274411	0.9526759982
5738.2019348142	0.9364600778
5740.1307421872	0.9387179613
5742.0595495603	0.9415521622
5743.9883569333	0.9339498878
5745.9171643064	0.9523892999
5747.8459716794	0.9670234323
5749.7747790525	0.9687362909
5751.7035864255	1.0170547962
5753.6323937986	1.0349580050
5755.5612011716	0.9819033146
5757.4900085447	0.9948367476
5759.4188159177	1.0062786341
5761.3476232907	0.9720782638
5763.2764306638	0.9858980179
5765.2052380368	0.9906031489
5767.1340454099	1.0028116703
5769.0628527829	1.0178483725
5770.9916601560	1.0053727627
5772.9204675290	1.0126125813
5774.8492749021	0.9778660536
5776.7780822751	0.9400759935
5778.7068896482	0.9795693755
5780.6356970212	1.0136587620
5782.5645043943	1.0235466957
5784.4933117673	1.0058543682
5786.4221191404	0.9700267911
5788.3509265134	0.9834792614
5790.2797338865	0.9758244753
5792.2085412595	0.9516827464
5794.1373486325	0.9394485354
5796.0661560056	0.9467782974
5797.9949633786	1.0043350458
5799.9237707517	1.0092421770
5801.8525781247	0.9914428592
5803.7813854978	1.0051351786
5805.7101928708	0.9899551868
5807.6390002439	0.9724449515
5809.5678076169	0.9904823303
5811.4966149900	0.9918903112
5813.4254223630	0.9768874645
5815.3542297361	1.0096573830
5817.2830371091	0.9851160645
5819.2118444822	0.9695163369
5821.1406518552	0.9812965989
5823.0694592282	0.9547473192
5824.9982666013	0.9728814363
5826.9270739743	0.9414705038
5828.8558813474	0.9636945724
5830.7846887204	1.0061900616
5832.7134960935	0.9570932984
5834.6423034665	0.9540053606
5836.5711108396	0.9490718246
5838.4999182126	0.9750713706
5840.4287255857	0.9856210947
5842.3575329587	0.9724977612
5844.2863403318	0.9671048522
5846.2151477048	0.9502479434
5848.1439550779	1.0186815262
5850.0727624509	1.0280845165
5852.0015698239	0.9813157320
5853.9303771970	0.9567131400
5855.8591845700	0.9426048398
5857.7879919431	0.9521176219
5859.7167993161	0.9453826547
5861.6456066892	0.9812972546
5863.5744140622	0.9916267991
5865.5032214353	0.9916898608
5867.4320288083	1.0193042755
5869.3608361814	0.9845559597
5871.2896435544	0.9471108317
5873.2184509275	0.9622508287
5875.1472583005	0.9515988231
5877.0760656736	0.9309030175
5879.0048730466	0.9895136952
5880.9336804196	0.9794602990
5882.8624877927	1.0037192106
5884.7912951657	1.0410579443
5886.7201025388	0.9371383190
5888.6489099118	0.9591131210
5890.5777172849	0.9768954515
5892.5065246579	0.9913861752
5894.4353320310	0.9982020855
5896.3641394040	0.8848893046
5898.2929467771	0.9364244342
5900.2217541501	1.0276768208
5902.1505615232	1.0033653975
5904.0793688962	0.9798769951
5906.0081762693	0.9860569835
5907.9369836423	0.9998183846
5909.8657910154	0.9974583387
5911.7945983884	1.0358685255
5913.7234057614	1.0068126917
5915.6522131345	0.9567043185
5917.5810205075	1.0038076639
5919.5098278806	1.0215522051
5921.4386352536	1.0031733513
5923.3674426267	1.0103915930
5925.2962499997	0.9915933609
5927.2250573728	1.0142155886
5929.1538647458	1.0351549387
5931.0826721189	0.9811977148
5933.0114794919	0.9682357311
5934.9402868650	0.9631567597
5936.8690942380	0.9403998256
5938.7979016111	0.9295482039
5940.7267089841	0.9716022611
5942.6555163571	0.9517058730
5944.5843237302	0.8898403645
5946.5131311032	0.9610719085
5948.4419384763	0.9412673116
5950.3707458493	0.9422233701
5952.2995532224	1.0055905581
5954.2283605954	0.9066681266
5956.1571679685	0.9256910682
5958.0859753415	1.0024251938
5960.0147827146	0.9609532952
5961.9435900876	0.9231988192
5963.8723974607	0.9522067308
5965.8012048337	0.9718230963
5967.7300122068	0.9476270676
5969.6588195798	0.9852518439
5971.5876269528	1.0022870302
5973.5164343259	0.9585743546
5975.4452416989	0.9819366336
5977.3740490720	0.9859170318
5979.3028564450	0.9480960369
5981.2316638181	0.9860824943
5983.1604711911	0.9397295713
5985.0892785642	0.9086920023
5987.0180859372	0.9730735421
5988.9468933103	0.9770767093
5990.8757006833	1.0059907436
5992.8045080564	0.9750983119
5994.7333154294	0.9896795154
5996.6621228025	1.0218952894
5998.5909301755	0.9745124578
6000.5197375485	1.0080724955
