399.2631262207	0.2097939104
401.1919335938	0.1164321452
403.1207409668	0.1816107184
405.0495483398	0.1855958104
406.9783557129	0.2389370799
408.9071630859	0.2037032545
410.8359704590	0.1811035126
412.7647778320	0.1616945714
414.6935852051	0.0600329041
416.6223925781	0.1063335314
418.5511999512	0.1589403450
420.4800073242	0.1416901350
422.4088146973	0.2342294604
424.3376220703	0.1030575931
426.2664294434	0.0120732104
428.1952368164	0.1782650948
430.1240441895	0.1671647131
432.0528515625	0.0638817102
433.9816589355	0.1534719467
435.9104663086	0.1998860836
437.8392736816	0.1426660568
439.7680810547	0.2024176419
441.6968884277	0.1463020295
443.6256958008	0.0420950800
445.5545031738	0.2531696558
447.4833105469	0.2012478709
449.4121179199	0.0906676427
451.3409252930	0.1883497536
453.2697326660	0.1401147544
455.1985400391	0.2564491630
457.1273474121	0.1296305954
459.0561547852	-0.0938187912
460.9849621582	0.0389968380
462.9137695313	0.1339692622
464.8425769043	0.1905504316
466.7713842773	0.1209575981
468.7001916504	0.0716019049
470.6289990234	0.1744307578
472.5578063965	0.0818376839
474.4866137695	0.1660483479
476.4154211426	0.2757604420
478.3442285156	0.1049513593
480.2730358887	0.0864944234
482.2018432617	-0.4455135465
484.1306506348	-0.0964078382
486.0594580078	0.5712742209
487.9882653809	-0.0260583963
489.9170727539	0.0458147936
491.8458801270	0.3934346735
493.7746875000	0.3761299849
495.7034948730	0.1276623160
497.6323022461	0.1043301150
499.5611096191	0.7930137515
501.4899169922	0.7751977444
503.4187243652	0.6222600341
505.3475317383	0.2388074547
507.2763391113	0.2301027179
509.2051464844	0.9651952386
511.1339538574	-0.3250544667
513.0627612305	-0.2487424463
514.9915686035	0.0605957732
516.9203759766	-0.3555479944
518.8491833496	0.8490279913
520.7779907227	1.2028689384
522.7067980957	0.0420971476
524.6356054688	1.0063786507
526.5644128418	0.8383526802
528.4932202148	0.0101194121
530.4220275879	0.1451743990
532.3508349609	0.2925241292
534.2796423340	0.6684884429
536.2084497070	0.3572786748
538.1372570801	-0.0256568566
540.0660644531	0.3517785370
541.9948718262	0.0812062249
543.9236791992	-0.0388997421
545.8524865723	0.8931720257
547.7812939453	0.5383857489
549.7101013184	0.9001805186
551.6389086914	3.7178580761
553.5677160645	0.1072666794
555.4965234375	0.2507703900
557.4253308105	0.3063344955
559.3541381836	0.9594095945
561.2829455566	1.4348901510
563.2117529297	0.4165236354
565.1405603027	0.2999737561
567.0693676758	0.7590079904
568.9981750488	0.7790535092
570.9269824219	0.0515060835
572.8557897949	0.4641974270
574.7845971680	0.1241890639
576.7134045410	-0.3446331918
578.6422119141	0.5652194619
580.5710192871	0.0978858024
582.4998266602	0.2145983875
584.4286340332	1.0334219933
586.3574414063	0.3697859049
588.2862487793	0.2835900784
590.2150561523	-0.2276127934
592.1438635254	0.0093856044
594.0726708984	0.2067545950
596.0014782715	0.7837488651
597.9302856445	0.4329299033
599.8590930176	0.5766764879
601.7879003906	0.9154145718
603.7167077637	0.0571934320
605.6455151367	0.2351619899
607.5743225098	0.1636723131
609.5031298828	0.2648542523
611.4319372559	1.8863664865
613.3607446289	0.3780980408
615.2895520020	0.2747853696
617.2183593750	0.5521354079
619.1471667480	0.1036004424
621.0759741211	-0.0150931226
623.0047814941	0.8347539306
624.9335888672	0.8225247264
626.8623962402	0.7424817681
628.7912036133	1.0716335773
630.7200109863	0.1784033775
632.6488183594	0.3395976424
634.5776257324	0.2092200667
636.5064331055	0.2506434321
638.4352404785	0.2449996769
640.3640478516	0.2279434204
642.2928552246	0.2238676846
644.2216625977	0.2365647405
646.1504699707	0.3605197668
648.0792773438	0.2757880092
650.0080847168	0.2757785618
651.9368920898	0.2790931761
653.8656994629	0.2601356506
655.7945068359	0.3229719698
657.7233142090	0.2471942306
659.6521215820	0.2521341145
661.5809289551	0.2038346529
663.5097363281	0.1803105623
665.4385437012	0.2934997976
667.3673510742	0.2895364165
669.2961584473	0.3135316670
671.2249658203	0.3090516031
673.1537731934	0.3004844785
675.0825805664	0.2997121513
677.0113879395	0.2881597579
678.9401953125	0.3367937505
680.8690026855	0.2988200784
682.7978100586	0.2977259457
684.7266174316	0.3058651686
686.6554248047	0.2392852306
688.5842321777	0.3115824461
690.5130395508	0.3002984822
692.4418469238	0.2494522184
694.3706542969	0.2982631922
696.2994616699	0.2968413532
698.2282690430	0.3290295005
700.1570764160	0.3211036921
702.0858837891	0.3020649850
704.0146911621	0.3175613880
705.9434985352	0.3000110090
707.8723059082	0.3416862488
709.8011132813	0.3353487551
711.7299206543	0.3045507073
713.6587280273	0.3871282041
715.5875354004	0.3367027044
717.5163427734	0.3936879635
719.4451501465	0.4617819190
721.3739575195	0.6351919174
723.3027648926	1.7110655308
725.2315722656	0.8899373412
727.1603796387	-0.0726808682
729.0891870117	0.0935598612
731.0179943848	0.2527710795
732.9468017578	-0.2681985497
734.8756091309	0.3313944638
736.8044165039	3.6828260422
738.7332238770	-0.0285744946
740.6620312500	0.9538353682
742.5908386230	1.7950587273
744.5196459961	-3.5778017044
746.4484533691	0.5000187159
748.3772607422	0.2068492919
750.3060681152	0.4112707973
752.2348754883	0.5301572680
754.1636828613	0.1206347793
756.0924902344	0.3332120180
758.0212976074	0.1082825363
759.9501049805	-0.2109614462
761.8789123535	0.6979206204
763.8077197266	0.7224519849
765.7365270996	0.2935433090
767.6653344727	0.6956495047
769.5941418457	0.4894936979
771.5229492188	0.2653141618
773.4517565918	0.3382317126
775.3805639648	-0.0184491668
777.3093713379	0.2653614283
779.2381787109	0.9863287210
781.1669860840	0.4189341366
783.0957934570	0.3852547109
785.0246008301	0.6958815455
786.9534082031	0.6070411801
788.8822155762	0.2043131590
790.8110229492	-0.0369138084
792.7398303223	0.4306317568
794.6686376953	0.5303639770
796.5974450684	0.5636342764
798.5262524414	0.5199173093
800.4550598145	0.4371892810
802.3838671875	0.6086665392
804.3126745605	0.4261554480
806.2414819336	0.7228625417
808.1702893066	0.6436223388
810.0990966797	0.3404935598
812.0279040527	0.5605071187
813.9567114258	0.3486374617
815.8855187988	0.7588906288
817.8143261719	0.2100918889
819.7431335449	0.1625292748
821.6719409180	0.5469098091
823.6007482910	0.1992339343
825.5295556641	0.5072285533
827.4583630371	0.5337029099
829.3871704102	0.2457700521
831.3159777832	0.5070095658
833.2447851563	0.5439955592
835.1735925293	0.3835638463
837.1023999023	0.4477703571
839.0312072754	0.4414678514
840.9600146484	0.4482263625
842.8888220215	0.6299848557
844.8176293945	0.6150657535
846.7464367676	0.5374937057
848.6752441406	0.4856529534
850.6040515137	0.5620044470
852.5328588867	0.6265038848
854.4616662598	0.5345662832
856.3904736328	0.7661108375
858.3192810059	0.6207931638
860.2480883789	0.5354050398
862.1768957520	0.7386808395
864.1057031250	0.5754960775
866.0345104980	0.6037568450
867.9633178711	0.5744793415
869.8921252441	1.0733351707
871.8209326172	0.8402265906
873.7497399902	0.7158843875
875.6785473633	0.9281111956
877.6073547363	-0.0598432049
879.5361621094	0.3451642990
881.4649694824	0.5317083597
883.3937768555	0.0116373859
885.3225842285	1.0118352175
887.2513916016	0.5963310003
889.1801989746	0.6990133524
891.1090063477	0.4467349648
893.0378137207	0.5341600180
894.9666210938	1.4147260189
896.8954284668	0.5570667982
898.8242358398	0.9717564583
900.7530432129	0.6883971691
902.6818505859	0.8225036860
904.6106579590	1.3280671835
906.5394653320	0.6893309951
908.4682727051	0.7761875391
910.3970800781	0.7381909490
912.3258874512	0.5926817060
914.2546948242	0.5545439124
916.1835021973	0.5586591363
918.1123095703	0.6118352413
920.0411169434	0.7271246314
921.9699243164	0.5273661613
923.8987316895	0.4814122617
925.8275390625	0.6665848494
927.7563464355	0.5614222884
929.6851538086	0.6295752525
931.6139611816	0.6619641185
933.5427685547	0.6281473041
935.4715759277	0.5904926658
937.4003833008	0.5885560513
939.3291906738	0.7355859876
941.2579980469	0.6487368941
943.1868054199	0.6171903610
945.1156127930	0.6343230605
947.0444201660	0.5821316242
948.9732275391	0.5515959263
950.9020349121	0.5597111583
952.8308422852	0.5889466405
954.7596496582	0.5190735459
956.6884570313	0.5828162432
958.6172644043	0.6134401560
960.5460717773	0.6206100583
962.4748791504	0.6365924478
964.4036865234	0.6393356919
966.3324938965	0.7268043756
968.2613012695	0.6222482920
970.1901086426	0.5796068907
972.1189160156	0.6447761059
974.0477233887	0.6644657850
975.9765307617	0.6326033473
977.9053381348	0.6236655712
979.8341455078	0.6342633963
981.7629528809	0.6087158918
983.6917602539	0.6276040673
985.6205676270	0.5991748571
987.5493750000	0.5905101299
989.4781823730	0.6010418534
991.4069897461	0.5999859571
993.3357971191	0.6221846342
995.2646044922	0.6170935035
997.1934118652	0.6088873148
999.1222192383	0.5885300040
1001.0510266113	0.5821668506
1002.9798339844	0.5954138041
1004.9086413574	0.5943280458
1006.8374487305	0.5812574029
1008.7662561035	0.5723956823
1010.6950634766	0.5861318707
1012.6238708496	0.5966588855
1014.5526782227	0.5946111679
1016.4814855957	0.5842907429
1018.4102929688	0.5794410110
1020.3391003418	0.5774565935
1022.2679077148	0.5808483958
1024.1967150879	0.5869728327
1026.1255224609	0.5760480165
1028.0543298340	0.5757902861
1029.9831372070	0.5803492665
1031.9119445801	0.5821704268
1033.8407519531	0.5797371864
1035.7695593262	0.5724002123
1037.6983666992	0.5741058588
1039.6271740723	0.5712181926
1041.5559814453	0.5725135803
1043.4847888184	0.5757688284
1045.4135961914	0.5775700808
1047.3424035645	0.5693485141
1049.2712109375	0.5599259734
1051.2000183105	0.5723161101
1053.1288256836	0.5703622699
1055.0576330566	0.5692000985
1056.9864404297	0.5686768889
1058.9152478027	0.5630423427
1060.8440551758	0.5744345784
1062.7728625488	0.5717741847
1064.7016699219	0.5734044313
1066.6304772949	0.5682759881
1068.5592846680	0.5623980165
1070.4880920410	0.5720387697
1072.4168994141	0.5627906919
1074.3457067871	0.5744658709
1076.2745141602	0.5733133554
1078.2033215332	0.5586884618
1080.1321289062	0.5693010092
1082.0609362793	0.5535252690
1083.9897436523	0.5418906808
1085.9185510254	0.5556827188
1087.8473583984	0.5645278096
1089.7761657715	0.5559353232
1091.7049731445	0.5590655804
1093.6337805176	0.5649839044
1095.5625878906	0.5628321767
1097.4913952637	0.5694089532
1099.4202026367	0.5581929684
1101.3490100098	0.5643650889
1103.2778173828	0.5640517473
1105.2066247559	0.5521056652
1107.1354321289	0.5384144187
1109.0642395019	0.5548081994
1110.9930468750	0.6016388535
1112.9218542480	0.5745762587
1114.8506616211	0.5604678988
1116.7794689941	0.5518240929
1118.7082763672	0.5659672618
1120.6370837402	0.5805388093
1122.5658911133	0.5474016070
1124.4946984863	0.5747010708
1126.4235058594	0.5549557805
1128.3523132324	0.5383453369
1130.2811206055	0.5485768318
1132.2099279785	0.5268767476
1134.1387353516	0.5417327285
1136.0675427246	0.5616092086
1137.9963500977	0.5710373521
1139.9251574707	0.5490388274
1141.8539648437	0.5508016348
1143.7827722168	0.5551701784
1145.7115795898	0.5337881446
1147.6403869629	0.5524686575
1149.5691943359	0.5457746983
1151.4980017090	0.5215741396
1153.4268090820	0.5315920711
1155.3556164551	0.5306644440
1157.2844238281	0.5293369889
1159.2132312012	0.5349458456
1161.1420385742	0.5295970440
1163.0708459473	0.5398880839
1164.9996533203	0.5334069133
1166.9284606934	0.5238416195
1168.8572680664	0.5340139866
1170.7860754394	0.5273062587
1172.7148828125	0.5320841670
1174.6436901855	0.5345174670
1176.5724975586	0.5329666734
1178.5013049316	0.5290867090
1180.4301123047	0.5196422338
1182.3589196777	0.5289002657
1184.2877270508	0.5292333364
1186.2165344238	0.5293833613
1188.1453417969	0.5278995633
1190.0741491699	0.5236202478
1192.0029565430	0.5225881934
1193.9317639160	0.5184581280
1195.8605712891	0.5216453671
1197.7893786621	0.5228446126
1199.7181860351	0.5237396955
1201.6469934082	0.5188252926
1203.5758007812	0.5190285444
1205.5046081543	0.5222796202
1207.4334155273	0.5167090893
1209.3622229004	0.5176940560
1211.2910302734	0.5156865120
1213.2198376465	0.5148258805
1215.1486450195	0.5161744356
1217.0774523926	0.5145907998
1219.0062597656	0.5142046213
1220.9350671387	0.5125792027
1222.8638745117	0.5136939287
1224.7926818848	0.5139887929
1226.7214892578	0.5121266842
1228.6502966308	0.5129337907
1230.5791040039	0.5132578611
1232.5079113769	0.5104271770
1234.4367187500	0.5130398870
1236.3655261230	0.5106162429
1238.2943334961	0.5063237548
1240.2231408691	0.5118198395
1242.1519482422	0.5086262822
1244.0807556152	0.5070666671
1246.0095629883	0.5093080401
1247.9383703613	0.5087162852
1249.8671777344	0.5093511343
1251.7959851074	0.5084134936
1253.7247924805	0.5096614361
1255.6535998535	0.5065479875
1257.5824072266	0.5068491101
1259.5112145996	0.5093651414
1261.4400219726	0.5066859126
1263.3688293457	0.5071772337
1265.2976367187	0.5075147152
1267.2264440918	0.5052799582
1269.1552514648	0.5064357519
1271.0840588379	0.5101721287
1273.0128662109	0.5088824034
1274.9416735840	0.5089439154
1276.8704809570	0.5074928999
1278.7992883301	0.5059689879
1280.7280957031	0.5077826381
1282.6569030762	0.5074944496
1284.5857104492	0.5075814128
1286.5145178223	0.5050228238
1288.4433251953	0.5073067546
1290.3721325683	0.5058707595
1292.3009399414	0.5055078268
1294.2297473144	0.5090311170
1296.1585546875	0.5043720603
1298.0873620605	0.5059530139
1300.0161694336	0.5074331164
1301.9449768066	0.5068009496
1303.8737841797	0.5051887035
1305.8025915527	0.5060895681
1307.7313989258	0.5076481104
1309.6602062988	0.5026056170
1311.5890136719	0.5026935935
1313.5178210449	0.5026696324
1315.4466284180	0.5005949140
1317.3754357910	0.4997022748
1319.3042431640	0.5005721450
1321.2330505371	0.5011235476
1323.1618579101	0.5010038018
1325.0906652832	0.5017639399
1327.0194726562	0.5007681847
1328.9482800293	0.5002756119
1330.8770874023	0.4980939925
1332.8058947754	0.4962855875
1334.7347021484	0.4967268705
1336.6635095215	0.4980348349
1338.5923168945	0.4974854887
1340.5211242676	0.4971173704
1342.4499316406	0.4959663153
1344.3787390137	0.4936321676
1346.3075463867	0.4961703122
1348.2363537597	0.4958825111
1350.1651611328	0.4965242743
1352.0939685058	0.4965034723
1354.0227758789	0.4936287403
1355.9515832519	0.4928298593
1357.8803906250	0.4907073379
1359.8091979980	0.4942942858
1361.7380053711	0.4955946803
1363.6668127441	0.4935784638
1365.5956201172	0.4925339222
1367.5244274902	0.4913062751
1369.4532348633	0.4928314388
1371.3820422363	0.4906995595
1373.3108496094	0.4884870946
1375.2396569824	0.4890224338
1377.1684643555	0.4907355905
1379.0972717285	0.4903232455
1381.0260791015	0.4922311902
1382.9548864746	0.4929584265
1384.8836938476	0.4886249602
1386.8125012207	0.4906189144
1388.7413085937	0.4904932976
1390.6701159668	0.4869094491
1392.5989233398	0.4853956401
1394.5277307129	0.4879474640
1396.4565380859	0.4895221889
1398.3853454590	0.4863471091
1400.3141528320	0.4844692349
1402.2429602051	0.4841858149
1404.1717675781	0.4865167141
1406.1005749512	0.4839987159
1408.0293823242	0.4818826616
1409.9581896972	0.4828097820
1411.8869970703	0.4831385016
1413.8158044433	0.4842687547
1415.7446118164	0.4816410244
1417.6734191894	0.4840686321
1419.6022265625	0.4844195247
1421.5310339355	0.4805965722
1423.4598413086	0.4814278781
1425.3886486816	0.4821677804
1427.3174560547	0.4834682941
1429.2462634277	0.4812066257
1431.1750708008	0.4814130962
1433.1038781738	0.4819971621
1435.0326855469	0.4814736843
1436.9614929199	0.4840159714
1438.8903002929	0.4836103916
1440.8191076660	0.4863789976
1442.7479150390	0.4830203950
1444.6767224121	0.4789290428
1446.6055297851	0.4830039740
1448.5343371582	0.4814037085
1450.4631445312	0.4796335101
1452.3919519043	0.4777824581
1454.3207592773	0.4773491919
1456.2495666504	0.4817371368
1458.1783740234	0.4768238366
1460.1071813965	0.4740957320
1462.0359887695	0.4755917490
1463.9647961426	0.4734722674
1465.8936035156	0.4744319022
1467.8224108886	0.4732538164
1469.7512182617	0.4698554277
1471.6800256347	0.4701488316
1473.6088330078	0.4694474041
1475.5376403808	0.4691435993
1477.4664477539	0.4681784809
1479.3952551269	0.4644893110
1481.3240625000	0.4652913809
1483.2528698730	0.4647433758
1485.1816772461	0.4609769583
1487.1104846191	0.4616922438
1489.0392919922	0.4606798291
1490.9680993652	0.4586314857
1492.8969067383	0.4570768178
1494.8257141113	0.4559671283
1496.7545214843	0.4574912190
1498.6833288574	0.4551001787
1500.6121362304	0.4538432956
1502.5409436035	0.4519744217
1504.4697509765	0.4501997232
1506.3985583496	0.4534623325
1508.3273657226	0.4503833354
1510.2561730957	0.4475770593
1512.1849804687	0.4474923909
1514.1137878418	0.4457781613
1516.0425952148	0.4450892806
1517.9714025879	0.4441668093
1519.9002099609	0.4438278377
1521.8290173340	0.4446948171
1523.7578247070	0.4411169887
1525.6866320801	0.4387546778
1527.6154394531	0.4392483532
1529.5442468261	0.4370666742
1531.4730541992	0.4361535907
1533.4018615722	0.4358004928
1535.3306689453	0.4319167435
1537.2594763183	0.4302770793
1539.1882836914	0.4334964454
1541.1170910644	0.4322259426
1543.0458984375	0.4261420965
1544.9747058105	0.4257976115
1546.9035131836	0.4246501327
1548.8323205566	0.4221534729
1550.7611279297	0.4223012328
1552.6899353027	0.4209257960
1554.6187426758	0.4190216362
1556.5475500488	0.4161627889
1558.4763574218	0.4171173275
1560.4051647949	0.4156781733
1562.3339721679	0.4087532461
1564.2627795410	0.4081633091
1566.1915869140	0.4079108238
1568.1203942871	0.4039708078
1570.0492016601	0.4025023878
1571.9780090332	0.3991310000
1573.9068164062	0.3965689540
1575.8356237793	0.3971537948
1577.7644311523	0.3920906782
1579.6932385254	0.3879230618
1581.6220458984	0.3873544931
1583.5508532715	0.3848350942
1585.4796606445	0.3811988831
1587.4084680175	0.3794169128
1589.3372753906	0.3770651817
1591.2660827636	0.3724930584
1593.1948901367	0.3700692952
1595.1236975097	0.3671622872
1597.0525048828	0.3636879325
1598.9813122558	0.3621462286
1600.9101196289	0.3592357635
1602.8389270019	0.3564287722
1604.7677343750	0.3535521626
1606.6965417480	0.3505892754
1608.6253491211	0.3484886587
1610.5541564941	0.3460730612
1612.4829638672	0.3446057737
1614.4117712402	0.3431793153
1616.3405786132	0.3420286477
1618.2693859863	0.3406593800
1620.1981933593	0.3393702805
1622.1270007324	0.3409745693
1624.0558081054	0.3405638039
1625.9846154785	0.3403879106
1627.9134228515	0.3431401551
1629.8422302246	0.3441889584
1631.7710375976	0.3452380002
1633.6998449707	0.3492589593
1635.6286523437	0.3553658426
1637.5574597168	0.3552384377
1639.4862670898	0.3577919602
1641.4150744629	0.3636377454
1643.3438818359	0.3690278232
1645.2726892090	0.3757408261
1647.2014965820	0.3800085187
1649.1303039550	0.3835505843
1651.0591113281	0.3889504671
1652.9879187011	0.3997238576
1654.9167260742	0.4019424915
1656.8455334472	0.4049809873
1658.7743408203	0.4118470848
1660.7031481933	0.4156024754
1662.6319555664	0.4232560694
1664.5607629394	0.4290795326
1666.4895703125	0.4347151220
1668.4183776855	0.4420090616
1670.3471850586	0.4470089078
1672.2759924316	0.4514569342
1674.2047998047	0.4576359391
1676.1336071777	0.4647603035
1678.0624145507	0.4687422812
1679.9912219238	0.4747346342
1681.9200292968	0.4798765481
1683.8488366699	0.4879806936
1685.7776440429	0.4939823151
1687.7064514160	0.4955756366
1689.6352587890	0.5029243827
1691.5640661621	0.5062623620
1693.4928735351	0.5096203089
1695.4216809082	0.5182199478
1697.3504882812	0.5226592422
1699.2792956543	0.5254727006
1701.2081030273	0.5314640999
1703.1369104004	0.5322528481
1705.0657177734	0.5347112417
1706.9945251464	0.5416756272
1708.9233325195	0.5423003435
1710.8521398925	0.5448381305
1712.7809472656	0.5486651659
1714.7097546386	0.5529200435
1716.6385620117	0.5576283336
1718.5673693847	0.5589759350
1720.4961767578	0.5593050718
1722.4249841308	0.5591717362
1724.3537915039	0.5634395480
1726.2825988769	0.5646455288
1728.2114062500	0.5660998821
1730.1402136230	0.5687436461
1732.0690209961	0.5685029030
1733.9978283691	0.5735240579
1735.9266357421	0.5731919408
1737.8554431152	0.5715009570
1739.7842504882	0.5735900998
1741.7130578613	0.5744295716
1743.6418652343	0.5738445520
1745.5706726074	0.5745540857
1747.4994799804	0.5751405954
1749.4282873535	0.5749294162
1751.3570947265	0.5771795511
1753.2859020996	0.5760218501
1755.2147094726	0.5757139325
1757.1435168457	0.5783000588
1759.0723242187	0.5775355697
1761.0011315918	0.5776545405
1762.9299389648	0.5779352188
1764.8587463379	0.5772470236
1766.7875537109	0.5781689286
1768.7163610839	0.5779455304
1770.6451684570	0.5783438087
1772.5739758300	0.5805650949
1774.5027832031	0.5791857243
1776.4315905761	0.5779600739
1778.3603979492	0.5781534314
1780.2892053222	0.5774382353
1782.2180126953	0.5768356323
1784.1468200683	0.5764142275
1786.0756274414	0.5761735439
1788.0044348144	0.5758481026
1789.9332421875	0.5758163333
1791.8620495605	0.5767554641
1793.7908569336	0.5768160820
1795.7196643066	0.5742979646
1797.6484716796	0.5742247105
1799.5772790527	0.5760413408
1801.5060864257	0.5741441846
1803.4348937988	0.5735097528
1805.3637011718	0.5737375021
1807.2925085449	0.5729484558
1809.2213159179	0.5729809403
1811.1501232910	0.5711222887
1813.0789306640	0.5698128343
1815.0077380371	0.5713440180
1816.9365454101	0.5705932379
1818.8653527832	0.5694642067
1820.7941601562	0.5703994036
1822.7229675293	0.5692135692
1824.6517749023	0.5698477030
1826.5805822753	0.5694308281
1828.5093896484	0.5676794648
1830.4381970214	0.5690365434
1832.3670043945	0.5666544437
1834.2958117675	0.5658069253
1836.2246191406	0.5670675039
1838.1534265136	0.5655168891
1840.0822338867	0.5662010312
1842.0110412597	0.5665597320
1843.9398486328	0.5653544664
1845.8686560058	0.5657615066
1847.7974633789	0.5646424294
1849.7262707519	0.5634253025
1851.6550781250	0.5639184117
1853.5838854980	0.5623195171
1855.5126928710	0.5619558096
1857.4415002441	0.5616858602
1859.3703076171	0.5609032512
1861.2991149902	0.5613872409
1863.2279223632	0.5597234368
1865.1567297363	0.5596970320
1867.0855371093	0.5593007207
1869.0143444824	0.5591416955
1870.9431518554	0.5593420863
1872.8719592285	0.5565829277
1874.8007666015	0.5570349693
1876.7295739746	0.5576773882
1878.6583813476	0.5566853285
1880.5871887207	0.5565761924
1882.5159960937	0.5550668836
1884.4448034667	0.5535102487
1886.3736108398	0.5535799861
1888.3024182128	0.5539276600
1890.2312255859	0.5538085103
1892.1600329589	0.5525331497
1894.0888403320	0.5515769720
1896.0176477050	0.5520145297
1897.9464550781	0.5502886176
1899.8752624511	0.5500000715
1901.8040698242	0.5504937172
1903.7328771972	0.5491055250
1905.6616845703	0.5483499169
1907.5904919433	0.5471683145
1909.5192993164	0.5482987165
1911.4481066894	0.5477320552
1913.3769140625	0.5464079380
1915.3057214355	0.5471157432
1917.2345288085	0.5459274054
1919.1633361816	0.5454487801
1921.0921435546	0.5437912941
1923.0209509277	0.5429681540
1924.9497583007	0.5440230966
1926.8785656738	0.5428877473
1928.8073730468	0.5419687629
1930.7361804199	0.5418365598
1932.6649877929	0.5417775512
1934.5937951660	0.5416434407
1936.5226025390	0.5407510400
1938.4514099121	0.5396559238
1940.3802172851	0.5392923951
1942.3090246582	0.5388417840
1944.2378320312	0.5381276011
1946.1666394042	0.5366519690
1948.0954467773	0.5361701846
1950.0242541503	0.5359354615
1951.9530615234	0.5345172286
1953.8818688964	0.5357931852
1955.8106762695	0.5345473289
1957.7394836425	0.5312466025
1959.6682910156	0.5319584012
1961.5970983886	0.5327942371
1963.5259057617	0.5314456224
1965.4547131347	0.5308013558
1967.3835205078	0.5315198302
1969.3123278808	0.5302569270
1971.2411352539	0.5295801759
1973.1699426269	0.5290732980
1975.0987499999	0.5271466970
1977.0275573730	0.5264889002
1978.9563647460	0.5262565613
1980.8851721191	0.5257607102
1982.8139794921	0.5250132084
1984.7427868652	0.5255582929
1986.6715942382	0.5251013637
1988.6004016113	0.5239825249
1990.5292089843	0.5234410167
1992.4580163574	0.5228959322
1994.3868237304	0.5228617787
1996.3156311035	0.5210170746
1998.2444384765	0.5207099915
2000.1732458496	0.5202612877
2002.1020532226	0.5193346143
2004.0308605956	0.5193236470
2005.9596679687	0.5188996196
2007.8884753417	0.5192473531
2009.8172827148	0.5176490545
2011.7460900878	0.5179204345
2013.6748974609	0.5172996521
2015.6037048339	0.5158360600
2017.5325122070	0.5159758925
2019.4613195800	0.5139542222
2021.3901269531	0.5144129395
2023.3189343261	0.5129660964
2025.2477416992	0.5125605464
2027.1765490722	0.5138400197
2029.1053564453	0.5111734867
2031.0341638183	0.5117455125
2032.9629711914	0.5117381215
2034.8917785644	0.5106267929
2036.8205859374	0.5106762648
2038.7493933105	0.5097277761
2040.6782006835	0.5097913742
2042.6070080566	0.5100777149
2044.5358154296	0.5106244087
2046.4646228027	0.5101475120
2048.3934301757	0.5090902448
2050.3222375488	0.5078505278
2052.2510449218	0.5062827468
2054.1798522949	0.5051631331
2056.1086596679	0.5054911971
2058.0374670410	0.5075418949
2059.9662744140	0.5065852404
2061.8950817871	0.5064253211
2063.8238891601	0.5066118836
2065.7526965331	0.5039919019
2067.6815039062	0.5046896338
2069.6103112792	0.5044770837
2071.5391186523	0.5039199591
2073.4679260253	0.5045360327
2075.3967333984	0.5028593540
2077.3255407714	0.5032284260
2079.2543481445	0.5029982924
2081.1831555175	0.5028750300
2083.1119628906	0.5038117170
2085.0407702636	0.5019884109
2086.9695776367	0.5018242598
2088.8983850097	0.5022300482
2090.8271923828	0.5017331243
2092.7559997558	0.5019903183
2094.6848071288	0.5012950897
2096.6136145019	0.5013159513
2098.5424218749	0.5014730096
2100.4712292480	0.5011008978
2102.4000366210	0.5019420981
2104.3288439941	0.5016903281
2106.2576513671	0.5015220046
2108.1864587402	0.5023986101
2110.1152661132	0.5011224747
2112.0440734863	0.5002128482
2113.9728808593	0.5007853508
2115.9016882324	0.5012755394
2117.8304956054	0.5011876822
2119.7593029785	0.5007533431
2121.6881103515	0.5014497638
2123.6169177245	0.5008652806
2125.5457250976	0.4999308586
2127.4745324706	0.5003117323
2129.4033398437	0.5003764033
2131.3321472167	0.5005406141
2133.2609545898	0.5006790161
2135.1897619628	0.5006271601
2137.1185693359	0.5003144145
2139.0473767089	0.5009036064
2140.9761840820	0.5017129183
2142.9049914550	0.5014469028
2144.8337988281	0.5017679334
2146.7626062011	0.5026229024
2148.6914135742	0.5015444756
2150.6202209472	0.5006324649
2152.5490283203	0.5027034879
2154.4778356933	0.5025072694
2156.4066430663	0.5017149448
2158.3354504394	0.5025541186
2160.2642578124	0.5028163195
2162.1930651855	0.5035433173
2164.1218725585	0.5025826097
2166.0506799316	0.5028992295
2167.9794873046	0.5030528307
2169.9082946777	0.5024816990
2171.8371020507	0.5040172935
2173.7659094238	0.5037032962
2175.6947167968	0.5045235157
2177.6235241699	0.5046628118
2179.5523315429	0.5031962395
2181.4811389160	0.5043855309
2183.4099462890	0.5049608350
2185.3387536620	0.5050715804
2187.2675610351	0.5059532523
2189.1963684081	0.5061240792
2191.1251757812	0.5062146783
2193.0539831542	0.5062922239
2194.9827905273	0.5053818822
2196.9115979003	0.5057058930
2198.8404052734	0.5065935850
2200.7692126464	0.5068070292
2202.6980200195	0.5075165033
2204.6268273925	0.5076423883
2206.5556347656	0.5076622367
2208.4844421386	0.5070486665
2210.4132495117	0.5074275136
2212.3420568847	0.5077556968
2214.2708642577	0.5083450079
2216.1996716308	0.5100433826
2218.1284790038	0.5078342557
2220.0572863769	0.5084554553
2221.9860937499	0.5103108287
2223.9149011230	0.5086771250
2225.8437084960	0.5095731020
2227.7725158691	0.5092118979
2229.7013232421	0.5085494518
2231.6301306152	0.5099825263
2233.5589379882	0.5114782453
2235.4877453613	0.5118770003
2237.4165527343	0.5099868774
2239.3453601074	0.5106440187
2241.2741674804	0.5114607215
2243.2029748534	0.5102505684
2245.1317822265	0.5115684867
2247.0605895995	0.5120692849
2248.9893969726	0.5110205412
2250.9182043456	0.5112866163
2252.8470117187	0.5113819242
2254.7758190917	0.5119467974
2256.7046264648	0.5124628544
2258.6334338378	0.5118721724
2260.5622412109	0.5126055479
2262.4910485839	0.5138314366
2264.4198559570	0.5138350129
2266.3486633300	0.5131931305
2268.2774707031	0.5124866366
2270.2062780761	0.5122469068
2272.1350854491	0.5124414563
2274.0638928222	0.5138215423
2275.9927001952	0.5137965679
2277.9215075683	0.5125212669
2279.8503149413	0.5146601796
2281.7791223144	0.5152586102
2283.7079296874	0.5139186978
2285.6367370605	0.5147920847
2287.5655444335	0.5146033764
2289.4943518066	0.5148609281
2291.4231591796	0.5153574347
2293.3519665527	0.5152001977
2295.2807739257	0.5153867006
2297.2095812988	0.5150356889
2299.1383886718	0.5155887604
2301.0671960449	0.5162280798
2302.9960034179	0.5169279575
2304.9248107909	0.5162029862
2306.8536181640	0.5163626075
2308.7824255370	0.5192248225
2310.7112329101	0.5197371244
2312.6400402831	0.5187202692
2314.5688476562	0.5178492069
2316.4976550292	0.5211944580
2318.4264624023	0.5243855715
2320.3552697753	0.5232312679
2322.2840771484	0.5246279836
2324.2128845214	0.5259045959
2326.1416918945	0.5277044773
2328.0704992675	0.5285815001
2329.9993066406	0.5288601518
2331.9281140136	0.5307731628
2333.8569213866	0.5301840305
2335.7857287597	0.5319942236
2337.7145361327	0.5317221880
2339.6433435058	0.5307426453
2341.5721508788	0.5315577388
2343.5009582519	0.5289509892
2345.4297656249	0.5278106332
2347.3585729980	0.5231121778
2349.2873803710	0.5191838145
2351.2161877441	0.5227936506
2353.1449951171	0.5281394124
2355.0738024902	0.5327274203
2357.0026098632	0.5356971025
2358.9314172363	0.5384158492
2360.8602246093	0.5381202102
2362.7890319823	0.5362231731
2364.7178393554	0.5365117788
2366.6466467284	0.5338849425
2368.5754541015	0.5320430994
2370.5042614745	0.5306941867
2372.4330688476	0.5268554091
2374.3618762206	0.5253055096
2376.2906835937	0.5228064060
2378.2194909667	0.5186997652
2380.1482983398	0.5185523629
2382.0771057128	0.5179151297
2384.0059130859	0.5159355402
2385.9347204589	0.5166807771
2387.8635278320	0.5152397156
2389.7923352050	0.5141944289
2391.7211425780	0.5151959062
2393.6499499511	0.5139552355
2395.5787573241	0.5137081146
2397.5075646972	0.5140168667
2399.4363720702	0.5147193670
2401.3651794433	0.5157710314
2403.2939868163	0.5147795677
2405.2227941894	0.5142923594
2407.1516015624	0.5150591731
2409.0804089355	0.5143900514
2411.0092163085	0.5136191249
2412.9380236816	0.5137740970
2414.8668310546	0.5132837296
2416.7956384277	0.5143625736
2418.7244458007	0.5137074590
2420.6532531738	0.5124685168
2422.5820605468	0.5141236186
2424.5108679198	0.5146729946
2426.4396752929	0.5149335861
2428.3684826659	0.5127536654
2430.2972900390	0.5124442577
2432.2260974120	0.5137479305
2434.1549047851	0.5121382475
2436.0837121581	0.5128380060
2438.0125195312	0.5121786594
2439.9413269042	0.5121810436
2441.8701342773	0.5126214623
2443.7989416503	0.5119987726
2445.7277490234	0.5130539536
2447.6565563964	0.5116484761
2449.5853637695	0.5130727887
2451.5141711425	0.5140372515
2453.4429785155	0.5101632476
2455.3717858886	0.5104619861
2457.3005932616	0.5122138262
2459.2294006347	0.5110480785
2461.1582080077	0.5118662715
2463.0870153808	0.5124428272
2465.0158227538	0.5103569627
2466.9446301269	0.5099354386
2468.8734374999	0.5110930800
2470.8022448730	0.5117548108
2472.7310522460	0.5098489523
2474.6598596191	0.5093298554
2476.5886669921	0.5095174909
2478.5174743652	0.5092616081
2480.4462817382	0.5112891793
2482.3750891112	0.5082721710
2484.3038964843	0.5070704818
2486.2327038573	0.5098124743
2488.1615112304	0.5096645355
2490.0903186034	0.5089670420
2492.0191259765	0.5084515214
2493.9479333495	0.5096083879
2495.8767407226	0.5076988339
2497.8055480956	0.5070388913
2499.7343554687	0.5078965425
2501.6631628417	0.5071656704
2503.5919702148	0.5092890263
2505.5207775878	0.5084369183
2507.4495849609	0.5076580048
2509.3783923339	0.5069012642
2511.3071997069	0.5051354170
2513.2360070800	0.5062094927
2515.1648144530	0.5064688921
2517.0936218261	0.5065116882
2519.0224291991	0.5059325099
2520.9512365722	0.5044740438
2522.8800439452	0.5044468641
2524.8088513183	0.5062372684
2526.7376586913	0.5055834055
2528.6664660644	0.5036277175
2530.5952734374	0.5047873259
2532.5240808105	0.5057871938
2534.4528881835	0.5042550564
2536.3816955566	0.5029788017
2538.3105029296	0.5038370490
2540.2393103027	0.5027419329
2542.1681176757	0.5030968189
2544.0969250487	0.5036273599
2546.0257324218	0.5019634962
2547.9545397948	0.5027061701
2549.8833471679	0.5026904941
2551.8121545409	0.5034403801
2553.7409619140	0.5023468137
2555.6697692870	0.5015488863
2557.5985766601	0.5026338696
2559.5273840331	0.5003763437
2561.4561914062	0.4993378818
2563.3849987792	0.4989691079
2565.3138061523	0.4996587336
2567.2426135253	0.5003418326
2569.1714208984	0.5006418824
2571.1002282714	0.5000360608
2573.0290356444	0.4982157350
2574.9578430175	0.4990387857
2576.8866503905	0.4988985658
2578.8154577636	0.4981928170
2580.7442651366	0.4969339669
2582.6730725097	0.4972391427
2584.6018798827	0.4968245327
2586.5306872558	0.4959496856
2588.4594946288	0.4982253015
2590.3883020019	0.4966456890
2592.3171093749	0.4965208471
2594.2459167480	0.4955497980
2596.1747241210	0.4947373271
2598.1035314941	0.4969760478
2600.0323388671	0.4938136339
2601.9611462401	0.4940314889
2603.8899536132	0.4957605004
2605.8187609862	0.4934613705
2607.7475683593	0.4928201139
2609.6763757323	0.4928353131
2611.6051831054	0.4919765592
2613.5339904784	0.4921396971
2615.4627978515	0.4914724529
2617.3916052245	0.4904932380
2619.3204125976	0.4927704036
2621.2492199706	0.4912091494
2623.1780273437	0.4896469116
2625.1068347167	0.4906271100
2627.0356420898	0.4890426993
2628.9644494628	0.4889039993
2630.8932568358	0.4880678654
2632.8220642089	0.4878796637
2634.7508715819	0.4880641997
2636.6796789550	0.4878409803
2638.6084863280	0.4877345264
2640.5372937011	0.4857845604
2642.4661010741	0.4863585532
2644.3949084472	0.4870666265
2646.3237158202	0.4863641560
2648.2525231933	0.4857430160
2650.1813305663	0.4841270447
2652.1101379394	0.4835762978
2654.0389453124	0.4846953750
2655.9677526855	0.4837618172
2657.8965600585	0.4817428291
2659.8253674315	0.4828310609
2661.7541748046	0.4834264219
2663.6829821776	0.4815848172
2665.6117895507	0.4797517955
2667.5405969237	0.4800948501
2669.4694042968	0.4797286391
2671.3982116698	0.4791044295
2673.3270190429	0.4794692695
2675.2558264159	0.4775319993
2677.1846337890	0.4784668982
2679.1134411620	0.4785152376
2681.0422485351	0.4768220186
2682.9710559081	0.4767632782
2684.8998632812	0.4754407108
2686.8286706542	0.4759668708
2688.7574780273	0.4753327668
2690.6862854003	0.4747817814
2692.6150927733	0.4743485153
2694.5439001464	0.4726844430
2696.4727075194	0.4727437198
2698.4015148925	0.4719366729
2700.3303222655	0.4710120261
2702.2591296386	0.4704203010
2704.1879370116	0.4706875384
2706.1167443847	0.4689875543
2708.0455517577	0.4681734443
2709.9743591308	0.4701288640
2711.9031665038	0.4685622454
2713.8319738769	0.4669420123
2715.7607812499	0.4664939940
2717.6895886230	0.4666814208
2719.6183959960	0.4654811025
2721.5472033690	0.4642052650
2723.4760107421	0.4644552171
2725.4048181151	0.4632132351
2727.3336254882	0.4641066194
2729.2624328612	0.4639529586
2731.1912402343	0.4622465670
2733.1200476073	0.4608962834
2735.0488549804	0.4601455033
2736.9776623534	0.4607883096
2738.9064697265	0.4596271813
2740.8352770995	0.4597043395
2742.7640844726	0.4583294988
2744.6928918456	0.4562754333
2746.6216992187	0.4575787187
2748.5505065917	0.4557189643
2750.4793139647	0.4537751973
2752.4081213378	0.4542632103
2754.3369287108	0.4524201155
2756.2657360839	0.4525832832
2758.1945434569	0.4537511170
2760.1233508300	0.4525631964
2762.0521582030	0.4522243738
2763.9809655761	0.4498392940
2765.9097729491	0.4484638870
2767.8385803222	0.4478845894
2769.7673876952	0.4466614425
2771.6961950683	0.4480448365
2773.6250024413	0.4459635019
2775.5538098144	0.4450275302
2777.4826171874	0.4444250166
2779.4114245604	0.4422866404
2781.3402319335	0.4439525604
2783.2690393065	0.4434706867
2785.1978466796	0.4421589971
2787.1266540526	0.4398195744
2789.0554614257	0.4389970601
2790.9842687987	0.4406428635
2792.9130761718	0.4375729561
2794.8418835448	0.4357620180
2796.7706909179	0.4357600510
2798.6994982909	0.4339600205
2800.6283056640	0.4336225092
2802.5571130370	0.4340967834
2804.4859204101	0.4334068298
2806.4147277831	0.4322552979
2808.3435351562	0.4307435453
2810.2723425292	0.4293611646
2812.2011499022	0.4278766513
2814.1299572753	0.4271214008
2816.0587646483	0.4275050461
2817.9875720214	0.4250524640
2819.9163793944	0.4248820543
2821.8451867675	0.4257744551
2823.7739941405	0.4230327606
2825.7028015136	0.4227551222
2827.6316088866	0.4214318395
2829.5604162597	0.4189515710
2831.4892236327	0.4181886911
2833.4180310058	0.4171989262
2835.3468383788	0.4165269434
2837.2756457519	0.4146812558
2839.2044531249	0.4133902788
2841.1332604979	0.4126181901
2843.0620678710	0.4115206897
2844.9908752440	0.4108471274
2846.9196826171	0.4076246917
2848.8484899901	0.4061878622
2850.7772973632	0.4073549211
2852.7061047362	0.4043050706
2854.6349121093	0.4029322863
2856.5637194823	0.4028298855
2858.4925268554	0.4007542729
2860.4213342284	0.4017387927
2862.3501416015	0.4008052349
2864.2789489745	0.3992695212
2866.2077563476	0.3992274702
2868.1365637206	0.3965579569
2870.0653710936	0.3941256106
2871.9941784667	0.3939732611
2873.9229858397	0.3925541043
2875.8517932128	0.3903445899
2877.7806005858	0.3921479583
2879.7094079589	0.3911897838
2881.6382153319	0.3889234364
2883.5670227050	0.3881894946
2885.4958300780	0.3864529431
2887.4246374511	0.3870615363
2889.3534448241	0.3840691447
2891.2822521972	0.3830299973
2893.2110595702	0.3830574751
2895.1398669433	0.3803254962
2897.0686743163	0.3795810044
2898.9974816893	0.3760503232
2900.9262890624	0.3774795234
2902.8550964354	0.3772056699
2904.7839038085	0.3728981018
2906.7127111815	0.3741945326
2908.6415185546	0.3710649312
2910.5703259276	0.3674959540
2912.4991333007	0.3666979074
2914.4279406737	0.3653325737
2916.3567480468	0.3641537130
2918.2855554198	0.3625293672
2920.2143627929	0.3624505103
2922.1431701659	0.3601070046
2924.0719775390	0.3575906157
2926.0007849120	0.3563794196
2927.9295922851	0.3550070226
2929.8583996581	0.3548777997
2931.7872070311	0.3529065549
2933.7160144042	0.3520829976
2935.6448217772	0.3525894582
2937.5736291503	0.3512585163
2939.5024365233	0.3496180773
2941.4312438964	0.3475063145
2943.3600512694	0.3474592566
2945.2888586425	0.3474530578
2947.2176660155	0.3438636065
2949.1464733886	0.3420065939
2951.0752807616	0.3416920304
2953.0040881347	0.3389511704
2954.9328955077	0.3373674750
2956.8617028808	0.3364760578
2958.7905102538	0.3358099461
2960.7193176268	0.3362004757
2962.6481249999	0.3323003352
2964.5769323729	0.3300276995
2966.5057397460	0.3307823241
2968.4345471190	0.3296062946
2970.3633544921	0.3288511634
2972.2921618651	0.3255271316
2974.2209692382	0.3239504695
2976.1497766112	0.3238628507
2978.0785839843	0.3223458529
2980.0073913573	0.3216661811
2981.9361987304	0.3199196756
2983.8650061034	0.3195131123
2985.7938134765	0.3171360195
2987.7226208495	0.3148512244
2989.6514282225	0.3131476045
2991.5802355956	0.3116666377
2993.5090429686	0.3127186596
2995.4378503417	0.3088351190
2997.3666577147	0.3070792556
2999.2954650878	0.3079375625
3001.2242724608	0.3058820665
3003.1530798339	0.3041676581
3005.0818872069	0.3027722538
3007.0106945800	0.3011429906
3008.9395019530	0.2986211479
3010.8683093261	0.2993428111
3012.7971166991	0.2972466052
3014.7259240722	0.2938998640
3016.6547314452	0.2942576110
3018.5835388182	0.2917104959
3020.5123461913	0.2902162373
3022.4411535643	0.2897599041
3024.3699609374	0.2891604900
3026.2987683104	0.2868278623
3028.2275756835	0.2843664587
3030.1563830565	0.2844028175
3032.0851904296	0.2822715938
3034.0139978026	0.2821749151
3035.9428051757	0.2817614675
3037.8716125487	0.2792944610
3039.8004199218	0.2783365846
3041.7292272948	0.2757766247
3043.6580346679	0.2743340731
3045.5868420409	0.2754469812
3047.5156494139	0.2748178840
3049.4444567870	0.2728430331
3051.3732641600	0.2719498873
3053.3020715331	0.2706533074
3055.2308789061	0.2686323225
3057.1596862792	0.2681404352
3059.0884936522	0.2691107094
3061.0173010253	0.2673832476
3062.9461083983	0.2638979554
3064.8749157714	0.2636879086
3066.8037231444	0.2641196251
3068.7325305175	0.2630400360
3070.6613378905	0.2615203857
3072.5901452636	0.2599768341
3074.5189526366	0.2586315572
3076.4477600097	0.2572624087
3078.3765673827	0.2566644847
3080.3053747557	0.2558307350
3082.2341821288	0.2542855740
3084.1629895018	0.2547789216
3086.0917968749	0.2534924746
3088.0206042479	0.2506250143
3089.9494116210	0.2530093789
3091.8782189940	0.2521621287
3093.8070263671	0.2494765371
3095.7358337401	0.2512304485
3097.6646411132	0.2497354746
3099.5934484862	0.2476321608
3101.5222558593	0.2464147657
3103.4510632323	0.2464746684
3105.3798706054	0.2463043481
3107.3086779784	0.2434667498
3109.2374853514	0.2432996333
3111.1662927245	0.2429190129
3113.0951000975	0.2414183766
3115.0239074706	0.2404311895
3116.9527148436	0.2397121191
3118.8815222167	0.2402915210
3120.8103295897	0.2395300120
3122.7391369628	0.2373348773
3124.6679443358	0.2376696467
3126.5967517089	0.2376114875
3128.5255590819	0.2358158231
3130.4543664550	0.2366853803
3132.3831738280	0.2351629883
3134.3119812011	0.2352074087
3136.2407885741	0.2358869910
3138.1695959471	0.2338048220
3140.0984033202	0.2377335876
3142.0272106932	0.2352094054
3143.9560180663	0.2308154255
3145.8848254393	0.2339227498
3147.8136328124	0.2325317860
3149.7424401854	0.2318464071
3151.6712475585	0.2307702303
3153.6000549315	0.2289535403
3155.5288623046	0.2313223183
3157.4576696776	0.2308215350
3159.3864770507	0.2297297269
3161.3152844237	0.2304362804
3163.2440917968	0.2297877818
3165.1728991698	0.2295502424
3167.1017065428	0.2305514216
3169.0305139159	0.2299839109
3170.9593212889	0.2288797647
3172.8881286620	0.2294139713
3174.8169360350	0.2286303192
3176.7457434081	0.2278943211
3178.6745507811	0.2279526293
3180.6033581542	0.2272431701
3182.5321655272	0.2290109098
3184.4609729003	0.2304022163
3186.3897802733	0.2295047641
3188.3185876464	0.2303547263
3190.2473950194	0.2314787507
3192.1762023925	0.2296424806
3194.1050097655	0.2281105518
3196.0338171386	0.2303836346
3197.9626245116	0.2295219451
3199.8914318846	0.2280816138
3201.8202392577	0.2318425030
3203.7490466307	0.2315241098
3205.6778540038	0.2309194803
3207.6066613768	0.2323372662
3209.5354687499	0.2302182913
3211.4642761229	0.2324196696
3213.3930834960	0.2339995950
3215.3218908690	0.2298594862
3217.2506982421	0.2310616225
3219.1795056151	0.2338869274
3221.1083129882	0.2341095656
3223.0371203612	0.2365387082
3224.9659277343	0.2353709787
3226.8947351073	0.2354641110
3228.8235424803	0.2395880222
3230.7523498534	0.2369682342
3232.6811572264	0.2368977219
3234.6099645995	0.2375413030
3236.5387719725	0.2343612760
3238.4675793456	0.2394181043
3240.3963867186	0.2414467037
3242.3251940917	0.2411138117
3244.2540014647	0.2419988513
3246.1828088378	0.2393281758
3248.1116162108	0.2435280979
3250.0404235839	0.2428431660
3251.9692309569	0.2401654869
3253.8980383300	0.2437763959
3255.8268457030	0.2450664937
3257.7556530760	0.2489425689
3259.6844604491	0.2479972243
3261.6132678221	0.2471529543
3263.5420751952	0.2499746233
3265.4708825682	0.2499082834
3267.3996899413	0.2510843277
3269.3284973143	0.2494923323
3271.2573046874	0.2502901852
3273.1861120604	0.2513325214
3275.1149194335	0.2537603676
3277.0437268065	0.2572310567
3278.9725341796	0.2533777952
3280.9013415526	0.2552360594
3282.8301489257	0.2570863664
3284.7589562987	0.2555904090
3286.6877636717	0.2579425275
3288.6165710448	0.2578344941
3290.5453784178	0.2589186132
3292.4741857909	0.2599883378
3294.4029931639	0.2590375841
3296.3318005370	0.2606611550
3298.2606079100	0.2612416148
3300.1894152831	0.2593337893
3302.1182226561	0.2614692748
3304.0470300292	0.2670539618
3305.9758374022	0.2676271200
3307.9046447753	0.2652160525
3309.8334521483	0.2663676143
3311.7622595214	0.2671930492
3313.6910668944	0.2675678432
3315.6198742675	0.2697131634
3317.5486816405	0.2703847587
3319.4774890135	0.2723256350
3321.4062963866	0.2726404965
3323.3351037596	0.2722260058
3325.2639111327	0.2731367648
3327.1927185057	0.2726148367
3329.1215258788	0.2760539949
3331.0503332518	0.2765118778
3332.9791406249	0.2778725624
3334.9079479979	0.2824604511
3336.8367553710	0.2794243991
3338.7655627440	0.2787304223
3340.6943701171	0.2806291878
3342.6231774901	0.2815439701
3344.5519848632	0.2831206322
3346.4807922362	0.2830752432
3348.4095996092	0.2843964398
3350.3384069823	0.2860808074
3352.2672143553	0.2876755893
3354.1960217284	0.2886400521
3356.1248291014	0.2914919555
3358.0536364745	0.2957054079
3359.9824438475	0.2936927080
3361.9112512206	0.2924270630
3363.8400585936	0.2961802185
3365.7688659667	0.2975296974
3367.6976733397	0.2986128032
3369.6264807128	0.3001219332
3371.5552880858	0.3005509079
3373.4840954589	0.3037611842
3375.4129028319	0.3055236340
3377.3417102049	0.3043924272
3379.2705175780	0.3068132699
3381.1993249510	0.3105469048
3383.1281323241	0.3121799529
3385.0569396971	0.3141486347
3386.9857470702	0.3151113391
3388.9145544432	0.3172734976
3390.8433618163	0.3204335272
3392.7721691893	0.3209389150
3394.7009765624	0.3232445419
3396.6297839354	0.3244970739
3398.5585913085	0.3263796568
3400.4873986815	0.3297498822
3402.4162060546	0.3310689926
3404.3450134276	0.3343344033
3406.2738208006	0.3347714543
3408.2026281737	0.3362069428
3410.1314355467	0.3417389691
3412.0602429198	0.3455870152
3413.9890502928	0.3466046453
3415.9178576659	0.3457572162
3417.8466650389	0.3482657075
3419.7754724120	0.3522363305
3421.7042797850	0.3540868759
3423.6330871581	0.3555842340
3425.5618945311	0.3594928682
3427.4907019042	0.3624871671
3429.4195092772	0.3650494516
3431.3483166503	0.3688397110
3433.2771240233	0.3697485328
3435.2059313963	0.3712783456
3437.1347387694	0.3735828102
3439.0635461424	0.3779946566
3440.9923535155	0.3797462881
3442.9211608885	0.3803115785
3444.8499682616	0.3852267563
3446.7787756346	0.3882127106
3448.7075830077	0.3919621110
3450.6363903807	0.3901928663
3452.5651977538	0.3918358386
3454.4940051268	0.4002747536
3456.4228124999	0.4000227451
3458.3516198729	0.4014862776
3460.2804272460	0.4062135816
3462.2092346190	0.4102312624
3464.1380419921	0.4140373468
3466.0668493651	0.4147729278
3467.9956567381	0.4133498967
3469.9244641112	0.4163659811
3471.8532714842	0.4215553999
3473.7820788573	0.4214756787
3475.7108862303	0.4255574644
3477.6396936034	0.4265255332
3479.5685009764	0.4286049604
3481.4973083495	0.4371586442
3483.4261157225	0.4356514215
3485.3549230956	0.4369037449
3487.2837304686	0.4412485361
3489.2125378417	0.4438999593
3491.1413452147	0.4478370845
3493.0701525878	0.4486083686
3494.9989599608	0.4535527527
3496.9277673338	0.4549212456
3498.8565747069	0.4554849565
3500.7853820799	0.4604865015
3502.7141894530	0.4622874856
3504.6429968260	0.4679507017
3506.5718041991	0.4714784920
3508.5006115721	0.4739338756
3510.4294189452	0.4776829481
3512.3582263182	0.4777744710
3514.2870336913	0.4800268114
3516.2158410643	0.4810063541
3518.1446484374	0.4858287871
3520.0734558104	0.4904563129
3522.0022631835	0.4909459352
3523.9310705565	0.4951179326
3525.8598779295	0.4969787300
3527.7886853026	0.4999502599
3529.7174926756	0.5014955997
3531.6463000487	0.5031646490
3533.5751074217	0.5089371204
3535.5039147948	0.5117075443
3537.4327221678	0.5138947964
3539.3615295409	0.5145242810
3541.2903369139	0.5197543502
3543.2191442870	0.5245453119
3545.1479516600	0.5220139027
3547.0767590331	0.5259255767
3549.0055664061	0.5314618349
3550.9343737792	0.5347971916
3552.8631811522	0.5391254425
3554.7919885252	0.5405537486
3556.7207958983	0.5433632135
3558.6496032713	0.5462679863
3560.5784106444	0.5493662357
3562.5072180174	0.5545733571
3564.4360253905	0.5554511547
3566.3648327635	0.5583429337
3568.2936401366	0.5619547367
3570.2224475096	0.5604500771
3572.1512548827	0.5628552437
3574.0800622557	0.5682023168
3576.0088696288	0.5710672736
3577.9376770018	0.5719343424
3579.8664843749	0.5777713656
3581.7952917479	0.5817897320
3583.7240991210	0.5804818273
3585.6529064940	0.5830274224
3587.5817138670	0.5855340362
3589.5105212401	0.5912685394
3591.4393286131	0.5967727304
3593.3681359862	0.5983817577
3595.2969433592	0.5995696783
3597.2257507323	0.6012742519
3599.1545581053	0.6042102575
3601.0833654784	0.6067696810
3603.0121728514	0.6092622876
3604.9409802245	0.6107006669
3606.8697875975	0.6160865426
3608.7985949706	0.6171039343
3610.7274023436	0.6183176637
3612.6562097167	0.6267918348
3614.5850170897	0.6276096106
3616.5138244627	0.6303947568
3618.4426318358	0.6339107156
3620.3714392088	0.6376283169
3622.3002465819	0.6433040500
3624.2290539549	0.6435578465
3626.1578613280	0.6429896355
3628.0866687010	0.6461037397
3630.0154760741	0.6540627480
3631.9442834471	0.6557182670
3633.8730908202	0.6588252783
3635.8018981932	0.6620145440
3637.7307055663	0.6644590497
3639.6595129393	0.6676473022
3641.5883203124	0.6694269776
3643.5171276854	0.6773151755
3645.4459350584	0.6798807383
3647.3747424315	0.6877735853
3649.3035498045	0.6947427392
3651.2323571776	0.6951532960
3653.1611645506	0.7019807696
3655.0899719237	0.7029371262
3657.0187792967	0.7081376314
3658.9475866698	0.7065100074
3660.8763940428	0.7087582350
3662.8052014159	0.7196146250
3664.7340087889	0.7214627862
3666.6628161620	0.7287553549
3668.5916235350	0.7305011749
3670.5204309081	0.7343698144
3672.4492382811	0.7445935607
3674.3780456541	0.7456648350
3676.3068530272	0.7486610413
3678.2356604002	0.7517129183
3680.1644677733	0.7503629923
3682.0932751463	0.7529925704
3684.0220825194	0.7600595951
3685.9508898924	0.7624515295
3687.8796972655	0.7679117322
3689.8085046385	0.7686016560
3691.7373120116	0.7639312744
3693.6661193846	0.7689387798
3695.5949267577	0.7706318498
3697.5237341307	0.7685152292
3699.4525415038	0.7719025612
3701.3813488768	0.7773491740
3703.3101562499	0.7740480900
3705.2389636229	0.7713826895
3707.1677709959	0.7770887017
3709.0965783690	0.7779811025
3711.0253857420	0.7756656408
3712.9541931151	0.7725865841
3714.8830004881	0.7738713026
3716.8118078612	0.7794466019
3718.7406152342	0.7765678167
3720.6694226073	0.7731598020
3722.5982299803	0.7749647498
3724.5270373534	0.7733218670
3726.4558447264	0.7743098736
3728.3846520995	0.7770720124
3730.3134594725	0.7732490897
3732.2422668456	0.7682108879
3734.1710742186	0.7687343955
3736.0998815916	0.7702162266
3738.0286889647	0.7693153024
3739.9574963377	0.7702152729
3741.8863037108	0.7680755854
3743.8151110838	0.7663119435
3745.7439184569	0.7708083391
3747.6727258299	0.7648228407
3749.6015332030	0.7611665130
3751.5303405760	0.7650773525
3753.4591479491	0.7618026137
3755.3879553221	0.7633164525
3757.3167626952	0.7621603012
3759.2455700682	0.7569118142
3761.1743774413	0.7596732974
3763.1031848143	0.7571413517
3765.0319921873	0.7560498118
3766.9607995604	0.7589753866
3768.8896069334	0.7577980757
3770.8184143065	0.7562348247
3772.7472216795	0.7528349161
3774.6760290526	0.7544593215
3776.6048364256	0.7527543306
3778.5336437987	0.7499843240
3780.4624511717	0.7529402375
3782.3912585448	0.7522786260
3784.3200659178	0.7504860759
3786.2488732909	0.7481272221
3788.1776806639	0.7499479055
3790.1064880370	0.7471249104
3792.0352954100	0.7493371367
3793.9641027830	0.7505909801
3795.8929101561	0.7437557578
3797.8217175291	0.7509730458
3799.7505249022	0.7441967726
3801.6793322752	0.7453674078
3803.6081396483	0.7515657544
3805.5369470213	0.7410602570
3807.4657543944	0.7458494306
3809.3945617674	0.7428838611
3811.3233691405	0.7425051928
3813.2521765135	0.7389948964
3815.1809838866	0.7347302437
3817.1097912596	0.7419592142
3819.0385986327	0.7345837951
3820.9674060057	0.7403644919
3822.8962133787	0.7446119189
3824.8250207518	0.7377901673
3826.7538281248	0.7337387800
3828.6826354979	0.7354791164
3830.6114428709	0.7404706478
3832.5402502440	0.7333730459
3834.4690576170	0.7339881659
3836.3978649901	0.7330105901
3838.3266723631	0.7338873148
3840.2554797362	0.7351132631
3842.1842871092	0.7324475646
3844.1130944823	0.7330914736
3846.0419018553	0.7273932099
3847.9707092284	0.7320023775
3849.8995166014	0.7285071015
3851.8283239745	0.7299768329
3853.7571313475	0.7406631708
3855.6859387205	0.7286480069
3857.6147460936	0.7260389924
3859.5435534666	0.7228744626
3861.4723608397	0.7237108350
3863.4011682127	0.7232909203
3865.3299755858	0.7247576714
3867.2587829588	0.7255313396
3869.1875903319	0.7210634351
3871.1163977049	0.7297148108
3873.0452050780	0.7219344378
3874.9740124510	0.7215095162
3876.9028198241	0.7267000675
3878.8316271971	0.7183824778
3880.7604345702	0.7208527327
3882.6892419432	0.7170263529
3884.6180493162	0.7184430957
3886.5468566893	0.7266476750
3888.4756640623	0.7174084783
3890.4044714354	0.7158368826
3892.3332788084	0.7195312977
3894.2620861815	0.7144573927
3896.1908935545	0.7128575444
3898.1197009276	0.7168335319
3900.0485083006	0.7177628279
3901.9773156737	0.7142792940
3903.9061230467	0.7152547836
3905.8349304198	0.7147384286
3907.7637377928	0.7099680305
3909.6925451659	0.7130237222
3911.6213525389	0.7106980681
3913.5501599119	0.7114304900
3915.4789672850	0.7186045647
3917.4077746580	0.7121765018
3919.3365820311	0.7123116255
3921.2653894041	0.7124035954
3923.1941967772	0.7079061866
3925.1230041502	0.7096143365
3927.0518115233	0.7091259360
3928.9806188963	0.7073759437
3930.9094262694	0.7072702050
3932.8382336424	0.7127782106
3934.7670410155	0.7100110650
3936.6958483885	0.7051668167
3938.6246557616	0.7048607469
3940.5534631346	0.7024600506
3942.4822705076	0.7060880065
3944.4110778807	0.7069344521
3946.3398852537	0.7057266235
3948.2686926268	0.7051778436
3950.1974999998	0.7043261528
3952.1263073729	0.7041707635
3954.0551147459	0.7038363218
3955.9839221190	0.7048417330
3957.9127294920	0.7038499117
3959.8415368651	0.7019306421
3961.7703442381	0.6967406869
3963.6991516112	0.7009099126
3965.6279589842	0.7035226226
3967.5567663573	0.6963421106
3969.4855737303	0.7011994123
3971.4143811034	0.7036960721
3973.3431884764	0.7012509704
3975.2719958494	0.7021314502
3977.2008032225	0.6993186474
3979.1296105955	0.6950606704
3981.0584179686	0.6993744373
3982.9872253416	0.7041609287
3984.9160327147	0.6985360980
3986.8448400877	0.6981094480
3988.7736474608	0.6973021626
3990.7024548338	0.6975538135
3992.6312622069	0.6982262135
3994.5600695799	0.6952719688
3996.4888769530	0.6980405450
3998.4176843260	0.6949537396
4000.3464916991	0.6975205541
4002.2752990721	0.6975309849
4004.2041064451	0.6952955127
4006.1329138182	0.7019804120
4008.0617211912	0.6954694390
4009.9905285643	0.6953989267
4011.9193359373	0.6961686015
4013.8481433104	0.6924591660
4015.7769506834	0.6958618760
4017.7057580565	0.6951081157
4019.6345654295	0.6981803775
4021.5633728026	0.6892032027
4023.4921801756	0.6872686744
4025.4209875487	0.6975787878
4027.3497949217	0.6916388869
4029.2786022948	0.6958230138
4031.2074096678	0.6953719258
4033.1362170408	0.6879034638
4035.0650244139	0.6919294596
4036.9938317869	0.6900886893
4038.9226391600	0.6905516386
4040.8514465330	0.6924867630
4042.7802539061	0.6905682087
4044.7090612791	0.6900151968
4046.6378686522	0.6927497387
4048.5666760252	0.6913479567
4050.4954833983	0.6876607537
4052.4242907713	0.6938505769
4054.3530981444	0.6916286945
4056.2819055174	0.6907432675
4058.2107128905	0.6949808002
4060.1395202635	0.6871501207
4062.0683276365	0.6866219044
4063.9971350096	0.6914470196
4065.9259423826	0.6934789419
4067.8547497557	0.6899120808
4069.7835571287	0.6876396537
4071.7123645018	0.6924282908
4073.6411718748	0.6843432188
4075.5699792479	0.6834512353
4077.4987866209	0.6889569759
4079.4275939940	0.6848234534
4081.3564013670	0.6897339821
4083.2852087401	0.6897416711
4085.2140161131	0.6859638691
4087.1428234862	0.6868956089
4089.0716308592	0.6874457598
4091.0004382323	0.6883494258
4092.9292456053	0.6840859056
4094.8580529783	0.6878348589
4096.7868603514	0.6919087768
4098.7156677244	0.6893920898
4100.6444750975	0.6851431727
4102.5732824705	0.6799419522
4104.5020898436	0.6862717271
4106.4308972166	0.6875293851
4108.3597045897	0.6814523935
4110.2885119627	0.6846045256
4112.2173193358	0.6905789375
4114.1461267088	0.6841365099
4116.0749340819	0.6784195304
4118.0037414549	0.6853331923
4119.9325488280	0.6826243401
4121.8613562010	0.6806891561
4123.7901635740	0.6813519001
4125.7189709471	0.6837318540
4127.6477783201	0.6851098537
4129.5765856932	0.6798528433
4131.5053930662	0.6850019097
4133.4342004393	0.6763132811
4135.3630078123	0.6754810214
4137.2918151854	0.6868450642
4139.2206225584	0.6841492057
4141.1494299315	0.6869768500
4143.0782373045	0.6841068268
4145.0070446776	0.6852180958
4146.9358520506	0.6832476854
4148.8646594237	0.6803638935
4150.7934667967	0.6878500581
4152.7222741697	0.6810474396
4154.6510815428	0.6790886521
4156.5798889158	0.6856707931
4158.5086962889	0.6866241693
4160.4375036619	0.6831358075
4162.3663110350	0.6826124191
4164.2951184080	0.6839306355
4166.2239257811	0.6841892004
4168.1527331541	0.6805865169
4170.0815405272	0.6777782440
4172.0103479002	0.6858203411
4173.9391552733	0.6805498600
4175.8679626463	0.6819912195
4177.7967700194	0.6829919815
4179.7255773924	0.6719361544
4181.6543847654	0.6786943674
4183.5831921385	0.6796169877
4185.5119995115	0.6802363396
4187.4408068846	0.6773280501
4189.3696142576	0.6747969985
4191.2984216307	0.6813086867
4193.2272290037	0.6813313961
4195.1560363768	0.6796978712
4197.0848437498	0.6713036895
4199.0136511229	0.6807428002
4200.9424584959	0.6846237779
4202.8712658690	0.6755424142
4204.8000732420	0.6780903935
4206.7288806151	0.6773843765
4208.6576879881	0.6815073490
4210.5864953611	0.6795078516
4212.5153027342	0.6839731336
4214.4441101072	0.6805997491
4216.3729174803	0.6710899472
4218.3017248533	0.6837753654
4220.2305322264	0.6796840429
4222.1593395994	0.6767469645
4224.0881469725	0.6784781814
4226.0169543455	0.6733438969
4227.9457617186	0.6806789637
4229.8745690916	0.6831380725
4231.8033764647	0.6797555685
4233.7321838377	0.6802804470
4235.6609912108	0.6821607351
4237.5897985838	0.6803063154
4239.5186059569	0.6780860424
4241.4474133299	0.6748459339
4243.3762207029	0.6765297651
4245.3050280760	0.6806595325
4247.2338354490	0.6744316816
4249.1626428221	0.6749861836
4251.0914501951	0.6764016151
4253.0202575682	0.6701670885
4254.9490649412	0.6707422137
4256.8778723143	0.6804007888
4258.8066796873	0.6779602170
4260.7354870604	0.6680617332
4262.6642944334	0.6769427061
4264.5931018065	0.6782394052
4266.5219091795	0.6767479777
4268.4507165526	0.6821240783
4270.3795239256	0.6710672975
4272.3083312986	0.6675523520
4274.2371386717	0.6756146550
4276.1659460447	0.6784774661
4278.0947534178	0.6747531891
4280.0235607908	0.6711242795
4281.9523681639	0.6747267842
4283.8811755369	0.6739089489
4285.8099829100	0.6750213504
4287.7387902830	0.6743354201
4289.6675976561	0.6660593152
4291.5964050291	0.6705875993
4293.5252124022	0.6698617339
4295.4540197752	0.6631496549
4297.3828271483	0.6696997285
4299.3116345213	0.6733368635
4301.2404418943	0.6754643917
4303.1692492674	0.6757667661
4305.0980566404	0.6777226925
4307.0268640135	0.6773297787
4308.9556713865	0.6696524024
4310.8844787596	0.6768777966
4312.8132861326	0.6755992174
4314.7420935057	0.6702694297
4316.6709008787	0.6800165772
4318.5997082518	0.6750209928
4320.5285156248	0.6669133306
4322.4573229979	0.6719794869
4324.3861303709	0.6793388128
4326.3149377440	0.6795351505
4328.2437451170	0.6747612953
4330.1725524900	0.6771579385
4332.1013598631	0.6751934886
4334.0301672361	0.6629664302
4335.9589746092	0.6643651128
4337.8877819822	0.6708534360
4339.8165893553	0.6681268811
4341.7453967283	0.6773324013
4343.6742041014	0.6799803376
4345.6030114744	0.6701223254
4347.5318188475	0.6688504219
4349.4606262205	0.6708331704
4351.3894335936	0.6700646281
4353.3182409666	0.6633006334
4355.2470483397	0.6621819139
4357.1758557127	0.6623484492
4359.1046630858	0.6680814624
4361.0334704588	0.6721513867
4362.9622778318	0.6648579240
4364.8910852049	0.6676539779
4366.8198925779	0.6664286852
4368.7486999510	0.6702647209
4370.6775073240	0.6716319919
4372.6063146971	0.6664538383
4374.5351220701	0.6687363982
4376.4639294432	0.6651529074
4378.3927368162	0.6718097925
4380.3215441893	0.6718608141
4382.2503515623	0.6726888418
4384.1791589354	0.6731895804
4386.1079663084	0.6677864194
4388.0367736815	0.6727915406
4389.9655810545	0.6608875990
4391.8943884275	0.6637302637
4393.8231958006	0.6719589829
4395.7520031736	0.6715349555
4397.6808105467	0.6710929871
4399.6096179197	0.6593530178
4401.5384252928	0.6675620079
4403.4672326658	0.6675636768
4405.3960400389	0.6636527777
4407.3248474119	0.6709113717
4409.2536547850	0.6701704264
4411.1824621580	0.6742978692
4413.1112695311	0.6713674068
4415.0400769041	0.6686800122
4416.9688842772	0.6688286066
4418.8976916502	0.6650034189
4420.8264990232	0.6691214442
4422.7553063963	0.6715859771
4424.6841137693	0.6639709473
4426.6129211424	0.6674009562
4428.5417285154	0.6677725911
4430.4705358885	0.6635868549
4432.3993432615	0.6738229990
4434.3281506346	0.6679303646
4436.2569580076	0.6686874628
4438.1857653807	0.6696398258
4440.1145727537	0.6648572683
4442.0433801268	0.6705310941
4443.9721874998	0.6606407762
4445.9009948729	0.6655210257
4447.8298022459	0.6654440761
4449.7586096189	0.6620231271
4451.6874169920	0.6716729999
4453.6162243650	0.6710188985
4455.5450317381	0.6700657010
4457.4738391111	0.6644375324
4459.4026464842	0.6715136170
4461.3314538572	0.6699081659
4463.2602612303	0.6653178334
4465.1890686033	0.6669633389
4467.1178759764	0.6620199084
4469.0466833494	0.6722713709
4470.9754907225	0.6677421331
4472.9042980955	0.6625015140
4474.8331054686	0.6637457609
4476.7619128416	0.6663031578
4478.6907202147	0.6734302640
4480.6195275877	0.6696425080
4482.5483349607	0.6711998582
4484.4771423338	0.6708537340
4486.4059497068	0.6683917642
4488.3347570799	0.6612713933
4490.2635644529	0.6658136249
4492.1923718260	0.6697058678
4494.1211791990	0.6569522023
4496.0499865721	0.6634990573
4497.9787939451	0.6697363257
4499.9076013182	0.6677947640
4501.8364086912	0.6606969833
4503.7652160643	0.6658028364
4505.6940234373	0.6779496074
4507.6228308104	0.6732026339
4509.5516381834	0.6681180596
4511.4804455564	0.6609898806
4513.4092529295	0.6698775291
4515.3380603025	0.6713539362
4517.2668676756	0.6641655564
4519.1956750486	0.6678530574
4521.1244824217	0.6628066301
4523.0532897947	0.6644143462
4524.9820971678	0.6611123085
4526.9109045408	0.6641898155
4528.8397119139	0.6680211425
4530.7685192869	0.6553882360
4532.6973266600	0.6578994989
4534.6261340330	0.6631394029
4536.5549414061	0.6687068343
4538.4837487791	0.6764052510
4540.4125561521	0.6674283743
4542.3413635252	0.6611781120
4544.2701708982	0.6610805392
4546.1989782713	0.6514975429
4548.1277856443	0.6577830911
4550.0565930174	0.6632664800
4551.9854003904	0.6596100330
4553.9142077635	0.6728864312
4555.8430151365	0.6695638895
4557.7718225096	0.6689566970
4559.7006298826	0.6705801487
4561.6294372557	0.6596505046
4563.5582446287	0.6719075441
4565.4870520018	0.6688072681
4567.4158593748	0.6556394696
4569.3446667478	0.6563856602
4571.2734741209	0.6558403969
4573.2022814939	0.6636108756
4575.1310888670	0.6608503461
4577.0598962400	0.6541597843
4578.9887036131	0.6603842378
4580.9175109861	0.6622991562
4582.8463183592	0.6642863750
4584.7751257322	0.6684015989
4586.7039331053	0.6728677750
4588.6327404783	0.6736868024
4590.5615478514	0.6628276110
4592.4903552244	0.6633315086
4594.4191625975	0.6670172811
4596.3479699705	0.6611139178
4598.2767773435	0.6619321704
4600.2055847166	0.6550591588
4602.1343920896	0.6535884738
4604.0631994627	0.6613217592
4605.9920068357	0.6566905379
4607.9208142088	0.6593697667
4609.8496215818	0.6681929827
4611.7784289549	0.6688874364
4613.7072363279	0.6662372351
4615.6360437010	0.6624566317
4617.5648510740	0.6621367335
4619.4936584471	0.6646011472
4621.4224658201	0.6598053575
4623.3512731932	0.6611049175
4625.2800805662	0.6649641395
4627.2088879393	0.6602490544
4629.1376953123	0.6627622843
4631.0665026853	0.6560620666
4632.9953100584	0.6599229574
4634.9241174314	0.6701656580
4636.8529248045	0.6555710435
4638.7817321775	0.6569902897
4640.7105395506	0.6555432081
4642.6393469236	0.6559419632
4644.5681542967	0.6699593067
4646.4969616697	0.6578554511
4648.4257690428	0.6568156481
4650.3545764158	0.6661414504
4652.2833837889	0.6578760743
4654.2121911619	0.6515417099
4656.1409985350	0.6557123661
4658.0698059080	0.6601862907
4659.9986132810	0.6598938107
4661.9274206541	0.6632046103
4663.8562280271	0.6596992612
4665.7850354002	0.6565848589
4667.7138427732	0.6646398902
4669.6426501463	0.6674785614
4671.5714575193	0.6586777568
4673.5002648924	0.6550105810
4675.4290722654	0.6593884230
4677.3578796385	0.6603693366
4679.2866870115	0.6643359661
4681.2154943846	0.6620699763
4683.1443017576	0.6644017696
4685.0731091307	0.6627008915
4687.0019165037	0.6532448530
4688.9307238767	0.6648759842
4690.8595312498	0.6571887732
4692.7883386228	0.6516165137
4694.7171459959	0.6599851847
4696.6459533689	0.6527059078
4698.5747607420	0.6611720920
4700.5035681150	0.6589636207
4702.4323754881	0.6562076211
4704.3611828611	0.6595283747
4706.2899902342	0.6419191360
4708.2187976072	0.6505405903
4710.1476049803	0.6648598909
4712.0764123533	0.6575633287
4714.0052197264	0.6613078117
4715.9340270994	0.6624909639
4717.8628344724	0.6577957869
4719.7916418455	0.6590737700
4721.7204492185	0.6599649191
4723.6492565916	0.6535184979
4725.5780639646	0.6529254913
4727.5068713377	0.6713623405
4729.4356787107	0.6640139818
4731.3644860838	0.6485242844
4733.2932934568	0.6633758545
4735.2221008299	0.6624036431
4737.1509082029	0.6616939306
4739.0797155760	0.6660628319
4741.0085229490	0.6556459665
4742.9373303221	0.6606611013
4744.8661376951	0.6694497466
4746.7949450682	0.6589506865
4748.7237524412	0.6460328102
4750.6525598142	0.6516023278
4752.5813671873	0.6545733213
4754.5101745603	0.6536133289
4756.4389819334	0.6520098448
4758.3677893064	0.6521412730
4760.2965966795	0.6604054570
4762.2254040525	0.6474623084
4764.1542114256	0.6540356874
4766.0830187986	0.6687076688
4768.0118261717	0.6500505805
4769.9406335447	0.6472362280
4771.8694409178	0.6559386849
4773.7982482908	0.6478261352
4775.7270556639	0.6393694878
4777.6558630369	0.6491895914
4779.5846704099	0.6573758721
4781.5134777830	0.6587888002
4783.4422851560	0.6490797400
4785.3710925291	0.6513773203
4787.2998999021	0.6705230474
4789.2287072752	0.6553932428
4791.1575146482	0.6536762118
4793.0863220213	0.6580656767
4795.0151293943	0.6507349014
4796.9439367674	0.6579802036
4798.8727441404	0.6588730812
4800.8015515135	0.6565104127
4802.7303588865	0.6482366920
4804.6591662596	0.6585566998
4806.5879736326	0.6602986455
4808.5167810056	0.6457918882
4810.4455883787	0.6448804736
4812.3743957517	0.6515876055
4814.3032031248	0.6763238311
4816.2320104978	0.6677997708
4818.1608178709	0.6491365433
4820.0896252439	0.6527132988
4822.0184326170	0.6586842537
4823.9472399900	0.6655259728
4825.8760473631	0.6583346128
4827.8048547361	0.6603171825
4829.7336621092	0.6657512784
4831.6624694822	0.6570903063
4833.5912768553	0.6433849931
4835.5200842283	0.6538540721
4837.4488916013	0.6649621129
4839.3776989744	0.6611984372
4841.3065063474	0.6643006802
4843.2353137205	0.6502671242
4845.1641210935	0.6554906368
4847.0929284666	0.6533777118
4849.0217358396	0.6483003497
4850.9505432127	0.6604229808
4852.8793505857	0.6434791088
4854.8081579588	0.6473057270
4856.7369653318	0.6412422657
4858.6657727049	0.6401641965
4860.5945800779	0.6776057482
4862.5233874510	0.6750411987
4864.4521948240	0.6580966711
4866.3810021971	0.6555547118
4868.3098095701	0.6545177102
4870.2386169431	0.6628100872
4872.1674243162	0.6627898812
4874.0962316892	0.6477643251
4876.0250390623	0.6479187608
4877.9538464353	0.6568232179
4879.8826538084	0.6581224799
4881.8114611814	0.6634394526
4883.7402685545	0.6617870331
4885.6690759275	0.6584471464
4887.5978833006	0.6477761865
4889.5266906736	0.6390075088
4891.4554980467	0.6444910765
4893.3843054197	0.6454850435
4895.3131127928	0.6542869806
4897.2419201658	0.6583573818
4899.1707275388	0.6600528955
4901.0995349119	0.6652695537
4903.0283422849	0.6488697529
4904.9571496580	0.6448788643
4906.8859570310	0.6575133204
4908.8147644041	0.6498716474
4910.7435717771	0.6452457905
4912.6723791502	0.6549032331
4914.6011865232	0.6544628143
4916.5299938963	0.6462372541
4918.4588012693	0.6493030190
4920.3876086424	0.6611586809
4922.3164160154	0.6587203145
4924.2452233885	0.6399095654
4926.1740307615	0.6326286197
4928.1028381345	0.6487456560
4930.0316455076	0.6599205732
4931.9604528806	0.6663116217
4933.8892602537	0.6653986573
4935.8180676267	0.6484603286
4937.7468749998	0.6567634940
4939.6756823728	0.6595057249
4941.6044897459	0.6426879168
4943.5332971189	0.6464484930
4945.4621044920	0.6474820971
4947.3909118650	0.6352492571
4949.3197192381	0.6465881467
4951.2485266111	0.6635917425
4953.1773339842	0.6371818185
4955.1061413572	0.6286395788
4957.0349487302	0.6531779170
4958.9637561033	0.6634638906
4960.8925634763	0.6580206156
4962.8213708494	0.6383424997
4964.7501782224	0.6521162391
4966.6789855955	0.6615217328
4968.6077929685	0.6453683972
4970.5366003416	0.6493410468
4972.4654077146	0.6430175304
4974.3942150877	0.6479889750
4976.3230224607	0.6604890227
4978.2518298338	0.6479653716
4980.1806372068	0.6487731338
4982.1094445799	0.6536094546
4984.0382519529	0.6501632333
4985.9670593259	0.6539523602
4987.8958666990	0.6480731368
4989.8246740720	0.6540088058
4991.7534814451	0.6447399259
4993.6822888181	0.6250310540
4995.6110961912	0.6600608230
4997.5399035642	0.6625775099
4999.4687109373	0.6425728202
5001.3975183103	0.6489599943
5003.3263256834	0.6388316154
5005.2551330564	0.6412076950
5007.1839404295	0.6478347182
5009.1127478025	0.6599738002
5011.0415551756	0.6616978049
5012.9703625486	0.6579450369
5014.8991699217	0.6548150182
5016.8279772947	0.6391678452
5018.7567846677	0.6557612419
5020.6855920408	0.6522687674
5022.6143994138	0.6362988949
5024.5432067869	0.6532254815
5026.4720141599	0.6531894803
5028.4008215330	0.6484853625
5030.3296289060	0.6639105678
5032.2584362791	0.6559474468
5034.1872436521	0.6364202499
5036.1160510252	0.6484062076
5038.0448583982	0.6477732062
5039.9736657713	0.6491736174
5041.9024731443	0.6621613503
5043.8312805174	0.6592525244
5045.7600878904	0.6534858346
5047.6888952634	0.6440634727
5049.6177026365	0.6484586000
5051.5465100095	0.6510176063
5053.4753173826	0.6526433229
5055.4041247556	0.6531910300
5057.3329321287	0.6519740224
5059.2617395017	0.6538025141
5061.1905468748	0.6371243596
5063.1193542478	0.6410030127
5065.0481616209	0.6442847848
5066.9769689939	0.6425576806
5068.9057763670	0.6555860043
5070.8345837400	0.6516555548
5072.7633911131	0.6492387652
5074.6921984861	0.6539980173
5076.6210058591	0.6530158520
5078.5498132322	0.6431826353
5080.4786206052	0.6471274495
5082.4074279783	0.6592072845
5084.3362353513	0.6504255533
5086.2650427244	0.6568822265
5088.1938500974	0.6700657606
5090.1226574705	0.6583417058
5092.0514648435	0.6510848999
5093.9802722166	0.6439339519
5095.9090795896	0.6421965361
5097.8378869627	0.6526898146
5099.7666943357	0.6502535939
5101.6955017088	0.6546100378
5103.6243090818	0.6490143538
5105.5531164548	0.6382667422
5107.4819238279	0.6460601091
5109.4107312009	0.6610513330
5111.3395385740	0.6654915214
5113.2683459470	0.6417973638
5115.1971533201	0.6553233862
5117.1259606931	0.6621623039
5119.0547680662	0.6375264525
5120.9835754392	0.6487863660
5122.9123828123	0.6558737755
5124.8411901853	0.6567343473
5126.7699975584	0.6573706269
5128.6988049314	0.6564261317
5130.6276123045	0.6543778181
5132.5564196775	0.6576285362
5134.4852270506	0.6435305476
5136.4140344236	0.6389792562
5138.3428417966	0.6532195210
5140.2716491697	0.6180395484
5142.2004565427	0.6300018430
5144.1292639158	0.6343032718
5146.0580712888	0.6262390614
5147.9868786619	0.6544023156
5149.9156860349	0.6339632273
5151.8444934080	0.6533975601
5153.7733007810	0.6471837163
5155.7021081541	0.6436994076
5157.6309155271	0.6586369276
5159.5597229002	0.6232429743
5161.4885302732	0.6499053240
5163.4173376463	0.6417796016
5165.3461450193	0.6240489483
5167.2749523923	0.6359891891
5169.2037597654	0.6264045835
5171.1325671384	0.6599615216
5173.0613745115	0.6690947413
5174.9901818845	0.6505184770
5176.9189892576	0.6452772021
5178.8477966306	0.6424789429
5180.7766040037	0.6587106586
5182.7054113767	0.6584567428
5184.6342187498	0.6415913701
5186.5630261228	0.6545763612
5188.4918334959	0.6431466341
5190.4206408689	0.6269623041
5192.3494482420	0.6553732753
5194.2782556150	0.6558741927
5196.2070629880	0.6636443138
5198.1358703611	0.6706556082
5200.0646777341	0.6552576423
5201.9934851072	0.6533108354
5203.9222924802	0.6468423009
5205.8510998533	0.6585569382
5207.7799072263	0.6515187025
5209.7087145994	0.6386312842
5211.6375219724	0.6585088372
5213.5663293455	0.6674143672
5215.4951367185	0.6544476748
5217.4239440916	0.6411995888
5219.3527514646	0.6306858659
5221.2815588377	0.6363488436
5223.2103662107	0.6585325003
5225.1391735837	0.6453110576
5227.0679809568	0.6404651999
5228.9967883298	0.6544926167
5230.9255957029	0.6643567681
5232.8544030759	0.6648123860
5234.7832104490	0.6562176347
5236.7120178220	0.6665835977
5238.6408251951	0.6558197737
5240.5696325681	0.6461718082
5242.4984399412	0.6347044706
5244.4272473142	0.6504148245
5246.3560546873	0.6743361354
5248.2848620603	0.6498954892
5250.2136694334	0.6509576440
5252.1424768064	0.6435880065
5254.0712841795	0.6573978066
5256.0000915525	0.6588369608
5257.9288989255	0.6465002894
5259.8577062986	0.6696175933
5261.7865136716	0.6557360291
5263.7153210447	0.6656752825
5265.6441284177	0.6516070366
5267.5729357908	0.6490458250
5269.5017431638	0.6647355556
5271.4305505369	0.6342666149
5273.3593579099	0.6547309160
5275.2881652830	0.6748693585
5277.2169726560	0.6748271585
5279.1457800291	0.6581529975
5281.0745874021	0.6621739864
5283.0033947752	0.6917511225
5284.9322021482	0.6626685262
5286.8610095212	0.6481594443
5288.7898168943	0.6532588601
5290.7186242673	0.6448638439
5292.6474316404	0.6383532286
5294.5762390134	0.6453942657
5296.5050463865	0.6410555840
5298.4338537595	0.6466738582
5300.3626611326	0.6685486436
5302.2914685056	0.6422301531
5304.2202758787	0.6383889318
5306.1490832517	0.6544431448
5308.0778906248	0.6608796716
5310.0066979978	0.6712532043
5311.9355053709	0.6618527770
5313.8643127439	0.6588552594
5315.7931201169	0.6656438112
5317.7219274900	0.6667765975
5319.6507348630	0.6590414643
5321.5795422361	0.6596981287
5323.5083496091	0.6469814181
5325.4371569822	0.6525557041
5327.3659643552	0.6698866487
5329.2947717283	0.6409684420
5331.2235791013	0.6453682780
5333.1523864744	0.6713312268
5335.0811938474	0.6599758267
5337.0100012205	0.6544392705
5338.9388085935	0.6798685193
5340.8676159666	0.6617531776
5342.7964233396	0.6505466104
5344.7252307126	0.6822625995
5346.6540380857	0.6458078623
5348.5828454587	0.6433607340
5350.5116528318	0.6573491693
5352.4404602048	0.6471013427
5354.3692675779	0.6812833548
5356.2980749509	0.6850042939
5358.2268823240	0.6647936702
5360.1556896970	0.6409247518
5362.0844970701	0.6771199107
5364.0133044431	0.6989164948
5365.9421118162	0.6380759478
5367.8709191892	0.6567092538
5369.7997265623	0.6759206057
5371.7285339353	0.6430195570
5373.6573413083	0.6627251506
5375.5861486814	0.6732987165
5377.5149560544	0.6398708224
5379.4437634275	0.6595233083
5381.3725708005	0.6682700515
5383.3013781736	0.6443566084
5385.2301855466	0.6648228168
5387.1589929197	0.6550289392
5389.0878002927	0.6628352404
5391.0166076658	0.6897421479
5392.9454150388	0.6614010930
5394.8742224119	0.6520234346
5396.8030297849	0.6816645861
5398.7318371580	0.6922606826
5400.6606445310	0.6476839781
5402.5894519041	0.6462016106
5404.5182592771	0.6789762974
5406.4470666501	0.6682460904
5408.3758740232	0.6550034881
5410.3046813962	0.6638866067
5412.2334887693	0.6889261007
5414.1622961423	0.6570196748
5416.0911035154	0.6480560303
5418.0199108884	0.7023379803
5419.9487182615	0.6868196130
5421.8775256345	0.6436532140
5423.8063330076	0.6521504521
5425.7351403806	0.6800532341
5427.6639477537	0.6627849936
5429.5927551267	0.6454251409
5431.5215624998	0.6503939629
5433.4503698728	0.6294760704
5435.3791772458	0.6243061423
5437.3079846189	0.6427953243
5439.2367919919	0.6630018353
5441.1655993650	0.6592563987
5443.0944067380	0.6420524716
5445.0232141111	0.6561007500
5446.9520214841	0.6454735994
5448.8808288572	0.6385955811
5450.8096362302	0.6738777757
5452.7384436033	0.6746842265
5454.6672509763	0.6707956195
5456.5960583494	0.6929153204
5458.5248657224	0.6962957382
5460.4536730955	0.6716285348
5462.3824804685	0.6649900675
5464.3112878415	0.6901105642
5466.2400952146	0.6600113511
5468.1689025876	0.6498253942
5470.0977099607	0.6690132618
5472.0265173337	0.6491937637
5473.9553247068	0.6803489923
5475.8841320798	0.6867089272
5477.8129394529	0.6482255459
5479.7417468259	0.6326249838
5481.6705541990	0.6396419406
5483.5993615720	0.6449629068
5485.5281689451	0.6199255586
5487.4569763181	0.6650421023
5489.3857836912	0.6933926940
5491.3145910642	0.6731650829
5493.2433984372	0.6857890487
5495.1722058103	0.6348188519
5497.1010131833	0.6246376634
5499.0298205564	0.6658344865
5500.9586279294	0.6619718075
5502.8874353025	0.6464319229
5504.8162426755	0.6560220122
5506.7450500486	0.6823512912
5508.6738574216	0.6764889359
5510.6026647947	0.6712493300
5512.5314721677	0.6660967469
5514.4602795408	0.6570896506
5516.3890869138	0.6531403065
5518.3178942869	0.6491799951
5520.2467016599	0.6700949669
5522.1755090330	0.6721476316
5524.1043164060	0.6563792229
5526.0331237790	0.6729344726
5527.9619311521	0.7004133463
5529.8907385251	0.6755265594
5531.8195458982	0.6569595337
5533.7483532712	0.6638484001
5535.6771606443	0.6450766325
5537.6059680173	0.6749554276
5539.5347753904	0.6774764061
5541.4635827634	0.6379279494
5543.3923901365	0.6697490811
5545.3211975095	0.6913568377
5547.2500048826	0.6737277508
5549.1788122556	0.6466954350
5551.1076196287	0.6527385116
5553.0364270017	0.6768071055
5554.9652343747	0.6576125026
5556.8940417478	0.6519318223
5558.8228491208	0.6753274798
5560.7516564939	0.6667827964
5562.6804638669	0.6262086034
5564.6092712400	0.6451781988
5566.5380786130	0.6624816656
5568.4668859861	0.6341869831
5570.3956933591	0.6656129956
5572.3245007322	0.6758927703
5574.2533081052	0.6474319696
5576.1821154783	0.6513765454
5578.1109228513	0.6815785766
5580.0397302244	0.7054474354
5581.9685375974	0.6937317848
5583.8973449704	0.6802847981
5585.8261523435	0.6566756368
5587.7549597165	0.6493984461
5589.6837670896	0.6643913984
5591.6125744626	0.6655142307
5593.5413818357	0.6304336190
5595.4701892087	0.6481846571
5597.3989965818	0.7038828731
5599.3278039548	0.6475732923
5601.2566113279	0.6723724604
5603.1854187009	0.6677094102
5605.1142260740	0.6065298915
5607.0430334470	0.7031086087
5608.9718408201	0.6797497272
5610.9006481931	0.6531772614
5612.8294555661	0.6652862430
5614.7582629392	0.6385873556
5616.6870703122	0.6850159168
5618.6158776853	0.6343876719
5620.5446850583	0.6490194201
5622.4734924314	0.6717978120
5624.4022998044	0.6326207519
5626.3311071775	0.6795757413
5628.2599145505	0.6592079401
5630.1887219236	0.6378789544
5632.1175292966	0.6518620253
5634.0463366697	0.6890437603
5635.9751440427	0.6967748404
5637.9039514158	0.6439693570
5639.8327587888	0.6574760079
5641.7615661619	0.6567873359
5643.6903735349	0.6478691101
5645.6191809079	0.6446000338
5647.5479882810	0.6629505157
5649.4767956540	0.6685687304
5651.4056030271	0.6443110108
5653.3344104001	0.6837311983
5655.2632177732	0.6763466001
5657.1920251462	0.6554086804
5659.1208325193	0.6565090418
5661.0496398923	0.6612222791
5662.9784472654	0.6686756611
5664.9072546384	0.6562201977
5666.8360620115	0.6720612645
5668.7648693845	0.6481519341
5670.6936767576	0.6492338777
5672.6224841306	0.6332873106
5674.5512915036	0.6220316887
5676.4800988767	0.6806509495
5678.4089062497	0.6667531729
5680.3377136228	0.6875822544
5682.2665209958	0.6719526649
5684.1953283689	0.6253474951
5686.1241357419	0.6589202285
5688.0529431150	0.6644741297
5689.9817504880	0.6591624618
5691.9105578611	0.6646231413
5693.8393652341	0.7223436236
5695.7681726072	0.6909478903
5697.6969799802	0.6422059536
5699.6257873533	0.6840391755
5701.5545947263	0.6490952969
5703.4834020993	0.6411338449
5705.4122094724	0.6491882205
5707.3410168454	0.6631307602
5709.2698242185	0.6649630070
5711.1986315915	0.6495243907
5713.1274389646	0.6975018382
5715.0562463376	0.6593323946
5716.9850537107	0.6562920809
5718.9138610837	0.6826204658
5720.8426684568	0.6440565586
5722.7714758298	0.6463618279
5724.7002832029	0.6417194605
5726.6290905759	0.6740436554
5728.5578979490	0.6754925251
5730.4867053220	0.6758491397
5732.4155126950	0.6903845668
5734.3443200681	0.6311021447
5736.2731274411	0.6850413680
5738.2019348142	0.7247368097
5740.1307421872	0.6601109505
5742.0595495603	0.6696091294
5743.9883569333	0.6793698668
5745.9171643064	0.6663812995
5747.8459716794	0.6666368246
5749.7747790525	0.6951999664
5751.7035864255	0.6990459561
5753.6323937986	0.6917543411
5755.5612011716	0.6931229234
5757.4900085447	0.6409502625
5759.4188159177	0.6646667719
5761.3476232907	0.6901609302
5763.2764306638	0.6570926309
5765.2052380368	0.6928520799
5767.1340454099	0.7018910050
5769.0628527829	0.6536143422
5770.9916601560	0.6336961985
5772.9204675290	0.6410120726
5774.8492749021	0.6112392545
5776.7780822751	0.6298347712
5778.7068896482	0.6790776253
5780.6356970212	0.6533750892
5782.5645043943	0.6780975461
5784.4933117673	0.7227221131
5786.4221191404	0.7184457779
5788.3509265134	0.6955626607
5790.2797338865	0.6519165635
5792.2085412595	0.6331163645
5794.1373486325	0.6521956921
5796.0661560056	0.6870638728
5797.9949633786	0.6644260287
5799.9237707517	0.6496317983
5801.8525781247	0.6893688440
5803.7813854978	0.6905326247
5805.7101928708	0.6363688707
5807.6390002439	0.6331418157
5809.5678076169	0.6229123473
5811.4966149900	0.6064103842
5813.4254223630	0.6913186312
5815.3542297361	0.6361563802
5817.2830371091	0.5975235701
5819.2118444822	0.6768074632
5821.1406518552	0.6738590002
5823.0694592282	0.7248445749
5824.9982666013	0.7029816508
5826.9270739743	0.6915912032
5828.8558813474	0.6693682075
5830.7846887204	0.6601834893
5832.7134960935	0.7183318138
5834.6423034665	0.6295899749
5836.5711108396	0.6918455362
5838.4999182126	0.7116210461
5840.4287255857	0.6507738233
5842.3575329587	0.6690208912
5844.2863403318	0.6361903548
5846.2151477048	0.6990513206
5848.1439550779	0.6378466487
5850.0727624509	0.6350868344
5852.0015698239	0.6841521263
5853.9303771970	0.6373466253
5855.8591845700	0.6799495816
5857.7879919431	0.6237562895
5859.7167993161	0.6420463920
5861.6456066892	0.6758028865
5863.5744140622	0.6520836353
5865.5032214353	0.6860504150
5867.4320288083	0.6820640564
5869.3608361814	0.6769108772
5871.2896435544	0.6253818870
5873.2184509275	0.6957280636
5875.1472583005	0.6973740458
5877.0760656736	0.6110333204
5879.0048730466	0.6762330532
5880.9336804196	0.6740805507
5882.8624877927	0.6606226563
5884.7912951657	0.6299079061
5886.7201025388	0.6654772162
5888.6489099118	0.7434344888
5890.5777172849	0.6670826674
5892.5065246579	0.6498830914
5894.4353320310	0.7047297955
5896.3641394040	0.7087034583
5898.2929467771	0.6342951059
5900.2217541501	0.6423107386
5902.1505615232	0.6511063576
5904.0793688962	0.6290462613
5906.0081762693	0.6854465604
5907.9369836423	0.6197397113
5909.8657910154	0.5905922651
5911.7945983884	0.6364676952
5913.7234057614	0.6863432527
5915.6522131345	0.7095077038
5917.5810205075	0.6385278702
5919.5098278806	0.6383351684
5921.4386352536	0.6629800200
5923.3674426267	0.6797115207
5925.2962499997	0.6664773822
5927.2250573728	0.6634820700
5929.1538647458	0.6997838616
5931.0826721189	0.6685293913
5933.0114794919	0.6875849366
5934.9402868650	0.7115578651
5936.8690942380	0.7022078037
5938.7979016111	0.6367248893
5940.7267089841	0.6418758035
5942.6555163571	0.6705937386
5944.5843237302	0.6162281036
5946.5131311032	0.6611868739
5948.4419384763	0.6376594901
5950.3707458493	0.6408623457
5952.2995532224	0.7010589242
5954.2283605954	0.7344163656
5956.1571679685	0.7268380523
5958.0859753415	0.6598352194
5960.0147827146	0.6859244704
5961.9435900876	0.5888350606
5963.8723974607	0.6337768435
5965.8012048337	0.6796114445
5967.7300122068	0.6220167875
5969.6588195798	0.7604318857
5971.5876269528	0.6673631072
5973.5164343259	0.6466509104
5975.4452416989	0.7576238513
5977.3740490720	0.7304351330
5979.3028564450	0.7195890546
5981.2316638181	0.6860010624
5983.1604711911	0.7034333944
5985.0892785642	0.7051574588
5987.0180859372	0.6981870532
5988.9468933103	0.6639003158
5990.8757006833	0.7106031179
5992.8045080564	0.7006558776
5994.7333154294	0.6039867997
5996.6621228025	0.6952515841
5998.5909301755	0.6995007396
6000.5197375485	0.6887735724
