399.2631262207	6.1587624550
401.1919335938	0.3069303930
403.1207409668	0.3240226507
405.0495483398	0.3077841997
406.9783557129	0.1789723635
408.9071630859	0.7260612249
410.8359704590	0.2125931531
412.7647778320	0.2770940363
414.6935852051	0.3406398892
416.6223925781	0.1268417090
418.5511999512	0.4624131620
420.4800073242	0.2109552026
422.4088146973	0.3669717014
424.3376220703	0.3041029572
426.2664294434	0.4536893964
428.1952368164	0.1273425668
430.1240441895	-0.0928466991
432.0528515625	1.1460546255
433.9816589355	0.3014623523
435.9104663086	0.5167535543
437.8392736816	1.0883158445
439.7680810547	0.1661254913
441.6968884277	0.5125195980
443.6256958008	0.4854931533
445.5545031738	0.3234404325
447.4833105469	0.3540898860
449.4121179199	0.3399652541
451.3409252930	0.6985689402
453.2697326660	-0.0817254782
455.1985400391	0.0419927798
457.1273474121	0.3499756455
459.0561547852	-0.0153312758
460.9849621582	0.3047843874
462.9137695313	0.5108639598
464.8425769043	1.3487387896
466.7713842773	1.1026208401
468.7001916504	-0.0152793620
470.6289990234	0.0782464296
472.5578063965	-0.4117883146
474.4866137695	1.2882218361
476.4154211426	1.1295305490
478.3442285156	-0.3819755912
480.2730358887	0.4108110666
482.2018432617	0.0093757622
484.1306506348	0.2698670626
486.0594580078	0.5008009672
487.9882653809	-0.0687033311
489.9170727539	0.4558843672
491.8458801270	0.5220502019
493.7746875000	1.2454624176
495.7034948730	0.7995311618
497.6323022461	1.8924764395
499.5611096191	1.6613270044
501.4899169922	-0.0673774555
503.4187243652	1.0809922218
505.3475317383	1.2932798862
507.2763391113	-0.3512935936
509.2051464844	0.6959930658
511.1339538574	-1.0628036261
513.0627612305	-0.7007824183
514.9915686035	-0.4623739719
516.9203759766	0.2160235345
518.8491833496	0.2126296014
520.7779907227	0.2152985781
522.7067980957	0.4389076829
524.6356054688	0.1141713932
526.5644128418	-4.8452444077
528.4932202148	2.0927169323
530.4220275879	2.0733938217
532.3508349609	-11.5797662735
534.2796423340	0.4087629318
536.2084497070	0.2813213170
538.1372570801	4.5327186584
540.0660644531	1.1158427000
541.9948718262	0.9785444736
543.9236791992	1.2227840424
545.8524865723	9.4257688522
547.7812939453	-39.2905273438
549.7101013184	0.3764697611
551.6389086914	-0.7121817470
553.5677160645	0.7996537685
555.4965234375	-0.3749936223
557.4253308105	0.1170965210
559.3541381836	3.8298513889
561.2829455566	1.2679936886
563.2117529297	-0.1563977301
565.1405603027	1.3631471395
567.0693676758	-0.7504423857
568.9981750488	3.0125563145
570.9269824219	2.8230855465
572.8557897949	0.4117015302
574.7845971680	-0.2792745531
576.7134045410	0.1621406525
578.6422119141	-0.0569821000
580.5710192871	0.5800066590
582.4998266602	-1.3650248051
584.4286340332	0.1457467526
586.3574414063	0.4340561926
588.2862487793	1.0924057961
590.2150561523	1.0005285740
592.1438635254	2.0661344528
594.0726708984	-5.6893196106
596.0014782715	-0.0700593218
597.9302856445	-5.7358613014
599.8590930176	-1.8499500751
601.7879003906	-23.2866764069
603.7167077637	-1.1779246330
605.6455151367	-0.1350082606
607.5743225098	-1.0903857946
609.5031298828	0.6312303543
611.4319372559	-0.2578526139
613.3607446289	-0.0255461317
615.2895520020	0.9867200255
617.2183593750	-0.1622786224
619.1471667480	1.1821893454
621.0759741211	4.0464878082
623.0047814941	-5.1379718781
624.9335888672	1.4088422060
626.8623962402	2.4998383522
628.7912036133	-1.2558917999
630.7200109863	0.8113505244
632.6488183594	0.3679093421
634.5776257324	1.5483363867
636.5064331055	0.4441989660
638.4352404785	0.4125699699
640.3640478516	0.7944321632
642.2928552246	0.5079497695
644.2216625977	0.5768017769
646.1504699707	0.5099208355
648.0792773438	0.5209441185
650.0080847168	0.5314011574
651.9368920898	0.4026066959
653.8656994629	0.3368821442
655.7945068359	0.5982493162
657.7233142090	0.7693598866
659.6521215820	0.6621053219
661.5809289551	0.6837063432
663.5097363281	0.4822020531
665.4385437012	0.5724984407
667.3673510742	0.7213654518
669.2961584473	0.5429518223
671.2249658203	0.6852960587
673.1537731934	0.5440182686
675.0825805664	0.5060669184
677.0113879395	0.6371930242
678.9401953125	0.5089740157
680.8690026855	0.6189574599
682.7978100586	0.6138735414
684.7266174316	0.4956443906
686.6554248047	0.6905727983
688.5842321777	0.5221452713
690.5130395508	0.4834544957
692.4418469238	0.6472069025
694.3706542969	0.4931498170
696.2994616699	0.6133644581
698.2282690430	0.6333912611
700.1570764160	0.5784079432
702.0858837891	0.6526238918
704.0146911621	0.5468345284
705.9434985352	0.6416290402
707.8723059082	0.7658169866
709.8011132813	0.7033014894
711.7299206543	0.7564835548
713.6587280273	0.5560566783
715.5875354004	0.5096786022
717.5163427734	0.5537374616
719.4451501465	-0.4066385627
721.3739575195	0.4054607749
723.3027648926	0.7746623755
725.2315722656	-0.1040375605
727.1603796387	0.4653421044
729.0891870117	1.8036115170
731.0179943848	0.6169177294
732.9468017578	0.9925860167
734.8756091309	-0.2951693535
736.8044165039	-1.6134911776
738.7332238770	-0.1569038182
740.6620312500	-0.0418443494
742.5908386230	2.0531144142
744.5196459961	-7.6056180000
746.4484533691	1.7178199291
748.3772607422	0.9443206787
750.3060681152	1.9447427988
752.2348754883	0.1701163054
754.1636828613	1.2297365665
756.0924902344	2.9081947803
758.0212976074	1.3620697260
759.9501049805	5.7826733589
761.8789123535	4.5141739845
763.8077197266	2.5740115643
765.7365270996	0.8661028743
767.6653344727	1.7163152695
769.5941418457	3.8814806938
771.5229492188	4.2056546211
773.4517565918	5.1199035645
775.3805639648	1.5872161388
777.3093713379	0.8878182173
779.2381787109	0.1402693987
781.1669860840	0.7219817638
783.0957934570	1.7541949749
785.0246008301	0.4372775555
786.9534082031	0.6869951487
788.8822155762	20.0196800232
790.8110229492	-139.6842803955
792.7398303223	0.6118583083
794.6686376953	0.6249917150
796.5974450684	1.1477110386
798.5262524414	0.5521845222
800.4550598145	1.5729961395
802.3838671875	0.9264795184
804.3126745605	0.4838571250
806.2414819336	0.7213122249
808.1702893066	0.0476540364
810.0990966797	1.4181718826
812.0279040527	5.1420302391
813.9567114258	0.5834932923
815.8855187988	0.0308527909
817.8143261719	1.6492960453
819.7431335449	0.5678293109
821.6719409180	0.1873760074
823.6007482910	0.6094599962
825.5295556641	0.4316660762
827.4583630371	0.8488827944
829.3871704102	0.8393477798
831.3159777832	1.2533887625
833.2447851563	1.3990586996
835.1735925293	0.6425095797
837.1023999023	0.7100607753
839.0312072754	0.9469503164
840.9600146484	0.7851179242
842.8888220215	0.8186716437
844.8176293945	0.7603351474
846.7464367676	0.5629191399
848.6752441406	0.5982908607
850.6040515137	1.2042201757
852.5328588867	1.1580765247
854.4616662598	0.9157954454
856.3904736328	1.2213144302
858.3192810059	1.1482230425
860.2480883789	0.8596727848
862.1768957520	0.7018399239
864.1057031250	1.0977276564
866.0345104980	0.8615306616
867.9633178711	1.5030652285
869.8921252441	2.9574656487
871.8209326172	1.2013182640
873.7497399902	1.3662688732
875.6785473633	1.1787232161
877.6073547363	0.2582138181
879.5361621094	0.8086510301
881.4649694824	3.0113780499
883.3937768555	0.7405267954
885.3225842285	0.4601714909
887.2513916016	0.4585660100
889.1801989746	1.1147103310
891.1090063477	1.6690841913
893.0378137207	0.8407475352
894.9666210938	1.1098229885
896.8954284668	2.8279454708
898.8242358398	1.1706715822
900.7530432129	0.9665241838
902.6818505859	0.6675086021
904.6106579590	0.4745134711
906.5394653320	0.5580750108
908.4682727051	0.8526651859
910.3970800781	0.8438251019
912.3258874512	1.0440235138
914.2546948242	1.0934028625
916.1835021973	0.5886887312
918.1123095703	0.7038822770
920.0411169434	0.7405039668
921.9699243164	0.8720980287
923.8987316895	0.9509975314
925.8275390625	0.7971151471
927.7563464355	0.9222304225
929.6851538086	0.6602396369
931.6139611816	0.4874061942
933.5427685547	0.7161535025
935.4715759277	0.7788894176
937.4003833008	0.6236758232
939.3291906738	0.6323292851
941.2579980469	0.9340268970
943.1868054199	0.8622761965
945.1156127930	0.8235197663
947.0444201660	0.8171130419
948.9732275391	0.7969558239
950.9020349121	1.0018639565
952.8308422852	0.8074282408
954.7596496582	0.6959573627
956.6884570313	0.7043348551
958.6172644043	0.6099639535
960.5460717773	0.6237337589
962.4748791504	0.5653443933
964.4036865234	0.7765702009
966.3324938965	0.9118722081
968.2613012695	0.7906143069
970.1901086426	0.6312468052
972.1189160156	0.5405728221
974.0477233887	0.7458021641
975.9765307617	0.7197145224
977.9053381348	0.5878491998
979.8341455078	0.6073889136
981.7629528809	0.6463059783
983.6917602539	0.7207652330
985.6205676270	0.6532319784
987.5493750000	0.6009622812
989.4781823730	0.6128342748
991.4069897461	0.5732391477
993.3357971191	0.6272960901
995.2646044922	0.6642051935
997.1934118652	0.6030197144
999.1222192383	0.6164195538
1001.0510266113	0.6294102073
1002.9798339844	0.6491105556
1004.9086413574	0.6395368576
1006.8374487305	0.6293243170
1008.7662561035	0.6495158672
1010.6950634766	0.5926969051
1012.6238708496	0.6219052672
1014.5526782227	0.6320126057
1016.4814855957	0.5985149145
1018.4102929688	0.6329787970
1020.3391003418	0.5929201245
1022.2679077148	0.6070873737
1024.1967150879	0.6189094186
1026.1255224609	0.5831230879
1028.0543298340	0.6037448645
1029.9831372070	0.5920654535
1031.9119445801	0.6078722477
1033.8407519531	0.6241878867
1035.7695593262	0.5939014554
1037.6983666992	0.5821146965
1039.6271740723	0.5903547406
1041.5559814453	0.6043394208
1043.4847888184	0.5917103887
1045.4135961914	0.5862224102
1047.3424035645	0.6112868786
1049.2712109375	0.6077585816
1051.2000183105	0.5696628690
1053.1288256836	0.5822373033
1055.0576330566	0.5983528495
1056.9864404297	0.5998649597
1058.9152478027	0.6124364138
1060.8440551758	0.5730742812
1062.7728625488	0.5692147613
1064.7016699219	0.5782478452
1066.6304772949	0.5606893301
1068.5592846680	0.5678120255
1070.4880920410	0.6065595150
1072.4168994141	0.6179410815
1074.3457067871	0.5737251043
1076.2745141602	0.6034160256
1078.2033215332	0.5680959225
1080.1321289062	0.5775431395
1082.0609362793	0.6296627522
1083.9897436523	0.5477321744
1085.9185510254	0.6196846366
1087.8473583984	0.6149040461
1089.7761657715	0.5438938737
1091.7049731445	0.6153467298
1093.6337805176	0.5946196318
1095.5625878906	0.5949618220
1097.4913952637	0.6129229665
1099.4202026367	0.5745614767
1101.3490100098	0.5732471943
1103.2778173828	0.6675722003
1105.2066247559	0.6754322052
1107.1354321289	0.5984585285
1109.0642395019	0.6619165540
1110.9930468750	0.6435967088
1112.9218542480	0.6326798797
1114.8506616211	0.6703467369
1116.7794689941	0.5856893659
1118.7082763672	0.6192572713
1120.6370837402	0.6260491014
1122.5658911133	0.5853387713
1124.4946984863	0.6811847091
1126.4235058594	0.6355153322
1128.3523132324	0.5874677300
1130.2811206055	0.6661183238
1132.2099279785	0.6403316855
1134.1387353516	0.6125312448
1136.0675427246	0.6032289267
1137.9963500977	0.6107892394
1139.9251574707	0.6184408069
1141.8539648437	0.5833342075
1143.7827722168	0.5859350562
1145.7115795898	0.5664361119
1147.6403869629	0.5857548118
1149.5691943359	0.6232346892
1151.4980017090	0.5817145705
1153.4268090820	0.5787108541
1155.3556164551	0.5754830241
1157.2844238281	0.5509017110
1159.2132312012	0.5831723213
1161.1420385742	0.5973899961
1163.0708459473	0.5876561403
1164.9996533203	0.5821403265
1166.9284606934	0.5529637337
1168.8572680664	0.5483963490
1170.7860754394	0.5692119598
1172.7148828125	0.5839343667
1174.6436901855	0.5775208473
1176.5724975586	0.5729575157
1178.5013049316	0.5876953602
1180.4301123047	0.5736851096
1182.3589196777	0.5758730173
1184.2877270508	0.5825625062
1186.2165344238	0.5559363365
1188.1453417969	0.5636595488
1190.0741491699	0.5721834302
1192.0029565430	0.5615557432
1193.9317639160	0.5696408153
1195.8605712891	0.5651132464
1197.7893786621	0.5571425557
1199.7181860351	0.5660165548
1201.6469934082	0.5559430122
1203.5758007812	0.5564776659
1205.5046081543	0.5728976130
1207.4334155273	0.5543643236
1209.3622229004	0.5472487211
1211.2910302734	0.5648239255
1213.2198376465	0.5594008565
1215.1486450195	0.5532728434
1217.0774523926	0.5595563054
1219.0062597656	0.5558789372
1220.9350671387	0.5542556047
1222.8638745117	0.5557845235
1224.7926818848	0.5564236641
1226.7214892578	0.5556831956
1228.6502966308	0.5466468334
1230.5791040039	0.5531094074
1232.5079113769	0.5552504659
1234.4367187500	0.5528858304
1236.3655261230	0.5614143610
1238.2943334961	0.5573295951
1240.2231408691	0.5598905087
1242.1519482422	0.5551589131
1244.0807556152	0.5482357144
1246.0095629883	0.5498919487
1247.9383703613	0.5511741042
1249.8671777344	0.5613465905
1251.7959851074	0.5550240278
1253.7247924805	0.5536430478
1255.6535998535	0.5524928570
1257.5824072266	0.5498750806
1259.5112145996	0.5595814586
1261.4400219726	0.5549106002
1263.3688293457	0.5601679683
1265.2976367187	0.5579710603
1267.2264440918	0.5507534742
1269.1552514648	0.5553697944
1271.0840588379	0.5453146696
1273.0128662109	0.5484744906
1274.9416735840	0.5577110052
1276.8704809570	0.5502624512
1278.7992883301	0.5552695394
1280.7280957031	0.5682057738
1282.6569030762	0.5583620071
1284.5857104492	0.5531973243
1286.5145178223	0.5642406940
1288.4433251953	0.5611136556
1290.3721325683	0.5591912866
1292.3009399414	0.5598969460
1294.2297473144	0.5514696836
1296.1585546875	0.5539634228
1298.0873620605	0.5621604323
1300.0161694336	0.5650802255
1301.9449768066	0.5673941374
1303.8737841797	0.5532574654
1305.8025915527	0.5413187742
1307.7313989258	0.5543016791
1309.6602062988	0.5582238436
1311.5890136719	0.5507483482
1313.5178210449	0.5569058061
1315.4466284180	0.5540167689
1317.3754357910	0.5463477969
1319.3042431640	0.5593019724
1321.2330505371	0.5519768596
1323.1618579101	0.5383605361
1325.0906652832	0.5501610637
1327.0194726562	0.5517389774
1328.9482800293	0.5533975959
1330.8770874023	0.5523571968
1332.8058947754	0.5407901406
1334.7347021484	0.5487632751
1336.6635095215	0.5500074625
1338.5923168945	0.5398491025
1340.5211242676	0.5496042371
1342.4499316406	0.5509678721
1344.3787390137	0.5469562411
1346.3075463867	0.5524088144
1348.2363537597	0.5419427156
1350.1651611328	0.5422258973
1352.0939685058	0.5498450398
1354.0227758789	0.5421169400
1355.9515832519	0.5427978039
1357.8803906250	0.5434895158
1359.8091979980	0.5440983772
1361.7380053711	0.5471593738
1363.6668127441	0.5441883206
1365.5956201172	0.5467328429
1367.5244274902	0.5500772595
1369.4532348633	0.5435695648
1371.3820422363	0.5395953059
1373.3108496094	0.5444506407
1375.2396569824	0.5503900647
1377.1684643555	0.5531617999
1379.0972717285	0.5474250317
1381.0260791015	0.5407652259
1382.9548864746	0.5406513214
1384.8836938476	0.5428933501
1386.8125012207	0.5403367281
1388.7413085937	0.5426008105
1390.6701159668	0.5443507433
1392.5989233398	0.5400797725
1394.5277307129	0.5490819812
1396.4565380859	0.5440307856
1398.3853454590	0.5380152464
1400.3141528320	0.5422231555
1402.2429602051	0.5407351255
1404.1717675781	0.5444675088
1406.1005749512	0.5422398448
1408.0293823242	0.5450845361
1409.9581896972	0.5419228077
1411.8869970703	0.5420995951
1413.8158044433	0.5443639755
1415.7446118164	0.5422701240
1417.6734191894	0.5531949997
1419.6022265625	0.5397346020
1421.5310339355	0.5402784348
1423.4598413086	0.5435641408
1425.3886486816	0.5382050872
1427.3174560547	0.5525833368
1429.2462634277	0.5461888313
1431.1750708008	0.5330978632
1433.1038781738	0.5359291434
1435.0326855469	0.5445153713
1436.9614929199	0.5346865654
1438.8903002929	0.5529124141
1440.8191076660	0.5653069019
1442.7479150390	0.5397911072
1444.6767224121	0.5585377812
1446.6055297851	0.5562204123
1448.5343371582	0.5455187559
1450.4631445312	0.5515351295
1452.3919519043	0.5520668626
1454.3207592773	0.5575312972
1456.2495666504	0.5341662169
1458.1783740234	0.5412237644
1460.1071813965	0.5474652648
1462.0359887695	0.5372741818
1463.9647961426	0.5435242057
1465.8936035156	0.5347714424
1467.8224108886	0.5311809778
1469.7512182617	0.5368535519
1471.6800256347	0.5297163129
1473.6088330078	0.5266369581
1475.5376403808	0.5322706699
1477.4664477539	0.5351256728
1479.3952551269	0.5320544243
1481.3240625000	0.5241246223
1483.2528698730	0.5256425738
1485.1816772461	0.5308681726
1487.1104846191	0.5323235989
1489.0392919922	0.5241199732
1490.9680993652	0.5172215700
1492.8969067383	0.5277426839
1494.8257141113	0.5235209465
1496.7545214843	0.5177235007
1498.6833288574	0.5244582891
1500.6121362304	0.5245128274
1502.5409436035	0.5277079940
1504.4697509765	0.5230749846
1506.3985583496	0.5124578476
1508.3273657226	0.5184302330
1510.2561730957	0.5216496587
1512.1849804687	0.5178016424
1514.1137878418	0.5194718242
1516.0425952148	0.5180441737
1517.9714025879	0.5173255801
1519.9002099609	0.5193163753
1521.8290173340	0.5122787356
1523.7578247070	0.5146976709
1525.6866320801	0.5151192546
1527.6154394531	0.5172371268
1529.5442468261	0.5201169252
1531.4730541992	0.5120761395
1533.4018615722	0.5113853812
1535.3306689453	0.5186572671
1537.2594763183	0.5180589557
1539.1882836914	0.5050032139
1541.1170910644	0.5063788891
1543.0458984375	0.5103180408
1544.9747058105	0.5105203390
1546.9035131836	0.5165967345
1548.8323205566	0.5145799518
1550.7611279297	0.5161342025
1552.6899353027	0.5106089115
1554.6187426758	0.5092412829
1556.5475500488	0.5108033419
1558.4763574218	0.4968090653
1560.4051647949	0.4996917844
1562.3339721679	0.5087236166
1564.2627795410	0.5086920857
1566.1915869140	0.5045064092
1568.1203942871	0.5082443357
1570.0492016601	0.5065089464
1571.9780090332	0.5082436800
1573.9068164062	0.5093322396
1575.8356237793	0.4967162311
1577.7644311523	0.5090926290
1579.6932385254	0.5066189170
1581.6220458984	0.4984360337
1583.5508532715	0.5058098435
1585.4796606445	0.5052667856
1587.4084680175	0.5051684380
1589.3372753906	0.5036939383
1591.2660827636	0.5065920353
1593.1948901367	0.5022348762
1595.1236975097	0.5004969239
1597.0525048828	0.5048953891
1598.9813122558	0.5028644800
1600.9101196289	0.5025330782
1602.8389270019	0.5008163452
1604.7677343750	0.5046766400
1606.6965417480	0.5021273494
1608.6253491211	0.5003663301
1610.5541564941	0.5006722212
1612.4829638672	0.4999992549
1614.4117712402	0.5017221570
1616.3405786132	0.4932412505
1618.2693859863	0.4998382628
1620.1981933593	0.5083574057
1622.1270007324	0.5089571476
1624.0558081054	0.5067043900
1625.9846154785	0.5095786452
1627.9134228515	0.5156438351
1629.8422302246	0.5158242583
1631.7710375976	0.5229781866
1633.6998449707	0.5204308033
1635.6286523437	0.5167438984
1637.5574597168	0.5259147286
1639.4862670898	0.5330008268
1641.4150744629	0.5394632816
1643.3438818359	0.5428965688
1645.2726892090	0.5418865085
1647.2014965820	0.5351795554
1649.1303039550	0.5494288802
1651.0591113281	0.5527437329
1652.9879187011	0.5354601741
1654.9167260742	0.5538327098
1656.8455334472	0.5675006509
1658.7743408203	0.5695404410
1660.7031481933	0.5692620873
1662.6319555664	0.5689677596
1664.5607629394	0.5720862746
1666.4895703125	0.5774594545
1668.4183776855	0.5762706399
1670.3471850586	0.5736445189
1672.2759924316	0.5816864371
1674.2047998047	0.5793431401
1676.1336071777	0.5770058036
1678.0624145507	0.5840064287
1679.9912219238	0.5831096172
1681.9200292968	0.5858712196
1683.8488366699	0.5804446936
1685.7776440429	0.5779770017
1687.7064514160	0.5897774696
1689.6352587890	0.5815691352
1691.5640661621	0.5824828148
1693.4928735351	0.5867334008
1695.4216809082	0.5749052763
1697.3504882812	0.5833782554
1699.2792956543	0.5788459182
1701.2081030273	0.5740293264
1703.1369104004	0.5861377120
1705.0657177734	0.5820748210
1706.9945251464	0.5793884993
1708.9233325195	0.5809699893
1710.8521398925	0.5820167661
1712.7809472656	0.5802765489
1714.7097546386	0.5762792230
1716.6385620117	0.5719162822
1718.5673693847	0.5668601990
1720.4961767578	0.5762495995
1722.4249841308	0.5774497390
1724.3537915039	0.5709047318
1726.2825988769	0.5760677457
1728.2114062500	0.5743607283
1730.1402136230	0.5704797506
1732.0690209961	0.5700598955
1733.9978283691	0.5624311566
1735.9266357421	0.5666180253
1737.8554431152	0.5695345402
1739.7842504882	0.5645474195
1741.7130578613	0.5659666061
1743.6418652343	0.5663073063
1745.5706726074	0.5652444959
1747.4994799804	0.5663986802
1749.4282873535	0.5632182956
1751.3570947265	0.5585672855
1753.2859020996	0.5616738200
1755.2147094726	0.5623807311
1757.1435168457	0.5576246381
1759.0723242187	0.5608652830
1761.0011315918	0.5601500273
1762.9299389648	0.5572416782
1764.8587463379	0.5628374815
1766.7875537109	0.5596897602
1768.7163610839	0.5535273552
1770.6451684570	0.5561020970
1772.5739758300	0.5544017553
1774.5027832031	0.5530128479
1776.4315905761	0.5564664006
1778.3603979492	0.5548250675
1780.2892053222	0.5530901551
1782.2180126953	0.5557217598
1784.1468200683	0.5533167720
1786.0756274414	0.5499379635
1788.0044348144	0.5523316264
1789.9332421875	0.5495707989
1791.8620495605	0.5471236110
1793.7908569336	0.5519855618
1795.7196643066	0.5482845306
1797.6484716796	0.5475763679
1799.5772790527	0.5477269888
1801.5060864257	0.5453291535
1803.4348937988	0.5513428450
1805.3637011718	0.5462160110
1807.2925085449	0.5441507697
1809.2213159179	0.5501754284
1811.1501232910	0.5469108820
1813.0789306640	0.5459201932
1815.0077380371	0.5450176001
1816.9365454101	0.5446301699
1818.8653527832	0.5443737507
1820.7941601562	0.5450305939
1822.7229675293	0.5462808013
1824.6517749023	0.5412611365
1826.5805822753	0.5435497761
1828.5093896484	0.5445019007
1830.4381970214	0.5381186008
1832.3670043945	0.5407323241
1834.2958117675	0.5445510745
1836.2246191406	0.5417265892
1838.1534265136	0.5392549634
1840.0822338867	0.5430616736
1842.0110412597	0.5414545536
1843.9398486328	0.5334003568
1845.8686560058	0.5370497108
1847.7974633789	0.5412567854
1849.7262707519	0.5394534469
1851.6550781250	0.5384873152
1853.5838854980	0.5374466181
1855.5126928710	0.5360793471
1857.4415002441	0.5375999212
1859.3703076171	0.5434196591
1861.2991149902	0.5413135886
1863.2279223632	0.5377979875
1865.1567297363	0.5389494300
1867.0855371093	0.5359748006
1869.0143444824	0.5359981656
1870.9431518554	0.5360575318
1872.8719592285	0.5360365510
1874.8007666015	0.5364535451
1876.7295739746	0.5376062393
1878.6583813476	0.5395073295
1880.5871887207	0.5382239819
1882.5159960937	0.5403158069
1884.4448034667	0.5348982215
1886.3736108398	0.5320075750
1888.3024182128	0.5364108086
1890.2312255859	0.5335421562
1892.1600329589	0.5358778834
1894.0888403320	0.5378744602
1896.0176477050	0.5346544385
1897.9464550781	0.5336839557
1899.8752624511	0.5357190967
1901.8040698242	0.5360777378
1903.7328771972	0.5327721238
1905.6616845703	0.5318755507
1907.5904919433	0.5306854248
1909.5192993164	0.5315555930
1911.4481066894	0.5325851440
1913.3769140625	0.5315905809
1915.3057214355	0.5322868228
1917.2345288085	0.5315105915
1919.1633361816	0.5307483673
1921.0921435546	0.5289020538
1923.0209509277	0.5263973475
1924.9497583007	0.5297690034
1926.8785656738	0.5324721336
1928.8073730468	0.5313993096
1930.7361804199	0.5303363204
1932.6649877929	0.5270688534
1934.5937951660	0.5296429992
1936.5226025390	0.5307694077
1938.4514099121	0.5267441869
1940.3802172851	0.5285734534
1942.3090246582	0.5277994275
1944.2378320312	0.5288684368
1946.1666394042	0.5310094953
1948.0954467773	0.5298410058
1950.0242541503	0.5267171860
1951.9530615234	0.5257534981
1953.8818688964	0.5293115377
1955.8106762695	0.5256611109
1957.7394836425	0.5275894403
1959.6682910156	0.5285680294
1961.5970983886	0.5248464346
1963.5259057617	0.5282703638
1965.4547131347	0.5250759125
1967.3835205078	0.5241088867
1969.3123278808	0.5275247097
1971.2411352539	0.5272109509
1973.1699426269	0.5270662904
1975.0987499999	0.5282630324
1977.0275573730	0.5274545550
1978.9563647460	0.5246081352
1980.8851721191	0.5263906121
1982.8139794921	0.5268936753
1984.7427868652	0.5263615847
1986.6715942382	0.5273261666
1988.6004016113	0.5250841379
1990.5292089843	0.5219563842
1992.4580163574	0.5235765576
1994.3868237304	0.5250743032
1996.3156311035	0.5235316753
1998.2444384765	0.5237456560
2000.1732458496	0.5229376554
2002.1020532226	0.5235343575
2004.0308605956	0.5239607096
2005.9596679687	0.5242390037
2007.8884753417	0.5219074488
2009.8172827148	0.5196950436
2011.7460900878	0.5247312188
2013.6748974609	0.5261390805
2015.6037048339	0.5239028335
2017.5325122070	0.5202062726
2019.4613195800	0.5234989524
2021.3901269531	0.5265482068
2023.3189343261	0.5207386613
2025.2477416992	0.5223357081
2027.1765490722	0.5243440866
2029.1053564453	0.5242582560
2031.0341638183	0.5257574916
2032.9629711914	0.5249702930
2034.8917785644	0.5219623446
2036.8205859374	0.5222242475
2038.7493933105	0.5230451226
2040.6782006835	0.5214661956
2042.6070080566	0.5222114921
2044.5358154296	0.5209431648
2046.4646228027	0.5243445635
2048.3934301757	0.5233230591
2050.3222375488	0.5199664235
2052.2510449218	0.5215831995
2054.1798522949	0.5224590302
2056.1086596679	0.5256584883
2058.0374670410	0.5221149325
2059.9662744140	0.5241452456
2061.8950817871	0.5235996246
2063.8238891601	0.5214129686
2065.7526965331	0.5258517265
2067.6815039062	0.5222334266
2069.6103112792	0.5248286724
2071.5391186523	0.5232172012
2073.4679260253	0.5192104578
2075.3967333984	0.5210891366
2077.3255407714	0.5235142112
2079.2543481445	0.5231047869
2081.1831555175	0.5193372965
2083.1119628906	0.5251773000
2085.0407702636	0.5236299634
2086.9695776367	0.5211610198
2088.8983850097	0.5202024579
2090.8271923828	0.5186177492
2092.7559997558	0.5247283578
2094.6848071288	0.5214045048
2096.6136145019	0.5201372504
2098.5424218749	0.5205976367
2100.4712292480	0.5203294158
2102.4000366210	0.5216174126
2104.3288439941	0.5180876851
2106.2576513671	0.5188701749
2108.1864587402	0.5232596993
2110.1152661132	0.5261973143
2112.0440734863	0.5230031013
2113.9728808593	0.5222687721
2115.9016882324	0.5231363177
2117.8304956054	0.5210677981
2119.7593029785	0.5219016671
2121.6881103515	0.5219684839
2123.6169177245	0.5217630863
2125.5457250976	0.5219296217
2127.4745324706	0.5226483941
2129.4033398437	0.5223234296
2131.3321472167	0.5249300003
2133.2609545898	0.5247280598
2135.1897619628	0.5204805732
2137.1185693359	0.5211747289
2139.0473767089	0.5184694529
2140.9761840820	0.5184417367
2142.9049914550	0.5225582719
2144.8337988281	0.5230415463
2146.7626062011	0.5218349695
2148.6914135742	0.5224549174
2150.6202209472	0.5224546790
2152.5490283203	0.5187692642
2154.4778356933	0.5204715133
2156.4066430663	0.5205774903
2158.3354504394	0.5162577033
2160.2642578124	0.5172780156
2162.1930651855	0.5210648775
2164.1218725585	0.5219545960
2166.0506799316	0.5208332539
2167.9794873046	0.5215966105
2169.9082946777	0.5200157166
2171.8371020507	0.5179575682
2173.7659094238	0.5195060372
2175.6947167968	0.5219316483
2177.6235241699	0.5210038424
2179.5523315429	0.5197476745
2181.4811389160	0.5199567080
2183.4099462890	0.5172979236
2185.3387536620	0.5200554729
2187.2675610351	0.5208604336
2189.1963684081	0.5163527131
2191.1251757812	0.5210821629
2193.0539831542	0.5239747167
2194.9827905273	0.5210947394
2196.9115979003	0.5220125318
2198.8404052734	0.5203735232
2200.7692126464	0.5188918710
2202.6980200195	0.5201536417
2204.6268273925	0.5174170136
2206.5556347656	0.5165534616
2208.4844421386	0.5165261030
2210.4132495117	0.5172581673
2212.3420568847	0.5194671750
2214.2708642577	0.5172917843
2216.1996716308	0.5165239573
2218.1284790038	0.5174919367
2220.0572863769	0.5214610100
2221.9860937499	0.5221148729
2223.9149011230	0.5188603401
2225.8437084960	0.5194621682
2227.7725158691	0.5167887807
2229.7013232421	0.5192238092
2231.6301306152	0.5193895698
2233.5589379882	0.5149499178
2235.4877453613	0.5201283097
2237.4165527343	0.5174956322
2239.3453601074	0.5123533607
2241.2741674804	0.5177161694
2243.2029748534	0.5176401138
2245.1317822265	0.5147783160
2247.0605895995	0.5183272362
2248.9893969726	0.5190768838
2250.9182043456	0.5170850158
2252.8470117187	0.5164284706
2254.7758190917	0.5172888041
2256.7046264648	0.5205144286
2258.6334338378	0.5175728202
2260.5622412109	0.5136175752
2262.4910485839	0.5157288313
2264.4198559570	0.5175408125
2266.3486633300	0.5158672333
2268.2774707031	0.5137649179
2270.2062780761	0.5157753825
2272.1350854491	0.5174396634
2274.0638928222	0.5168522596
2275.9927001952	0.5152773857
2277.9215075683	0.5154598355
2279.8503149413	0.5153709650
2281.7791223144	0.5158074498
2283.7079296874	0.5162449479
2285.6367370605	0.5112565160
2287.5655444335	0.5138928294
2289.4943518066	0.5170080662
2291.4231591796	0.5189737678
2293.3519665527	0.5173064470
2295.2807739257	0.5101876855
2297.2095812988	0.5162626505
2299.1383886718	0.5119012594
2301.0671960449	0.5112621784
2302.9960034179	0.5154084563
2304.9248107909	0.5073204041
2306.8536181640	0.5157316327
2308.7824255370	0.5147471428
2310.7112329101	0.5103087425
2312.6400402831	0.5139974952
2314.5688476562	0.5135980248
2316.4976550292	0.5196514130
2318.4264624023	0.5153738260
2320.3552697753	0.5130275488
2322.2840771484	0.5144711137
2324.2128845214	0.5105372667
2326.1416918945	0.5094479322
2328.0704992675	0.5127558708
2329.9993066406	0.5154086351
2331.9281140136	0.5090762973
2333.8569213866	0.5103150606
2335.7857287597	0.5104169846
2337.7145361327	0.5076689720
2339.6433435058	0.5084378123
2341.5721508788	0.5088979006
2343.5009582519	0.5111547709
2345.4297656249	0.5057174563
2347.3585729980	0.5079646111
2349.2873803710	0.5105065107
2351.2161877441	0.5089985132
2353.1449951171	0.5123470426
2355.0738024902	0.5111035705
2357.0026098632	0.5109658241
2358.9314172363	0.5082733035
2360.8602246093	0.5115502477
2362.7890319823	0.5161352754
2364.7178393554	0.5073603988
2366.6466467284	0.5018053055
2368.5754541015	0.5043263435
2370.5042614745	0.5071079135
2372.4330688476	0.5075846910
2374.3618762206	0.5114521980
2376.2906835937	0.5127264857
2378.2194909667	0.5079094768
2380.1482983398	0.5057378411
2382.0771057128	0.5094615817
2384.0059130859	0.5112818480
2385.9347204589	0.5079297423
2387.8635278320	0.5098598003
2389.7923352050	0.5103066564
2391.7211425780	0.5082558990
2393.6499499511	0.5087058544
2395.5787573241	0.5087657571
2397.5075646972	0.5115405917
2399.4363720702	0.5101812482
2401.3651794433	0.5092600584
2403.2939868163	0.5115779042
2405.2227941894	0.5075337887
2407.1516015624	0.5071783662
2409.0804089355	0.5081315041
2411.0092163085	0.5054459572
2412.9380236816	0.5085694790
2414.8668310546	0.5069071054
2416.7956384277	0.5041387677
2418.7244458007	0.5057447553
2420.6532531738	0.5039558411
2422.5820605468	0.5080655217
2424.5108679198	0.5099147558
2426.4396752929	0.5049692392
2428.3684826659	0.5036122799
2430.2972900390	0.5059958100
2432.2260974120	0.5059127212
2434.1549047851	0.5010549426
2436.0837121581	0.5020223260
2438.0125195312	0.5051187873
2439.9413269042	0.5034509301
2441.8701342773	0.5005146861
2443.7989416503	0.5018015504
2445.7277490234	0.5044931769
2447.6565563964	0.5026957393
2449.5853637695	0.5037454367
2451.5141711425	0.5059347749
2453.4429785155	0.5038976073
2455.3717858886	0.5035831928
2457.3005932616	0.5050576925
2459.2294006347	0.4988797009
2461.1582080077	0.4988442361
2463.0870153808	0.5040668845
2465.0158227538	0.5014162660
2466.9446301269	0.5040690899
2468.8734374999	0.5023607612
2470.8022448730	0.5005206466
2472.7310522460	0.5026167035
2474.6598596191	0.5024256110
2476.5886669921	0.5039455891
2478.5174743652	0.5015513897
2480.4462817382	0.5029703379
2482.3750891112	0.5020346045
2484.3038964843	0.5017503500
2486.2327038573	0.5022050142
2488.1615112304	0.5010700226
2490.0903186034	0.5002461672
2492.0191259765	0.4955253303
2493.9479333495	0.5018450022
2495.8767407226	0.5026623607
2497.8055480956	0.5020381212
2499.7343554687	0.5020812750
2501.6631628417	0.4995850623
2503.5919702148	0.5057932138
2505.5207775878	0.4990196526
2507.4495849609	0.4992378056
2509.3783923339	0.5042245984
2511.3071997069	0.5004135966
2513.2360070800	0.4991379678
2515.1648144530	0.4966616929
2517.0936218261	0.4983937144
2519.0224291991	0.4982110560
2520.9512365722	0.4979372621
2522.8800439452	0.4949660599
2524.8088513183	0.4959690571
2526.7376586913	0.4986290634
2528.6664660644	0.4974624217
2530.5952734374	0.5030608177
2532.5240808105	0.4983430505
2534.4528881835	0.4956110120
2536.3816955566	0.4968596101
2538.3105029296	0.4943308532
2540.2393103027	0.4969376922
2542.1681176757	0.4959357977
2544.0969250487	0.4974687099
2546.0257324218	0.4997425377
2547.9545397948	0.4976586699
2549.8833471679	0.4963884056
2551.8121545409	0.4968890846
2553.7409619140	0.4966346025
2555.6697692870	0.4962965846
2557.5985766601	0.4964285195
2559.5273840331	0.4965660572
2561.4561914062	0.4977071583
2563.3849987792	0.4947469532
2565.3138061523	0.4945374727
2567.2426135253	0.4964459836
2569.1714208984	0.4948073030
2571.1002282714	0.4939868748
2573.0290356444	0.4966443777
2574.9578430175	0.4978828430
2576.8866503905	0.4956095815
2578.8154577636	0.4944213927
2580.7442651366	0.4923639894
2582.6730725097	0.4954520166
2584.6018798827	0.4951160252
2586.5306872558	0.4941815138
2588.4594946288	0.4933523834
2590.3883020019	0.4875850379
2592.3171093749	0.4949602485
2594.2459167480	0.4950817227
2596.1747241210	0.4916400909
2598.1035314941	0.4913846850
2600.0323388671	0.4869039059
2601.9611462401	0.4916541278
2603.8899536132	0.4928218424
2605.8187609862	0.4952199757
2607.7475683593	0.4941533506
2609.6763757323	0.4898639917
2611.6051831054	0.4903312624
2613.5339904784	0.4889368117
2615.4627978515	0.4921672940
2617.3916052245	0.4881953299
2619.3204125976	0.4883046448
2621.2492199706	0.4931547344
2623.1780273437	0.4902372658
2625.1068347167	0.4922917783
2627.0356420898	0.4925909936
2628.9644494628	0.4913529158
2630.8932568358	0.4889814258
2632.8220642089	0.4855420887
2634.7508715819	0.4894691408
2636.6796789550	0.4909907281
2638.6084863280	0.4900197983
2640.5372937011	0.4912417531
2642.4661010741	0.4878123999
2644.3949084472	0.4876135290
2646.3237158202	0.4883936346
2648.2525231933	0.4859191775
2650.1813305663	0.4882864952
2652.1101379394	0.4881014228
2654.0389453124	0.4885741770
2655.9677526855	0.4880636632
2657.8965600585	0.4871465862
2659.8253674315	0.4893555343
2661.7541748046	0.4875498414
2663.6829821776	0.4870882332
2665.6117895507	0.4852809012
2667.5405969237	0.4893187284
2669.4694042968	0.4892477989
2671.3982116698	0.4849652052
2673.3270190429	0.4889100492
2675.2558264159	0.4824684858
2677.1846337890	0.4837811291
2679.1134411620	0.4875984192
2681.0422485351	0.4836806953
2682.9710559081	0.4885352254
2684.8998632812	0.4853861928
2686.8286706542	0.4783790112
2688.7574780273	0.4807700515
2690.6862854003	0.4877817929
2692.6150927733	0.4827341437
2694.5439001464	0.4762545228
2696.4727075194	0.4852719307
2698.4015148925	0.4836052656
2700.3303222655	0.4807308316
2702.2591296386	0.4886826575
2704.1879370116	0.4856020212
2706.1167443847	0.4800976217
2708.0455517577	0.4800762236
2709.9743591308	0.4794898927
2711.9031665038	0.4814710319
2713.8319738769	0.4820458889
2715.7607812499	0.4834870994
2717.6895886230	0.4847376645
2719.6183959960	0.4818415344
2721.5472033690	0.4851101041
2723.4760107421	0.4836927354
2725.4048181151	0.4770826697
2727.3336254882	0.4793832600
2729.2624328612	0.4831470549
2731.1912402343	0.4793162048
2733.1200476073	0.4759905934
2735.0488549804	0.4801529944
2736.9776623534	0.4775692821
2738.9064697265	0.4772022665
2740.8352770995	0.4787181318
2742.7640844726	0.4746335149
2744.6928918456	0.4795262516
2746.6216992187	0.4799159765
2748.5505065917	0.4782921672
2750.4793139647	0.4766820967
2752.4081213378	0.4725698233
2754.3369287108	0.4784167409
2756.2657360839	0.4769951105
2758.1945434569	0.4707200527
2760.1233508300	0.4756731391
2762.0521582030	0.4750762880
2763.9809655761	0.4685362875
2765.9097729491	0.4755735099
2767.8385803222	0.4756247103
2769.7673876952	0.4694736600
2771.6961950683	0.4758927524
2773.6250024413	0.4746902287
2775.5538098144	0.4741715491
2777.4826171874	0.4766286612
2779.4114245604	0.4731419683
2781.3402319335	0.4703503251
2783.2690393065	0.4711797833
2785.1978466796	0.4766083956
2787.1266540526	0.4736088514
2789.0554614257	0.4714481831
2790.9842687987	0.4701325595
2792.9130761718	0.4682703316
2794.8418835448	0.4739021659
2796.7706909179	0.4717818797
2798.6994982909	0.4711714387
2800.6283056640	0.4708082080
2802.5571130370	0.4665145874
2804.4859204101	0.4716663957
2806.4147277831	0.4705443978
2808.3435351562	0.4643160701
2810.2723425292	0.4691143930
2812.2011499022	0.4727995098
2814.1299572753	0.4728873372
2816.0587646483	0.4710764587
2817.9875720214	0.4654265344
2819.9163793944	0.4686529338
2821.8451867675	0.4706403613
2823.7739941405	0.4678387344
2825.7028015136	0.4697362185
2827.6316088866	0.4701821208
2829.5604162597	0.4680413306
2831.4892236327	0.4639070928
2833.4180310058	0.4640665948
2835.3468383788	0.4670887887
2837.2756457519	0.4671315253
2839.2044531249	0.4613855183
2841.1332604979	0.4610693753
2843.0620678710	0.4663221836
2844.9908752440	0.4612933695
2846.9196826171	0.4621725678
2848.8484899901	0.4630134106
2850.7772973632	0.4633986950
2852.7061047362	0.4664876759
2854.6349121093	0.4601245821
2856.5637194823	0.4629625976
2858.4925268554	0.4649910331
2860.4213342284	0.4592824578
2862.3501416015	0.4578109682
2864.2789489745	0.4622539282
2866.2077563476	0.4635908604
2868.1365637206	0.4591228664
2870.0653710936	0.4585232437
2871.9941784667	0.4526393414
2873.9229858397	0.4564860165
2875.8517932128	0.4613456130
2877.7806005858	0.4571653008
2879.7094079589	0.4625613391
2881.6382153319	0.4588200450
2883.5670227050	0.4566468298
2885.4958300780	0.4596897960
2887.4246374511	0.4561753869
2889.3534448241	0.4586294293
2891.2822521972	0.4553952813
2893.2110595702	0.4519085586
2895.1398669433	0.4558304548
2897.0686743163	0.4542025030
2898.9974816893	0.4540225565
2900.9262890624	0.4540104568
2902.8550964354	0.4514850974
2904.7839038085	0.4532045722
2906.7127111815	0.4532611370
2908.6415185546	0.4551630914
2910.5703259276	0.4572014809
2912.4991333007	0.4548399150
2914.4279406737	0.4541450441
2916.3567480468	0.4547053277
2918.2855554198	0.4521406889
2920.2143627929	0.4469769597
2922.1431701659	0.4500935078
2924.0719775390	0.4500195980
2926.0007849120	0.4465312362
2927.9295922851	0.4498139024
2929.8583996581	0.4505716264
2931.7872070311	0.4532074928
2933.7160144042	0.4485724866
2935.6448217772	0.4469319880
2937.5736291503	0.4535586536
2939.5024365233	0.4487200081
2941.4312438964	0.4478364885
2943.3600512694	0.4511511922
2945.2888586425	0.4468079507
2947.2176660155	0.4434251487
2949.1464733886	0.4435868859
2951.0752807616	0.4443837106
2953.0040881347	0.4498287439
2954.9328955077	0.4489922225
2956.8617028808	0.4442676902
2958.7905102538	0.4459880590
2960.7193176268	0.4429136217
2962.6481249999	0.4472304285
2964.5769323729	0.4466823936
2966.5057397460	0.4393219948
2968.4345471190	0.4420538247
2970.3633544921	0.4411457777
2972.2921618651	0.4455608428
2974.2209692382	0.4471512735
2976.1497766112	0.4432860017
2978.0785839843	0.4439100921
2980.0073913573	0.4447231293
2981.9361987304	0.4420107603
2983.8650061034	0.4382129610
2985.7938134765	0.4466987550
2987.7226208495	0.4440667927
2989.6514282225	0.4386186004
2991.5802355956	0.4393143058
2993.5090429686	0.4324844480
2995.4378503417	0.4420143962
2997.3666577147	0.4416766465
2999.2954650878	0.4318507910
3001.2242724608	0.4376040995
3003.1530798339	0.4353011847
3005.0818872069	0.4328355491
3007.0106945800	0.4315498769
3008.9395019530	0.4294867516
3010.8683093261	0.4324288964
3012.7971166991	0.4330801368
3014.7259240722	0.4379368722
3016.6547314452	0.4334373176
3018.5835388182	0.4324136078
3020.5123461913	0.4419675469
3022.4411535643	0.4274261892
3024.3699609374	0.4244674444
3026.2987683104	0.4363748729
3028.2275756835	0.4310321510
3030.1563830565	0.4359592199
3032.0851904296	0.4385163188
3034.0139978026	0.4322272837
3035.9428051757	0.4277048409
3037.8716125487	0.4220019579
3039.8004199218	0.4297036231
3041.7292272948	0.4302513301
3043.6580346679	0.4257518947
3045.5868420409	0.4288865328
3047.5156494139	0.4267746210
3049.4444567870	0.4309934080
3051.3732641600	0.4302892983
3053.3020715331	0.4237929881
3055.2308789061	0.4253419042
3057.1596862792	0.4241210222
3059.0884936522	0.4243518412
3061.0173010253	0.4213265479
3062.9461083983	0.4181985259
3064.8749157714	0.4209749401
3066.8037231444	0.4196263850
3068.7325305175	0.4228433073
3070.6613378905	0.4211304486
3072.5901452636	0.4188528657
3074.5189526366	0.4257883728
3076.4477600097	0.4238593876
3078.3765673827	0.4206061363
3080.3053747557	0.4181759953
3082.2341821288	0.4174468815
3084.1629895018	0.4196653664
3086.0917968749	0.4204807878
3088.0206042479	0.4213032722
3089.9494116210	0.4157847464
3091.8782189940	0.4195732474
3093.8070263671	0.4201293886
3095.7358337401	0.4138506949
3097.6646411132	0.4186347127
3099.5934484862	0.4125899971
3101.5222558593	0.4166970849
3103.4510632323	0.4218481481
3105.3798706054	0.4081962109
3107.3086779784	0.4127643406
3109.2374853514	0.4154997170
3111.1662927245	0.4121706486
3113.0951000975	0.4143015146
3115.0239074706	0.4080652297
3116.9527148436	0.4110713303
3118.8815222167	0.4172448814
3120.8103295897	0.4126997590
3122.7391369628	0.4137169719
3124.6679443358	0.4170736670
3126.5967517089	0.4103798270
3128.5255590819	0.4111457169
3130.4543664550	0.4115758240
3132.3831738280	0.4099250734
3134.3119812011	0.4191672206
3136.2407885741	0.4151463509
3138.1695959471	0.4143577814
3140.0984033202	0.4117745459
3142.0272106932	0.4053286016
3143.9560180663	0.4145382941
3145.8848254393	0.4113806486
3147.8136328124	0.4156507850
3149.7424401854	0.4159199893
3151.6712475585	0.4076682627
3153.6000549315	0.4135783613
3155.5288623046	0.4125055969
3157.4576696776	0.4171087444
3159.3864770507	0.4105945230
3161.3152844237	0.4034761190
3163.2440917968	0.4104565978
3165.1728991698	0.4069289565
3167.1017065428	0.4104710519
3169.0305139159	0.4126788378
3170.9593212889	0.4120364189
3172.8881286620	0.4124510288
3174.8169360350	0.4136332870
3176.7457434081	0.4164919257
3178.6745507811	0.4114746749
3180.6033581542	0.4134691060
3182.5321655272	0.4098403156
3184.4609729003	0.4083689451
3186.3897802733	0.4226292074
3188.3185876464	0.4226327538
3190.2473950194	0.4178259075
3192.1762023925	0.4201264679
3194.1050097655	0.4195354879
3196.0338171386	0.4177776277
3197.9626245116	0.4146834314
3199.8914318846	0.4213919640
3201.8202392577	0.4261099100
3203.7490466307	0.4166411459
3205.6778540038	0.4199468195
3207.6066613768	0.4219452441
3209.5354687499	0.4194490314
3211.4642761229	0.4305309653
3213.3930834960	0.4283177555
3215.3218908690	0.4214727283
3217.2506982421	0.4275408387
3219.1795056151	0.4263813198
3221.1083129882	0.4269662797
3223.0371203612	0.4374224842
3224.9659277343	0.4292252064
3226.8947351073	0.4231934845
3228.8235424803	0.4312748611
3230.7523498534	0.4266960025
3232.6811572264	0.4291639030
3234.6099645995	0.4329004586
3236.5387719725	0.4374071062
3238.4675793456	0.4448708594
3240.3963867186	0.4352915287
3242.3251940917	0.4307527244
3244.2540014647	0.4372144341
3246.1828088378	0.4428214133
3248.1116162108	0.4430879951
3250.0404235839	0.4469919205
3251.9692309569	0.4444263577
3253.8980383300	0.4388919175
3255.8268457030	0.4465831220
3257.7556530760	0.4477378726
3259.6844604491	0.4538663328
3261.6132678221	0.4500491917
3263.5420751952	0.4450353980
3265.4708825682	0.4579730630
3267.3996899413	0.4560675919
3269.3284973143	0.4526241720
3271.2573046874	0.4538280666
3273.1861120604	0.4533964097
3275.1149194335	0.4515852034
3277.0437268065	0.4564677775
3278.9725341796	0.4581201077
3280.9013415526	0.4538456500
3282.8301489257	0.4636312425
3284.7589562987	0.4645996690
3286.6877636717	0.4653441608
3288.6165710448	0.4637517333
3290.5453784178	0.4601333439
3292.4741857909	0.4642751813
3294.4029931639	0.4666346014
3296.3318005370	0.4744180143
3298.2606079100	0.4664712846
3300.1894152831	0.4694333971
3302.1182226561	0.4761141241
3304.0470300292	0.4692400992
3305.9758374022	0.4727981389
3307.9046447753	0.4660428464
3309.8334521483	0.4703225791
3311.7622595214	0.4741970599
3313.6910668944	0.4723948538
3315.6198742675	0.4817893505
3317.5486816405	0.4810020030
3319.4774890135	0.4854789078
3321.4062963866	0.4847597182
3323.3351037596	0.4829225838
3325.2639111327	0.4921891093
3327.1927185057	0.4904920161
3329.1215258788	0.4839847386
3331.0503332518	0.4839032590
3332.9791406249	0.4858699739
3334.9079479979	0.4828868806
3336.8367553710	0.4834729731
3338.7655627440	0.4937518239
3340.6943701171	0.4957645535
3342.6231774901	0.4887837768
3344.5519848632	0.4949727654
3346.4807922362	0.4999440014
3348.4095996092	0.5003496408
3350.3384069823	0.5081986785
3352.2672143553	0.5064983964
3354.1960217284	0.5063695312
3356.1248291014	0.5101295114
3358.0536364745	0.5136757493
3359.9824438475	0.5119932890
3361.9112512206	0.5111795068
3363.8400585936	0.5214151144
3365.7688659667	0.5161922574
3367.6976733397	0.5203955770
3369.6264807128	0.5297219753
3371.5552880858	0.5236489177
3373.4840954589	0.5296425223
3375.4129028319	0.5359706283
3377.3417102049	0.5377765298
3379.2705175780	0.5359299779
3381.1993249510	0.5343346596
3383.1281323241	0.5376678705
3385.0569396971	0.5370784998
3386.9857470702	0.5417873859
3388.9145544432	0.5509516001
3390.8433618163	0.5476744175
3392.7721691893	0.5439910293
3394.7009765624	0.5501863956
3396.6297839354	0.5490387678
3398.5585913085	0.5579227209
3400.4873986815	0.5600714087
3402.4162060546	0.5572742224
3404.3450134276	0.5710141063
3406.2738208006	0.5638669729
3408.2026281737	0.5674165487
3410.1314355467	0.5692074299
3412.0602429198	0.5619368553
3413.9890502928	0.5809205174
3415.9178576659	0.5789821148
3417.8466650389	0.5792919397
3419.7754724120	0.5876428485
3421.7042797850	0.5794408321
3423.6330871581	0.5892989635
3425.5618945311	0.5957282186
3427.4907019042	0.5915346742
3429.4195092772	0.5997907519
3431.3483166503	0.6028696895
3433.2771240233	0.6011424661
3435.2059313963	0.6087293029
3437.1347387694	0.6133352518
3439.0635461424	0.6117116809
3440.9923535155	0.6051521897
3442.9211608885	0.6049395204
3444.8499682616	0.6198434830
3446.7787756346	0.6245661378
3448.7075830077	0.6189976335
3450.6363903807	0.6201609969
3452.5651977538	0.6245332360
3454.4940051268	0.6289560795
3456.4228124999	0.6327491403
3458.3516198729	0.6288580298
3460.2804272460	0.6296616793
3462.2092346190	0.6395859718
3464.1380419921	0.6424275637
3466.0668493651	0.6395074725
3467.9956567381	0.6380581856
3469.9244641112	0.6481928229
3471.8532714842	0.6485336423
3473.7820788573	0.6421831846
3475.7108862303	0.6506842971
3477.6396936034	0.6494966149
3479.5685009764	0.6512621045
3481.4973083495	0.6596462727
3483.4261157225	0.6568951011
3485.3549230956	0.6583216190
3487.2837304686	0.6665030122
3489.2125378417	0.6672097445
3491.1413452147	0.6628124714
3493.0701525878	0.6610558629
3494.9989599608	0.6589175463
3496.9277673338	0.6570044756
3498.8565747069	0.6585538983
3500.7853820799	0.6656698585
3502.7141894530	0.6647275686
3504.6429968260	0.6665983796
3506.5718041991	0.6676309705
3508.5006115721	0.6662942767
3510.4294189452	0.6792460084
3512.3582263182	0.6751336455
3514.2870336913	0.6741311550
3516.2158410643	0.6745077968
3518.1446484374	0.6718084812
3520.0734558104	0.6831793189
3522.0022631835	0.6866385341
3523.9310705565	0.6910614967
3525.8598779295	0.6847134233
3527.7886853026	0.6795234680
3529.7174926756	0.6743584275
3531.6463000487	0.6842483282
3533.5751074217	0.6970782876
3535.5039147948	0.6778010130
3537.4327221678	0.6844590902
3539.3615295409	0.6908013821
3541.2903369139	0.6868060231
3543.2191442870	0.6840485334
3545.1479516600	0.6848508120
3547.0767590331	0.6924261451
3549.0055664061	0.6793513298
3550.9343737792	0.6843539476
3552.8631811522	0.6865198016
3554.7919885252	0.6872597337
3556.7207958983	0.6922497749
3558.6496032713	0.6888245940
3560.5784106444	0.6862021685
3562.5072180174	0.6889864802
3564.4360253905	0.7019466758
3566.3648327635	0.6868871450
3568.2936401366	0.6902433038
3570.2224475096	0.6909844279
3572.1512548827	0.6846535802
3574.0800622557	0.6932317615
3576.0088696288	0.6854960918
3577.9376770018	0.6980587840
3579.8664843749	0.6847772002
3581.7952917479	0.6862601042
3583.7240991210	0.7009631395
3585.6529064940	0.6829841733
3587.5817138670	0.6789754033
3589.5105212401	0.6800231338
3591.4393286131	0.6936293840
3593.3681359862	0.6840446591
3595.2969433592	0.6848410368
3597.2257507323	0.6914137006
3599.1545581053	0.6813743114
3601.0833654784	0.6943466663
3603.0121728514	0.6856574416
3604.9409802245	0.6777682304
3606.8697875975	0.6764099598
3608.7985949706	0.6807168126
3610.7274023436	0.6784962416
3612.6562097167	0.6752836704
3614.5850170897	0.6877833605
3616.5138244627	0.6783614755
3618.4426318358	0.6726059914
3620.3714392088	0.6710759997
3622.3002465819	0.6791501641
3624.2290539549	0.6803783774
3626.1578613280	0.6807733178
3628.0866687010	0.6799821854
3630.0154760741	0.6654714942
3631.9442834471	0.6781299710
3633.8730908202	0.6776914597
3635.8018981932	0.6814364195
3637.7307055663	0.6715599895
3639.6595129393	0.6670050621
3641.5883203124	0.6809762716
3643.5171276854	0.6656175852
3645.4459350584	0.6716827750
3647.3747424315	0.6688164473
3649.3035498045	0.6626413465
3651.2323571776	0.6653741002
3653.1611645506	0.6682096124
3655.0899719237	0.6805708408
3657.0187792967	0.6656641960
3658.9475866698	0.6662447453
3660.8763940428	0.6702737212
3662.8052014159	0.6690110564
3664.7340087889	0.6665576696
3666.6628161620	0.6595351696
3668.5916235350	0.6585671306
3670.5204309081	0.6403408051
3672.4492382811	0.6505765319
3674.3780456541	0.6543214321
3676.3068530272	0.6366746426
3678.2356604002	0.6478297114
3680.1644677733	0.6509118676
3682.0932751463	0.6470086575
3684.0220825194	0.6471788883
3685.9508898924	0.6354567409
3687.8796972655	0.6276400089
3689.8085046385	0.6315162778
3691.7373120116	0.6255528331
3693.6661193846	0.6296390891
3695.5949267577	0.6320831180
3697.5237341307	0.6251727343
3699.4525415038	0.6308473349
3701.3813488768	0.6307935119
3703.3101562499	0.6329444051
3705.2389636229	0.6313807964
3707.1677709959	0.6226426363
3709.0965783690	0.6215994358
3711.0253857420	0.6210458279
3712.9541931151	0.6203609705
3714.8830004881	0.6205682158
3716.8118078612	0.6174150109
3718.7406152342	0.6160623431
3720.6694226073	0.6117435098
3722.5982299803	0.5996790528
3724.5270373534	0.6059436798
3726.4558447264	0.6076756120
3728.3846520995	0.6018315554
3730.3134594725	0.6060937047
3732.2422668456	0.5976935029
3734.1710742186	0.5944974422
3736.0998815916	0.5948566198
3738.0286889647	0.6009580493
3739.9574963377	0.6062204242
3741.8863037108	0.5998311043
3743.8151110838	0.5973400474
3745.7439184569	0.5907467604
3747.6727258299	0.6015673876
3749.6015332030	0.6003434062
3751.5303405760	0.5802305341
3753.4591479491	0.5880276561
3755.3879553221	0.5974403620
3757.3167626952	0.5984503031
3759.2455700682	0.5877024531
3761.1743774413	0.5881028771
3763.1031848143	0.5899905562
3765.0319921873	0.5786054730
3766.9607995604	0.5912219882
3768.8896069334	0.5978640914
3770.8184143065	0.5910596251
3772.7472216795	0.5919404030
3774.6760290526	0.5849241018
3776.6048364256	0.5854218602
3778.5336437987	0.5907349586
3780.4624511717	0.5823582411
3782.3912585448	0.5822113156
3784.3200659178	0.5889860392
3786.2488732909	0.5851135254
3788.1776806639	0.5800378323
3790.1064880370	0.5774447918
3792.0352954100	0.5847668052
3793.9641027830	0.5894489288
3795.8929101561	0.5798588991
3797.8217175291	0.5828883648
3799.7505249022	0.5860151052
3801.6793322752	0.5829160810
3803.6081396483	0.5824808478
3805.5369470213	0.5754778981
3807.4657543944	0.5790022016
3809.3945617674	0.5854301453
3811.3233691405	0.5732668042
3813.2521765135	0.5701719522
3815.1809838866	0.5773112178
3817.1097912596	0.5714455247
3819.0385986327	0.5705121160
3820.9674060057	0.5696452856
3822.8962133787	0.5703951716
3824.8250207518	0.5779734850
3826.7538281248	0.5752014518
3828.6826354979	0.5730771422
3830.6114428709	0.5723859668
3832.5402502440	0.5662388802
3834.4690576170	0.5654467344
3836.3978649901	0.5758724213
3838.3266723631	0.5715268254
3840.2554797362	0.5569772124
3842.1842871092	0.5712151527
3844.1130944823	0.5650418997
3846.0419018553	0.5655668974
3847.9707092284	0.5829930902
3849.8995166014	0.5659973621
3851.8283239745	0.5637747049
3853.7571313475	0.5593637228
3855.6859387205	0.5545377731
3857.6147460936	0.5710733533
3859.5435534666	0.5692297220
3861.4723608397	0.5639423728
3863.4011682127	0.5634242892
3865.3299755858	0.5618209839
3867.2587829588	0.5564293265
3869.1875903319	0.5521178842
3871.1163977049	0.5605377555
3873.0452050780	0.5613372922
3874.9740124510	0.5526324511
3876.9028198241	0.5712971687
3878.8316271971	0.5677685738
3880.7604345702	0.5398200154
3882.6892419432	0.5677334070
3884.6180493162	0.5711191893
3886.5468566893	0.5584485531
3888.4756640623	0.5648453236
3890.4044714354	0.5563531518
3892.3332788084	0.5655124187
3894.2620861815	0.5649950504
3896.1908935545	0.5654022098
3898.1197009276	0.5576622486
3900.0485083006	0.5572531819
3901.9773156737	0.5645139217
3903.9061230467	0.5408046246
3905.8349304198	0.5589584708
3907.7637377928	0.5682114363
3909.6925451659	0.5552788973
3911.6213525389	0.5564521551
3913.5501599119	0.5548027158
3915.4789672850	0.5573821068
3917.4077746580	0.5520846248
3919.3365820311	0.5528818965
3921.2653894041	0.5491880178
3923.1941967772	0.5572462678
3925.1230041502	0.5622934103
3927.0518115233	0.5514554381
3928.9806188963	0.5598992109
3930.9094262694	0.5450212955
3932.8382336424	0.5473807454
3934.7670410155	0.5595434308
3936.6958483885	0.5445551872
3938.6246557616	0.5603797436
3940.5534631346	0.5646575689
3942.4822705076	0.5577256083
3944.4110778807	0.5575757623
3946.3398852537	0.5437098742
3948.2686926268	0.5473674536
3950.1974999998	0.5437495112
3952.1263073729	0.5418645740
3954.0551147459	0.5509662628
3955.9839221190	0.5495078564
3957.9127294920	0.5507349968
3959.8415368651	0.5432126522
3961.7703442381	0.5529555082
3963.6991516112	0.5556988716
3965.6279589842	0.5518618822
3967.5567663573	0.5669296980
3969.4855737303	0.5549581647
3971.4143811034	0.5480601788
3973.3431884764	0.5522050858
3975.2719958494	0.5577255487
3977.2008032225	0.5560404658
3979.1296105955	0.5495086908
3981.0584179686	0.5479277968
3982.9872253416	0.5416268706
3984.9160327147	0.5564789176
3986.8448400877	0.5514948964
3988.7736474608	0.5448496342
3990.7024548338	0.5493845940
3992.6312622069	0.5580774546
3994.5600695799	0.5632297993
3996.4888769530	0.5380471945
3998.4176843260	0.5436485410
4000.3464916991	0.5411946774
4002.2752990721	0.5507663488
4004.2041064451	0.5616049767
4006.1329138182	0.5401895642
4008.0617211912	0.5506392121
4009.9905285643	0.5465924740
4011.9193359373	0.5548564196
4013.8481433104	0.5554591417
4015.7769506834	0.5398775339
4017.7057580565	0.5469714403
4019.6345654295	0.5441611409
4021.5633728026	0.5474573374
4023.4921801756	0.5433967113
4025.4209875487	0.5421350002
4027.3497949217	0.5389126539
4029.2786022948	0.5435886979
4031.2074096678	0.5438151956
4033.1362170408	0.5309124589
4035.0650244139	0.5459303260
4036.9938317869	0.5426194668
4038.9226391600	0.5401446223
4040.8514465330	0.5489127636
4042.7802539061	0.5364899039
4044.7090612791	0.5267879367
4046.6378686522	0.5345229506
4048.5666760252	0.5355207324
4050.4954833983	0.5314971209
4052.4242907713	0.5468840599
4054.3530981444	0.5498080850
4056.2819055174	0.5367700458
4058.2107128905	0.5341597795
4060.1395202635	0.5515723228
4062.0683276365	0.5477185249
4063.9971350096	0.5447304249
4065.9259423826	0.5539030433
4067.8547497557	0.5407938361
4069.7835571287	0.5414195061
4071.7123645018	0.5328252316
4073.6411718748	0.5473068953
4075.5699792479	0.5521496534
4077.4987866209	0.5274941921
4079.4275939940	0.5337811708
4081.3564013670	0.5381052494
4083.2852087401	0.5436999202
4085.2140161131	0.5303102732
4087.1428234862	0.5419766307
4089.0716308592	0.5508722067
4091.0004382323	0.5345779657
4092.9292456053	0.5448725224
4094.8580529783	0.5368139148
4096.7868603514	0.5429111719
4098.7156677244	0.5256269574
4100.6444750975	0.5140917301
4102.5732824705	0.5355399847
4104.5020898436	0.5354058146
4106.4308972166	0.5417879820
4108.3597045897	0.5348100066
4110.2885119627	0.5291448832
4112.2173193358	0.5328102112
4114.1461267088	0.5395827293
4116.0749340819	0.5348714590
4118.0037414549	0.5354032516
4119.9325488280	0.5335593820
4121.8613562010	0.5255964994
4123.7901635740	0.5484858751
4125.7189709471	0.5385003090
4127.6477783201	0.5388714671
4129.5765856932	0.5403232574
4131.5053930662	0.5335626602
4133.4342004393	0.5451192856
4135.3630078123	0.5297586322
4137.2918151854	0.5415934324
4139.2206225584	0.5342319012
4141.1494299315	0.5235456824
4143.0782373045	0.5393486619
4145.0070446776	0.5331330299
4146.9358520506	0.5279085040
4148.8646594237	0.5261715055
4150.7934667967	0.5315185189
4152.7222741697	0.5294436216
4154.6510815428	0.5363494158
4156.5798889158	0.5398110151
4158.5086962889	0.5333390832
4160.4375036619	0.5329039693
4162.3663110350	0.5323132277
4164.2951184080	0.5314782262
4166.2239257811	0.5276194215
4168.1527331541	0.5449061990
4170.0815405272	0.5284700990
4172.0103479002	0.5163863897
4173.9391552733	0.5375562906
4175.8679626463	0.5304549336
4177.7967700194	0.5230307579
4179.7255773924	0.5226175785
4181.6543847654	0.5380507708
4183.5831921385	0.5386383533
4185.5119995115	0.5319999456
4187.4408068846	0.5347792506
4189.3696142576	0.5324214101
4191.2984216307	0.5331264734
4193.2272290037	0.5162729621
4195.1560363768	0.5216300488
4197.0848437498	0.5283747315
4199.0136511229	0.5189052224
4200.9424584959	0.5294023752
4202.8712658690	0.5436094403
4204.8000732420	0.5252145529
4206.7288806151	0.5147457123
4208.6576879881	0.5415647030
4210.5864953611	0.5254976749
4212.5153027342	0.5212142467
4214.4441101072	0.5329998136
4216.3729174803	0.5367734432
4218.3017248533	0.5472040176
4220.2305322264	0.5284275413
4222.1593395994	0.5410705209
4224.0881469725	0.5346235633
4226.0169543455	0.5337063074
4227.9457617186	0.5427653790
4229.8745690916	0.5129731297
4231.8033764647	0.5280731916
4233.7321838377	0.5284484029
4235.6609912108	0.5256776810
4237.5897985838	0.5286185145
4239.5186059569	0.5249022245
4241.4474133299	0.5381847024
4243.3762207029	0.5184115767
4245.3050280760	0.5219246745
4247.2338354490	0.5373470187
4249.1626428221	0.5272090435
4251.0914501951	0.5117561817
4253.0202575682	0.5197758079
4254.9490649412	0.5368356705
4256.8778723143	0.5236150026
4258.8066796873	0.5260002613
4260.7354870604	0.5219060779
4262.6642944334	0.5286016464
4264.5931018065	0.5281639099
4266.5219091795	0.5138232708
4268.4507165526	0.5391929150
4270.3795239256	0.5298327804
4272.3083312986	0.5257961154
4274.2371386717	0.5379649401
4276.1659460447	0.5202655196
4278.0947534178	0.5203664303
4280.0235607908	0.5262073874
4281.9523681639	0.5185945630
4283.8811755369	0.5263586640
4285.8099829100	0.5451281667
4287.7387902830	0.5221039057
4289.6675976561	0.5158457756
4291.5964050291	0.5233519077
4293.5252124022	0.4993734956
4295.4540197752	0.5043668747
4297.3828271483	0.5203627944
4299.3116345213	0.5371131897
4301.2404418943	0.5285894275
4303.1692492674	0.5059025288
4305.0980566404	0.5200705528
4307.0268640135	0.5237684250
4308.9556713865	0.5210006833
4310.8844787596	0.5276665092
4312.8132861326	0.5235449076
4314.7420935057	0.5114250779
4316.6709008787	0.5149945617
4318.5997082518	0.5317156911
4320.5285156248	0.5364790559
4322.4573229979	0.5186882615
4324.3861303709	0.5068415403
4326.3149377440	0.5250267386
4328.2437451170	0.5177311301
4330.1725524900	0.5123261809
4332.1013598631	0.5287090540
4334.0301672361	0.5180559754
4335.9589746092	0.5154368281
4337.8877819822	0.5190060735
4339.8165893553	0.5159289241
4341.7453967283	0.5323978662
4343.6742041014	0.5279048681
4345.6030114744	0.4999662340
4347.5318188475	0.5162698627
4349.4606262205	0.5211220980
4351.3894335936	0.5064575076
4353.3182409666	0.5236397982
4355.2470483397	0.5220369697
4357.1758557127	0.5095644593
4359.1046630858	0.4920022786
4361.0334704588	0.4954308867
4362.9622778318	0.5204572678
4364.8910852049	0.5157374144
4366.8198925779	0.5187149048
4368.7486999510	0.5259063840
4370.6775073240	0.5153100491
4372.6063146971	0.5174515247
4374.5351220701	0.5282033086
4376.4639294432	0.5054934025
4378.3927368162	0.5121786594
4380.3215441893	0.5402561426
4382.2503515623	0.5179160237
4384.1791589354	0.5147606730
4386.1079663084	0.5013306141
4388.0367736815	0.4910083115
4389.9655810545	0.5173481107
4391.8943884275	0.5186037421
4393.8231958006	0.5041342378
4395.7520031736	0.4992193282
4397.6808105467	0.5062783360
4399.6096179197	0.5053206682
4401.5384252928	0.5235593319
4403.4672326658	0.5207640529
4405.3960400389	0.5056359172
4407.3248474119	0.5227599144
4409.2536547850	0.5083274245
4411.1824621580	0.5195343494
4413.1112695311	0.5303521752
4415.0400769041	0.5086690784
4416.9688842772	0.5116878152
4418.8976916502	0.5194931030
4420.8264990232	0.5228735805
4422.7553063963	0.5074270368
4424.6841137693	0.5030152798
4426.6129211424	0.5111747980
4428.5417285154	0.5110621452
4430.4705358885	0.5071794391
4432.3993432615	0.5006105900
4434.3281506346	0.5092815161
4436.2569580076	0.5235407352
4438.1857653807	0.5201882720
4440.1145727537	0.5049774051
4442.0433801268	0.5020794272
4443.9721874998	0.5063804388
4445.9009948729	0.5266755223
4447.8298022459	0.5242806077
4449.7586096189	0.4973948598
4451.6874169920	0.5024352670
4453.6162243650	0.5040554404
4455.5450317381	0.5133123994
4457.4738391111	0.5227353573
4459.4026464842	0.5081260204
4461.3314538572	0.5029178262
4463.2602612303	0.5140087008
4465.1890686033	0.5232391357
4467.1178759764	0.5182385445
4469.0466833494	0.5125470757
4470.9754907225	0.5007445812
4472.9042980955	0.5041663051
4474.8331054686	0.5042117238
4476.7619128416	0.5038893223
4478.6907202147	0.5174936652
4480.6195275877	0.5142718554
4482.5483349607	0.5167518854
4484.4771423338	0.5125435591
4486.4059497068	0.5232264996
4488.3347570799	0.5207253098
4490.2635644529	0.5021761060
4492.1923718260	0.5130286813
4494.1211791990	0.5054855347
4496.0499865721	0.5114442706
4497.9787939451	0.5101888776
4499.9076013182	0.4963622689
4501.8364086912	0.5060608387
4503.7652160643	0.5116927028
4505.6940234373	0.5162323713
4507.6228308104	0.5239924192
4509.5516381834	0.5250641704
4511.4804455564	0.5029535890
4513.4092529295	0.5157959461
4515.3380603025	0.5445414186
4517.2668676756	0.5279713869
4519.1956750486	0.5008742809
4521.1244824217	0.4937924147
4523.0532897947	0.4949507713
4524.9820971678	0.4921108186
4526.9109045408	0.5236468911
4528.8397119139	0.5060318708
4530.7685192869	0.5054912567
4532.6973266600	0.5409978032
4534.6261340330	0.4833691716
4536.5549414061	0.4825254381
4538.4837487791	0.4990334213
4540.4125561521	0.5074169040
4542.3413635252	0.5269212127
4544.2701708982	0.4945970178
4546.1989782713	0.5113722682
4548.1277856443	0.5096896291
4550.0565930174	0.5091877580
4551.9854003904	0.5190714002
4553.9142077635	0.4980165660
4555.8430151365	0.5066247582
4557.7718225096	0.4958952367
4559.7006298826	0.4997822046
4561.6294372557	0.5102596879
4563.5582446287	0.5204647779
4565.4870520018	0.5217082500
4567.4158593748	0.4978025258
4569.3446667478	0.5133810639
4571.2734741209	0.5072743893
4573.2022814939	0.4891073406
4575.1310888670	0.5053143501
4577.0598962400	0.5071271062
4578.9887036131	0.4947670698
4580.9175109861	0.5165204406
4582.8463183592	0.5207983851
4584.7751257322	0.4965008795
4586.7039331053	0.5088433027
4588.6327404783	0.4980882704
4590.5615478514	0.5218124986
4592.4903552244	0.5303843021
4594.4191625975	0.4815877080
4596.3479699705	0.5085438490
4598.2767773435	0.5045845509
4600.2055847166	0.4840628505
4602.1343920896	0.5141747594
4604.0631994627	0.5197165012
4605.9920068357	0.5052051544
4607.9208142088	0.4794475138
4609.8496215818	0.4790777862
4611.7784289549	0.4935756326
4613.7072363279	0.4957594573
4615.6360437010	0.4916436672
4617.5648510740	0.4993763864
4619.4936584471	0.5162448883
4621.4224658201	0.5043857098
4623.3512731932	0.4941540658
4625.2800805662	0.5053988099
4627.2088879393	0.5123556852
4629.1376953123	0.4908725321
4631.0665026853	0.4866571128
4632.9953100584	0.5009161234
4634.9241174314	0.4931949675
4636.8529248045	0.4955520034
4638.7817321775	0.4977099597
4640.7105395506	0.5007433295
4642.6393469236	0.4920077920
4644.5681542967	0.4828886390
4646.4969616697	0.5061954856
4648.4257690428	0.4924814105
4650.3545764158	0.4816715121
4652.2833837889	0.5033411980
4654.2121911619	0.4971296489
4656.1409985350	0.4938082993
4658.0698059080	0.4999588728
4659.9986132810	0.5017015934
4661.9274206541	0.4985740781
4663.8562280271	0.4940654039
4665.7850354002	0.4921380579
4667.7138427732	0.5015337467
4669.6426501463	0.5172962546
4671.5714575193	0.4941145778
4673.5002648924	0.4876830578
4675.4290722654	0.4997808039
4677.3578796385	0.4942446351
4679.2866870115	0.5151254535
4681.2154943846	0.5133380294
4683.1443017576	0.5035681725
4685.0731091307	0.5122374296
4687.0019165037	0.5172697306
4688.9307238767	0.5073551536
4690.8595312498	0.4783563018
4692.7883386228	0.5014730096
4694.7171459959	0.4943290353
4696.6459533689	0.4704250097
4698.5747607420	0.5128885508
4700.5035681150	0.4978198409
4702.4323754881	0.4824411571
4704.3611828611	0.5110093355
4706.2899902342	0.5082550645
4708.2187976072	0.5174657106
4710.1476049803	0.5140466094
4712.0764123533	0.4776292145
4714.0052197264	0.4897191525
4715.9340270994	0.4931649864
4717.8628344724	0.4788742065
4719.7916418455	0.5022426844
4721.7204492185	0.5020115972
4723.6492565916	0.5082996488
4725.5780639646	0.4891131818
4727.5068713377	0.4787499905
4729.4356787107	0.5090311766
4731.3644860838	0.4905054569
4733.2932934568	0.4918037653
4735.2221008299	0.4939594865
4737.1509082029	0.5025147796
4739.0797155760	0.5103146434
4741.0085229490	0.4933102429
4742.9373303221	0.4899943471
4744.8661376951	0.4800036252
4746.7949450682	0.5029063225
4748.7237524412	0.4877527654
4750.6525598142	0.4876227975
4752.5813671873	0.5005717278
4754.5101745603	0.4808585644
4756.4389819334	0.4965245724
4758.3677893064	0.4712623656
4760.2965966795	0.4753064513
4762.2254040525	0.4735158086
4764.1542114256	0.4865606129
4766.0830187986	0.5237690210
4768.0118261717	0.4904554784
4769.9406335447	0.5172275901
4771.8694409178	0.4937290847
4773.7982482908	0.4715340436
4775.7270556639	0.5105062723
4777.6558630369	0.4723088741
4779.5846704099	0.4843893647
4781.5134777830	0.5165017247
4783.4422851560	0.5042479038
4785.3710925291	0.5133616328
4787.2998999021	0.5098335147
4789.2287072752	0.4916732907
4791.1575146482	0.4893230200
4793.0863220213	0.4814440310
4795.0151293943	0.5005440116
4796.9439367674	0.5264748931
4798.8727441404	0.4999144673
4800.8015515135	0.4820080400
4802.7303588865	0.4835894704
4804.6591662596	0.5052676201
4806.5879736326	0.4985240698
4808.5167810056	0.4829138517
4810.4455883787	0.4949057102
4812.3743957517	0.4839385152
4814.3032031248	0.4893639684
4816.2320104978	0.4891479015
4818.1608178709	0.4920758605
4820.0896252439	0.5081933141
4822.0184326170	0.5050160885
4823.9472399900	0.4829134047
4825.8760473631	0.4806585312
4827.8048547361	0.5082439184
4829.7336621092	0.4921725690
4831.6624694822	0.4770318866
4833.5912768553	0.4679506421
4835.5200842283	0.4955663979
4837.4488916013	0.5048792362
4839.3776989744	0.4770870209
4841.3065063474	0.5330708027
4843.2353137205	0.5135781765
4845.1641210935	0.4882942736
4847.0929284666	0.4930032492
4849.0217358396	0.4581350684
4850.9505432127	0.4909788370
4852.8793505857	0.4865036905
4854.8081579588	0.4788011611
4856.7369653318	0.5038114786
4858.6657727049	0.5034223795
4860.5945800779	0.4966177940
4862.5233874510	0.5063307285
4864.4521948240	0.5102353096
4866.3810021971	0.4775809050
4868.3098095701	0.4700198472
4870.2386169431	0.4703929126
4872.1674243162	0.4976911247
4874.0962316892	0.4886931181
4876.0250390623	0.4678546488
4877.9538464353	0.5049412847
4879.8826538084	0.4729181528
4881.8114611814	0.4661740065
4883.7402685545	0.4661189616
4885.6690759275	0.4528458714
4887.5978833006	0.4887986481
4889.5266906736	0.4897956252
4891.4554980467	0.4942363799
4893.3843054197	0.4831812680
4895.3131127928	0.5129188299
4897.2419201658	0.5440464020
4899.1707275388	0.4880934060
4901.0995349119	0.4830591381
4903.0283422849	0.4908862710
4904.9571496580	0.4843923151
4906.8859570310	0.4709623158
4908.8147644041	0.4827238321
4910.7435717771	0.5187529922
4912.6723791502	0.4795620441
4914.6011865232	0.4699262977
4916.5299938963	0.4790366292
4918.4588012693	0.4818141758
4920.3876086424	0.5105756521
4922.3164160154	0.4841527641
4924.2452233885	0.5096350312
4926.1740307615	0.5083751678
4928.1028381345	0.4432773590
4930.0316455076	0.4887263775
4931.9604528806	0.4937273562
4933.8892602537	0.4944453835
4935.8180676267	0.5299117565
4937.7468749998	0.4779319763
4939.6756823728	0.4821263254
4941.6044897459	0.5124390721
4943.5332971189	0.4997792542
4945.4621044920	0.4786085486
4947.3909118650	0.4793276489
4949.3197192381	0.4939071238
4951.2485266111	0.4696619511
4953.1773339842	0.4922345877
4955.1061413572	0.4946338236
4957.0349487302	0.4870598614
4958.9637561033	0.4828675985
4960.8925634763	0.4375494719
4962.8213708494	0.4780488312
4964.7501782224	0.5212225914
4966.6789855955	0.5215553641
4968.6077929685	0.4945135117
4970.5366003416	0.4629741907
4972.4654077146	0.4567557573
4974.3942150877	0.4574606717
4976.3230224607	0.5018196702
4978.2518298338	0.4675970078
4980.1806372068	0.4460819662
4982.1094445799	0.4777894616
4984.0382519529	0.4784898162
4985.9670593259	0.5141156316
4987.8958666990	0.5290064812
4989.8246740720	0.5443984270
4991.7534814451	0.4903851151
4993.6822888181	0.4681733549
4995.6110961912	0.4991537035
4997.5399035642	0.4707092941
4999.4687109373	0.5014128685
5001.3975183103	0.5022332072
5003.3263256834	0.4975594580
5005.2551330564	0.5003792048
5007.1839404295	0.5120960474
5009.1127478025	0.5339304805
5011.0415551756	0.4617314637
5012.9703625486	0.4864619970
5014.8991699217	0.5074146986
5016.8279772947	0.4836008847
5018.7567846677	0.4976387322
5020.6855920408	0.4677035809
5022.6143994138	0.4830043912
5024.5432067869	0.4988298714
5026.4720141599	0.4965352416
5028.4008215330	0.4810420573
5030.3296289060	0.4760378599
5032.2584362791	0.4864011407
5034.1872436521	0.4781304598
5036.1160510252	0.5169336200
5038.0448583982	0.5084738135
5039.9736657713	0.4823180437
5041.9024731443	0.4703533947
5043.8312805174	0.4641469121
5045.7600878904	0.4873257875
5047.6888952634	0.4675529599
5049.6177026365	0.4874054790
5051.5465100095	0.5220326781
5053.4753173826	0.4792458117
5055.4041247556	0.4726161361
5057.3329321287	0.5053560138
5059.2617395017	0.4912946224
5061.1905468748	0.4944204986
5063.1193542478	0.5121743679
5065.0481616209	0.4915728867
5066.9769689939	0.4885713458
5068.9057763670	0.4926110506
5070.8345837400	0.4891012013
5072.7633911131	0.4793218076
5074.6921984861	0.4957864285
5076.6210058591	0.4707882702
5078.5498132322	0.4393686354
5080.4786206052	0.5044029355
5082.4074279783	0.4839747548
5084.3362353513	0.4560487270
5086.2650427244	0.4719040990
5088.1938500974	0.4444228709
5090.1226574705	0.4421196878
5092.0514648435	0.4384411871
5093.9802722166	0.4680109322
5095.9090795896	0.4669115543
5097.8378869627	0.4741384983
5099.7666943357	0.5013484955
5101.6955017088	0.4614243507
5103.6243090818	0.4682283103
5105.5531164548	0.4559703171
5107.4819238279	0.4665268362
5109.4107312009	0.5176999569
5111.3395385740	0.5033870935
5113.2683459470	0.4821981192
5115.1971533201	0.4894538820
5117.1259606931	0.5210534334
5119.0547680662	0.4967057407
5120.9835754392	0.4645700753
5122.9123828123	0.4795261919
5124.8411901853	0.4827833772
5126.7699975584	0.4638915956
5128.6988049314	0.4494533837
5130.6276123045	0.4862439930
5132.5564196775	0.4897722006
5134.4852270506	0.4828296006
5136.4140344236	0.4773685634
5138.3428417966	0.4942577481
5140.2716491697	0.5073747039
5142.2004565427	0.4238845408
5144.1292639158	0.4661161005
5146.0580712888	0.4964731336
5147.9868786619	0.4466975927
5149.9156860349	0.4864074588
5151.8444934080	0.4487522840
5153.7733007810	0.4833324552
5155.7021081541	0.5107856393
5157.6309155271	0.4108771980
5159.5597229002	0.4550755918
5161.4885302732	0.4750078619
5163.4173376463	0.4100984931
5165.3461450193	0.4313116372
5167.2749523923	0.4776879549
5169.2037597654	0.4830166996
5171.1325671384	0.4374054670
5173.0613745115	0.4216918647
5174.9901818845	0.4506055117
5176.9189892576	0.4617795646
5178.8477966306	0.4883001745
5180.7766040037	0.4780129194
5182.7054113767	0.4564584792
5184.6342187498	0.4783007503
5186.5630261228	0.4787921607
5188.4918334959	0.4607869983
5190.4206408689	0.4662143588
5192.3494482420	0.5061832666
5194.2782556150	0.4790762365
5196.2070629880	0.4660114050
5198.1358703611	0.4906974435
5200.0646777341	0.4402659237
5201.9934851072	0.4664352834
5203.9222924802	0.4915461540
5205.8510998533	0.4897733927
5207.7799072263	0.4953804910
5209.7087145994	0.4523004591
5211.6375219724	0.4857981503
5213.5663293455	0.4774908423
5215.4951367185	0.4680140018
5217.4239440916	0.4975360334
5219.3527514646	0.4487795234
5221.2815588377	0.4443198144
5223.2103662107	0.4783289433
5225.1391735837	0.4943793714
5227.0679809568	0.4613332152
5228.9967883298	0.4658915102
5230.9255957029	0.4851131141
5232.8544030759	0.4538476169
5234.7832104490	0.4487878978
5236.7120178220	0.4168300033
5238.6408251951	0.4462745190
5240.5696325681	0.5138514042
5242.4984399412	0.5188636780
5244.4272473142	0.5067725182
5246.3560546873	0.4561820924
5248.2848620603	0.4592480361
5250.2136694334	0.4912058711
5252.1424768064	0.4812330604
5254.0712841795	0.4639050663
5256.0000915525	0.4820356071
5257.9288989255	0.4923418760
5259.8577062986	0.4270803630
5261.7865136716	0.4493720829
5263.7153210447	0.4769479036
5265.6441284177	0.4484505057
5267.5729357908	0.5101966858
5269.5017431638	0.4612403810
5271.4305505369	0.3907091916
5273.3593579099	0.4709663689
5275.2881652830	0.4302968085
5277.2169726560	0.4227957129
5279.1457800291	0.5215565562
5281.0745874021	0.4641955793
5283.0033947752	0.4458158314
5284.9322021482	0.4717440009
5286.8610095212	0.4366336763
5288.7898168943	0.4694690108
5290.7186242673	0.4206326604
5292.6474316404	0.3714886904
5294.5762390134	0.4496420920
5296.5050463865	0.4304176569
5298.4338537595	0.4006298482
5300.3626611326	0.4585814476
5302.2914685056	0.4525775909
5304.2202758787	0.4559632838
5306.1490832517	0.4865844250
5308.0778906248	0.4457768500
5310.0066979978	0.4393344820
5311.9355053709	0.4321388304
5313.8643127439	0.4418539703
5315.7931201169	0.4927054346
5317.7219274900	0.4596465826
5319.6507348630	0.4538580775
5321.5795422361	0.4644819498
5323.5083496091	0.4865511358
5325.4371569822	0.5082382560
5327.3659643552	0.4216382802
5329.2947717283	0.4324596226
5331.2235791013	0.4401516020
5333.1523864744	0.4659534991
5335.0811938474	0.6063339710
5337.0100012205	0.4830655158
5338.9388085935	0.4447304308
5340.8676159666	0.5294358730
5342.7964233396	0.4680846632
5344.7252307126	0.4759516120
5346.6540380857	0.4498012662
5348.5828454587	0.4545460045
5350.5116528318	0.4911643267
5352.4404602048	0.4697253108
5354.3692675779	0.4707997143
5356.2980749509	0.4787212610
5358.2268823240	0.4553804398
5360.1556896970	0.4096120596
5362.0844970701	0.4668316543
5364.0133044431	0.4600123167
5365.9421118162	0.4501388967
5367.8709191892	0.5092018247
5369.7997265623	0.4342248738
5371.7285339353	0.4218956530
5373.6573413083	0.4401299059
5375.5861486814	0.4778850973
5377.5149560544	0.4945982695
5379.4437634275	0.4368592501
5381.3725708005	0.4550008476
5383.3013781736	0.4970277250
5385.2301855466	0.5349407196
5387.1589929197	0.4510078728
5389.0878002927	0.4181488454
5391.0166076658	0.4171406925
5392.9454150388	0.4107939899
5394.8742224119	0.4896309972
5396.8030297849	0.4411849082
5398.7318371580	0.4534406364
5400.6606445310	0.4636848569
5402.5894519041	0.4371717572
5404.5182592771	0.4507522583
5406.4470666501	0.4299350083
5408.3758740232	0.4894455075
5410.3046813962	0.4979908764
5412.2334887693	0.4681427479
5414.1622961423	0.4704246521
5416.0911035154	0.4825592935
5418.0199108884	0.4193178117
5419.9487182615	0.4137839973
5421.8775256345	0.4735096395
5423.8063330076	0.3598113954
5425.7351403806	0.4471008778
5427.6639477537	0.5091855526
5429.5927551267	0.4132740200
5431.5215624998	0.4696715474
5433.4503698728	0.3877591193
5435.3791772458	0.3787412047
5437.3079846189	0.4316383004
5439.2367919919	0.4043387175
5441.1655993650	0.5133647323
5443.0944067380	0.5242713094
5445.0232141111	0.3757821321
5446.9520214841	0.3909508884
5448.8808288572	0.4354863167
5450.8096362302	0.3917636573
5452.7384436033	0.4063334167
5454.6672509763	0.4050907791
5456.5960583494	0.4873201251
5458.5248657224	0.4681060016
5460.4536730955	0.4146156311
5462.3824804685	0.5414637327
5464.3112878415	0.4628297985
5466.2400952146	0.4348831773
5468.1689025876	0.4929486215
5470.0977099607	0.4172053039
5472.0265173337	0.4659511149
5473.9553247068	0.4305738211
5475.8841320798	0.3626342714
5477.8129394529	0.4256849885
5479.7417468259	0.4352902770
5481.6705541990	0.4379079044
5483.5993615720	0.4567196667
5485.5281689451	0.4259358048
5487.4569763181	0.4252761900
5489.3857836912	0.4090495706
5491.3145910642	0.4011175931
5493.2433984372	0.3981975019
5495.1722058103	0.4267370403
5497.1010131833	0.4888964593
5499.0298205564	0.4466837943
5500.9586279294	0.4539528787
5502.8874353025	0.4583130777
5504.8162426755	0.4763408601
5506.7450500486	0.5267883539
5508.6738574216	0.4489998817
5510.6026647947	0.4641071558
5512.5314721677	0.4464848936
5514.4602795408	0.3943188488
5516.3890869138	0.4083465636
5518.3178942869	0.4067198038
5520.2467016599	0.4205954671
5522.1755090330	0.3952720463
5524.1043164060	0.4836018980
5526.0331237790	0.4713578224
5527.9619311521	0.3833142221
5529.8907385251	0.4736581445
5531.8195458982	0.4861635566
5533.7483532712	0.4678653479
5535.6771606443	0.4832847416
5537.6059680173	0.4266205728
5539.5347753904	0.3949160278
5541.4635827634	0.4850707650
5543.3923901365	0.5285169482
5545.3211975095	0.4714502692
5547.2500048826	0.4602283239
5549.1788122556	0.4549057186
5551.1076196287	0.4268029928
5553.0364270017	0.4706659317
5554.9652343747	0.4931340814
5556.8940417478	0.4210087359
5558.8228491208	0.4398931265
5560.7516564939	0.4583279490
5562.6804638669	0.4357974231
5564.6092712400	0.4407919347
5566.5380786130	0.4275940955
5568.4668859861	0.4937222898
5570.3956933591	0.4651704431
5572.3245007322	0.4595553875
5574.2533081052	0.4924559593
5576.1821154783	0.4617299736
5578.1109228513	0.4624763131
5580.0397302244	0.3857201338
5581.9685375974	0.4846675098
5583.8973449704	0.5468691587
5585.8261523435	0.4607278109
5587.7549597165	0.4719712138
5589.6837670896	0.4281947613
5591.6125744626	0.4199118018
5593.5413818357	0.4501023591
5595.4701892087	0.5087427497
5597.3989965818	0.5011358857
5599.3278039548	0.4516674280
5601.2566113279	0.4499968290
5603.1854187009	0.4621452391
5605.1142260740	0.5099846721
5607.0430334470	0.4631424844
5608.9718408201	0.4863286316
5610.9006481931	0.5179093480
5612.8294555661	0.4330982566
5614.7582629392	0.4252037108
5616.6870703122	0.4806468487
5618.6158776853	0.5409817100
5620.5446850583	0.4945215583
5622.4734924314	0.4985527396
5624.4022998044	0.4832889140
5626.3311071775	0.4029748142
5628.2599145505	0.4075950384
5630.1887219236	0.3709855378
5632.1175292966	0.4226091504
5634.0463366697	0.5065961480
5635.9751440427	0.4562590122
5637.9039514158	0.4376622736
5639.8327587888	0.4926085770
5641.7615661619	0.4674382508
5643.6903735349	0.3903695345
5645.6191809079	0.4455049336
5647.5479882810	0.4566368759
5649.4767956540	0.4492889941
5651.4056030271	0.4683944583
5653.3344104001	0.4545245171
5655.2632177732	0.4918633103
5657.1920251462	0.4684711397
5659.1208325193	0.4489294291
5661.0496398923	0.4653337002
5662.9784472654	0.4979048073
5664.9072546384	0.4901747108
5666.8360620115	0.4495576620
5668.7648693845	0.4861541092
5670.6936767576	0.4743514657
5672.6224841306	0.4754406214
5674.5512915036	0.5008311272
5676.4800988767	0.4746606946
5678.4089062497	0.4440377951
5680.3377136228	0.3906499445
5682.2665209958	0.4283408225
5684.1953283689	0.5295420885
5686.1241357419	0.5017033815
5688.0529431150	0.4124235809
5689.9817504880	0.3980621099
5691.9105578611	0.3704819083
5693.8393652341	0.4078887105
5695.7681726072	0.5587413311
5697.6969799802	0.5387066603
5699.6257873533	0.4451632500
5701.5545947263	0.4444365203
5703.4834020993	0.4713780284
5705.4122094724	0.4481935501
5707.3410168454	0.3826353550
5709.2698242185	0.4051130712
5711.1986315915	0.4260461032
5713.1274389646	0.4447978735
5715.0562463376	0.5016048551
5716.9850537107	0.4959512353
5718.9138610837	0.4019962847
5720.8426684568	0.4036761224
5722.7714758298	0.4329003394
5724.7002832029	0.3832139373
5726.6290905759	0.4804923832
5728.5578979490	0.4511236250
5730.4867053220	0.3758053184
5732.4155126950	0.5188999176
5734.3443200681	0.5434332490
5736.2731274411	0.4951364398
5738.2019348142	0.4815422595
5740.1307421872	0.4359550476
5742.0595495603	0.4051395655
5743.9883569333	0.4743244052
5745.9171643064	0.5029066801
5747.8459716794	0.4029727876
5749.7747790525	0.3759292066
5751.7035864255	0.4016322196
5753.6323937986	0.4989601374
5755.5612011716	0.5024936795
5757.4900085447	0.4057956040
5759.4188159177	0.3580820858
5761.3476232907	0.3303087652
5763.2764306638	0.4332886934
5765.2052380368	0.5216360688
5767.1340454099	0.5349478722
5769.0628527829	0.4697101116
5770.9916601560	0.4027263224
5772.9204675290	0.3860142231
5774.8492749021	0.3858898580
5776.7780822751	0.5447448492
5778.7068896482	0.4738349020
5780.6356970212	0.4153796136
5782.5645043943	0.5355392098
5784.4933117673	0.5453746915
5786.4221191404	0.4893674850
5788.3509265134	0.4452730417
5790.2797338865	0.4978944659
5792.2085412595	0.4615527391
5794.1373486325	0.4050322473
5796.0661560056	0.4470342696
5797.9949633786	0.4943368435
5799.9237707517	0.4495249391
5801.8525781247	0.4276518524
5803.7813854978	0.4579861164
5805.7101928708	0.2851141989
5807.6390002439	0.4238788784
5809.5678076169	0.6263638735
5811.4966149900	0.4428212643
5813.4254223630	0.4263782799
5815.3542297361	0.4147050977
5817.2830371091	0.4794391096
5819.2118444822	0.4804906547
5821.1406518552	0.4288012981
5823.0694592282	0.4720279872
5824.9982666013	0.3591366410
5826.9270739743	0.4491005838
5828.8558813474	0.4946654439
5830.7846887204	0.3633536398
5832.7134960935	0.3337219357
5834.6423034665	0.3800701797
5836.5711108396	0.4349199831
5838.4999182126	0.3523265719
5840.4287255857	0.4411457181
5842.3575329587	0.5527489185
5844.2863403318	0.3437468112
5846.2151477048	0.3030252755
5848.1439550779	0.4674277008
5850.0727624509	0.4809706807
5852.0015698239	0.4090058506
5853.9303771970	0.4650455117
5855.8591845700	0.5390669703
5857.7879919431	0.4265666902
5859.7167993161	0.4934575260
5861.6456066892	0.5677958727
5863.5744140622	0.4288526475
5865.5032214353	0.4142791331
5867.4320288083	0.3866616488
5869.3608361814	0.4431301951
5871.2896435544	0.5331110954
5873.2184509275	0.4550916553
5875.1472583005	0.4748945534
5877.0760656736	0.4971496463
5879.0048730466	0.4891348481
5880.9336804196	0.4791751802
5882.8624877927	0.4785664678
5884.7912951657	0.4578503370
5886.7201025388	0.5184785128
5888.6489099118	0.5202648044
5890.5777172849	0.3559375405
5892.5065246579	0.4578830004
5894.4353320310	0.4085010588
5896.3641394040	0.3330307305
5898.2929467771	0.4694980979
5900.2217541501	0.4125216901
5902.1505615232	0.4477525055
5904.0793688962	0.4201903343
5906.0081762693	0.3509916961
5907.9369836423	0.3733040988
5909.8657910154	0.3846176863
5911.7945983884	0.5210920572
5913.7234057614	0.4629897475
5915.6522131345	0.4681105912
5917.5810205075	0.4870772362
5919.5098278806	0.3771873116
5921.4386352536	0.5210810304
5923.3674426267	0.4821885824
5925.2962499997	0.3435041308
5927.2250573728	0.4382725954
5929.1538647458	0.3533571959
5931.0826721189	0.3246771395
5933.0114794919	0.4131757021
5934.9402868650	0.4393341243
5936.8690942380	0.4856376648
5938.7979016111	0.4241800010
5940.7267089841	0.3499682546
5942.6555163571	0.2987343669
5944.5843237302	0.4013887644
5946.5131311032	0.5068598986
5948.4419384763	0.3819919825
5950.3707458493	0.3064588308
5952.2995532224	0.2633895278
5954.2283605954	0.4958135486
5956.1571679685	0.5152539015
5958.0859753415	0.3584514558
5960.0147827146	0.6946322322
5961.9435900876	0.5309197903
5963.8723974607	0.3507262468
5965.8012048337	0.3992649615
5967.7300122068	0.2838112414
5969.6588195798	0.4323347211
5971.5876269528	0.3929990828
5973.5164343259	0.4169867933
5975.4452416989	0.5536040068
5977.3740490720	0.4193324447
5979.3028564450	0.3786209822
5981.2316638181	0.4248938859
5983.1604711911	0.2944828868
5985.0892785642	0.3811190426
5987.0180859372	0.4784848392
5988.9468933103	0.2219341248
5990.8757006833	0.4543559551
5992.8045080564	0.4563136995
5994.7333154294	0.2012947351
5996.6621228025	0.3809278607
5998.5909301755	0.3039729893
6000.5197375485	0.3530696929
