399.2631262207	0.5795851350
401.1919335938	0.2787415385
403.1207409668	0.5523662567
405.0495483398	0.3754140437
406.9783557129	0.3056175113
408.9071630859	0.5652727485
410.8359704590	0.4707719684
412.7647778320	0.4819463491
414.6935852051	0.4182886779
416.6223925781	0.4052159488
418.5511999512	0.4925722182
420.4800073242	0.3866120577
422.4088146973	0.2537002563
424.3376220703	0.2828633785
426.2664294434	0.4674502909
428.1952368164	0.4397389293
430.1240441895	0.3669857979
432.0528515625	0.4466239214
433.9816589355	0.3008116782
435.9104663086	0.2490276247
437.8392736816	0.4916967154
439.7680810547	0.4484575689
441.6968884277	0.3239064217
443.6256958008	0.4265964925
445.5545031738	0.4615952671
447.4833105469	0.3955874145
449.4121179199	0.4353292286
451.3409252930	0.4670295119
453.2697326660	0.3359780610
455.1985400391	0.3781995177
457.1273474121	0.4968859553
459.0561547852	0.3778714836
460.9849621582	0.3899860084
462.9137695313	0.5502787828
464.8425769043	0.3179458380
466.7713842773	0.1988917738
468.7001916504	0.3871224225
470.6289990234	0.4713540077
472.5578063965	0.6259083748
474.4866137695	0.3667581975
476.4154211426	0.2331140041
478.3442285156	0.5172634721
480.2730358887	0.5479567051
482.2018432617	0.5570600033
484.1306506348	0.6541901827
486.0594580078	0.7805585861
487.9882653809	3.3241219521
489.9170727539	2.7478718758
491.8458801270	0.4938937128
493.7746875000	0.6006700397
495.7034948730	0.4667014182
497.6323022461	0.2398076057
499.5611096191	1.0227298737
501.4899169922	0.6909786463
503.4187243652	1.0467530489
505.3475317383	0.4713605642
507.2763391113	0.5269668102
509.2051464844	0.4371424913
511.1339538574	0.1033260822
513.0627612305	1.4140533209
514.9915686035	0.7783016562
516.9203759766	4.2615165710
518.8491833496	22.1303119659
520.7779907227	0.9494268298
522.7067980957	1.2591824532
524.6356054688	0.2588080466
526.5644128418	0.9831221104
528.4932202148	0.8957729936
530.4220275879	0.7110869884
532.3508349609	1.0336627960
534.2796423340	-1.9544656277
536.2084497070	2.1675765514
538.1372570801	0.6658886075
540.0660644531	1.0669091940
541.9948718262	0.5982975364
543.9236791992	0.2060556412
545.8524865723	1.6436692476
547.7812939453	1.1024708748
549.7101013184	0.3496151865
551.6389086914	2.2680819035
553.5677160645	1.6675558090
555.4965234375	0.5200972557
557.4253308105	1.0697565079
559.3541381836	1.2040849924
561.2829455566	0.7808530331
563.2117529297	0.5514937043
565.1405603027	0.0409550257
567.0693676758	1.1330136061
568.9981750488	0.7953074574
570.9269824219	0.5183629394
572.8557897949	0.8915446401
574.7845971680	1.7935119867
576.7134045410	4.8357310295
578.6422119141	-0.0621561296
580.5710192871	0.2968974113
582.4998266602	1.3949507475
584.4286340332	-0.1112917364
586.3574414063	1.7059364319
588.2862487793	1.2128782272
590.2150561523	0.6444466114
592.1438635254	0.3181992769
594.0726708984	0.0889541507
596.0014782715	-14.5041913986
597.9302856445	1.6121319532
599.8590930176	4.2875962257
601.7879003906	0.8403985500
603.7167077637	1.2366743088
605.6455151367	0.8609331250
607.5743225098	1.3725179434
609.5031298828	0.2856989801
611.4319372559	0.0088655865
613.3607446289	8.7708425522
615.2895520020	0.9937578440
617.2183593750	0.6836563349
619.1471667480	3.0997562408
621.0759741211	-5.3189020157
623.0047814941	-0.5399188995
624.9335888672	1.0331671238
626.8623962402	1.4292901754
628.7912036133	3.7661693096
630.7200109863	0.8769218922
632.6488183594	0.5055268407
634.5776257324	0.5485653877
636.5064331055	0.3651804924
638.4352404785	0.4666552246
640.3640478516	0.6565274000
642.2928552246	0.4136149883
644.2216625977	0.6296259165
646.1504699707	0.6028401256
648.0792773438	0.4087265134
650.0080847168	0.5426629782
651.9368920898	0.4928905964
653.8656994629	0.4972127080
655.7945068359	0.5625393987
657.7233142090	0.4929310679
659.6521215820	0.6030132174
661.5809289551	0.5190028548
663.5097363281	0.4604333341
665.4385437012	0.5313913226
667.3673510742	0.4915176332
669.2961584473	0.5935346484
671.2249658203	0.5597751737
673.1537731934	0.5363177657
675.0825805664	0.5302322507
677.0113879395	0.4717072845
678.9401953125	0.5995678306
680.8690026855	0.5730049610
682.7978100586	0.5123837590
684.7266174316	0.5787573457
686.6554248047	0.5591398478
688.5842321777	0.5216466188
690.5130395508	0.5060028434
692.4418469238	0.5071806908
694.3706542969	0.5490026474
696.2994616699	0.5931019783
698.2282690430	0.5740165114
700.1570764160	0.5642034411
702.0858837891	0.5603749752
704.0146911621	0.5376139879
705.9434985352	0.5489675999
707.8723059082	0.5961357355
709.8011132813	0.5948932767
711.7299206543	0.5796135664
713.6587280273	0.7094064951
715.5875354004	0.6161249876
717.5163427734	0.7374637723
719.4451501465	1.1794521809
721.3739575195	0.2818247378
723.3027648926	1.9656715393
725.2315722656	3.0145914555
727.1603796387	-0.5788473487
729.0891870117	0.4315921366
731.0179943848	0.7954823971
732.9468017578	-0.3931392729
734.8756091309	1.7496993542
736.8044165039	-3.6251645088
738.7332238770	1.0771707296
740.6620312500	0.6819206476
742.5908386230	4.1320972443
744.5196459961	3.3362402916
746.4484533691	0.8223571777
748.3772607422	0.9431582093
750.3060681152	1.3014640808
752.2348754883	1.8134645224
754.1636828613	1.2636976242
756.0924902344	0.3306897581
758.0212976074	0.4017719626
759.9501049805	1.2322120667
761.8789123535	1.4102166891
763.8077197266	0.8653259277
765.7365270996	0.3933763206
767.6653344727	1.0420942307
769.5941418457	1.1869590282
771.5229492188	0.5208964944
773.4517565918	0.5746358037
775.3805639648	1.3523107767
777.3093713379	0.5340545774
779.2381787109	0.8675188422
781.1669860840	0.9582696557
783.0957934570	0.5944828391
785.0246008301	1.0110768080
786.9534082031	0.5942562819
788.8822155762	0.7396866679
790.8110229492	1.1340904236
792.7398303223	1.2570751905
794.6686376953	0.7041410804
796.5974450684	0.6285319924
798.5262524414	0.9087898731
800.4550598145	0.6981232166
802.3838671875	1.1178129911
804.3126745605	0.7047719359
806.2414819336	0.6452309489
808.1702893066	1.6084661484
810.0990966797	0.4605217576
812.0279040527	1.2480118275
813.9567114258	1.3955887556
815.8855187988	0.7505399585
817.8143261719	1.0899703503
819.7431335449	0.3303147256
821.6719409180	1.7283298969
823.6007482910	0.9378895164
825.5295556641	0.2502803504
827.4583630371	0.8277947307
829.3871704102	0.7507709861
831.3159777832	0.7641506195
833.2447851563	0.8428767920
835.1735925293	0.7117720246
837.1023999023	0.7024875283
839.0312072754	0.6988816261
840.9600146484	0.7170533538
842.8888220215	0.8125346303
844.8176293945	0.7961027622
846.7464367676	0.7904897928
848.6752441406	0.7687569261
850.6040515137	0.8244515061
852.5328588867	0.9219478965
854.4616662598	0.7985915542
856.3904736328	1.0948809385
858.3192810059	1.0688650608
860.2480883789	0.6611589789
862.1768957520	1.0543359518
864.1057031250	0.7212576270
866.0345104980	0.6969046593
867.9633178711	1.3854206800
869.8921252441	0.7502490878
871.8209326172	0.5675574541
873.7497399902	0.8005976677
875.6785473633	0.5683363080
877.6073547363	0.5381907225
879.5361621094	1.1957749128
881.4649694824	1.2196335793
883.3937768555	0.6692657471
885.3225842285	0.8888463974
887.2513916016	0.5938448906
889.1801989746	0.9304559827
891.1090063477	1.7372927666
893.0378137207	1.0764124393
894.9666210938	0.6987885833
896.8954284668	0.7873753905
898.8242358398	0.8638100028
900.7530432129	0.6812266111
902.6818505859	0.8584071994
904.6106579590	0.7095896602
906.5394653320	0.5979582071
908.4682727051	0.5634439588
910.3970800781	0.8066968918
912.3258874512	1.0693440437
914.2546948242	0.8824942112
916.1835021973	1.0024621487
918.1123095703	1.0667445660
920.0411169434	0.9211237431
921.9699243164	0.9183788896
923.8987316895	0.8080674410
925.8275390625	0.7978236079
927.7563464355	0.9035037160
929.6851538086	0.9688507915
931.6139611816	0.9591307640
933.5427685547	1.0704787970
935.4715759277	1.0752496719
937.4003833008	0.9193512201
939.3291906738	0.9271822572
941.2579980469	0.8840646744
943.1868054199	0.8704799414
945.1156127930	0.8805195093
947.0444201660	0.8807566166
948.9732275391	0.9570757151
950.9020349121	0.8701230884
952.8308422852	0.8190150261
954.7596496582	0.9396685362
956.6884570313	0.9236584306
958.6172644043	0.9284300208
960.5460717773	1.0436056852
962.4748791504	1.0268090963
964.4036865234	1.0505956411
966.3324938965	1.0217496157
968.2613012695	1.0066010952
970.1901086426	1.0366736650
972.1189160156	0.9859946966
974.0477233887	1.0074425936
975.9765307617	0.9628030658
977.9053381348	0.9101323485
979.8341455078	0.9186648130
981.7629528809	0.9300060868
983.6917602539	0.9494718909
985.6205676270	0.9586387873
987.5493750000	0.9694929123
989.4781823730	0.9803701043
991.4069897461	0.9757028818
993.3357971191	0.9606092572
995.2646044922	0.9680548310
997.1934118652	0.9603185654
999.1222192383	0.9635875821
1001.0510266113	0.9535261989
1002.9798339844	0.9346758127
1004.9086413574	0.9532660246
1006.8374487305	0.9470282197
1008.7662561035	0.9681978226
1010.6950634766	0.9635918736
1012.6238708496	0.9484158158
1014.5526782227	0.9674293399
1016.4814855957	0.9408875108
1018.4102929688	0.9420821071
1020.3391003418	0.9522107244
1022.2679077148	0.9544857144
1024.1967150879	0.9597628713
1026.1255224609	0.9584242105
1028.0543298340	0.9630761743
1029.9831372070	0.9541313648
1031.9119445801	0.9658585191
1033.8407519531	0.9605653882
1035.7695593262	0.9542862177
1037.6983666992	0.9654309750
1039.6271740723	0.9552569985
1041.5559814453	0.9609944820
1043.4847888184	0.9636764526
1045.4135961914	0.9588788152
1047.3424035645	0.9662631154
1049.2712109375	0.9720544815
1051.2000183105	0.9656590819
1053.1288256836	0.9620490670
1055.0576330566	0.9613416791
1056.9864404297	0.9613435268
1058.9152478027	0.9699022174
1060.8440551758	0.9615575075
1062.7728625488	0.9688252211
1064.7016699219	0.9648524523
1066.6304772949	0.9506343603
1068.5592846680	0.9583030343
1070.4880920410	0.9484875798
1072.4168994141	0.9581872821
1074.3457067871	0.9681733251
1076.2745141602	0.9659085870
1078.2033215332	0.9564542174
1080.1321289062	0.9496845603
1082.0609362793	0.9610140324
1083.9897436523	0.9510249496
1085.9185510254	0.9563052654
1087.8473583984	0.9537138939
1089.7761657715	0.9461644888
1091.7049731445	0.9728080034
1093.6337805176	0.9932349920
1095.5625878906	0.9682919383
1097.4913952637	0.9356712103
1099.4202026367	0.9650183916
1101.3490100098	0.9820758700
1103.2778173828	0.9669899940
1105.2066247559	0.9708635807
1107.1354321289	0.9575928450
1109.0642395019	0.9453720450
1110.9930468750	0.9522979259
1112.9218542480	0.9463591576
1114.8506616211	0.9594389200
1116.7794689941	0.9708898067
1118.7082763672	0.9577263594
1120.6370837402	0.9453887939
1122.5658911133	0.9364788532
1124.4946984863	0.9741185308
1126.4235058594	0.9696883559
1128.3523132324	0.9409276247
1130.2811206055	0.9616699219
1132.2099279785	0.9540902972
1134.1387353516	0.9640613198
1136.0675427246	0.9659637213
1137.9963500977	0.9479957819
1139.9251574707	0.9670152068
1141.8539648437	0.9561957717
1143.7827722168	0.9462387562
1145.7115795898	0.9776651859
1147.6403869629	0.9667411447
1149.5691943359	0.9613404870
1151.4980017090	0.9818379879
1153.4268090820	0.9517740011
1155.3556164551	0.9521268010
1157.2844238281	0.9690834880
1159.2132312012	0.9590653181
1161.1420385742	0.9609957933
1163.0708459473	0.9603742957
1164.9996533203	0.9750831127
1166.9284606934	0.9765664935
1168.8572680664	0.9591338634
1170.7860754394	0.9602832198
1172.7148828125	0.9653935432
1174.6436901855	0.9666546583
1176.5724975586	0.9674919248
1178.5013049316	0.9708343148
1180.4301123047	0.9706609845
1182.3589196777	0.9695768356
1184.2877270508	0.9682343602
1186.2165344238	0.9646566510
1188.1453417969	0.9622951746
1190.0741491699	0.9673203230
1192.0029565430	0.9695201516
1193.9317639160	0.9634006619
1195.8605712891	0.9646709561
1197.7893786621	0.9615358710
1199.7181860351	0.9605441093
1201.6469934082	0.9660175443
1203.5758007812	0.9672477245
1205.5046081543	0.9681142569
1207.4334155273	0.9635869265
1209.3622229004	0.9636195302
1211.2910302734	0.9670706987
1213.2198376465	0.9636746645
1215.1486450195	0.9604885578
1217.0774523926	0.9604801536
1219.0062597656	0.9631012678
1220.9350671387	0.9644403458
1222.8638745117	0.9616512060
1224.7926818848	0.9629490376
1226.7214892578	0.9660300016
1228.6502966308	0.9615133405
1230.5791040039	0.9615830183
1232.5079113769	0.9649254084
1234.4367187500	0.9644517899
1236.3655261230	0.9640672803
1238.2943334961	0.9612405896
1240.2231408691	0.9629372358
1242.1519482422	0.9657552838
1244.0807556152	0.9656119943
1246.0095629883	0.9657146931
1247.9383703613	0.9624170661
1249.8671777344	0.9613499641
1251.7959851074	0.9649094343
1253.7247924805	0.9676794410
1255.6535998535	0.9667082429
1257.5824072266	0.9622573256
1259.5112145996	0.9634075761
1261.4400219726	0.9686530828
1263.3688293457	0.9647582173
1265.2976367187	0.9630260468
1267.2264440918	0.9667615294
1269.1552514648	0.9665774107
1271.0840588379	0.9644861817
1273.0128662109	0.9631686807
1274.9416735840	0.9668572545
1276.8704809570	0.9662489891
1278.7992883301	0.9654189348
1280.7280957031	0.9650889635
1282.6569030762	0.9638039470
1284.5857104492	0.9689165950
1286.5145178223	0.9667537808
1288.4433251953	0.9662460089
1290.3721325683	0.9708434343
1292.3009399414	0.9690400362
1294.2297473144	0.9652345181
1296.1585546875	0.9682979584
1298.0873620605	0.9666729569
1300.0161694336	0.9624983072
1301.9449768066	0.9704553485
1303.8737841797	0.9661262035
1305.8025915527	0.9680355787
1307.7313989258	0.9730843902
1309.6602062988	0.9632830024
1311.5890136719	0.9668738246
1313.5178210449	0.9680978060
1315.4466284180	0.9632335305
1317.3754357910	0.9648796916
1319.3042431640	0.9684959650
1321.2330505371	0.9672603607
1323.1618579101	0.9650852680
1325.0906652832	0.9678345323
1327.0194726562	0.9681768417
1328.9482800293	0.9668818116
1330.8770874023	0.9614997506
1332.8058947754	0.9593604207
1334.7347021484	0.9652366042
1336.6635095215	0.9664157033
1338.5923168945	0.9615848064
1340.5211242676	0.9649814963
1342.4499316406	0.9675627947
1344.3787390137	0.9642490149
1346.3075463867	0.9685419798
1348.2363537597	0.9656561017
1350.1651611328	0.9669250250
1352.0939685058	0.9701959491
1354.0227758789	0.9643614888
1355.9515832519	0.9695894718
1357.8803906250	0.9654176831
1359.8091979980	0.9618882537
1361.7380053711	0.9684434533
1363.6668127441	0.9669778347
1365.5956201172	0.9656805992
1367.5244274902	0.9620957375
1369.4532348633	0.9641804099
1371.3820422363	0.9686177969
1373.3108496094	0.9654718637
1375.2396569824	0.9637714624
1377.1684643555	0.9661810994
1379.0972717285	0.9661278725
1381.0260791015	0.9629272819
1382.9548864746	0.9647919536
1384.8836938476	0.9663287997
1386.8125012207	0.9657511115
1388.7413085937	0.9647967815
1390.6701159668	0.9658973217
1392.5989233398	0.9680834413
1394.5277307129	0.9630097151
1396.4565380859	0.9623234272
1398.3853454590	0.9629634023
1400.3141528320	0.9627196789
1402.2429602051	0.9659740925
1404.1717675781	0.9616159201
1406.1005749512	0.9643750191
1408.0293823242	0.9652606249
1409.9581896972	0.9583125710
1411.8869970703	0.9643051028
1413.8158044433	0.9639642835
1415.7446118164	0.9634345174
1417.6734191894	0.9655302167
1419.6022265625	0.9598435760
1421.5310339355	0.9649519324
1423.4598413086	0.9642646313
1425.3886486816	0.9613352418
1427.3174560547	0.9651254416
1429.2462634277	0.9652689099
1431.1750708008	0.9635149837
1433.1038781738	0.9612582922
1435.0326855469	0.9597896338
1436.9614929199	0.9551262259
1438.8903002929	0.9592251778
1440.8191076660	0.9620224237
1442.7479150390	0.9616646767
1444.6767224121	0.9662562013
1446.6055297851	0.9647754431
1448.5343371582	0.9666872621
1450.4631445312	0.9654384255
1452.3919519043	0.9591878057
1454.3207592773	0.9618738890
1456.2495666504	0.9625784755
1458.1783740234	0.9587249160
1460.1071813965	0.9622840881
1462.0359887695	0.9636262655
1463.9647961426	0.9608269334
1465.8936035156	0.9635811448
1467.8224108886	0.9643893242
1469.7512182617	0.9609490037
1471.6800256347	0.9567726254
1473.6088330078	0.9562594891
1475.5376403808	0.9598567486
1477.4664477539	0.9590076208
1479.3952551269	0.9578016400
1481.3240625000	0.9594553709
1483.2528698730	0.9584385753
1485.1816772461	0.9577833414
1487.1104846191	0.9582201838
1489.0392919922	0.9553568363
1490.9680993652	0.9561318159
1492.8969067383	0.9575954676
1494.8257141113	0.9540418983
1496.7545214843	0.9531561136
1498.6833288574	0.9539217949
1500.6121362304	0.9526782632
1502.5409436035	0.9538312554
1504.4697509765	0.9520171285
1506.3985583496	0.9460450411
1508.3273657226	0.9486643076
1510.2561730957	0.9485332966
1512.1849804687	0.9480597973
1514.1137878418	0.9497219324
1516.0425952148	0.9465703368
1517.9714025879	0.9483356476
1519.9002099609	0.9461622238
1521.8290173340	0.9428899884
1523.7578247070	0.9461983442
1525.6866320801	0.9441481829
1527.6154394531	0.9440100789
1529.5442468261	0.9438570142
1531.4730541992	0.9427443147
1533.4018615722	0.9399473667
1535.3306689453	0.9407289028
1537.2594763183	0.9414505959
1539.1882836914	0.9333791137
1541.1170910644	0.9344473481
1543.0458984375	0.9354998469
1544.9747058105	0.9355628490
1546.9035131836	0.9368828535
1548.8323205566	0.9336963296
1550.7611279297	0.9341362715
1552.6899353027	0.9300575256
1554.6187426758	0.9269478321
1556.5475500488	0.9270832539
1558.4763574218	0.9181644320
1560.4051647949	0.9198395610
1562.3339721679	0.9254800081
1564.2627795410	0.9230700731
1566.1915869140	0.9211853743
1568.1203942871	0.9191224575
1570.0492016601	0.9156290293
1571.9780090332	0.9136959910
1573.9068164062	0.9114783406
1575.8356237793	0.9083042741
1577.7644311523	0.9053261876
1579.6932385254	0.9055209160
1581.6220458984	0.9023864269
1583.5508532715	0.8969790936
1585.4796606445	0.8949924111
1587.4084680175	0.8918067813
1589.3372753906	0.8878080845
1591.2660827636	0.8827597499
1593.1948901367	0.8794658184
1595.1236975097	0.8755510449
1597.0525048828	0.8699023724
1598.9813122558	0.8646255136
1600.9101196289	0.8582099080
1602.8389270019	0.8510397673
1604.7677343750	0.8459032774
1606.6965417480	0.8422625661
1608.6253491211	0.8336983919
1610.5541564941	0.8280070424
1612.4829638672	0.8218180537
1614.4117712402	0.8135460615
1616.3405786132	0.8065995574
1618.2693859863	0.8004327416
1620.1981933593	0.7983180285
1622.1270007324	0.7908910513
1624.0558081054	0.7846277952
1625.9846154785	0.7816324234
1627.9134228515	0.7761112452
1629.8422302246	0.7731689215
1631.7710375976	0.7712506056
1633.6998449707	0.7695817351
1635.6286523437	0.7663902640
1637.5574597168	0.7658982277
1639.4862670898	0.7701663375
1641.4150744629	0.7724180818
1643.3438818359	0.7735880017
1645.2726892090	0.7761907578
1647.2014965820	0.7766670585
1649.1303039550	0.7832620740
1651.0591113281	0.7880584002
1652.9879187011	0.7869434357
1654.9167260742	0.7943683267
1656.8455334472	0.8025919795
1658.7743408203	0.8082597852
1660.7031481933	0.8121179342
1662.6319555664	0.8164728284
1664.5607629394	0.8218544722
1666.4895703125	0.8289964199
1668.4183776855	0.8332258463
1670.3471850586	0.8384504318
1672.2759924316	0.8461427689
1674.2047998047	0.8492211699
1676.1336071777	0.8563345671
1678.0624145507	0.8644149899
1679.9912219238	0.8702093959
1681.9200292968	0.8757622242
1683.8488366699	0.8780006170
1685.7776440429	0.8836480379
1687.7064514160	0.8934431076
1689.6352587890	0.8983792067
1691.5640661621	0.9040343761
1693.4928735351	0.9103770852
1695.4216809082	0.9105994701
1697.3504882812	0.9181519747
1699.2792956543	0.9225345254
1701.2081030273	0.9232120514
1703.1369104004	0.9326233268
1705.0657177734	0.9366420507
1706.9945251464	0.9399428368
1708.9233325195	0.9450631142
1710.8521398925	0.9501388669
1712.7809472656	0.9539178014
1714.7097546386	0.9561267495
1716.6385620117	0.9572505355
1718.5673693847	0.9581506252
1720.4961767578	0.9640635252
1722.4249841308	0.9673820138
1724.3537915039	0.9708558321
1726.2825988769	0.9742713571
1728.2114062500	0.9739764333
1730.1402136230	0.9776512384
1732.0690209961	0.9783135653
1733.9978283691	0.9738571048
1735.9266357421	0.9808251858
1737.8554431152	0.9851390123
1739.7842504882	0.9843639135
1741.7130578613	0.9867475033
1743.6418652343	0.9884834290
1745.5706726074	0.9901335835
1747.4994799804	0.9903385639
1749.4282873535	0.9921940565
1751.3570947265	0.9934715033
1753.2859020996	0.9941887259
1755.2147094726	0.9974784255
1757.1435168457	0.9960330129
1759.0723242187	0.9985765219
1761.0011315918	0.9994503856
1762.9299389648	0.9996644855
1764.8587463379	1.0039416552
1766.7875537109	1.0011202097
1768.7163610839	1.0021836758
1770.6451684570	1.0029400587
1772.5739758300	1.0017434359
1774.5027832031	1.0054118633
1776.4315905761	1.0051859617
1778.3603979492	1.0055738688
1780.2892053222	1.0074235201
1782.2180126953	1.0080318451
1784.1468200683	1.0066285133
1786.0756274414	1.0075483322
1788.0044348144	1.0092996359
1789.9332421875	1.0081808567
1791.8620495605	1.0079272985
1793.7908569336	1.0087740421
1795.7196643066	1.0110588074
1797.6484716796	1.0105149746
1799.5772790527	1.0096555948
1801.5060864257	1.0111340284
1803.4348937988	1.0115298033
1805.3637011718	1.0127044916
1807.2925085449	1.0126475096
1809.2213159179	1.0131859779
1811.1501232910	1.0140106678
1813.0789306640	1.0133311749
1815.0077380371	1.0138893127
1816.9365454101	1.0137345791
1818.8653527832	1.0133100748
1820.7941601562	1.0138956308
1822.7229675293	1.0137761831
1824.6517749023	1.0124355555
1826.5805822753	1.0127526522
1828.5093896484	1.0137178898
1830.4381970214	1.0133327246
1832.3670043945	1.0146551132
1834.2958117675	1.0148477554
1836.2246191406	1.0143462420
1838.1534265136	1.0162103176
1840.0822338867	1.0163868666
1842.0110412597	1.0142797232
1843.9398486328	1.0127590895
1845.8686560058	1.0154056549
1847.7974633789	1.0171250105
1849.7262707519	1.0164241791
1851.6550781250	1.0167098045
1853.5838854980	1.0151928663
1855.5126928710	1.0155196190
1857.4415002441	1.0161366463
1859.3703076171	1.0151563883
1861.2991149902	1.0159428120
1863.2279223632	1.0156987906
1865.1567297363	1.0175251961
1867.0855371093	1.0173530579
1869.0143444824	1.0147018433
1870.9431518554	1.0166940689
1872.8719592285	1.0165841579
1874.8007666015	1.0146335363
1876.7295739746	1.0157009363
1878.6583813476	1.0168869495
1880.5871887207	1.0170906782
1882.5159960937	1.0167167187
1884.4448034667	1.0157457590
1886.3736108398	1.0161137581
1888.3024182128	1.0155749321
1890.2312255859	1.0147377253
1892.1600329589	1.0162762403
1894.0888403320	1.0160641670
1896.0176477050	1.0162012577
1897.9464550781	1.0167911053
1899.8752624511	1.0153872967
1901.8040698242	1.0151700974
1903.7328771972	1.0156099796
1905.6616845703	1.0164415836
1907.5904919433	1.0167690516
1909.5192993164	1.0145107508
1911.4481066894	1.0143096447
1913.3769140625	1.0161036253
1915.3057214355	1.0158586502
1917.2345288085	1.0156502724
1919.1633361816	1.0146462917
1921.0921435546	1.0153409243
1923.0209509277	1.0163978338
1924.9497583007	1.0144530535
1926.8785656738	1.0148841143
1928.8073730468	1.0148001909
1930.7361804199	1.0144183636
1932.6649877929	1.0146231651
1934.5937951660	1.0136795044
1936.5226025390	1.0129206181
1938.4514099121	1.0132611990
1940.3802172851	1.0151269436
1942.3090246582	1.0139665604
1944.2378320312	1.0137964487
1946.1666394042	1.0135726929
1948.0954467773	1.0131769180
1950.0242541503	1.0151278973
1951.9530615234	1.0139187574
1953.8818688964	1.0138030052
1955.8106762695	1.0117611885
1957.7394836425	1.0117622614
1959.6682910156	1.0149587393
1961.5970983886	1.0128214359
1963.5259057617	1.0121628046
1965.4547131347	1.0112175941
1967.3835205078	1.0110964775
1969.3123278808	1.0128831863
1971.2411352539	1.0111422539
1973.1699426269	1.0105692148
1975.0987499999	1.0112620592
1977.0275573730	1.0109057426
1978.9563647460	1.0104483366
1980.8851721191	1.0103471279
1982.8139794921	1.0112838745
1984.7427868652	1.0115842819
1986.6715942382	1.0096668005
1988.6004016113	1.0092076063
1990.5292089843	1.0092653036
1992.4580163574	1.0085556507
1994.3868237304	1.0101224184
1996.3156311035	1.0093523264
1998.2444384765	1.0069026947
2000.1732458496	1.0075576305
2002.1020532226	1.0079128742
2004.0308605956	1.0063322783
2005.9596679687	1.0070821047
2007.8884753417	1.0086179972
2009.8172827148	1.0067391396
2011.7460900878	1.0057199001
2013.6748974609	1.0067774057
2015.6037048339	1.0068641901
2017.5325122070	1.0059466362
2019.4613195800	1.0061434507
2021.3901269531	1.0069533587
2023.3189343261	1.0051803589
2025.2477416992	1.0046765804
2027.1765490722	1.0063759089
2029.1053564453	1.0047733784
2031.0341638183	1.0035007000
2032.9629711914	1.0044825077
2034.8917785644	1.0037719011
2036.8205859374	1.0030541420
2038.7493933105	1.0030933619
2040.6782006835	1.0032817125
2042.6070080566	1.0020589828
2044.5358154296	1.0015823841
2046.4646228027	1.0032607317
2048.3934301757	1.0032486916
2050.3222375488	1.0030703545
2052.2510449218	1.0014830828
2054.1798522949	1.0012382269
2056.1086596679	1.0031621456
2058.0374670410	1.0020476580
2059.9662744140	0.9997637272
2061.8950817871	0.9997622371
2063.8238891601	1.0009101629
2065.7526965331	0.9981553555
2067.6815039062	0.9989611506
2069.6103112792	1.0009630919
2071.5391186523	0.9989415407
2073.4679260253	0.9991469383
2075.3967333984	0.9977983236
2077.3255407714	0.9983482957
2079.2543481445	0.9986228347
2081.1831555175	0.9983373284
2083.1119628906	0.9999502897
2085.0407702636	0.9980738759
2086.9695776367	0.9976457953
2088.8983850097	0.9977177382
2090.8271923828	0.9969971776
2092.7559997558	0.9975299835
2094.6848071288	0.9977646470
2096.6136145019	0.9969314933
2098.5424218749	0.9976686239
2100.4712292480	0.9970652461
2102.4000366210	0.9958851933
2104.3288439941	0.9981864691
2106.2576513671	0.9966325164
2108.1864587402	0.9958332777
2110.1152661132	0.9969389439
2112.0440734863	0.9994439483
2113.9728808593	0.9990707636
2115.9016882324	0.9962639809
2117.8304956054	0.9998574853
2119.7593029785	0.9963071942
2121.6881103515	0.9943591952
2123.6169177245	0.9965898395
2125.5457250976	0.9966763258
2127.4745324706	0.9982132316
2129.4033398437	0.9960905313
2131.3321472167	0.9983567595
2133.2609545898	0.9971115589
2135.1897619628	0.9948744178
2137.1185693359	0.9975571036
2139.0473767089	0.9965512156
2140.9761840820	0.9961465001
2142.9049914550	0.9976975322
2144.8337988281	0.9991384149
2146.7626062011	0.9965082407
2148.6914135742	0.9966608286
2150.6202209472	0.9971005917
2152.5490283203	0.9961156845
2154.4778356933	0.9979661703
2156.4066430663	0.9976692200
2158.3354504394	0.9979996681
2160.2642578124	0.9968248010
2162.1930651855	0.9980505109
2164.1218725585	0.9972900152
2166.0506799316	0.9961515069
2167.9794873046	0.9999538660
2169.9082946777	0.9981546402
2171.8371020507	0.9981531501
2173.7659094238	0.9997882247
2175.6947167968	0.9993670583
2177.6235241699	0.9991575480
2179.5523315429	0.9997804761
2181.4811389160	1.0002468824
2183.4099462890	0.9982661009
2185.3387536620	0.9995425344
2187.2675610351	1.0007319450
2189.1963684081	1.0013285875
2191.1251757812	1.0021051168
2193.0539831542	1.0002324581
2194.9827905273	1.0008875132
2196.9115979003	1.0030654669
2198.8404052734	1.0023581982
2200.7692126464	1.0032546520
2202.6980200195	1.0028845072
2204.6268273925	1.0010501146
2206.5556347656	1.0046595335
2208.4844421386	1.0037070513
2210.4132495117	1.0025465488
2212.3420568847	1.0030624866
2214.2708642577	1.0016293526
2216.1996716308	1.0043884516
2218.1284790038	1.0030878782
2220.0572863769	1.0031654835
2221.9860937499	1.0043191910
2223.9149011230	1.0037655830
2225.8437084960	1.0054442883
2227.7725158691	1.0046766996
2229.7013232421	1.0052496195
2231.6301306152	1.0045926571
2233.5589379882	1.0028784275
2235.4877453613	1.0035636425
2237.4165527343	1.0053238869
2239.3453601074	1.0061389208
2241.2741674804	1.0059794188
2243.2029748534	1.0063469410
2245.1317822265	1.0073745251
2247.0605895995	1.0085762739
2248.9893969726	1.0070323944
2250.9182043456	1.0079885721
2252.8470117187	1.0088297129
2254.7758190917	1.0084040165
2256.7046264648	1.0086443424
2258.6334338378	1.0078468323
2260.5622412109	1.0090633631
2262.4910485839	1.0090494156
2264.4198559570	1.0088667870
2266.3486633300	1.0080251694
2268.2774707031	1.0095621347
2270.2062780761	1.0102832317
2272.1350854491	1.0088975430
2274.0638928222	1.0098620653
2275.9927001952	1.0086429119
2277.9215075683	1.0104408264
2279.8503149413	1.0092449188
2281.7791223144	1.0100045204
2283.7079296874	1.0129630566
2285.6367370605	1.0106722116
2287.5655444335	1.0114558935
2289.4943518066	1.0095249414
2291.4231591796	1.0103490353
2293.3519665527	1.0115891695
2295.2807739257	1.0109211206
2297.2095812988	1.0123903751
2299.1383886718	1.0119719505
2301.0671960449	1.0124561787
2302.9960034179	1.0104342699
2304.9248107909	1.0109996796
2306.8536181640	1.0111228228
2308.7824255370	1.0099103451
2310.7112329101	1.0120780468
2312.6400402831	1.0123062134
2314.5688476562	1.0108408928
2316.4976550292	1.0102221966
2318.4264624023	1.0107458830
2320.3552697753	1.0072009563
2322.2840771484	1.0085504055
2324.2128845214	1.0094865561
2326.1416918945	1.0065629482
2328.0704992675	1.0085526705
2329.9993066406	1.0056228638
2331.9281140136	1.0060384274
2333.8569213866	1.0078084469
2335.7857287597	1.0065867901
2337.7145361327	1.0079987049
2339.6433435058	1.0066434145
2341.5721508788	1.0052162409
2343.5009582519	1.0064734221
2345.4297656249	1.0084162951
2347.3585729980	1.0111089945
2349.2873803710	1.0145829916
2351.2161877441	1.0120290518
2353.1449951171	1.0087398291
2355.0738024902	1.0067228079
2357.0026098632	1.0035760403
2358.9314172363	1.0045191050
2360.8602246093	1.0029364824
2362.7890319823	1.0044927597
2364.7178393554	1.0043350458
2366.6466467284	1.0040354729
2368.5754541015	1.0071243048
2370.5042614745	1.0073707104
2372.4330688476	1.0103316307
2374.3618762206	1.0109484196
2376.2906835937	1.0145044327
2378.2194909667	1.0163546801
2380.1482983398	1.0147988796
2382.0771057128	1.0175499916
2384.0059130859	1.0179187059
2385.9347204589	1.0176539421
2387.8635278320	1.0177893639
2389.7923352050	1.0189503431
2391.7211425780	1.0173337460
2393.6499499511	1.0181384087
2395.5787573241	1.0207628012
2397.5075646972	1.0169131756
2399.4363720702	1.0187954903
2401.3651794433	1.0189305544
2403.2939868163	1.0177175999
2405.2227941894	1.0214254856
2407.1516015624	1.0195112228
2409.0804089355	1.0197986364
2411.0092163085	1.0213924646
2412.9380236816	1.0199482441
2414.8668310546	1.0200186968
2416.7956384277	1.0190517902
2418.7244458007	1.0201778412
2420.6532531738	1.0204740763
2422.5820605468	1.0192801952
2424.5108679198	1.0217058659
2426.4396752929	1.0202689171
2428.3684826659	1.0199772120
2430.2972900390	1.0215517282
2432.2260974120	1.0208801031
2434.1549047851	1.0227023363
2436.0837121581	1.0208442211
2438.0125195312	1.0213096142
2439.9413269042	1.0216959715
2441.8701342773	1.0199955702
2443.7989416503	1.0230913162
2445.7277490234	1.0217175484
2447.6565563964	1.0211900473
2449.5853637695	1.0212500095
2451.5141711425	1.0203400850
2453.4429785155	1.0226033926
2455.3717858886	1.0222824812
2457.3005932616	1.0213173628
2459.2294006347	1.0218542814
2461.1582080077	1.0234181881
2463.0870153808	1.0226050615
2465.0158227538	1.0221053362
2466.9446301269	1.0219548941
2468.8734374999	1.0211589336
2470.8022448730	1.0231667757
2472.7310522460	1.0231148005
2474.6598596191	1.0224244595
2476.5886669921	1.0216726065
2478.5174743652	1.0224646330
2480.4462817382	1.0237110853
2482.3750891112	1.0226802826
2484.3038964843	1.0222835541
2486.2327038573	1.0217987299
2488.1615112304	1.0226517916
2490.0903186034	1.0229201317
2492.0191259765	1.0244870186
2493.9479333495	1.0246164799
2495.8767407226	1.0227590799
2497.8055480956	1.0239870548
2499.7343554687	1.0244940519
2501.6631628417	1.0246812105
2503.5919702148	1.0238987207
2505.5207775878	1.0250115395
2507.4495849609	1.0242989063
2509.3783923339	1.0214087963
2511.3071997069	1.0228241682
2513.2360070800	1.0244261026
2515.1648144530	1.0246011019
2517.0936218261	1.0231350660
2519.0224291991	1.0262562037
2520.9512365722	1.0266901255
2522.8800439452	1.0235068798
2524.8088513183	1.0247333050
2526.7376586913	1.0244061947
2528.6664660644	1.0267059803
2530.5952734374	1.0257862806
2532.5240808105	1.0240687132
2534.4528881835	1.0255109072
2536.3816955566	1.0253927708
2538.3105029296	1.0266779661
2540.2393103027	1.0252317190
2542.1681176757	1.0258147717
2544.0969250487	1.0255339146
2546.0257324218	1.0238207579
2547.9545397948	1.0242159367
2549.8833471679	1.0240496397
2551.8121545409	1.0247488022
2553.7409619140	1.0234190226
2555.6697692870	1.0241559744
2557.5985766601	1.0247428417
2559.5273840331	1.0254666805
2561.4561914062	1.0257781744
2563.3849987792	1.0236270428
2565.3138061523	1.0245156288
2567.2426135253	1.0249316692
2569.1714208984	1.0253314972
2571.1002282714	1.0242000818
2573.0290356444	1.0248167515
2574.9578430175	1.0248758793
2576.8866503905	1.0234056711
2578.8154577636	1.0264431238
2580.7442651366	1.0258073807
2582.6730725097	1.0257616043
2584.6018798827	1.0256737471
2586.5306872558	1.0247352123
2588.4594946288	1.0266348124
2590.3883020019	1.0260490179
2592.3171093749	1.0257521868
2594.2459167480	1.0267932415
2596.1747241210	1.0272463560
2598.1035314941	1.0262906551
2600.0323388671	1.0270190239
2601.9611462401	1.0258110762
2603.8899536132	1.0240484476
2605.8187609862	1.0245130062
2607.7475683593	1.0231212378
2609.6763757323	1.0251233578
2611.6051831054	1.0253857374
2613.5339904784	1.0240209103
2615.4627978515	1.0243456364
2617.3916052245	1.0252609253
2619.3204125976	1.0263322592
2621.2492199706	1.0259752274
2623.1780273437	1.0273115635
2625.1068347167	1.0259287357
2627.0356420898	1.0262199640
2628.9644494628	1.0256301165
2630.8932568358	1.0232033730
2632.8220642089	1.0260915756
2634.7508715819	1.0262033939
2636.6796789550	1.0240119696
2638.6084863280	1.0235459805
2640.5372937011	1.0255967379
2642.4661010741	1.0249276161
2644.3949084472	1.0248732567
2646.3237158202	1.0261164904
2648.2525231933	1.0239020586
2650.1813305663	1.0257827044
2652.1101379394	1.0245532990
2654.0389453124	1.0239425898
2655.9677526855	1.0255537033
2657.8965600585	1.0250997543
2659.8253674315	1.0256313086
2661.7541748046	1.0229474306
2663.6829821776	1.0246726274
2665.6117895507	1.0248619318
2667.5405969237	1.0230607986
2669.4694042968	1.0244618654
2671.3982116698	1.0230041742
2673.3270190429	1.0242215395
2675.2558264159	1.0250401497
2677.1846337890	1.0254454613
2679.1134411620	1.0249307156
2681.0422485351	1.0225447416
2682.9710559081	1.0241926908
2684.8998632812	1.0243703127
2686.8286706542	1.0236579180
2688.7574780273	1.0243697166
2690.6862854003	1.0247095823
2692.6150927733	1.0242735147
2694.5439001464	1.0225484371
2696.4727075194	1.0238908529
2698.4015148925	1.0247099400
2700.3303222655	1.0220042467
2702.2591296386	1.0218298435
2704.1879370116	1.0223683119
2706.1167443847	1.0218895674
2708.0455517577	1.0221301317
2709.9743591308	1.0223108530
2711.9031665038	1.0205481052
2713.8319738769	1.0190857649
2715.7607812499	1.0210762024
2717.6895886230	1.0216491222
2719.6183959960	1.0237231255
2721.5472033690	1.0243347883
2723.4760107421	1.0212616920
2725.4048181151	1.0225491524
2727.3336254882	1.0204155445
2729.2624328612	1.0197541714
2731.1912402343	1.0233049393
2733.1200476073	1.0217791796
2735.0488549804	1.0207344294
2736.9776623534	1.0202794075
2738.9064697265	1.0208678246
2740.8352770995	1.0225456953
2742.7640844726	1.0218310356
2744.6928918456	1.0219190121
2746.6216992187	1.0216556787
2748.5505065917	1.0196220875
2750.4793139647	1.0186764002
2752.4081213378	1.0180537701
2754.3369287108	1.0180566311
2756.2657360839	1.0181789398
2758.1945434569	1.0182981491
2760.1233508300	1.0207188129
2762.0521582030	1.0189977884
2763.9809655761	1.0180220604
2765.9097729491	1.0200705528
2767.8385803222	1.0173116922
2769.7673876952	1.0166499615
2771.6961950683	1.0173783302
2773.6250024413	1.0175381899
2775.5538098144	1.0168857574
2777.4826171874	1.0155018568
2779.4114245604	1.0175770521
2781.3402319335	1.0168455839
2783.2690393065	1.0129245520
2785.1978466796	1.0129522085
2787.1266540526	1.0151917934
2789.0554614257	1.0143460035
2790.9842687987	1.0149507523
2792.9130761718	1.0144585371
2794.8418835448	1.0129827261
2796.7706909179	1.0154705048
2798.6994982909	1.0133404732
2800.6283056640	1.0124069452
2802.5571130370	1.0136002302
2804.4859204101	1.0130112171
2806.4147277831	1.0132362843
2808.3435351562	1.0118252039
2810.2723425292	1.0124671459
2812.2011499022	1.0121784210
2814.1299572753	1.0106185675
2816.0587646483	1.0106450319
2817.9875720214	1.0112618208
2819.9163793944	1.0105167627
2821.8451867675	1.0093245506
2823.7739941405	1.0089837313
2825.7028015136	1.0076240301
2827.6316088866	1.0095061064
2829.5604162597	1.0081713200
2831.4892236327	1.0062836409
2833.4180310058	1.0061510801
2835.3468383788	1.0022814274
2837.2756457519	1.0044550896
2839.2044531249	1.0070446730
2841.1332604979	1.0060935020
2843.0620678710	1.0035744905
2844.9908752440	0.9997563958
2846.9196826171	1.0000326633
2848.8484899901	1.0006310940
2850.7772973632	1.0000636578
2852.7061047362	0.9993771315
2854.6349121093	0.9989490509
2856.5637194823	0.9980510473
2858.4925268554	0.9978678226
2860.4213342284	0.9975609183
2862.3501416015	0.9975232482
2864.2789489745	0.9981717467
2866.2077563476	0.9953558445
2868.1365637206	0.9969108701
2870.0653710936	0.9968786240
2871.9941784667	0.9934537411
2873.9229858397	0.9964985251
2875.8517932128	0.9955734015
2877.7806005858	0.9933679700
2879.7094079589	0.9937555194
2881.6382153319	0.9926129580
2883.5670227050	0.9931487441
2885.4958300780	0.9916123748
2887.4246374511	0.9892911911
2889.3534448241	0.9890550971
2891.2822521972	0.9898419976
2893.2110595702	0.9889924526
2895.1398669433	0.9864274263
2897.0686743163	0.9883703589
2898.9974816893	0.9859327674
2900.9262890624	0.9811728001
2902.8550964354	0.9830973744
2904.7839038085	0.9801067710
2906.7127111815	0.9788153172
2908.6415185546	0.9807339907
2910.5703259276	0.9784484506
2912.4991333007	0.9780248404
2914.4279406737	0.9754388332
2916.3567480468	0.9741258621
2918.2855554198	0.9736651182
2920.2143627929	0.9711907506
2922.1431701659	0.9713578224
2924.0719775390	0.9707943201
2926.0007849120	0.9700323343
2927.9295922851	0.9683690667
2929.8583996581	0.9672181606
2931.7872070311	0.9667642117
2933.7160144042	0.9664399624
2935.6448217772	0.9659191370
2937.5736291503	0.9644857645
2939.5024365233	0.9646952748
2941.4312438964	0.9614966512
2943.3600512694	0.9615160823
2945.2888586425	0.9618738294
2947.2176660155	0.9578293562
2949.1464733886	0.9597022533
2951.0752807616	0.9588037729
2953.0040881347	0.9563686848
2954.9328955077	0.9565507770
2956.8617028808	0.9542937875
2958.7905102538	0.9509422779
2960.7193176268	0.9490590096
2962.6481249999	0.9517130256
2964.5769323729	0.9499974251
2966.5057397460	0.9461364150
2968.4345471190	0.9463126063
2970.3633544921	0.9458071589
2972.2921618651	0.9444273710
2974.2209692382	0.9419959784
2976.1497766112	0.9424037337
2978.0785839843	0.9416947365
2980.0073913573	0.9379736185
2981.9361987304	0.9369078279
2983.8650061034	0.9359185696
2985.7938134765	0.9340526462
2987.7226208495	0.9316730499
2989.6514282225	0.9298596382
2991.5802355956	0.9276592731
2993.5090429686	0.9254837036
2995.4378503417	0.9244179130
2997.3666577147	0.9216533303
2999.2954650878	0.9193124175
3001.2242724608	0.9189471006
3003.1530798339	0.9182162285
3005.0818872069	0.9151141047
3007.0106945800	0.9129326344
3008.9395019530	0.9106919169
3010.8683093261	0.9074401259
3012.7971166991	0.9056265950
3014.7259240722	0.9010123014
3016.6547314452	0.9011706114
3018.5835388182	0.9024431705
3020.5123461913	0.8967601061
3022.4411535643	0.8962178826
3024.3699609374	0.8949043155
3026.2987683104	0.8907100558
3028.2275756835	0.8913058043
3030.1563830565	0.8889856935
3032.0851904296	0.8826709986
3034.0139978026	0.8791300654
3035.9428051757	0.8786455989
3037.8716125487	0.8748892546
3039.8004199218	0.8721062541
3041.7292272948	0.8710201979
3043.6580346679	0.8656209707
3045.5868420409	0.8658246994
3047.5156494139	0.8646324873
3049.4444567870	0.8568301797
3051.3732641600	0.8550623655
3053.3020715331	0.8520954847
3055.2308789061	0.8480554223
3057.1596862792	0.8457953930
3059.0884936522	0.8417311311
3061.0173010253	0.8421354294
3062.9461083983	0.8390957117
3064.8749157714	0.8318843246
3066.8037231444	0.8313772082
3068.7325305175	0.8305046558
3070.6613378905	0.8248718977
3072.5901452636	0.8219102025
3074.5189526366	0.8203843236
3076.4477600097	0.8160529137
3078.3765673827	0.8136439919
3080.3053747557	0.8112284541
3082.2341821288	0.8070819974
3084.1629895018	0.8030195236
3086.0917968749	0.7974613905
3088.0206042479	0.7944946289
3089.9494116210	0.7922180891
3091.8782189940	0.7887816429
3093.8070263671	0.7848411798
3095.7358337401	0.7803583741
3097.6646411132	0.7782407999
3099.5934484862	0.7747112513
3101.5222558593	0.7687175274
3103.4510632323	0.7650462389
3105.3798706054	0.7639436126
3107.3086779784	0.7577556372
3109.2374853514	0.7537077069
3111.1662927245	0.7545679808
3113.0951000975	0.7468133569
3115.0239074706	0.7421851158
3116.9527148436	0.7404801250
3118.8815222167	0.7361960411
3120.8103295897	0.7345200777
3122.7391369628	0.7288557291
3124.6679443358	0.7254703641
3126.5967517089	0.7212491632
3128.5255590819	0.7155207396
3130.4543664550	0.7139158845
3132.3831738280	0.7105563283
3134.3119812011	0.7057297230
3136.2407885741	0.6998658776
3138.1695959471	0.6999732256
3140.0984033202	0.6986835599
3142.0272106932	0.6918148398
3143.9560180663	0.6889284849
3145.8848254393	0.6839555502
3147.8136328124	0.6800023913
3149.7424401854	0.6754510403
3151.6712475585	0.6707001328
3153.6000549315	0.6707394719
3155.5288623046	0.6658102274
3157.4576696776	0.6610537767
3159.3864770507	0.6588533521
3161.3152844237	0.6540032029
3163.2440917968	0.6517194510
3165.1728991698	0.6509789228
3167.1017065428	0.6454269886
3169.0305139159	0.6390315890
3170.9593212889	0.6378528476
3172.8881286620	0.6337559223
3174.8169360350	0.6304974556
3176.7457434081	0.6305739284
3178.6745507811	0.6251767874
3180.6033581542	0.6240344644
3182.5321655272	0.6212862134
3184.4609729003	0.6162151694
3186.3897802733	0.6163322926
3188.3185876464	0.6113408208
3190.2473950194	0.6082567573
3192.1762023925	0.6049802899
3194.1050097655	0.6025201678
3196.0338171386	0.6018402576
3197.9626245116	0.5966861248
3199.8914318846	0.5963236690
3201.8202392577	0.5920850635
3203.7490466307	0.5889238119
3205.6778540038	0.5897718668
3207.6066613768	0.5870411396
3209.5354687499	0.5853596330
3211.4642761229	0.5827571750
3213.3930834960	0.5808691382
3215.3218908690	0.5774424672
3217.2506982421	0.5799288750
3219.1795056151	0.5796170235
3221.1083129882	0.5725727081
3223.0371203612	0.5728485584
3224.9659277343	0.5717139244
3226.8947351073	0.5723713040
3228.8235424803	0.5702188015
3230.7523498534	0.5669076443
3232.6811572264	0.5684646368
3234.6099645995	0.5663416386
3236.5387719725	0.5655850172
3238.4675793456	0.5665836334
3240.3963867186	0.5662482381
3242.3251940917	0.5630365610
3244.2540014647	0.5643941164
3246.1828088378	0.5644665360
3248.1116162108	0.5600504279
3250.0404235839	0.5610096455
3251.9692309569	0.5611868501
3253.8980383300	0.5622807741
3255.8268457030	0.5617520213
3257.7556530760	0.5596863627
3259.6844604491	0.5604199171
3261.6132678221	0.5611698031
3263.5420751952	0.5597592592
3265.4708825682	0.5594008565
3267.3996899413	0.5604760051
3269.3284973143	0.5588569045
3271.2573046874	0.5616227984
3273.1861120604	0.5592254996
3275.1149194335	0.5581076741
3277.0437268065	0.5623974204
3278.9725341796	0.5594892502
3280.9013415526	0.5602281690
3282.8301489257	0.5596383214
3284.7589562987	0.5577124953
3286.6877636717	0.5573581457
3288.6165710448	0.5584689379
3290.5453784178	0.5592563152
3292.4741857909	0.5556896329
3294.4029931639	0.5586691499
3296.3318005370	0.5600852966
3298.2606079100	0.5583691597
3300.1894152831	0.5589622855
3302.1182226561	0.5583200455
3304.0470300292	0.5567120910
3305.9758374022	0.5572029352
3307.9046447753	0.5588451624
3309.8334521483	0.5570787191
3311.7622595214	0.5593489408
3313.6910668944	0.5592388511
3315.6198742675	0.5574301481
3317.5486816405	0.5598475337
3319.4774890135	0.5561518073
3321.4062963866	0.5554072857
3323.3351037596	0.5596687198
3325.2639111327	0.5592979789
3327.1927185057	0.5602382421
3329.1215258788	0.5598287582
3331.0503332518	0.5571787953
3332.9791406249	0.5587567687
3334.9079479979	0.5580474734
3336.8367553710	0.5607330203
3338.7655627440	0.5615036488
3340.6943701171	0.5578699112
3342.6231774901	0.5604214072
3344.5519848632	0.5597575307
3346.4807922362	0.5632765293
3348.4095996092	0.5642088652
3350.3384069823	0.5624013543
3352.2672143553	0.5654048324
3354.1960217284	0.5621814728
3356.1248291014	0.5628020167
3358.0536364745	0.5621478558
3359.9824438475	0.5629674792
3361.9112512206	0.5656138062
3363.8400585936	0.5653967857
3365.7688659667	0.5681359172
3367.6976733397	0.5672570467
3369.6264807128	0.5703504682
3371.5552880858	0.5709021688
3373.4840954589	0.5699957609
3375.4129028319	0.5724419355
3377.3417102049	0.5726023316
3379.2705175780	0.5765771270
3381.1993249510	0.5775148869
3383.1281323241	0.5771197677
3385.0569396971	0.5788810253
3386.9857470702	0.5788708329
3388.9145544432	0.5789332390
3390.8433618163	0.5839584470
3392.7721691893	0.5879064202
3394.7009765624	0.5860935450
3396.6297839354	0.5889998078
3398.5585913085	0.5904905200
3400.4873986815	0.5895185471
3402.4162060546	0.5923594236
3404.3450134276	0.5945544839
3406.2738208006	0.5966291428
3408.2026281737	0.6009309292
3410.1314355467	0.6036736369
3412.0602429198	0.6034275293
3413.9890502928	0.6057469249
3415.9178576659	0.6080920100
3417.8466650389	0.6110481024
3419.7754724120	0.6163946390
3421.7042797850	0.6178132892
3423.6330871581	0.6186103225
3425.5618945311	0.6226502657
3427.4907019042	0.6243036389
3429.4195092772	0.6253641844
3431.3483166503	0.6291903853
3433.2771240233	0.6324664354
3435.2059313963	0.6358752251
3437.1347387694	0.6377054453
3439.0635461424	0.6399155259
3440.9923535155	0.6424094439
3442.9211608885	0.6445869207
3444.8499682616	0.6488943696
3446.7787756346	0.6508557200
3448.7075830077	0.6550897956
3450.6363903807	0.6571989655
3452.5651977538	0.6561352015
3454.4940051268	0.6634774804
3456.4228124999	0.6684831381
3458.3516198729	0.6665744185
3460.2804272460	0.6709712744
3462.2092346190	0.6751439571
3464.1380419921	0.6746174693
3466.0668493651	0.6801524162
3467.9956567381	0.6853618622
3469.9244641112	0.6856810451
3471.8532714842	0.6848279238
3473.7820788573	0.6898464561
3475.7108862303	0.6951474547
3477.6396936034	0.6926088333
3479.5685009764	0.6996840835
3481.4973083495	0.7030426860
3483.4261157225	0.7009307146
3485.3549230956	0.7082480788
3487.2837304686	0.7085313201
3489.2125378417	0.7119338512
3491.1413452147	0.7189478874
3493.0701525878	0.7181184292
3494.9989599608	0.7210112214
3496.9277673338	0.7233905792
3498.8565747069	0.7242780924
3500.7853820799	0.7300905585
3502.7141894530	0.7321912050
3504.6429968260	0.7343764901
3506.5718041991	0.7397791743
3508.5006115721	0.7404476404
3510.4294189452	0.7423146963
3512.3582263182	0.7467061281
3514.2870336913	0.7522844672
3516.2158410643	0.7552242875
3518.1446484374	0.7564266920
3520.0734558104	0.7609637380
3522.0022631835	0.7631188035
3523.9310705565	0.7660405636
3525.8598779295	0.7655472159
3527.7886853026	0.7662408352
3529.7174926756	0.7729389071
3531.6463000487	0.7756275535
3533.5751074217	0.7794716954
3535.5039147948	0.7831125259
3537.4327221678	0.7854627371
3539.3615295409	0.7869864106
3541.2903369139	0.7911436558
3543.2191442870	0.7980837226
3545.1479516600	0.7950550914
3547.0767590331	0.7951542139
3549.0055664061	0.7995002270
3550.9343737792	0.7993252277
3552.8631811522	0.8067381978
3554.7919885252	0.8118042350
3556.7207958983	0.8131331801
3558.6496032713	0.8147854209
3560.5784106444	0.8127164841
3562.5072180174	0.8201477528
3564.4360253905	0.8266806006
3566.3648327635	0.8257828951
3568.2936401366	0.8276131749
3570.2224475096	0.8326817751
3572.1512548827	0.8371043801
3574.0800622557	0.8374950886
3576.0088696288	0.8441448212
3577.9376770018	0.8473295569
3579.8664843749	0.8434131742
3581.7952917479	0.8445704579
3583.7240991210	0.8522527814
3585.6529064940	0.8567903042
3587.5817138670	0.8496510983
3589.5105212401	0.8578276634
3591.4393286131	0.8664804697
3593.3681359862	0.8622218370
3595.2969433592	0.8652129173
3597.2257507323	0.8715186715
3599.1545581053	0.8737021685
3601.0833654784	0.8720690608
3603.0121728514	0.8796351552
3604.9409802245	0.8820388913
3606.8697875975	0.8791412115
3608.7985949706	0.8835746050
3610.7274023436	0.8873754740
3612.6562097167	0.8897793889
3614.5850170897	0.8886701465
3616.5138244627	0.8960427046
3618.4426318358	0.8962291479
3620.3714392088	0.8979188204
3622.3002465819	0.9055626392
3624.2290539549	0.9031736851
3626.1578613280	0.9071519375
3628.0866687010	0.9032495022
3630.0154760741	0.9068265557
3631.9442834471	0.9129735231
3633.8730908202	0.9128326774
3635.8018981932	0.9195378423
3637.7307055663	0.9201136231
3639.6595129393	0.9289869070
3641.5883203124	0.9294350743
3643.5171276854	0.9291070700
3645.4459350584	0.9348222017
3647.3747424315	0.9358904362
3649.3035498045	0.9395275712
3651.2323571776	0.9365664124
3653.1611645506	0.9444126487
3655.0899719237	0.9465258718
3657.0187792967	0.9454918504
3658.9475866698	0.9539520741
3660.8763940428	0.9579269290
3662.8052014159	0.9628210664
3664.7340087889	0.9643286467
3666.6628161620	0.9691323638
3668.5916235350	0.9694316387
3670.5204309081	0.9714953899
3672.4492382811	0.9788215756
3674.3780456541	0.9748996496
3676.3068530272	0.9758333564
3678.2356604002	0.9812456369
3680.1644677733	0.9832116365
3682.0932751463	0.9857812524
3684.0220825194	0.9902400374
3685.9508898924	0.9949468970
3687.8796972655	0.9916727543
3689.8085046385	0.9923939109
3691.7373120116	1.0006897449
3693.6661193846	1.0021415949
3695.5949267577	1.0011712313
3697.5237341307	1.0000439882
3699.4525415038	1.0024745464
3701.3813488768	1.0051072836
3703.3101562499	1.0015872717
3705.2389636229	1.0062190294
3707.1677709959	1.0065782070
3709.0965783690	1.0035884380
3711.0253857420	1.0061554909
3712.9541931151	1.0060075521
3714.8830004881	1.0096007586
3716.8118078612	1.0087403059
3718.7406152342	1.0108401775
3720.6694226073	1.0109108686
3722.5982299803	1.0086348057
3724.5270373534	1.0120841265
3726.4558447264	1.0067846775
3728.3846520995	1.0076693296
3730.3134594725	1.0121581554
3732.2422668456	1.0122413635
3734.1710742186	1.0068627596
3736.0998815916	1.0076020956
3738.0286889647	1.0137639046
3739.9574963377	1.0125145912
3741.8863037108	1.0168981552
3743.8151110838	1.0093680620
3745.7439184569	1.0051225424
3747.6727258299	1.0133635998
3749.6015332030	1.0101636648
3751.5303405760	1.0106554031
3753.4591479491	1.0133308172
3755.3879553221	1.0171805620
3757.3167626952	1.0144684315
3759.2455700682	1.0125691891
3761.1743774413	1.0135866404
3763.1031848143	1.0117411613
3765.0319921873	1.0157283545
3766.9607995604	1.0179251432
3768.8896069334	1.0171842575
3770.8184143065	1.0127075911
3772.7472216795	1.0135008097
3774.6760290526	1.0163334608
3776.6048364256	1.0183589458
3778.5336437987	1.0167820454
3780.4624511717	1.0129854679
3782.3912585448	1.0199567080
3784.3200659178	1.0170973539
3786.2488732909	1.0157765150
3788.1776806639	1.0170572996
3790.1064880370	1.0136823654
3792.0352954100	1.0184702873
3793.9641027830	1.0160863400
3795.8929101561	1.0134499073
3797.8217175291	1.0146301985
3799.7505249022	1.0160387754
3801.6793322752	1.0163578987
3803.6081396483	1.0158314705
3805.5369470213	1.0164203644
3807.4657543944	1.0150493383
3809.3945617674	1.0184789896
3811.3233691405	1.0205769539
3813.2521765135	1.0220109224
3815.1809838866	1.0173768997
3817.1097912596	1.0119094849
3819.0385986327	1.0177172422
3820.9674060057	1.0172871351
3822.8962133787	1.0162677765
3824.8250207518	1.0186121464
3826.7538281248	1.0188255310
3828.6826354979	1.0180574656
3830.6114428709	1.0181849003
3832.5402502440	1.0180732012
3834.4690576170	1.0219793320
3836.3978649901	1.0215426683
3838.3266723631	1.0154374838
3840.2554797362	1.0184940100
3842.1842871092	1.0183249712
3844.1130944823	1.0186403990
3846.0419018553	1.0157839060
3847.9707092284	1.0123790503
3849.8995166014	1.0155428648
3851.8283239745	1.0170801878
3853.7571313475	1.0173068047
3855.6859387205	1.0074273348
3857.6147460936	1.0163192749
3859.5435534666	1.0242127180
3861.4723608397	1.0159653425
3863.4011682127	1.0205951929
3865.3299755858	1.0184732676
3867.2587829588	1.0158759356
3869.1875903319	1.0170165300
3871.1163977049	1.0131106377
3873.0452050780	1.0148699284
3874.9740124510	1.0115927458
3876.9028198241	1.0161745548
3878.8316271971	1.0190455914
3880.7604345702	1.0116908550
3882.6892419432	1.0163898468
3884.6180493162	1.0159019232
3886.5468566893	1.0108840466
3888.4756640623	1.0208520889
3890.4044714354	1.0174224377
3892.3332788084	1.0131747723
3894.2620861815	1.0230973959
3896.1908935545	1.0198547840
3898.1197009276	1.0172057152
3900.0485083006	1.0148870945
3901.9773156737	1.0145564079
3903.9061230467	1.0163403749
3905.8349304198	1.0120987892
3907.7637377928	1.0199456215
3909.6925451659	1.0171346664
3911.6213525389	1.0153144598
3913.5501599119	1.0210058689
3915.4789672850	1.0134246349
3917.4077746580	1.0181393623
3919.3365820311	1.0186512470
3921.2653894041	1.0154390335
3923.1941967772	1.0194671154
3925.1230041502	1.0144826174
3927.0518115233	1.0183539391
3928.9806188963	1.0196641684
3930.9094262694	1.0165549517
3932.8382336424	1.0195020437
3934.7670410155	1.0188883543
3936.6958483885	1.0188134909
3938.6246557616	1.0198776722
3940.5534631346	1.0212556124
3942.4822705076	1.0167502165
3944.4110778807	1.0177489519
3946.3398852537	1.0190683603
3948.2686926268	1.0150512457
3950.1974999998	1.0207967758
3952.1263073729	1.0154287815
3954.0551147459	1.0146777630
3955.9839221190	1.0229624510
3957.9127294920	1.0162560940
3959.8415368651	1.0107702017
3961.7703442381	1.0132869482
3963.6991516112	1.0181690454
3965.6279589842	1.0199667215
3967.5567663573	1.0195302963
3969.4855737303	1.0141443014
3971.4143811034	1.0150979757
3973.3431884764	1.0185383558
3975.2719958494	1.0168336630
3977.2008032225	1.0222485065
3979.1296105955	1.0173044205
3981.0584179686	1.0170832872
3982.9872253416	1.0166127682
3984.9160327147	1.0138208866
3986.8448400877	1.0220243931
3988.7736474608	1.0152245760
3990.7024548338	1.0156058073
3992.6312622069	1.0187950134
3994.5600695799	1.0174589157
3996.4888769530	1.0194858313
3998.4176843260	1.0174413919
4000.3464916991	1.0175186396
4002.2752990721	1.0120050907
4004.2041064451	1.0155016184
4006.1329138182	1.0172227621
4008.0617211912	1.0160802603
4009.9905285643	1.0177029371
4011.9193359373	1.0143573284
4013.8481433104	1.0184164047
4015.7769506834	1.0162159204
4017.7057580565	1.0181022882
4019.6345654295	1.0152802467
4021.5633728026	1.0088499784
4023.4921801756	1.0148131847
4025.4209875487	1.0149643421
4027.3497949217	1.0182372332
4029.2786022948	1.0186463594
4031.2074096678	1.0194262266
4033.1362170408	1.0204446316
4035.0650244139	1.0138473511
4036.9938317869	1.0163190365
4038.9226391600	1.0195167065
4040.8514465330	1.0148634911
4042.7802539061	1.0149613619
4044.7090612791	1.0189641714
4046.6378686522	1.0138919353
4048.5666760252	1.0139675140
4050.4954833983	1.0168697834
4052.4242907713	1.0199247599
4054.3530981444	1.0208688974
4056.2819055174	1.0134068727
4058.2107128905	1.0200011730
4060.1395202635	1.0187057257
4062.0683276365	1.0148322582
4063.9971350096	1.0175100565
4065.9259423826	1.0141521692
4067.8547497557	1.0171192884
4069.7835571287	1.0158470869
4071.7123645018	1.0206086636
4073.6411718748	1.0167832375
4075.5699792479	1.0102800131
4077.4987866209	1.0143628120
4079.4275939940	1.0113588572
4081.3564013670	1.0201866627
4083.2852087401	1.0191531181
4085.2140161131	1.0128794909
4087.1428234862	1.0153211355
4089.0716308592	1.0096802711
4091.0004382323	1.0099463463
4092.9292456053	1.0173223019
4094.8580529783	1.0209197998
4096.7868603514	1.0161306858
4098.7156677244	1.0148854256
4100.6444750975	1.0105884075
4102.5732824705	1.0127542019
4104.5020898436	1.0211129189
4106.4308972166	1.0148162842
4108.3597045897	1.0138282776
4110.2885119627	1.0116919279
4112.2173193358	1.0168459415
4114.1461267088	1.0197962523
4116.0749340819	1.0123653412
4118.0037414549	1.0187298059
4119.9325488280	1.0210340023
4121.8613562010	1.0178259611
4123.7901635740	1.0110327005
4125.7189709471	1.0185332298
4127.6477783201	1.0224688053
4129.5765856932	1.0106034279
4131.5053930662	1.0180103779
4133.4342004393	1.0186604261
4135.3630078123	1.0175552368
4137.2918151854	1.0173079967
4139.2206225584	1.0113317966
4141.1494299315	1.0137704611
4143.0782373045	1.0172588825
4145.0070446776	1.0183180571
4146.9358520506	1.0135986805
4148.8646594237	1.0200768709
4150.7934667967	1.0180829763
4152.7222741697	1.0131419897
4154.6510815428	1.0184741020
4156.5798889158	1.0143046379
4158.5086962889	1.0182855129
4160.4375036619	1.0154601336
4162.3663110350	1.0161236525
4164.2951184080	1.0190975666
4166.2239257811	1.0080103874
4168.1527331541	1.0114254951
4170.0815405272	1.0184731483
4172.0103479002	1.0159496069
4173.9391552733	1.0095918179
4175.8679626463	1.0127208233
4177.7967700194	1.0199686289
4179.7255773924	1.0194207430
4181.6543847654	1.0150333643
4183.5831921385	1.0168935061
4185.5119995115	1.0216584206
4187.4408068846	1.0163077116
4189.3696142576	1.0183247328
4191.2984216307	1.0108956099
4193.2272290037	1.0112035275
4195.1560363768	1.0209636688
4197.0848437498	1.0070614815
4199.0136511229	1.0124903917
4200.9424584959	1.0130032301
4202.8712658690	1.0085940361
4204.8000732420	1.0182864666
4206.7288806151	1.0097658634
4208.6576879881	1.0142294168
4210.5864953611	1.0170531273
4212.5153027342	1.0109744072
4214.4441101072	1.0173298120
4216.3729174803	1.0171228647
4218.3017248533	1.0183213949
4220.2305322264	1.0169609785
4222.1593395994	1.0162980556
4224.0881469725	1.0187945366
4226.0169543455	1.0125812292
4227.9457617186	1.0132596493
4229.8745690916	1.0133209229
4231.8033764647	1.0147193670
4233.7321838377	1.0206503868
4235.6609912108	1.0166041851
4237.5897985838	1.0150320530
4239.5186059569	1.0173273087
4241.4474133299	1.0186374187
4243.3762207029	1.0170557499
4245.3050280760	1.0230580568
4247.2338354490	1.0240458250
4249.1626428221	1.0124206543
4251.0914501951	1.0178920031
4253.0202575682	1.0174027681
4254.9490649412	1.0155048370
4256.8778723143	1.0161156654
4258.8066796873	1.0089600086
4260.7354870604	1.0102993250
4262.6642944334	1.0059224367
4264.5931018065	1.0136992931
4266.5219091795	1.0167413950
4268.4507165526	1.0079354048
4270.3795239256	1.0137977600
4272.3083312986	1.0147300959
4274.2371386717	1.0133905411
4276.1659460447	1.0147253275
4278.0947534178	1.0172089338
4280.0235607908	1.0155973434
4281.9523681639	1.0155926943
4283.8811755369	1.0128821135
4285.8099829100	1.0130562782
4287.7387902830	1.0195544958
4289.6675976561	1.0123724937
4291.5964050291	1.0150507689
4293.5252124022	1.0106319189
4295.4540197752	1.0107916594
4297.3828271483	1.0233567953
4299.3116345213	1.0177520514
4301.2404418943	1.0172388554
4303.1692492674	1.0177440643
4305.0980566404	1.0197530985
4307.0268640135	1.0125457048
4308.9556713865	1.0135382414
4310.8844787596	1.0202815533
4312.8132861326	1.0099326372
4314.7420935057	1.0188966990
4316.6709008787	1.0195236206
4318.5997082518	1.0167015791
4320.5285156248	1.0168169737
4322.4573229979	1.0131429434
4324.3861303709	1.0187791586
4326.3149377440	1.0107105970
4328.2437451170	1.0149495602
4330.1725524900	1.0194613934
4332.1013598631	1.0127978325
4334.0301672361	1.0160049200
4335.9589746092	1.0172317028
4337.8877819822	1.0155124664
4339.8165893553	1.0127943754
4341.7453967283	1.0122565031
4343.6742041014	1.0119711161
4345.6030114744	1.0182510614
4347.5318188475	1.0162364244
4349.4606262205	1.0122766495
4351.3894335936	1.0159786940
4353.3182409666	1.0080624819
4355.2470483397	1.0154923201
4357.1758557127	1.0205291510
4359.1046630858	1.0153042078
4361.0334704588	1.0174595118
4362.9622778318	1.0084384680
4364.8910852049	1.0115916729
4366.8198925779	1.0204548836
4368.7486999510	1.0173707008
4370.6775073240	1.0166499615
4372.6063146971	1.0172342062
4374.5351220701	1.0156966448
4376.4639294432	1.0131975412
4378.3927368162	1.0157409906
4380.3215441893	1.0112177134
4382.2503515623	1.0152764320
4384.1791589354	1.0268642902
4386.1079663084	1.0129565001
4388.0367736815	1.0101169348
4389.9655810545	1.0178581476
4391.8943884275	1.0168166161
4393.8231958006	1.0230959654
4395.7520031736	1.0170731544
4397.6808105467	1.0080437660
4399.6096179197	1.0159575939
4401.5384252928	1.0194995403
4403.4672326658	1.0130848885
4405.3960400389	1.0124588013
4407.3248474119	1.0083813667
4409.2536547850	1.0131736994
4411.1824621580	1.0197601318
4413.1112695311	1.0061346292
4415.0400769041	1.0140602589
4416.9688842772	1.0150038004
4418.8976916502	1.0107933283
4420.8264990232	1.0249023438
4422.7553063963	1.0152733326
4424.6841137693	1.0163512230
4426.6129211424	1.0144829750
4428.5417285154	1.0078200102
4430.4705358885	1.0137145519
4432.3993432615	1.0034509897
4434.3281506346	1.0107659101
4436.2569580076	1.0174496174
4438.1857653807	1.0073150396
4440.1145727537	1.0116972923
4442.0433801268	1.0205737352
4443.9721874998	1.0161532164
4445.9009948729	1.0097693205
4447.8298022459	1.0135599375
4449.7586096189	1.0131154060
4451.6874169920	1.0124025345
4453.6162243650	1.0145834684
4455.5450317381	1.0183323622
4457.4738391111	1.0143406391
4459.4026464842	1.0091989040
4461.3314538572	1.0133060217
4463.2602612303	1.0092579126
4465.1890686033	1.0107742548
4467.1178759764	1.0087466240
4469.0466833494	1.0068435669
4470.9754907225	1.0133392811
4472.9042980955	1.0103392601
4474.8331054686	1.0163023472
4476.7619128416	1.0180383921
4478.6907202147	1.0133084059
4480.6195275877	1.0164674520
4482.5483349607	1.0127427578
4484.4771423338	1.0067836046
4486.4059497068	1.0122816563
4488.3347570799	1.0193207264
4490.2635644529	1.0134524107
4492.1923718260	1.0148175955
4494.1211791990	1.0131056309
4496.0499865721	0.9996959567
4497.9787939451	1.0046217442
4499.9076013182	1.0163457394
4501.8364086912	1.0185152292
4503.7652160643	1.0117444992
4505.6940234373	1.0130572319
4507.6228308104	1.0159337521
4509.5516381834	1.0063930750
4511.4804455564	1.0154671669
4513.4092529295	1.0118197203
4515.3380603025	0.9996609688
4517.2668676756	1.0112082958
4519.1956750486	1.0090334415
4521.1244824217	1.0133893490
4523.0532897947	1.0145788193
4524.9820971678	1.0070552826
4526.9109045408	1.0149569511
4528.8397119139	1.0148073435
4530.7685192869	1.0176917315
4532.6973266600	1.0134595633
4534.6261340330	1.0145155191
4536.5549414061	1.0118744373
4538.4837487791	1.0066510439
4540.4125561521	1.0285586119
4542.3413635252	1.0129573345
4544.2701708982	1.0121777058
4546.1989782713	1.0290155411
4548.1277856443	1.0102151632
4550.0565930174	1.0206114054
4551.9854003904	1.0161255598
4553.9142077635	1.0041211843
4555.8430151365	1.0151717663
4557.7718225096	1.0127059221
4559.7006298826	1.0155160427
4561.6294372557	1.0110251904
4563.5582446287	1.0107684135
4565.4870520018	1.0145841837
4567.4158593748	1.0096780062
4569.3446667478	1.0147141218
4571.2734741209	1.0131050348
4573.2022814939	1.0121052265
4575.1310888670	1.0127396584
4577.0598962400	1.0116462708
4578.9887036131	1.0148704052
4580.9175109861	1.0126070976
4582.8463183592	1.0142537355
4584.7751257322	1.0154415369
4586.7039331053	1.0093370676
4588.6327404783	1.0015188456
4590.5615478514	1.0080797672
4592.4903552244	1.0192193985
4594.4191625975	1.0088088512
4596.3479699705	1.0102474689
4598.2767773435	1.0192552805
4600.2055847166	1.0123348236
4602.1343920896	1.0115190744
4604.0631994627	1.0133829117
4605.9920068357	1.0113397837
4607.9208142088	1.0112315416
4609.8496215818	1.0125882626
4611.7784289549	1.0076518059
4613.7072363279	1.0029443502
4615.6360437010	1.0116056204
4617.5648510740	1.0098567009
4619.4936584471	0.9980944395
4621.4224658201	1.0053288937
4623.3512731932	1.0105499029
4625.2800805662	1.0124748945
4627.2088879393	1.0194168091
4629.1376953123	1.0086795092
4631.0665026853	1.0044811964
4632.9953100584	1.0056350231
4634.9241174314	1.0106344223
4636.8529248045	1.0144076347
4638.7817321775	1.0038433075
4640.7105395506	1.0182068348
4642.6393469236	1.0175904036
4644.5681542967	1.0132997036
4646.4969616697	1.0225472450
4648.4257690428	1.0077004433
4650.3545764158	1.0151214600
4652.2833837889	1.0120996237
4654.2121911619	1.0039355755
4656.1409985350	1.0153759718
4658.0698059080	1.0069354773
4659.9986132810	1.0075603724
4661.9274206541	1.0123794079
4663.8562280271	1.0117759705
4665.7850354002	1.0104074478
4667.7138427732	1.0100172758
4669.6426501463	1.0113370419
4671.5714575193	1.0049183369
4673.5002648924	1.0083174706
4675.4290722654	1.0084395409
4677.3578796385	1.0076446533
4679.2866870115	1.0165302753
4681.2154943846	1.0081423521
4683.1443017576	1.0072650909
4685.0731091307	1.0224254131
4687.0019165037	1.0143121481
4688.9307238767	1.0085635185
4690.8595312498	1.0098147392
4692.7883386228	1.0081267357
4694.7171459959	1.0150816441
4696.6459533689	1.0075774193
4698.5747607420	1.0168073177
4700.5035681150	1.0248986483
4702.4323754881	1.0101492405
4704.3611828611	1.0167884827
4706.2899902342	1.0068575144
4708.2187976072	0.9953601956
4710.1476049803	1.0091362000
4712.0764123533	1.0164680481
4714.0052197264	1.0186183453
4715.9340270994	1.0064638853
4717.8628344724	0.9965919256
4719.7916418455	1.0029978752
4721.7204492185	1.0086611509
4723.6492565916	1.0174274445
4725.5780639646	1.0108187199
4727.5068713377	0.9945869446
4729.4356787107	0.9994136691
4731.3644860838	1.0151180029
4733.2932934568	1.0177063942
4735.2221008299	1.0004729033
4737.1509082029	1.0078586340
4739.0797155760	1.0193300247
4741.0085229490	1.0048060417
4742.9373303221	1.0116515160
4744.8661376951	1.0127482414
4746.7949450682	1.0095950365
4748.7237524412	1.0178585052
4750.6525598142	1.0170584917
4752.5813671873	1.0123139620
4754.5101745603	1.0131415129
4756.4389819334	1.0190798044
4758.3677893064	1.0107290745
4760.2965966795	1.0074944496
4762.2254040525	0.9959288836
4764.1542114256	1.0015780926
4766.0830187986	1.0169453621
4768.0118261717	0.9980008006
4769.9406335447	1.0111531019
4771.8694409178	1.0172572136
4773.7982482908	1.0092279911
4775.7270556639	1.0068538189
4777.6558630369	0.9974227548
4779.5846704099	1.0057916641
4781.5134777830	1.0003218651
4783.4422851560	0.9991139174
4785.3710925291	1.0050035715
4787.2998999021	1.0108562708
4789.2287072752	1.0031852722
4791.1575146482	1.0038862228
4793.0863220213	1.0260571241
4795.0151293943	1.0097154379
4796.9439367674	1.0103303194
4798.8727441404	1.0153238773
4800.8015515135	0.9992460608
4802.7303588865	1.0060440302
4804.6591662596	1.0177167654
4806.5879736326	1.0144129992
4808.5167810056	1.0050591230
4810.4455883787	1.0106048584
4812.3743957517	0.9999025464
4814.3032031248	0.9929382801
4816.2320104978	0.9989311695
4818.1608178709	1.0060853958
4820.0896252439	1.0187973976
4822.0184326170	1.0056028366
4823.9472399900	1.0107383728
4825.8760473631	1.0195285082
4827.8048547361	1.0104020834
4829.7336621092	1.0156518221
4831.6624694822	1.0062803030
4833.5912768553	0.9979613423
4835.5200842283	1.0119409561
4837.4488916013	1.0088230371
4839.3776989744	1.0055067539
4841.3065063474	1.0272613764
4843.2353137205	1.0144877434
4845.1641210935	0.9986206889
4847.0929284666	1.0167241096
4849.0217358396	1.0150618553
4850.9505432127	1.0026884079
4852.8793505857	1.0022499561
4854.8081579588	1.0037082434
4856.7369653318	0.9970142841
4858.6657727049	0.9991071224
4860.5945800779	1.0134315491
4862.5233874510	1.0097705126
4864.4521948240	0.9952399731
4866.3810021971	0.9938448071
4868.3098095701	0.9979278445
4870.2386169431	1.0032860041
4872.1674243162	1.0058034658
4874.0962316892	0.9903259873
4876.0250390623	0.9925434589
4877.9538464353	1.0076246262
4879.8826538084	0.9982532263
4881.8114611814	0.9861249924
4883.7402685545	0.9965226054
4885.6690759275	1.0111210346
4887.5978833006	1.0041749477
4889.5266906736	1.0014964342
4891.4554980467	1.0038349628
4893.3843054197	1.0039106607
4895.3131127928	1.0005906820
4897.2419201658	0.9966440201
4899.1707275388	1.0039279461
4901.0995349119	1.0076789856
4903.0283422849	1.0067886114
4904.9571496580	0.9965318441
4906.8859570310	0.9966741204
4908.8147644041	1.0022401810
4910.7435717771	1.0082697868
4912.6723791502	1.0083429813
4914.6011865232	0.9946208000
4916.5299938963	1.0076463223
4918.4588012693	1.0090280771
4920.3876086424	1.0150595903
4922.3164160154	1.0218439102
4924.2452233885	0.9977172017
4926.1740307615	0.9979829192
4928.1028381345	1.0046200752
4930.0316455076	1.0100067854
4931.9604528806	1.0099098682
4933.8892602537	0.9999948740
4935.8180676267	0.9950193167
4937.7468749998	0.9944273233
4939.6756823728	1.0012258291
4941.6044897459	0.9989807010
4943.5332971189	0.9894008040
4945.4621044920	0.9933792353
4947.3909118650	1.0088549852
4949.3197192381	0.9926583171
4951.2485266111	0.9854266644
4953.1773339842	1.0041785240
4955.1061413572	0.9985135794
4957.0349487302	1.0019944906
4958.9637561033	1.0142722130
4960.8925634763	1.0102640390
4962.8213708494	1.0018204451
4964.7501782224	1.0037076473
4966.6789855955	1.0055587292
4968.6077929685	1.0084415674
4970.5366003416	1.0043776035
4972.4654077146	0.9938814640
4974.3942150877	0.9947789311
4976.3230224607	0.9887851477
4978.2518298338	1.0026472807
4980.1806372068	1.0107989311
4982.1094445799	1.0062472820
4984.0382519529	1.0105178356
4985.9670593259	1.0053648949
4987.8958666990	0.9990761280
4989.8246740720	0.9965680242
4991.7534814451	1.0117118359
4993.6822888181	1.0034335852
4995.6110961912	1.0133262873
4997.5399035642	1.0255966187
4999.4687109373	1.0002276897
5001.3975183103	1.0072188377
5003.3263256834	0.9970211983
5005.2551330564	0.9884703755
5007.1839404295	0.9927462339
5009.1127478025	0.9985893965
5011.0415551756	1.0007907152
5012.9703625486	0.9967373013
5014.8991699217	1.0043209791
5016.8279772947	0.9877529740
5018.7567846677	1.0126729012
5020.6855920408	1.0183163881
5022.6143994138	0.9931048751
5024.5432067869	1.0008827448
5026.4720141599	1.0077292919
5028.4008215330	1.0165839195
5030.3296289060	0.9983696938
5032.2584362791	1.0099085569
5034.1872436521	1.0089759827
5036.1160510252	0.9993973374
5038.0448583982	1.0054676533
5039.9736657713	0.9808633924
5041.9024731443	0.9994025230
5043.8312805174	0.9915257692
5045.7600878904	0.9888561964
5047.6888952634	1.0011740923
5049.6177026365	0.9822122455
5051.5465100095	0.9978060126
5053.4753173826	0.9914726615
5055.4041247556	0.9963995814
5057.3329321287	1.0062341690
5059.2617395017	0.9941193461
5061.1905468748	1.0073149204
5063.1193542478	1.0033990145
5065.0481616209	0.9950646758
5066.9769689939	1.0044000149
5068.9057763670	1.0024282932
5070.8345837400	1.0007923841
5072.7633911131	1.0097440481
5074.6921984861	0.9940377474
5076.6210058591	0.9798540473
5078.5498132322	0.9840672016
5080.4786206052	0.9905900955
5082.4074279783	1.0061713457
5084.3362353513	1.0076973438
5086.2650427244	0.9929135442
5088.1938500974	0.9809136987
5090.1226574705	0.9954729676
5092.0514648435	0.9947484136
5093.9802722166	0.9831576347
5095.9090795896	0.9958831668
5097.8378869627	0.9930844903
5099.7666943357	1.0114941597
5101.6955017088	1.0114938021
5103.6243090818	0.9839407802
5105.5531164548	0.9894223213
5107.4819238279	0.9872217178
5109.4107312009	0.9832835793
5111.3395385740	0.9854407907
5113.2683459470	0.9875087738
5115.1971533201	0.9882505536
5117.1259606931	0.9949341416
5119.0547680662	1.0055871010
5120.9835754392	0.9991644621
5122.9123828123	1.0041513443
5124.8411901853	0.9936579466
5126.7699975584	0.9847955108
5128.6988049314	0.9942260385
5130.6276123045	0.9917798042
5132.5564196775	1.0028041601
5134.4852270506	0.9971804023
5136.4140344236	0.9937543869
5138.3428417966	1.0006746054
5140.2716491697	0.9981471300
5142.2004565427	0.9963506460
5144.1292639158	0.9749086499
5146.0580712888	0.9930183291
5147.9868786619	1.0160366297
5149.9156860349	1.0031110048
5151.8444934080	1.0005048513
5153.7733007810	0.9906885624
5155.7021081541	0.9930746555
5157.6309155271	1.0006192923
5159.5597229002	1.0085321665
5161.4885302732	1.0004156828
5163.4173376463	0.9846148491
5165.3461450193	0.9958154559
5167.2749523923	0.9931576848
5169.2037597654	0.9935482144
5171.1325671384	0.9898801446
5173.0613745115	0.9931219816
5174.9901818845	0.9990752339
5176.9189892576	0.9922854304
5178.8477966306	1.0032625198
5180.7766040037	0.9823581576
5182.7054113767	0.9858056307
5184.6342187498	1.0046372414
5186.5630261228	0.9897468090
5188.4918334959	0.9938786626
5190.4206408689	0.9892658591
5192.3494482420	0.9984762073
5194.2782556150	1.0035495758
5196.2070629880	0.9824101329
5198.1358703611	0.9833061099
5200.0646777341	1.0007215738
5201.9934851072	1.0072944164
5203.9222924802	0.9789133668
5205.8510998533	0.9667602777
5207.7799072263	0.9910170436
5209.7087145994	1.0111089945
5211.6375219724	1.0111030340
5213.5663293455	1.0179381371
5215.4951367185	1.0191000700
5217.4239440916	1.0019255877
5219.3527514646	1.0070970058
5221.2815588377	0.9796946049
5223.2103662107	0.9858990312
5225.1391735837	1.0240358114
5227.0679809568	0.9864884019
5228.9967883298	0.9869699478
5230.9255957029	0.9869563580
5232.8544030759	0.9876509309
5234.7832104490	1.0123661757
5236.7120178220	0.9853610992
5238.6408251951	1.0056608915
5240.5696325681	1.0079066753
5242.4984399412	0.9861490726
5244.4272473142	1.0029172897
5246.3560546873	0.9756783843
5248.2848620603	0.9756429791
5250.2136694334	1.0002605915
5252.1424768064	0.9891498089
5254.0712841795	0.9810701013
5256.0000915525	0.9895195365
5257.9288989255	0.9911816120
5259.8577062986	0.9958776832
5261.7865136716	1.0032680035
5263.7153210447	0.9847763181
5265.6441284177	0.9803410769
5267.5729357908	0.9731498957
5269.5017431638	0.9918665290
5271.4305505369	1.0120915174
5273.3593579099	0.9734856486
5275.2881652830	0.9917367101
5277.2169726560	1.0210613012
5279.1457800291	1.0092219114
5281.0745874021	1.0082389116
5283.0033947752	0.9992205501
5284.9322021482	0.9957302213
5286.8610095212	1.0004308224
5288.7898168943	1.0045696497
5290.7186242673	1.0062220097
5292.6474316404	1.0107598305
5294.5762390134	0.9922491908
5296.5050463865	0.9878246188
5298.4338537595	0.9988896847
5300.3626611326	0.9866338968
5302.2914685056	1.0114613771
5304.2202758787	1.0070933104
5306.1490832517	0.9875590205
5308.0778906248	0.9968038797
5310.0066979978	0.9991073012
5311.9355053709	1.0107374191
5313.8643127439	0.9858379960
5315.7931201169	0.9927991033
5317.7219274900	1.0073902607
5319.6507348630	0.9963373542
5321.5795422361	1.0186331272
5323.5083496091	0.9906709790
5325.4371569822	0.9818453789
5327.3659643552	0.9970649481
5329.2947717283	0.9943950176
5331.2235791013	1.0063796043
5333.1523864744	0.9904469848
5335.0811938474	1.0042154789
5337.0100012205	1.0020540953
5338.9388085935	0.9947146177
5340.8676159666	1.0285787582
5342.7964233396	0.9826123714
5344.7252307126	0.9465097189
5346.6540380857	0.9962096214
5348.5828454587	1.0137476921
5350.5116528318	0.9832723737
5352.4404602048	0.9891325235
5354.3692675779	0.9943004251
5356.2980749509	0.9795813560
5358.2268823240	1.0039031506
5360.1556896970	0.9925933480
5362.0844970701	0.9630160928
5364.0133044431	0.9639769793
5365.9421118162	0.9786747694
5367.8709191892	0.9875926375
5369.7997265623	0.9858615398
5371.7285339353	1.0010541677
5373.6573413083	0.9801290035
5375.5861486814	0.9875218272
5377.5149560544	0.9955892563
5379.4437634275	0.9875509143
5381.3725708005	1.0213515759
5383.3013781736	0.9733533263
5385.2301855466	0.9690982699
5387.1589929197	1.0181357861
5389.0878002927	1.0057046413
5391.0166076658	1.0066787004
5392.9454150388	1.0030132532
5394.8742224119	1.0114508867
5396.8030297849	0.9981243610
5398.7318371580	0.9878429174
5400.6606445310	0.9965846539
5402.5894519041	0.9859762788
5404.5182592771	1.0039151907
5406.4470666501	1.0098438263
5408.3758740232	1.0132369995
5410.3046813962	1.0034888983
5412.2334887693	0.9671196938
5414.1622961423	0.9636064172
5416.0911035154	0.9766262174
5418.0199108884	0.9904357791
5419.9487182615	0.9985972643
5421.8775256345	1.0048630238
5423.8063330076	0.9963745475
5425.7351403806	0.9918251634
5427.6639477537	1.0242475271
5429.5927551267	1.0295994282
5431.5215624998	1.0001816750
5433.4503698728	0.9965857863
5435.3791772458	1.0067365170
5437.3079846189	1.0014383793
5439.2367919919	0.9949443340
5441.1655993650	1.0000951290
5443.0944067380	0.9869123697
5445.0232141111	0.9803162217
5446.9520214841	0.9953995943
5448.8808288572	0.9992088675
5450.8096362302	1.0177488327
5452.7384436033	1.0163950920
5454.6672509763	1.0060226917
5456.5960583494	1.0097705126
5458.5248657224	1.0036014318
5460.4536730955	1.0210950375
5462.3824804685	0.9916487932
5464.3112878415	0.9731692076
5466.2400952146	0.9944101572
5468.1689025876	0.9896634817
5470.0977099607	0.9867559075
5472.0265173337	0.9717528224
5473.9553247068	0.9883990288
5475.8841320798	0.9761987925
5477.8129394529	0.9535691738
5479.7417468259	0.9949767590
5481.6705541990	1.0106761456
5483.5993615720	0.9988802075
5485.5281689451	0.9818192124
5487.4569763181	1.0015616417
5489.3857836912	0.9958512783
5491.3145910642	0.9755653739
5493.2433984372	0.9970219731
5495.1722058103	0.9807708263
5497.1010131833	0.9985058904
5499.0298205564	0.9985006452
5500.9586279294	0.9588370323
5502.8874353025	0.9843019843
5504.8162426755	1.0010859966
5506.7450500486	0.9864758253
5508.6738574216	0.9990972877
5510.6026647947	0.9939532876
5512.5314721677	0.9676412344
5514.4602795408	0.9855166078
5516.3890869138	0.9837470055
5518.3178942869	0.9689316750
5520.2467016599	0.9690546393
5522.1755090330	0.9735639691
5524.1043164060	0.9934185743
5526.0331237790	0.9634037614
5527.9619311521	0.9597163796
5529.8907385251	0.9784056544
5531.8195458982	0.9856497645
5533.7483532712	1.0012834072
5535.6771606443	0.9866101742
5537.6059680173	1.0002505779
5539.5347753904	0.9875158668
5541.4635827634	0.9927926660
5543.3923901365	1.0192351341
5545.3211975095	0.9905297756
5547.2500048826	1.0136878490
5549.1788122556	1.0064939260
5551.1076196287	1.0078587532
5553.0364270017	1.0263394117
5554.9652343747	0.9596364498
5556.8940417478	0.9797319174
5558.8228491208	1.0052741766
5560.7516564939	0.9735460281
5562.6804638669	0.9881964326
5564.6092712400	0.9904032350
5566.5380786130	1.0068327188
5568.4668859861	1.0098758936
5570.3956933591	0.9878115654
5572.3245007322	0.9888641238
5574.2533081052	0.9828653932
5576.1821154783	0.9751276970
5578.1109228513	0.9822105169
5580.0397302244	0.9958902597
5581.9685375974	0.9891614914
5583.8973449704	0.9907342196
5585.8261523435	0.9877827168
5587.7549597165	0.9731905460
5589.6837670896	0.9773383737
5591.6125744626	0.9867811799
5593.5413818357	0.9856782556
5595.4701892087	0.9681493640
5597.3989965818	1.0151120424
5599.3278039548	1.0113049746
5601.2566113279	0.9552196860
5603.1854187009	1.0085431337
5605.1142260740	1.0008548498
5607.0430334470	0.9559723735
5608.9718408201	0.9956469536
5610.9006481931	1.0081846714
5612.8294555661	0.9570010900
5614.7582629392	0.9543942809
5616.6870703122	0.9786279798
5618.6158776853	0.9564436674
5620.5446850583	1.0041987896
5622.4734924314	1.0165519714
5624.4022998044	0.9731593132
5626.3311071775	0.9969828129
5628.2599145505	0.9760028720
5630.1887219236	0.9733335972
5632.1175292966	0.9785014987
5634.0463366697	0.9492862225
5635.9751440427	0.9740092158
5637.9039514158	0.9813206196
5639.8327587888	0.9799475670
5641.7615661619	0.9871410728
5643.6903735349	0.9579504728
5645.6191809079	0.9936499596
5647.5479882810	1.0273884535
5649.4767956540	0.9773336053
5651.4056030271	0.9708060026
5653.3344104001	0.9561444521
5655.2632177732	0.9624703526
5657.1920251462	0.9946911931
5659.1208325193	0.9616948962
5661.0496398923	0.9758868814
5662.9784472654	0.9839248061
5664.9072546384	0.9842097163
5666.8360620115	0.9867274761
5668.7648693845	0.9482889175
5670.6936767576	0.9884869456
5672.6224841306	1.0059742928
5674.5512915036	0.9833403826
5676.4800988767	0.9996324182
5678.4089062497	0.9859175086
5680.3377136228	0.9531327486
5682.2665209958	0.9619061947
5684.1953283689	1.0207570791
5686.1241357419	0.9759190083
5688.0529431150	0.9460221529
5689.9817504880	1.0005875826
5691.9105578611	0.9521803260
5693.8393652341	0.9667998552
5695.7681726072	1.0080975294
5697.6969799802	0.9626299739
5699.6257873533	0.9646604061
5701.5545947263	1.0053521395
5703.4834020993	1.0438984632
5705.4122094724	1.0078141689
5707.3410168454	0.9746970534
5709.2698242185	0.9851124883
5711.1986315915	0.9840995073
5713.1274389646	0.9804401994
5715.0562463376	0.9804103971
5716.9850537107	1.0042282343
5718.9138610837	0.9611542821
5720.8426684568	0.9453017712
5722.7714758298	0.9595519900
5724.7002832029	0.9596624374
5726.6290905759	1.0276412964
5728.5578979490	1.0012414455
5730.4867053220	0.9817219973
5732.4155126950	0.9988865256
5734.3443200681	0.9414466023
5736.2731274411	0.9433412552
5738.2019348142	0.9714579582
5740.1307421872	0.9430001378
5742.0595495603	0.9575313926
5743.9883569333	1.0061782598
5745.9171643064	0.9600585103
5747.8459716794	0.9224153161
5749.7747790525	0.9974330664
5751.7035864255	1.0429630280
5753.6323937986	0.9726586938
5755.5612011716	0.9639248252
5757.4900085447	0.9939397573
5759.4188159177	0.9618353248
5761.3476232907	0.9708007574
5763.2764306638	0.9470067620
5765.2052380368	0.9645071030
5767.1340454099	0.9951423407
5769.0628527829	0.9566934705
5770.9916601560	0.9742981195
5772.9204675290	0.9648408890
5774.8492749021	0.9720108509
5776.7780822751	0.9569870830
5778.7068896482	0.9658980966
5780.6356970212	0.9891942739
5782.5645043943	0.9580504298
5784.4933117673	1.0119765997
5786.4221191404	0.9915737510
5788.3509265134	0.9836615920
5790.2797338865	0.9862896800
5792.2085412595	0.9850696921
5794.1373486325	1.0332211256
5796.0661560056	0.9785265923
5797.9949633786	1.0023114681
5799.9237707517	0.9967098832
5801.8525781247	0.9573031068
5803.7813854978	0.9813895822
5805.7101928708	0.9587011337
5807.6390002439	0.9598991275
5809.5678076169	0.9721599221
5811.4966149900	0.9950255156
5813.4254223630	0.9879114628
5815.3542297361	0.9780779481
5817.2830371091	0.9815337658
5819.2118444822	0.9919529557
5821.1406518552	1.0347243547
5823.0694592282	0.9908209443
5824.9982666013	0.9520881772
5826.9270739743	0.9794137478
5828.8558813474	0.9654191732
5830.7846887204	0.9482773542
5832.7134960935	0.9820355773
5834.6423034665	0.9762312174
5836.5711108396	0.9300528169
5838.4999182126	0.9601056576
5840.4287255857	1.0230807066
5842.3575329587	1.0042296648
5844.2863403318	0.9661686420
5846.2151477048	1.0117421150
5848.1439550779	0.9755353928
5850.0727624509	0.9261091352
5852.0015698239	0.9923740029
5853.9303771970	0.9961509109
5855.8591845700	0.9785285592
5857.7879919431	0.9910265207
5859.7167993161	0.9771905541
5861.6456066892	0.9702504873
5863.5744140622	0.9773432016
5865.5032214353	1.0060585737
5867.4320288083	1.0056626797
5869.3608361814	0.9793570042
5871.2896435544	0.9943961501
5873.2184509275	1.0044996738
5875.1472583005	0.9782491922
5877.0760656736	0.9134889245
5879.0048730466	0.9107894897
5880.9336804196	0.9923123121
5882.8624877927	0.9444760680
5884.7912951657	0.9451113939
5886.7201025388	0.9752550125
5888.6489099118	0.9729319215
5890.5777172849	1.0133068562
5892.5065246579	0.9450466037
5894.4353320310	0.9850230217
5896.3641394040	0.9812712073
5898.2929467771	0.9625669718
5900.2217541501	1.0128092766
5902.1505615232	0.9162456989
5904.0793688962	0.9641817808
5906.0081762693	1.0116766691
5907.9369836423	1.0204614401
5909.8657910154	1.0397262573
5911.7945983884	0.9699256420
5913.7234057614	0.9558082819
5915.6522131345	0.9564392567
5917.5810205075	0.9859091640
5919.5098278806	0.9526665807
5921.4386352536	0.9824172854
5923.3674426267	0.9978765845
5925.2962499997	0.9990926385
5927.2250573728	1.0679939985
5929.1538647458	0.9552432299
5931.0826721189	0.9690247178
5933.0114794919	0.9822452068
5934.9402868650	0.9353080392
5936.8690942380	0.9603855014
5938.7979016111	0.9508824944
5940.7267089841	1.0286885500
5942.6555163571	0.9992488027
5944.5843237302	0.9856536388
5946.5131311032	1.0357857943
5948.4419384763	0.9600610733
5950.3707458493	0.9295605421
5952.2995532224	0.9417834878
5954.2283605954	0.9616311789
5956.1571679685	0.9920510650
5958.0859753415	0.9760133028
5960.0147827146	0.9579029083
5961.9435900876	0.9630001187
5963.8723974607	0.9381754994
5965.8012048337	0.9594522715
5967.7300122068	0.9441984296
5969.6588195798	0.9038500786
5971.5876269528	0.9966275692
5973.5164343259	0.9664898515
5975.4452416989	0.8904956579
5977.3740490720	0.9819570184
5979.3028564450	1.0299082994
5981.2316638181	0.9554511905
5983.1604711911	0.9368348718
5985.0892785642	0.9603502154
5987.0180859372	0.9642289281
5988.9468933103	0.9833208919
5990.8757006833	0.9913877845
5992.8045080564	0.9830303788
5994.7333154294	0.9818700552
5996.6621228025	1.0055037737
5998.5909301755	0.9867377877
6000.5197375485	0.9578804374
