399.2631262207	0.8035928011
401.1919335938	0.5173957348
403.1207409668	0.7602055669
405.0495483398	0.6458612680
406.9783557129	0.5919969082
408.9071630859	0.5600072742
410.8359704590	0.5200313330
412.7647778320	0.6103678346
414.6935852051	0.5686743855
416.6223925781	0.5633831620
418.5511999512	0.5148537159
420.4800073242	0.5876046419
422.4088146973	0.6152858734
424.3376220703	0.4653825760
426.2664294434	0.5144857764
428.1952368164	0.6653216481
430.1240441895	0.5561500788
432.0528515625	0.4290641844
433.9816589355	0.5647733212
435.9104663086	0.6764700413
437.8392736816	0.5001178980
439.7680810547	0.4494511485
441.6968884277	0.6264448166
443.6256958008	0.7413740158
445.5545031738	0.5440769196
447.4833105469	0.5374538302
449.4121179199	0.6598024368
451.3409252930	0.5481165051
453.2697326660	0.6028644443
455.1985400391	0.5588603020
457.1273474121	0.5174680948
459.0561547852	0.8874460459
460.9849621582	0.8824415207
462.9137695313	0.9620242119
464.8425769043	0.7098025084
466.7713842773	0.7074078918
468.7001916504	1.0996603966
470.6289990234	0.3932462931
472.5578063965	0.8233019114
474.4866137695	1.1483361721
476.4154211426	1.1246116161
478.3442285156	1.6832991838
480.2730358887	1.3754811287
482.2018432617	3.3733685017
484.1306506348	2.4900264740
486.0594580078	2.0848202705
487.9882653809	1.2752289772
489.9170727539	1.0049402714
491.8458801270	3.3373866081
493.7746875000	2.3854584694
495.7034948730	1.4230344296
497.6323022461	1.2510837317
499.5611096191	2.9976499081
501.4899169922	1.7883100510
503.4187243652	1.6741777658
505.3475317383	10.7740192413
507.2763391113	1.8450398445
509.2051464844	22.1911487579
511.1339538574	1.6776062250
513.0627612305	3.4203121662
514.9915686035	3.0158727169
516.9203759766	5.0133352280
518.8491833496	11.7245559692
520.7779907227	2.6603875160
522.7067980957	3.5770695210
524.6356054688	2.4112172127
526.5644128418	-6.0757641792
528.4932202148	1.4526087046
530.4220275879	1.3335595131
532.3508349609	-24.9643611908
534.2796423340	4.2034964561
536.2084497070	2.2469995022
538.1372570801	1.8511636257
540.0660644531	5.0278868675
541.9948718262	8.4805984497
543.9236791992	1.5100864172
545.8524865723	0.9364007115
547.7812939453	3.1030073166
549.7101013184	2.8787391186
551.6389086914	1.4785985947
553.5677160645	5.5764265060
555.4965234375	2.3233072758
557.4253308105	3.9968724251
559.3541381836	-26.0227832794
561.2829455566	8.8248538971
563.2117529297	8.9074678421
565.1405603027	10.6251220703
567.0693676758	17.0908432007
568.9981750488	1.6170599461
570.9269824219	5.3727803230
572.8557897949	7.3259496689
574.7845971680	2.3363311291
576.7134045410	28.3505001068
578.6422119141	2.5485019684
580.5710192871	2.4069948196
582.4998266602	11.7816514969
584.4286340332	1.7547565699
586.3574414063	1.9364105463
588.2862487793	3.2684187889
590.2150561523	2.6056694984
592.1438635254	2.2520949841
594.0726708984	3.5595440865
596.0014782715	2.2062561512
597.9302856445	9.7598981857
599.8590930176	-1.5153551102
601.7879003906	12.3504047394
603.7167077637	-46.9479026794
605.6455151367	-6.5554685593
607.5743225098	3.5182623863
609.5031298828	3.2392225266
611.4319372559	-6.4641551971
613.3607446289	-5.8137288094
615.2895520020	4.3738684654
617.2183593750	3.4659988880
619.1471667480	-8.6225442886
621.0759741211	155.4320831299
623.0047814941	5.4161591530
624.9335888672	32.6136627197
626.8623962402	-6.5944290161
628.7912036133	13.9207191467
630.7200109863	1.2633404732
632.6488183594	0.8551672101
634.5776257324	0.6212060452
636.5064331055	0.6477949023
638.4352404785	0.7584521770
640.3640478516	0.9025232792
642.2928552246	0.7469418049
644.2216625977	0.5473053455
646.1504699707	0.5913059115
648.0792773438	0.5418226123
650.0080847168	0.6377041936
651.9368920898	0.6319949627
653.8656994629	0.4976117611
655.7945068359	0.5930712819
657.7233142090	0.5671755672
659.6521215820	0.5541511178
661.5809289551	0.6082206964
663.5097363281	0.5824308991
665.4385437012	0.6125482321
667.3673510742	0.6178592443
669.2961584473	0.6182596684
671.2249658203	0.6030457616
673.1537731934	0.5543979406
675.0825805664	0.5980677009
677.0113879395	0.6201835871
678.9401953125	0.6051754355
680.8690026855	0.6473334432
682.7978100586	0.6454198360
684.7266174316	0.6285644770
686.6554248047	0.6049063206
688.5842321777	0.6062582135
690.5130395508	0.6334805489
692.4418469238	0.6367344856
694.3706542969	0.6809750199
696.2994616699	0.6594527960
698.2282690430	0.6407309175
700.1570764160	0.6350883842
702.0858837891	0.6139437556
704.0146911621	0.6557468772
705.9434985352	0.6179615855
707.8723059082	0.6102298498
709.8011132813	0.6918389797
711.7299206543	0.6090212464
713.6587280273	0.7224551439
715.5875354004	1.1319243908
717.5163427734	0.8536854982
719.4451501465	1.0327968597
721.3739575195	1.5899225473
723.3027648926	1.0215911865
725.2315722656	2.0515723228
727.1603796387	-5.3876004219
729.0891870117	1.7443101406
731.0179943848	2.0324134827
732.9468017578	-50.5194816589
734.8756091309	3.5289707184
736.8044165039	29.1526966095
738.7332238770	49.4609642029
740.6620312500	6.2644495964
742.5908386230	17.8904628754
744.5196459961	4.8308496475
746.4484533691	1.5087755919
748.3772607422	1.6340101957
750.3060681152	1.6091533899
752.2348754883	1.3934124708
754.1636828613	3.2594816685
756.0924902344	3.5545749664
758.0212976074	2.5775380135
759.9501049805	2.9555788040
761.8789123535	2.2332181931
763.8077197266	3.0915069580
765.7365270996	1.9582221508
767.6653344727	1.2867609262
769.5941418457	3.2804224491
771.5229492188	2.8758730888
773.4517565918	1.1273287535
775.3805639648	1.5877045393
777.3093713379	2.6572692394
779.2381787109	1.2873585224
781.1669860840	1.7657909393
783.0957934570	1.9709756374
785.0246008301	0.9016045928
786.9534082031	0.8790605068
788.8822155762	1.4659613371
790.8110229492	2.6865301132
792.7398303223	1.5646314621
794.6686376953	1.5963876247
796.5974450684	1.1404327154
798.5262524414	0.7639852762
800.4550598145	1.1562854052
802.3838671875	1.2156503201
804.3126745605	1.0569090843
806.2414819336	0.8934103251
808.1702893066	1.3316718340
810.0990966797	1.8618491888
812.0279040527	0.4621877670
813.9567114258	1.3753154278
815.8855187988	1.0115454197
817.8143261719	0.9484193921
819.7431335449	5.3524670601
821.6719409180	1.7610749006
823.6007482910	1.4775424004
825.5295556641	0.7308164835
827.4583630371	0.6540771723
829.3871704102	0.8885213137
831.3159777832	0.7854326963
833.2447851563	0.7608456016
835.1735925293	0.8637584448
837.1023999023	0.9648783207
839.0312072754	0.8050611019
840.9600146484	0.7160811424
842.8888220215	0.8152357340
844.8176293945	0.8485468030
846.7464367676	0.8109354973
848.6752441406	1.0259532928
850.6040515137	0.8764144778
852.5328588867	0.8020154834
854.4616662598	1.1450331211
856.3904736328	1.0599323511
858.3192810059	1.3028998375
860.2480883789	0.8834354281
862.1768957520	1.0685439110
864.1057031250	1.4353178740
866.0345104980	1.0908352137
867.9633178711	1.1055012941
869.8921252441	0.4984549582
871.8209326172	0.9380810261
873.7497399902	2.1105220318
875.6785473633	2.2567174435
877.6073547363	2.7595982552
879.5361621094	1.5083262920
881.4649694824	1.5768775940
883.3937768555	1.1314135790
885.3225842285	1.1993750334
887.2513916016	1.1571645737
889.1801989746	1.0183596611
891.1090063477	1.2132411003
893.0378137207	2.1322424412
894.9666210938	2.5735609531
896.8954284668	0.9982974529
898.8242358398	1.3697187901
900.7530432129	0.9211547375
902.6818505859	0.5633268952
904.6106579590	1.6658836603
906.5394653320	1.1935114861
908.4682727051	0.6890678406
910.3970800781	0.6284120083
912.3258874512	0.6182709932
914.2546948242	0.9349876642
916.1835021973	1.2809289694
918.1123095703	0.9853340387
920.0411169434	0.7751837373
921.9699243164	1.0197927952
923.8987316895	0.8972454667
925.8275390625	0.9339138269
927.7563464355	0.9703063369
929.6851538086	0.8975674510
931.6139611816	0.9431253672
933.5427685547	0.8979498744
935.4715759277	1.0814473629
937.4003833008	1.0955374241
939.3291906738	0.9326348901
941.2579980469	0.9701916575
943.1868054199	0.9054616094
945.1156127930	0.9048197269
947.0444201660	0.9910206795
948.9732275391	0.9802877307
950.9020349121	0.9491955638
952.8308422852	0.8787283301
954.7596496582	0.9315950871
956.6884570313	1.0012253523
958.6172644043	0.8895033002
960.5460717773	0.9124144912
962.4748791504	0.9655055404
964.4036865234	0.9983880520
966.3324938965	0.9409927726
968.2613012695	0.8499290347
970.1901086426	0.9667214155
972.1189160156	0.8957029581
974.0477233887	0.8856760859
975.9765307617	1.0132392645
977.9053381348	0.8972176909
979.8341455078	0.9697579145
981.7629528809	1.0171929598
983.6917602539	0.9244011641
985.6205676270	0.9725103974
987.5493750000	1.0002101660
989.4781823730	0.9758904576
991.4069897461	0.9678675532
993.3357971191	0.9861013293
995.2646044922	0.9656396508
997.1934118652	0.9584374428
999.1222192383	0.9865275621
1001.0510266113	0.9834088087
1002.9798339844	0.9867867827
1004.9086413574	0.9861157537
1006.8374487305	0.9911063910
1008.7662561035	0.9929878116
1010.6950634766	0.9993525147
1012.6238708496	1.0161335468
1014.5526782227	1.0003250837
1016.4814855957	0.9990628362
1018.4102929688	0.9986429214
1020.3391003418	0.9914176464
1022.2679077148	0.9966495633
1024.1967150879	0.9873166680
1026.1255224609	0.9864128828
1028.0543298340	0.9893472791
1029.9831372070	0.9801098704
1031.9119445801	0.9860319495
1033.8407519531	0.9955673218
1035.7695593262	0.9818188548
1037.6983666992	0.9794830084
1039.6271740723	0.9875000119
1041.5559814453	0.9877339602
1043.4847888184	0.9932971597
1045.4135961914	0.9935209751
1047.3424035645	0.9999069571
1049.2712109375	0.9909274578
1051.2000183105	0.9865893722
1053.1288256836	1.0000162125
1055.0576330566	0.9903384447
1056.9864404297	0.9974456429
1058.9152478027	0.9894331098
1060.8440551758	0.9813362956
1062.7728625488	0.9907099605
1064.7016699219	0.9848660231
1066.6304772949	1.0061489344
1068.5592846680	0.9950052500
1070.4880920410	0.9881578088
1072.4168994141	1.0012785196
1074.3457067871	0.9664546251
1076.2745141602	0.9748294950
1078.2033215332	1.0033200979
1080.1321289062	0.9981032014
1082.0609362793	0.9920648932
1083.9897436523	0.9926801324
1085.9185510254	1.0166659355
1087.8473583984	1.0172766447
1089.7761657715	0.9908198118
1091.7049731445	1.0097017288
1093.6337805176	1.0019059181
1095.5625878906	0.9779694080
1097.4913952637	1.0056799650
1099.4202026367	0.9766916633
1101.3490100098	0.9613172412
1103.2778173828	0.9810595512
1105.2066247559	0.9703122377
1107.1354321289	0.9746640921
1109.0642395019	0.9746439457
1110.9930468750	1.0028347969
1112.9218542480	0.9975391626
1114.8506616211	0.9661470652
1116.7794689941	0.9997044206
1118.7082763672	0.9954445362
1120.6370837402	0.9704699516
1122.5658911133	0.9801817536
1124.4946984863	0.9673418403
1126.4235058594	0.9786009789
1128.3523132324	1.0080205202
1130.2811206055	0.9838304520
1132.2099279785	0.9659954309
1134.1387353516	0.9537208676
1136.0675427246	0.9553370476
1137.9963500977	0.9739974737
1139.9251574707	0.9754642248
1141.8539648437	0.9817432761
1143.7827722168	0.9846847057
1145.7115795898	0.9977577925
1147.6403869629	0.9886004925
1149.5691943359	0.9779855013
1151.4980017090	0.9870092273
1153.4268090820	0.9827952981
1155.3556164551	0.9885492921
1157.2844238281	0.9852927923
1159.2132312012	0.9907507300
1161.1420385742	0.9917447567
1163.0708459473	0.9900082350
1164.9996533203	0.9958209991
1166.9284606934	0.9785822630
1168.8572680664	0.9902094603
1170.7860754394	0.9947526455
1172.7148828125	0.9974486828
1174.6436901855	1.0016635656
1176.5724975586	0.9776333570
1178.5013049316	0.9957032800
1180.4301123047	1.0014156103
1182.3589196777	0.9900277257
1184.2877270508	1.0000346899
1186.2165344238	0.9944038987
1188.1453417969	0.9946671128
1190.0741491699	0.9900503159
1192.0029565430	0.9885798097
1193.9317639160	0.9942047596
1195.8605712891	0.9857022762
1197.7893786621	0.9867355824
1199.7181860351	0.9918122292
1201.6469934082	0.9914935231
1203.5758007812	0.9904758930
1205.5046081543	0.9933422208
1207.4334155273	0.9963814020
1209.3622229004	0.9906858206
1211.2910302734	0.9899581075
1213.2198376465	0.9921022654
1215.1486450195	0.9908675551
1217.0774523926	0.9933299422
1219.0062597656	0.9950377941
1220.9350671387	0.9905820489
1222.8638745117	0.9889876246
1224.7926818848	0.9951572418
1226.7214892578	0.9929891825
1228.6502966308	0.9881446362
1230.5791040039	0.9937975407
1232.5079113769	0.9961516261
1234.4367187500	0.9926908612
1236.3655261230	0.9931576848
1238.2943334961	0.9944667220
1240.2231408691	0.9919019938
1242.1519482422	0.9937236309
1244.0807556152	0.9924317598
1246.0095629883	0.9865723252
1247.9383703613	0.9916641116
1249.8671777344	0.9931352735
1251.7959851074	0.9924064875
1253.7247924805	0.9977116585
1255.6535998535	0.9972335100
1257.5824072266	0.9944589138
1259.5112145996	0.9927332997
1261.4400219726	0.9939302206
1263.3688293457	0.9926226139
1265.2976367187	0.9922437668
1267.2264440918	0.9974855781
1269.1552514648	0.9950557351
1271.0840588379	0.9923248887
1273.0128662109	0.9926756024
1274.9416735840	0.9908075929
1276.8704809570	0.9911980629
1278.7992883301	0.9926880002
1280.7280957031	0.9930691123
1282.6569030762	0.9938069582
1284.5857104492	0.9937083125
1286.5145178223	0.9910389781
1288.4433251953	0.9903138876
1290.3721325683	0.9883804917
1292.3009399414	0.9914449453
1294.2297473144	0.9933114648
1296.1585546875	0.9912694097
1298.0873620605	0.9989445806
1300.0161694336	0.9889436364
1301.9449768066	0.9898185134
1303.8737841797	1.0033099651
1305.8025915527	0.9920995831
1307.7313989258	0.9982445836
1309.6602062988	0.9948607087
1311.5890136719	0.9870617986
1313.5178210449	0.9991044402
1315.4466284180	0.9943235517
1317.3754357910	0.9971840382
1319.3042431640	0.9979223013
1321.2330505371	0.9937816858
1323.1618579101	0.9971102476
1325.0906652832	0.9953189492
1327.0194726562	0.9976450801
1328.9482800293	0.9952589869
1330.8770874023	0.9939159751
1332.8058947754	0.9929404259
1334.7347021484	0.9918794036
1336.6635095215	0.9945216775
1338.5923168945	0.9917865396
1340.5211242676	0.9936880469
1342.4499316406	0.9958339930
1344.3787390137	0.9960569739
1346.3075463867	0.9962646365
1348.2363537597	0.9950768948
1350.1651611328	0.9943454862
1352.0939685058	0.9941505194
1354.0227758789	0.9965999126
1355.9515832519	0.9950935245
1357.8803906250	0.9915926456
1359.8091979980	0.9912822247
1361.7380053711	0.9925973415
1363.6668127441	0.9908192158
1365.5956201172	0.9938152432
1367.5244274902	0.9946761131
1369.4532348633	0.9904749990
1371.3820422363	0.9939991832
1373.3108496094	0.9897032380
1375.2396569824	0.9932538271
1377.1684643555	0.9955084324
1379.0972717285	0.9887245893
1381.0260791015	0.9942496419
1382.9548864746	0.9920589328
1384.8836938476	0.9951458573
1386.8125012207	0.9979035854
1388.7413085937	0.9939689040
1390.6701159668	0.9979618192
1392.5989233398	0.9929911494
1394.5277307129	0.9903213382
1396.4565380859	0.9934067130
1398.3853454590	0.9930536747
1400.3141528320	0.9961382151
1402.2429602051	0.9979224205
1404.1717675781	0.9938048124
1406.1005749512	0.9906951189
1408.0293823242	0.9883378148
1409.9581896972	0.9889569879
1411.8869970703	0.9923245907
1413.8158044433	0.9906157255
1415.7446118164	0.9943969250
1417.6734191894	0.9909388423
1419.6022265625	0.9885864854
1421.5310339355	0.9926475883
1423.4598413086	0.9890234470
1425.3886486816	0.9914888740
1427.3174560547	0.9879966974
1429.2462634277	0.9900984168
1431.1750708008	0.9950508475
1433.1038781738	0.9920855761
1435.0326855469	0.9883716702
1436.9614929199	0.9872503877
1438.8903002929	0.9983222485
1440.8191076660	0.9904527068
1442.7479150390	0.9902433157
1444.6767224121	0.9942378998
1446.6055297851	0.9847474694
1448.5343371582	0.9895100594
1450.4631445312	0.9913609028
1452.3919519043	0.9973697066
1454.3207592773	0.9933904409
1456.2495666504	0.9819454551
1458.1783740234	0.9872196913
1460.1071813965	0.9904599786
1462.0359887695	0.9911271334
1463.9647961426	0.9893199205
1465.8936035156	0.9874143004
1467.8224108886	0.9902747273
1469.7512182617	0.9921637774
1471.6800256347	0.9894950986
1473.6088330078	0.9886003137
1475.5376403808	0.9884631038
1477.4664477539	0.9900367260
1479.3952551269	0.9922549129
1481.3240625000	0.9900575280
1483.2528698730	0.9908056259
1485.1816772461	0.9900701642
1487.1104846191	0.9898777008
1489.0392919922	0.9904319644
1490.9680993652	0.9877929091
1492.8969067383	0.9899473190
1494.8257141113	0.9882825613
1496.7545214843	0.9838051796
1498.6833288574	0.9869900346
1500.6121362304	0.9888709188
1502.5409436035	0.9881821871
1504.4697509765	0.9858065248
1506.3985583496	0.9801180363
1508.3273657226	0.9822062254
1510.2561730957	0.9837022424
1512.1849804687	0.9841286540
1514.1137878418	0.9852823615
1516.0425952148	0.9817092419
1517.9714025879	0.9831663370
1519.9002099609	0.9823643565
1521.8290173340	0.9792031646
1523.7578247070	0.9820861220
1525.6866320801	0.9791953564
1527.6154394531	0.9795818329
1529.5442468261	0.9832295179
1531.4730541992	0.9815724492
1533.4018615722	0.9781976938
1535.3306689453	0.9800424576
1537.2594763183	0.9806020260
1539.1882836914	0.9750310779
1541.1170910644	0.9734203815
1543.0458984375	0.9730092883
1544.9747058105	0.9740095139
1546.9035131836	0.9757886529
1548.8323205566	0.9746651649
1550.7611279297	0.9745534658
1552.6899353027	0.9720238447
1554.6187426758	0.9708128572
1556.5475500488	0.9699776173
1558.4763574218	0.9630036354
1560.4051647949	0.9632689953
1562.3339721679	0.9673965573
1564.2627795410	0.9647158384
1566.1915869140	0.9654020071
1568.1203942871	0.9642010331
1570.0492016601	0.9591386318
1571.9780090332	0.9617130756
1573.9068164062	0.9591035247
1575.8356237793	0.9555555582
1577.7644311523	0.9547047019
1579.6932385254	0.9506118298
1581.6220458984	0.9499307871
1583.5508532715	0.9489793777
1585.4796606445	0.9461902380
1587.4084680175	0.9432877302
1589.3372753906	0.9410905242
1591.2660827636	0.9385446310
1593.1948901367	0.9348449707
1595.1236975097	0.9304404259
1597.0525048828	0.9278301001
1598.9813122558	0.9262711406
1600.9101196289	0.9202255607
1602.8389270019	0.9150219560
1604.7677343750	0.9107956290
1606.6965417480	0.9064744115
1608.6253491211	0.9019079804
1610.5541564941	0.8960276842
1612.4829638672	0.8924112320
1614.4117712402	0.8856819868
1616.3405786132	0.8761300445
1618.2693859863	0.8731677532
1620.1981933593	0.8699388504
1622.1270007324	0.8649278879
1624.0558081054	0.8618920445
1625.9846154785	0.8574594259
1627.9134228515	0.8532510400
1629.8422302246	0.8492659330
1631.7710375976	0.8476224542
1633.6998449707	0.8456299305
1635.6286523437	0.8411974907
1637.5574597168	0.8412236571
1639.4862670898	0.8427948952
1641.4150744629	0.8436244726
1643.3438818359	0.8451187015
1645.2726892090	0.8466635346
1647.2014965820	0.8467545509
1649.1303039550	0.8523710966
1651.0591113281	0.8548524976
1652.9879187011	0.8531016707
1654.9167260742	0.8596559763
1656.8455334472	0.8655800819
1658.7743408203	0.8701713085
1660.7031481933	0.8730514050
1662.6319555664	0.8783791065
1664.5607629394	0.8824543357
1666.4895703125	0.8866460323
1668.4183776855	0.8926897049
1670.3471850586	0.8966772556
1672.2759924316	0.9010578394
1674.2047998047	0.9036741257
1676.1336071777	0.9083447456
1678.0624145507	0.9155012965
1679.9912219238	0.9204125404
1681.9200292968	0.9220115542
1683.8488366699	0.9238454103
1685.7776440429	0.9301425815
1687.7064514160	0.9373235703
1689.6352587890	0.9400970340
1691.5640661621	0.9447178841
1693.4928735351	0.9509326816
1695.4216809082	0.9496825933
1697.3504882812	0.9566118121
1699.2792956543	0.9581456780
1701.2081030273	0.9582342505
1703.1369104004	0.9697679281
1705.0657177734	0.9696117640
1706.9945251464	0.9745035768
1708.9233325195	0.9785842896
1710.8521398925	0.9780995250
1712.7809472656	0.9834755659
1714.7097546386	0.9842547774
1716.6385620117	0.9854167104
1718.5673693847	0.9880087376
1720.4961767578	0.9934135079
1722.4249841308	0.9962462187
1724.3537915039	0.9959220886
1726.2825988769	0.9991021752
1728.2114062500	0.9989016056
1730.1402136230	1.0002171993
1732.0690209961	1.0032774210
1733.9978283691	0.9999641776
1735.9266357421	1.0023565292
1737.8554431152	1.0069419146
1739.7842504882	1.0058871508
1741.7130578613	1.0081921816
1743.6418652343	1.0102757215
1745.5706726074	1.0106325150
1747.4994799804	1.0132266283
1749.4282873535	1.0137366056
1751.3570947265	1.0133514404
1753.2859020996	1.0148143768
1755.2147094726	1.0166393518
1757.1435168457	1.0151324272
1759.0723242187	1.0171536207
1761.0011315918	1.0178623199
1762.9299389648	1.0183237791
1764.8587463379	1.0219893456
1766.7875537109	1.0178354979
1768.7163610839	1.0194213390
1770.6451684570	1.0197739601
1772.5739758300	1.0167607069
1774.5027832031	1.0225293636
1776.4315905761	1.0239813328
1778.3603979492	1.0245890617
1780.2892053222	1.0241152048
1782.2180126953	1.0255355835
1784.1468200683	1.0241414309
1786.0756274414	1.0230824947
1788.0044348144	1.0271425247
1789.9332421875	1.0251549482
1791.8620495605	1.0250632763
1793.7908569336	1.0254706144
1795.7196643066	1.0270496607
1797.6484716796	1.0274077654
1799.5772790527	1.0256834030
1801.5060864257	1.0282552242
1803.4348937988	1.0264546871
1805.3637011718	1.0263141394
1807.2925085449	1.0276877880
1809.2213159179	1.0283579826
1811.1501232910	1.0292400122
1813.0789306640	1.0280641317
1815.0077380371	1.0285112858
1816.9365454101	1.0292713642
1818.8653527832	1.0287793875
1820.7941601562	1.0277916193
1822.7229675293	1.0293161869
1824.6517749023	1.0297524929
1826.5805822753	1.0300521851
1828.5093896484	1.0290393829
1830.4381970214	1.0274235010
1832.3670043945	1.0311657190
1834.2958117675	1.0312871933
1836.2246191406	1.0303908587
1838.1534265136	1.0291688442
1840.0822338867	1.0290554762
1842.0110412597	1.0303702354
1843.9398486328	1.0281575918
1845.8686560058	1.0294525623
1847.7974633789	1.0294241905
1849.7262707519	1.0293208361
1851.6550781250	1.0307401419
1853.5838854980	1.0302011967
1855.5126928710	1.0312999487
1857.4415002441	1.0327547789
1859.3703076171	1.0314689875
1861.2991149902	1.0294121504
1863.2279223632	1.0310229063
1865.1567297363	1.0305415392
1867.0855371093	1.0294073820
1869.0143444824	1.0302084684
1870.9431518554	1.0309132338
1872.8719592285	1.0319342613
1874.8007666015	1.0305454731
1876.7295739746	1.0313092470
1878.6583813476	1.0303405523
1880.5871887207	1.0296450853
1882.5159960937	1.0314048529
1884.4448034667	1.0297775269
1886.3736108398	1.0311341286
1888.3024182128	1.0305851698
1890.2312255859	1.0296063423
1892.1600329589	1.0330926180
1894.0888403320	1.0322386026
1896.0176477050	1.0306798220
1897.9464550781	1.0313636065
1899.8752624511	1.0301723480
1901.8040698242	1.0309062004
1903.7328771972	1.0324795246
1905.6616845703	1.0304740667
1907.5904919433	1.0289394855
1909.5192993164	1.0292358398
1911.4481066894	1.0314097404
1913.3769140625	1.0324009657
1915.3057214355	1.0302103758
1917.2345288085	1.0292873383
1919.1633361816	1.0292738676
1921.0921435546	1.0297124386
1923.0209509277	1.0306251049
1924.9497583007	1.0317162275
1926.8785656738	1.0314794779
1928.8073730468	1.0307230949
1930.7361804199	1.0306402445
1932.6649877929	1.0299744606
1934.5937951660	1.0299891233
1936.5226025390	1.0297667980
1938.4514099121	1.0307368040
1940.3802172851	1.0299975872
1942.3090246582	1.0281605721
1944.2378320312	1.0297231674
1946.1666394042	1.0299220085
1948.0954467773	1.0297255516
1950.0242541503	1.0293302536
1951.9530615234	1.0280927420
1953.8818688964	1.0279569626
1955.8106762695	1.0282365084
1957.7394836425	1.0291146040
1959.6682910156	1.0298147202
1961.5970983886	1.0287410021
1963.5259057617	1.0287885666
1965.4547131347	1.0289809704
1967.3835205078	1.0263708830
1969.3123278808	1.0285819769
1971.2411352539	1.0295305252
1973.1699426269	1.0273391008
1975.0987499999	1.0272455215
1977.0275573730	1.0250601768
1978.9563647460	1.0266531706
1980.8851721191	1.0260512829
1982.8139794921	1.0252070427
1984.7427868652	1.0281182528
1986.6715942382	1.0267248154
1988.6004016113	1.0267878771
1990.5292089843	1.0258895159
1992.4580163574	1.0247255564
1994.3868237304	1.0256141424
1996.3156311035	1.0266666412
1998.2444384765	1.0272985697
2000.1732458496	1.0254021883
2002.1020532226	1.0255175829
2004.0308605956	1.0258064270
2005.9596679687	1.0254628658
2007.8884753417	1.0246424675
2009.8172827148	1.0239601135
2011.7460900878	1.0244512558
2013.6748974609	1.0247404575
2015.6037048339	1.0245845318
2017.5325122070	1.0228325129
2019.4613195800	1.0228261948
2021.3901269531	1.0235846043
2023.3189343261	1.0244848728
2025.2477416992	1.0230396986
2027.1765490722	1.0224312544
2029.1053564453	1.0241744518
2031.0341638183	1.0223760605
2032.9629711914	1.0234926939
2034.8917785644	1.0225996971
2036.8205859374	1.0218802691
2038.7493933105	1.0228408575
2040.6782006835	1.0209982395
2042.6070080566	1.0227973461
2044.5358154296	1.0206738710
2046.4646228027	1.0198458433
2048.3934301757	1.0209614038
2050.3222375488	1.0208110809
2052.2510449218	1.0228395462
2054.1798522949	1.0201334953
2056.1086596679	1.0209639072
2058.0374670410	1.0208348036
2059.9662744140	1.0179553032
2061.8950817871	1.0197788477
2063.8238891601	1.0189338923
2065.7526965331	1.0193601847
2067.6815039062	1.0193473101
2069.6103112792	1.0192087889
2071.5391186523	1.0207049847
2073.4679260253	1.0174381733
2075.3967333984	1.0170549154
2077.3255407714	1.0185546875
2079.2543481445	1.0190002918
2081.1831555175	1.0199064016
2083.1119628906	1.0174282789
2085.0407702636	1.0174877644
2086.9695776367	1.0187420845
2088.8983850097	1.0184718370
2090.8271923828	1.0186096430
2092.7559997558	1.0167438984
2094.6848071288	1.0169861317
2096.6136145019	1.0185632706
2098.5424218749	1.0175147057
2100.4712292480	1.0167824030
2102.4000366210	1.0197559595
2104.3288439941	1.0191721916
2106.2576513671	1.0158814192
2108.1864587402	1.0179257393
2110.1152661132	1.0170418024
2112.0440734863	1.0167406797
2113.9728808593	1.0179718733
2115.9016882324	1.0180082321
2117.8304956054	1.0191826820
2119.7593029785	1.0164611340
2121.6881103515	1.0169639587
2123.6169177245	1.0171437263
2125.5457250976	1.0168195963
2127.4745324706	1.0194098949
2129.4033398437	1.0180906057
2131.3321472167	1.0178773403
2133.2609545898	1.0179911852
2135.1897619628	1.0175428391
2137.1185693359	1.0168769360
2139.0473767089	1.0176398754
2140.9761840820	1.0177627802
2142.9049914550	1.0164947510
2144.8337988281	1.0188697577
2146.7626062011	1.0183283091
2148.6914135742	1.0182131529
2150.6202209472	1.0177270174
2152.5490283203	1.0178718567
2154.4778356933	1.0198549032
2156.4066430663	1.0167244673
2158.3354504394	1.0166969299
2160.2642578124	1.0166164637
2162.1930651855	1.0172505379
2164.1218725585	1.0197384357
2166.0506799316	1.0178506374
2167.9794873046	1.0175540447
2169.9082946777	1.0175739527
2171.8371020507	1.0177425146
2173.7659094238	1.0192539692
2175.6947167968	1.0205664635
2177.6235241699	1.0200641155
2179.5523315429	1.0184108019
2181.4811389160	1.0190672874
2183.4099462890	1.0202711821
2185.3387536620	1.0200861692
2187.2675610351	1.0190030336
2189.1963684081	1.0204665661
2191.1251757812	1.0214521885
2193.0539831542	1.0204076767
2194.9827905273	1.0205456018
2196.9115979003	1.0209323168
2198.8404052734	1.0209107399
2200.7692126464	1.0200902224
2202.6980200195	1.0212720633
2204.6268273925	1.0215414762
2206.5556347656	1.0205430984
2208.4844421386	1.0211062431
2210.4132495117	1.0208898783
2212.3420568847	1.0218621492
2214.2708642577	1.0220378637
2216.1996716308	1.0218533278
2218.1284790038	1.0223623514
2220.0572863769	1.0219106674
2221.9860937499	1.0232759714
2223.9149011230	1.0232279301
2225.8437084960	1.0218814611
2227.7725158691	1.0226737261
2229.7013232421	1.0229136944
2231.6301306152	1.0239884853
2233.5589379882	1.0248850584
2235.4877453613	1.0233547688
2237.4165527343	1.0235556364
2239.3453601074	1.0239542723
2241.2741674804	1.0237516165
2243.2029748534	1.0233315229
2245.1317822265	1.0224221945
2247.0605895995	1.0241154432
2248.9893969726	1.0250241756
2250.9182043456	1.0247039795
2252.8470117187	1.0248949528
2254.7758190917	1.0258421898
2256.7046264648	1.0264496803
2258.6334338378	1.0251857042
2260.5622412109	1.0257534981
2262.4910485839	1.0247831345
2264.4198559570	1.0245764256
2266.3486633300	1.0268185139
2268.2774707031	1.0258935690
2270.2062780761	1.0270520449
2272.1350854491	1.0274879932
2274.0638928222	1.0256973505
2275.9927001952	1.0268398523
2277.9215075683	1.0259057283
2279.8503149413	1.0254917145
2281.7791223144	1.0272494555
2283.7079296874	1.0263750553
2285.6367370605	1.0274674892
2287.5655444335	1.0274109840
2289.4943518066	1.0257011652
2291.4231591796	1.0285571814
2293.3519665527	1.0278908014
2295.2807739257	1.0257271528
2297.2095812988	1.0265351534
2299.1383886718	1.0278801918
2301.0671960449	1.0299091339
2302.9960034179	1.0264682770
2304.9248107909	1.0237935781
2306.8536181640	1.0259547234
2308.7824255370	1.0257507563
2310.7112329101	1.0242179632
2312.6400402831	1.0250227451
2314.5688476562	1.0268456936
2316.4976550292	1.0250144005
2318.4264624023	1.0223196745
2320.3552697753	1.0197865963
2322.2840771484	1.0189449787
2324.2128845214	1.0188724995
2326.1416918945	1.0162086487
2328.0704992675	1.0171449184
2329.9993066406	1.0169066191
2331.9281140136	1.0163699389
2333.8569213866	1.0168461800
2335.7857287597	1.0145064592
2337.7145361327	1.0153955221
2339.6433435058	1.0159270763
2341.5721508788	1.0167318583
2343.5009582519	1.0171667337
2345.4297656249	1.0170085430
2347.3585729980	1.0227025747
2349.2873803710	1.0282597542
2351.2161877441	1.0253666639
2353.1449951171	1.0180339813
2355.0738024902	1.0172713995
2357.0026098632	1.0149087906
2358.9314172363	1.0122518539
2360.8602246093	1.0134248734
2362.7890319823	1.0116859674
2364.7178393554	1.0126838684
2366.6466467284	1.0128428936
2368.5754541015	1.0165584087
2370.5042614745	1.0205254555
2372.4330688476	1.0208009481
2374.3618762206	1.0241814852
2376.2906835937	1.0246052742
2378.2194909667	1.0279093981
2380.1482983398	1.0300099850
2382.0771057128	1.0292323828
2384.0059130859	1.0315840244
2385.9347204589	1.0307327509
2387.8635278320	1.0306735039
2389.7923352050	1.0317037106
2391.7211425780	1.0330232382
2393.6499499511	1.0326091051
2395.5787573241	1.0310605764
2397.5075646972	1.0326178074
2399.4363720702	1.0315936804
2401.3651794433	1.0297458172
2403.2939868163	1.0299422741
2405.2227941894	1.0329728127
2407.1516015624	1.0337321758
2409.0804089355	1.0321044922
2411.0092163085	1.0342781544
2412.9380236816	1.0332534313
2414.8668310546	1.0323095322
2416.7956384277	1.0330502987
2418.7244458007	1.0312322378
2420.6532531738	1.0315279961
2422.5820605468	1.0331492424
2424.5108679198	1.0349053144
2426.4396752929	1.0334557295
2428.3684826659	1.0313471556
2430.2972900390	1.0332784653
2432.2260974120	1.0327041149
2434.1549047851	1.0332378149
2436.0837121581	1.0334477425
2438.0125195312	1.0298029184
2439.9413269042	1.0314052105
2441.8701342773	1.0331496000
2443.7989416503	1.0334842205
2445.7277490234	1.0341899395
2447.6565563964	1.0333652496
2449.5853637695	1.0346394777
2451.5141711425	1.0344914198
2453.4429785155	1.0338391066
2455.3717858886	1.0328406096
2457.3005932616	1.0332546234
2459.2294006347	1.0353888273
2461.1582080077	1.0348510742
2463.0870153808	1.0345747471
2465.0158227538	1.0338261127
2466.9446301269	1.0352880955
2468.8734374999	1.0347381830
2470.8022448730	1.0339238644
2472.7310522460	1.0374971628
2474.6598596191	1.0364290476
2476.5886669921	1.0351110697
2478.5174743652	1.0343105793
2480.4462817382	1.0349932909
2482.3750891112	1.0362963676
2484.3038964843	1.0338439941
2486.2327038573	1.0343844891
2488.1615112304	1.0350064039
2490.0903186034	1.0356004238
2492.0191259765	1.0361485481
2493.9479333495	1.0351139307
2495.8767407226	1.0363947153
2497.8055480956	1.0361239910
2499.7343554687	1.0340906382
2501.6631628417	1.0343322754
2503.5919702148	1.0358419418
2505.5207775878	1.0354498625
2507.4495849609	1.0344138145
2509.3783923339	1.0354189873
2511.3071997069	1.0348633528
2513.2360070800	1.0342040062
2515.1648144530	1.0366944075
2517.0936218261	1.0356540680
2519.0224291991	1.0356026888
2520.9512365722	1.0370013714
2522.8800439452	1.0343559980
2524.8088513183	1.0360063314
2526.7376586913	1.0351096392
2528.6664660644	1.0334938765
2530.5952734374	1.0358818769
2532.5240808105	1.0345516205
2534.4528881835	1.0356216431
2536.3816955566	1.0364173651
2538.3105029296	1.0368186235
2540.2393103027	1.0382491350
2542.1681176757	1.0365295410
2544.0969250487	1.0353107452
2546.0257324218	1.0357121229
2547.9545397948	1.0363757610
2549.8833471679	1.0348470211
2551.8121545409	1.0342466831
2553.7409619140	1.0351907015
2555.6697692870	1.0361224413
2557.5985766601	1.0366480350
2559.5273840331	1.0348436832
2561.4561914062	1.0341043472
2563.3849987792	1.0362240076
2565.3138061523	1.0371979475
2567.2426135253	1.0355849266
2569.1714208984	1.0367771387
2571.1002282714	1.0364966393
2573.0290356444	1.0338550806
2574.9578430175	1.0343989134
2576.8866503905	1.0351991653
2578.8154577636	1.0359001160
2580.7442651366	1.0366131067
2582.6730725097	1.0366963148
2584.6018798827	1.0356379747
2586.5306872558	1.0360178947
2588.4594946288	1.0336923599
2590.3883020019	1.0317050219
2592.3171093749	1.0361930132
2594.2459167480	1.0375515223
2596.1747241210	1.0363262892
2598.1035314941	1.0341199636
2600.0323388671	1.0348305702
2601.9611462401	1.0359065533
2603.8899536132	1.0350238085
2605.8187609862	1.0359902382
2607.7475683593	1.0337455273
2609.6763757323	1.0361251831
2611.6051831054	1.0371435881
2613.5339904784	1.0352700949
2615.4627978515	1.0363845825
2617.3916052245	1.0359040499
2619.3204125976	1.0377764702
2621.2492199706	1.0359253883
2623.1780273437	1.0333558321
2625.1068347167	1.0339463949
2627.0356420898	1.0342259407
2628.9644494628	1.0353726149
2630.8932568358	1.0361982584
2632.8220642089	1.0363421440
2634.7508715819	1.0358294249
2636.6796789550	1.0365381241
2638.6084863280	1.0358369350
2640.5372937011	1.0342791080
2642.4661010741	1.0336729288
2644.3949084472	1.0368586779
2646.3237158202	1.0376805067
2648.2525231933	1.0339690447
2650.1813305663	1.0350195169
2652.1101379394	1.0342891216
2654.0389453124	1.0356192589
2655.9677526855	1.0364114046
2657.8965600585	1.0340155363
2659.8253674315	1.0354839563
2661.7541748046	1.0345702171
2663.6829821776	1.0358381271
2665.6117895507	1.0370934010
2667.5405969237	1.0345059633
2669.4694042968	1.0337492228
2671.3982116698	1.0338879824
2673.3270190429	1.0334930420
2675.2558264159	1.0342081785
2677.1846337890	1.0331567526
2679.1134411620	1.0334647894
2681.0422485351	1.0371805429
2682.9710559081	1.0337194204
2684.8998632812	1.0331927538
2686.8286706542	1.0350269079
2688.7574780273	1.0344003439
2690.6862854003	1.0364531279
2692.6150927733	1.0339434147
2694.5439001464	1.0339409113
2696.4727075194	1.0338273048
2698.4015148925	1.0316371918
2700.3303222655	1.0322152376
2702.2591296386	1.0334848166
2704.1879370116	1.0341469049
2706.1167443847	1.0323573351
2708.0455517577	1.0330858231
2709.9743591308	1.0334643126
2711.9031665038	1.0337058306
2713.8319738769	1.0328865051
2715.7607812499	1.0326222181
2717.6895886230	1.0339418650
2719.6183959960	1.0338373184
2721.5472033690	1.0342611074
2723.4760107421	1.0307577848
2725.4048181151	1.0318754911
2727.3336254882	1.0318044424
2729.2624328612	1.0303204060
2731.1912402343	1.0330475569
2733.1200476073	1.0288505554
2735.0488549804	1.0294246674
2736.9776623534	1.0332581997
2738.9064697265	1.0331963301
2740.8352770995	1.0315263271
2742.7640844726	1.0309097767
2744.6928918456	1.0327377319
2746.6216992187	1.0324074030
2748.5505065917	1.0334581137
2750.4793139647	1.0313953161
2752.4081213378	1.0312292576
2754.3369287108	1.0328785181
2756.2657360839	1.0302020311
2758.1945434569	1.0310448408
2760.1233508300	1.0302726030
2762.0521582030	1.0308114290
2763.9809655761	1.0321824551
2765.9097729491	1.0280616283
2767.8385803222	1.0302226543
2769.7673876952	1.0325515270
2771.6961950683	1.0294108391
2773.6250024413	1.0310217142
2775.5538098144	1.0309218168
2777.4826171874	1.0290727615
2779.4114245604	1.0277444124
2781.3402319335	1.0284075737
2783.2690393065	1.0313423872
2785.1978466796	1.0273952484
2787.1266540526	1.0291811228
2789.0554614257	1.0313751698
2790.9842687987	1.0284807682
2792.9130761718	1.0302209854
2794.8418835448	1.0284054279
2796.7706909179	1.0278741121
2798.6994982909	1.0264313221
2800.6283056640	1.0262056589
2802.5571130370	1.0277191401
2804.4859204101	1.0257291794
2806.4147277831	1.0269662142
2808.3435351562	1.0253102779
2810.2723425292	1.0262334347
2812.2011499022	1.0280498266
2814.1299572753	1.0261121988
2816.0587646483	1.0259462595
2817.9875720214	1.0256092548
2819.9163793944	1.0263305902
2821.8451867675	1.0244106054
2823.7739941405	1.0234403610
2825.7028015136	1.0244057178
2827.6316088866	1.0240826607
2829.5604162597	1.0233209133
2831.4892236327	1.0212115049
2833.4180310058	1.0211601257
2835.3468383788	1.0216490030
2837.2756457519	1.0206152201
2839.2044531249	1.0193924904
2841.1332604979	1.0210472345
2843.0620678710	1.0206050873
2844.9908752440	1.0164749622
2846.9196826171	1.0178142786
2848.8484899901	1.0184814930
2850.7772973632	1.0154178143
2852.7061047362	1.0164796114
2854.6349121093	1.0182396173
2856.5637194823	1.0171113014
2858.4925268554	1.0156439543
2860.4213342284	1.0157068968
2862.3501416015	1.0179444551
2864.2789489745	1.0163695812
2866.2077563476	1.0138014555
2868.1365637206	1.0150573254
2870.0653710936	1.0146518946
2871.9941784667	1.0153884888
2873.9229858397	1.0140539408
2875.8517932128	1.0105072260
2877.7806005858	1.0123311281
2879.7094079589	1.0139300823
2881.6382153319	1.0124467611
2883.5670227050	1.0116450787
2885.4958300780	1.0120775700
2887.4246374511	1.0120449066
2889.3534448241	1.0104748011
2891.2822521972	1.0100792646
2893.2110595702	1.0118126869
2895.1398669433	1.0095653534
2897.0686743163	1.0078142881
2898.9974816893	1.0069955587
2900.9262890624	1.0060319901
2902.8550964354	1.0095480680
2904.7839038085	1.0057666302
2906.7127111815	1.0048342943
2908.6415185546	1.0058264732
2910.5703259276	1.0006768703
2912.4991333007	1.0037604570
2914.4279406737	1.0011674166
2916.3567480468	0.9970657825
2918.2855554198	0.9988057613
2920.2143627929	0.9968246818
2922.1431701659	0.9966713786
2924.0719775390	0.9964092970
2926.0007849120	0.9957499504
2927.9295922851	0.9949660301
2929.8583996581	0.9945796728
2931.7872070311	0.9943556190
2933.7160144042	0.9942305684
2935.6448217772	0.9950489402
2937.5736291503	0.9951979518
2939.5024365233	0.9955297709
2941.4312438964	0.9945275784
2943.3600512694	0.9932934046
2945.2888586425	0.9924071431
2947.2176660155	0.9929581881
2949.1464733886	0.9906489253
2951.0752807616	0.9886555672
2953.0040881347	0.9891158342
2954.9328955077	0.9868247509
2956.8617028808	0.9878036976
2958.7905102538	0.9867250323
2960.7193176268	0.9850003123
2962.6481249999	0.9829505682
2964.5769323729	0.9821614623
2966.5057397460	0.9859805107
2968.4345471190	0.9819573760
2970.3633544921	0.9808290601
2972.2921618651	0.9821954370
2974.2209692382	0.9805114269
2976.1497766112	0.9797987938
2978.0785839843	0.9758821130
2980.0073913573	0.9760171771
2981.9361987304	0.9768418670
2983.8650061034	0.9763582349
2985.7938134765	0.9763292074
2987.7226208495	0.9741314650
2989.6514282225	0.9725925922
2991.5802355956	0.9701076150
2993.5090429686	0.9692005515
2995.4378503417	0.9700599909
2997.3666577147	0.9691296816
2999.2954650878	0.9678220749
3001.2242724608	0.9671440721
3003.1530798339	0.9662628174
3005.0818872069	0.9631298780
3007.0106945800	0.9597650170
3008.9395019530	0.9605103135
3010.8683093261	0.9591382146
3012.7971166991	0.9559099674
3014.7259240722	0.9572459459
3016.6547314452	0.9545533657
3018.5835388182	0.9512903094
3020.5123461913	0.9517699480
3022.4411535643	0.9501693249
3024.3699609374	0.9482772946
3026.2987683104	0.9462497234
3028.2275756835	0.9468637109
3030.1563830565	0.9465993047
3032.0851904296	0.9428856969
3034.0139978026	0.9390449524
3035.9428051757	0.9362121820
3037.8716125487	0.9363349080
3039.8004199218	0.9343361259
3041.7292272948	0.9331289530
3043.6580346679	0.9324750900
3045.5868420409	0.9297753572
3047.5156494139	0.9300391078
3049.4444567870	0.9274625778
3051.3732641600	0.9245126247
3053.3020715331	0.9217865467
3055.2308789061	0.9168890715
3057.1596862792	0.9159708023
3059.0884936522	0.9140436053
3061.0173010253	0.9126637578
3062.9461083983	0.9131476283
3064.8749157714	0.9117099643
3066.8037231444	0.9097685218
3068.7325305175	0.9048146605
3070.6613378905	0.9011150002
3072.5901452636	0.8990858793
3074.5189526366	0.8985433578
3076.4477600097	0.8992636204
3078.3765673827	0.8945527673
3080.3053747557	0.8898456097
3082.2341821288	0.8890160918
3084.1629895018	0.8891370296
3086.0917968749	0.8866620660
3088.0206042479	0.8813238740
3089.9494116210	0.8756306171
3091.8782189940	0.8738426566
3093.8070263671	0.8760619760
3095.7358337401	0.8720449209
3097.6646411132	0.8669915199
3099.5934484862	0.8650400639
3101.5222558593	0.8633053303
3103.4510632323	0.8617151380
3105.3798706054	0.8577035666
3107.3086779784	0.8562830091
3109.2374853514	0.8547675014
3111.1662927245	0.8518747687
3113.0951000975	0.8466467261
3115.0239074706	0.8418806791
3116.9527148436	0.8412749171
3118.8815222167	0.8374323249
3120.8103295897	0.8361392617
3122.7391369628	0.8340411782
3124.6679443358	0.8307396173
3126.5967517089	0.8294267058
3128.5255590819	0.8235012293
3130.4543664550	0.8188047409
3132.3831738280	0.8144685626
3134.3119812011	0.8126038313
3136.2407885741	0.8120526671
3138.1695959471	0.8069775105
3140.0984033202	0.8030814528
3142.0272106932	0.8012617826
3143.9560180663	0.7985881567
3145.8848254393	0.7952484488
3147.8136328124	0.7930826545
3149.7424401854	0.7878901362
3151.6712475585	0.7848151922
3153.6000549315	0.7826054692
3155.5288623046	0.7787372470
3157.4576696776	0.7797963023
3159.3864770507	0.7728387117
3161.3152844237	0.7691042423
3163.2440917968	0.7712497711
3165.1728991698	0.7632607818
3167.1017065428	0.7587997317
3169.0305139159	0.7550054789
3170.9593212889	0.7522266507
3172.8881286620	0.7524673343
3174.8169360350	0.7475420833
3176.7457434081	0.7451405525
3178.6745507811	0.7436452508
3180.6033581542	0.7420641184
3182.5321655272	0.7397589087
3184.4609729003	0.7356094122
3186.3897802733	0.7311429381
3188.3185876464	0.7265048623
3190.2473950194	0.7254329324
3192.1762023925	0.7209503651
3194.1050097655	0.7172473073
3196.0338171386	0.7178685069
3197.9626245116	0.7144762278
3199.8914318846	0.7110437751
3201.8202392577	0.7099915147
3203.7490466307	0.7083223462
3205.6778540038	0.7047747970
3207.6066613768	0.7027902603
3209.5354687499	0.7013981342
3211.4642761229	0.6992374659
3213.3930834960	0.6969318390
3215.3218908690	0.6951074004
3217.2506982421	0.6960185170
3219.1795056151	0.6939555407
3221.1083129882	0.6890025139
3223.0371203612	0.6859261990
3224.9659277343	0.6867023110
3226.8947351073	0.6835187674
3228.8235424803	0.6816927195
3230.7523498534	0.6840454936
3232.6811572264	0.6777142286
3234.6099645995	0.6785663962
3236.5387719725	0.6802645922
3238.4675793456	0.6769812703
3240.3963867186	0.6761256456
3242.3251940917	0.6728322506
3244.2540014647	0.6744300723
3246.1828088378	0.6737505198
3248.1116162108	0.6736180186
3250.0404235839	0.6692115068
3251.9692309569	0.6661078930
3253.8980383300	0.6715874672
3255.8268457030	0.6691340208
3257.7556530760	0.6669235826
3259.6844604491	0.6645995378
3261.6132678221	0.6676271558
3263.5420751952	0.6684131026
3265.4708825682	0.6648766994
3267.3996899413	0.6669577956
3269.3284973143	0.6639631391
3271.2573046874	0.6643310189
3273.1861120604	0.6650578976
3275.1149194335	0.6656864882
3277.0437268065	0.6619376540
3278.9725341796	0.6609342098
3280.9013415526	0.6635817885
3282.8301489257	0.6588470340
3284.7589562987	0.6636195183
3286.6877636717	0.6627383828
3288.6165710448	0.6610727906
3290.5453784178	0.6612249017
3292.4741857909	0.6585336924
3294.4029931639	0.6604214907
3296.3318005370	0.6565936208
3298.2606079100	0.6599217653
3300.1894152831	0.6602510214
3302.1182226561	0.6579144001
3304.0470300292	0.6577764750
3305.9758374022	0.6557657123
3307.9046447753	0.6580374241
3309.8334521483	0.6564198732
3311.7622595214	0.6575332284
3313.6910668944	0.6559674740
3315.6198742675	0.6547783613
3317.5486816405	0.6570394635
3319.4774890135	0.6562761664
3321.4062963866	0.6549196243
3323.3351037596	0.6525911093
3325.2639111327	0.6542868614
3327.1927185057	0.6529276967
3329.1215258788	0.6511179209
3331.0503332518	0.6521492600
3332.9791406249	0.6513955593
3334.9079479979	0.6500095725
3336.8367553710	0.6533522010
3338.7655627440	0.6537668705
3340.6943701171	0.6516946554
3342.6231774901	0.6561940312
3344.5519848632	0.6488755941
3346.4807922362	0.6489445567
3348.4095996092	0.6547405124
3350.3384069823	0.6480806470
3352.2672143553	0.6489533782
3354.1960217284	0.6525799632
3356.1248291014	0.6559061408
3358.0536364745	0.6536697745
3359.9824438475	0.6524809599
3361.9112512206	0.6531204581
3363.8400585936	0.6504114270
3365.7688659667	0.6559102535
3367.6976733397	0.6535434127
3369.6264807128	0.6479300261
3371.5552880858	0.6535308957
3373.4840954589	0.6581903100
3375.4129028319	0.6563116908
3377.3417102049	0.6567672491
3379.2705175780	0.6577160358
3381.1993249510	0.6569471955
3383.1281323241	0.6608749032
3385.0569396971	0.6627158523
3386.9857470702	0.6625640392
3388.9145544432	0.6637018919
3390.8433618163	0.6669189930
3392.7721691893	0.6697808504
3394.7009765624	0.6712153554
3396.6297839354	0.6718996167
3398.5585913085	0.6703799367
3400.4873986815	0.6703963280
3402.4162060546	0.6727249026
3404.3450134276	0.6777735949
3406.2738208006	0.6776474714
3408.2026281737	0.6789747477
3410.1314355467	0.6823201180
3412.0602429198	0.6790044308
3413.9890502928	0.6808195710
3415.9178576659	0.6845449805
3417.8466650389	0.6857123375
3419.7754724120	0.6901147366
3421.7042797850	0.6952895522
3423.6330871581	0.6937421560
3425.5618945311	0.6959950924
3427.4907019042	0.7008464932
3429.4195092772	0.7008121610
3431.3483166503	0.7042109966
3433.2771240233	0.7051069140
3435.2059313963	0.7086074948
3437.1347387694	0.7095358372
3439.0635461424	0.7092684507
3440.9923535155	0.7125478387
3442.9211608885	0.7130429745
3444.8499682616	0.7178406119
3446.7787756346	0.7186210155
3448.7075830077	0.7233991623
3450.6363903807	0.7272067666
3452.5651977538	0.7253381610
3454.4940051268	0.7299860716
3456.4228124999	0.7329939008
3458.3516198729	0.7347459197
3460.2804272460	0.7362831235
3462.2092346190	0.7399473190
3464.1380419921	0.7418135405
3466.0668493651	0.7452825904
3467.9956567381	0.7469388247
3469.9244641112	0.7447432280
3471.8532714842	0.7520784736
3473.7820788573	0.7538592815
3475.7108862303	0.7532609701
3477.6396936034	0.7591925859
3479.5685009764	0.7631205916
3481.4973083495	0.7625071406
3483.4261157225	0.7637415528
3485.3549230956	0.7699334025
3487.2837304686	0.7712306976
3489.2125378417	0.7729113102
3491.1413452147	0.7752005458
3493.0701525878	0.7760578990
3494.9989599608	0.7802557349
3496.9277673338	0.7822204232
3498.8565747069	0.7853234410
3500.7853820799	0.7922291756
3502.7141894530	0.7896465063
3504.6429968260	0.7896991968
3506.5718041991	0.7967993617
3508.5006115721	0.7943488955
3510.4294189452	0.7996977568
3512.3582263182	0.8038796186
3514.2870336913	0.8045608401
3516.2158410643	0.8107621074
3518.1446484374	0.8088479042
3520.0734558104	0.8115361333
3522.0022631835	0.8121567965
3523.9310705565	0.8122754097
3525.8598779295	0.8188612461
3527.7886853026	0.8228775859
3529.7174926756	0.8248707056
3531.6463000487	0.8248662949
3533.5751074217	0.8296583891
3535.5039147948	0.8324304223
3537.4327221678	0.8337767720
3539.3615295409	0.8371774554
3541.2903369139	0.8408794999
3543.2191442870	0.8411058187
3545.1479516600	0.8427997231
3547.0767590331	0.8493682742
3549.0055664061	0.8458802104
3550.9343737792	0.8484086990
3552.8631811522	0.8531671166
3554.7919885252	0.8557497859
3556.7207958983	0.8607715368
3558.6496032713	0.8600528836
3560.5784106444	0.8655044436
3562.5072180174	0.8651551604
3564.4360253905	0.8658240438
3566.3648327635	0.8717224002
3568.2936401366	0.8687044382
3570.2224475096	0.8730466962
3572.1512548827	0.8773137927
3574.0800622557	0.8774577379
3576.0088696288	0.8822107315
3577.9376770018	0.8851934671
3579.8664843749	0.8838716149
3581.7952917479	0.8871673346
3583.7240991210	0.8918818235
3585.6529064940	0.8909892440
3587.5817138670	0.8932270408
3589.5105212401	0.8953472972
3591.4393286131	0.8968141079
3593.3681359862	0.9007699490
3595.2969433592	0.9020105004
3597.2257507323	0.9054504633
3599.1545581053	0.9057729244
3601.0833654784	0.9039524198
3603.0121728514	0.9094066024
3604.9409802245	0.9123567343
3606.8697875975	0.9116797447
3608.7985949706	0.9116773009
3610.7274023436	0.9182220101
3612.6562097167	0.9224612117
3614.5850170897	0.9183546305
3616.5138244627	0.9239394069
3618.4426318358	0.9253479838
3620.3714392088	0.9268628955
3622.3002465819	0.9365440011
3624.2290539549	0.9341488481
3626.1578613280	0.9326598048
3628.0866687010	0.9364294410
3630.0154760741	0.9385802746
3631.9442834471	0.9390509725
3633.8730908202	0.9407974482
3635.8018981932	0.9449473619
3637.7307055663	0.9469983578
3639.6595129393	0.9476945996
3641.5883203124	0.9476931095
3643.5171276854	0.9551552534
3645.4459350584	0.9588336349
3647.3747424315	0.9573443532
3649.3035498045	0.9578788877
3651.2323571776	0.9595739841
3653.1611645506	0.9672842026
3655.0899719237	0.9666899443
3657.0187792967	0.9683003426
3658.9475866698	0.9718034863
3660.8763940428	0.9708755016
3662.8052014159	0.9800669551
3664.7340087889	0.9850423336
3666.6628161620	0.9880782366
3668.5916235350	0.9877000451
3670.5204309081	0.9819596410
3672.4492382811	0.9892107844
3674.3780456541	0.9920906425
3676.3068530272	0.9895170331
3678.2356604002	0.9931688905
3680.1644677733	0.9976818562
3682.0932751463	1.0044360161
3684.0220825194	1.0043554306
3685.9508898924	1.0038315058
3687.8796972655	1.0053362846
3689.8085046385	1.0005594492
3691.7373120116	1.0030677319
3693.6661193846	1.0070227385
3695.5949267577	1.0088994503
3697.5237341307	1.0094512701
3699.4525415038	1.0088580847
3701.3813488768	1.0125452280
3703.3101562499	1.0167105198
3705.2389636229	1.0149594545
3707.1677709959	1.0117281675
3709.0965783690	1.0158613920
3711.0253857420	1.0136477947
3712.9541931151	1.0121203661
3714.8830004881	1.0141863823
3716.8118078612	1.0133038759
3718.7406152342	1.0187289715
3720.6694226073	1.0138002634
3722.5982299803	1.0167366266
3724.5270373534	1.0186283588
3726.4558447264	1.0113791227
3728.3846520995	1.0146137476
3730.3134594725	1.0147066116
3732.2422668456	1.0198934078
3734.1710742186	1.0156538486
3736.0998815916	1.0153229237
3738.0286889647	1.0195771456
3739.9574963377	1.0148649216
3741.8863037108	1.0197702646
3743.8151110838	1.0136818886
3745.7439184569	1.0111360550
3747.6727258299	1.0173412561
3749.6015332030	1.0159852505
3751.5303405760	1.0178440809
3753.4591479491	1.0194447041
3755.3879553221	1.0192793608
3757.3167626952	1.0230636597
3759.2455700682	1.0254852772
3761.1743774413	1.0154747963
3763.1031848143	1.0188171864
3765.0319921873	1.0200619698
3766.9607995604	1.0177338123
3768.8896069334	1.0219537020
3770.8184143065	1.0184686184
3772.7472216795	1.0237478018
3774.6760290526	1.0200837851
3776.6048364256	1.0181097984
3778.5336437987	1.0205835104
3780.4624511717	1.0168757439
3782.3912585448	1.0188450813
3784.3200659178	1.0166864395
3786.2488732909	1.0213030577
3788.1776806639	1.0207878351
3790.1064880370	1.0169265270
3792.0352954100	1.0210218430
3793.9641027830	1.0233860016
3795.8929101561	1.0199774504
3797.8217175291	1.0180544853
3799.7505249022	1.0192841291
3801.6793322752	1.0169419050
3803.6081396483	1.0251827240
3805.5369470213	1.0165175200
3807.4657543944	1.0124139786
3809.3945617674	1.0269737244
3811.3233691405	1.0220246315
3813.2521765135	1.0219671726
3815.1809838866	1.0179102421
3817.1097912596	1.0098134279
3819.0385986327	1.0146942139
3820.9674060057	1.0152179003
3822.8962133787	1.0173594952
3824.8250207518	1.0211359262
3826.7538281248	1.0209951401
3828.6826354979	1.0179455280
3830.6114428709	1.0215579271
3832.5402502440	1.0189065933
3834.4690576170	1.0179814100
3836.3978649901	1.0198216438
3838.3266723631	1.0182988644
3840.2554797362	1.0193111897
3842.1842871092	1.0182012320
3844.1130944823	1.0203710794
3846.0419018553	1.0206854343
3847.9707092284	1.0249912739
3849.8995166014	1.0223295689
3851.8283239745	1.0163869858
3853.7571313475	1.0143123865
3855.6859387205	1.0162765980
3857.6147460936	1.0224695206
3859.5435534666	1.0160998106
3861.4723608397	1.0199486017
3863.4011682127	1.0176259279
3865.3299755858	1.0129992962
3867.2587829588	1.0237106085
3869.1875903319	1.0149850845
3871.1163977049	1.0163533688
3873.0452050780	1.0247617960
3874.9740124510	1.0211634636
3876.9028198241	1.0193638802
3878.8316271971	1.0220882893
3880.7604345702	1.0198653936
3882.6892419432	1.0175871849
3884.6180493162	1.0216648579
3886.5468566893	1.0150161982
3888.4756640623	1.0205025673
3890.4044714354	1.0234935284
3892.3332788084	1.0168552399
3894.2620861815	1.0219329596
3896.1908935545	1.0205187798
3898.1197009276	1.0179667473
3900.0485083006	1.0173691511
3901.9773156737	1.0195627213
3903.9061230467	1.0186159611
3905.8349304198	1.0157724619
3907.7637377928	1.0236347914
3909.6925451659	1.0234210491
3911.6213525389	1.0160995722
3913.5501599119	1.0183247328
3915.4789672850	1.0183074474
3917.4077746580	1.0164983273
3919.3365820311	1.0203377008
3921.2653894041	1.0200417042
3923.1941967772	1.0218455791
3925.1230041502	1.0175718069
3927.0518115233	1.0191144943
3928.9806188963	1.0265691280
3930.9094262694	1.0214303732
3932.8382336424	1.0225498676
3934.7670410155	1.0197943449
3936.6958483885	1.0211956501
3938.6246557616	1.0208340883
3940.5534631346	1.0140964985
3942.4822705076	1.0182029009
3944.4110778807	1.0187009573
3946.3398852537	1.0224949121
3948.2686926268	1.0192141533
3950.1974999998	1.0184180737
3952.1263073729	1.0222145319
3954.0551147459	1.0188275576
3955.9839221190	1.0204957724
3957.9127294920	1.0203238726
3959.8415368651	1.0250337124
3961.7703442381	1.0206352472
3963.6991516112	1.0161912441
3965.6279589842	1.0207456350
3967.5567663573	1.0196423531
3969.4855737303	1.0218040943
3971.4143811034	1.0192722082
3973.3431884764	1.0147653818
3975.2719958494	1.0135183334
3977.2008032225	1.0168923140
3979.1296105955	1.0199553967
3981.0584179686	1.0185014009
3982.9872253416	1.0181878805
3984.9160327147	1.0212799311
3986.8448400877	1.0239502192
3988.7736474608	1.0208089352
3990.7024548338	1.0202974081
3992.6312622069	1.0189943314
3994.5600695799	1.0200433731
3996.4888769530	1.0192222595
3998.4176843260	1.0185561180
4000.3464916991	1.0194200277
4002.2752990721	1.0175235271
4004.2041064451	1.0227267742
4006.1329138182	1.0167739391
4008.0617211912	1.0176687241
4009.9905285643	1.0218999386
4011.9193359373	1.0166351795
4013.8481433104	1.0182508230
4015.7769506834	1.0161584616
4017.7057580565	1.0227010250
4019.6345654295	1.0214222670
4021.5633728026	1.0146269798
4023.4921801756	1.0200645924
4025.4209875487	1.0205353498
4027.3497949217	1.0174285173
4029.2786022948	1.0192639828
4031.2074096678	1.0240457058
4033.1362170408	1.0163775682
4035.0650244139	1.0147007704
4036.9938317869	1.0168312788
4038.9226391600	1.0177489519
4040.8514465330	1.0268368721
4042.7802539061	1.0227924585
4044.7090612791	1.0186989307
4046.6378686522	1.0184680223
4048.5666760252	1.0195366144
4050.4954833983	1.0202040672
4052.4242907713	1.0155928135
4054.3530981444	1.0160206556
4056.2819055174	1.0170738697
4058.2107128905	1.0175262690
4060.1395202635	1.0147770643
4062.0683276365	1.0162142515
4063.9971350096	1.0220791101
4065.9259423826	1.0237650871
4067.8547497557	1.0212228298
4069.7835571287	1.0181777477
4071.7123645018	1.0219392776
4073.6411718748	1.0210372210
4075.5699792479	1.0167758465
4077.4987866209	1.0177032948
4079.4275939940	1.0211735964
4081.3564013670	1.0236654282
4083.2852087401	1.0217804909
4085.2140161131	1.0181944370
4087.1428234862	1.0178413391
4089.0716308592	1.0200945139
4091.0004382323	1.0175297260
4092.9292456053	1.0138170719
4094.8580529783	1.0174335241
4096.7868603514	1.0257874727
4098.7156677244	1.0224068165
4100.6444750975	1.0181016922
4102.5732824705	1.0201793909
4104.5020898436	1.0137325525
4106.4308972166	1.0166105032
4108.3597045897	1.0212197304
4110.2885119627	1.0160288811
4112.2173193358	1.0102975368
4114.1461267088	1.0124781132
4116.0749340819	1.0238492489
4118.0037414549	1.0187096596
4119.9325488280	1.0116506815
4121.8613562010	1.0141830444
4123.7901635740	1.0139155388
4125.7189709471	1.0135877132
4127.6477783201	1.0173552036
4129.5765856932	1.0205440521
4131.5053930662	1.0140663385
4133.4342004393	1.0184260607
4135.3630078123	1.0219094753
4137.2918151854	1.0187647343
4139.2206225584	1.0204317570
4141.1494299315	1.0128521919
4143.0782373045	1.0171897411
4145.0070446776	1.0184326172
4146.9358520506	1.0182673931
4148.8646594237	1.0215610266
4150.7934667967	1.0072400570
4152.7222741697	1.0188603401
4154.6510815428	1.0245537758
4156.5798889158	1.0127133131
4158.5086962889	1.0206391811
4160.4375036619	1.0196596384
4162.3663110350	1.0224704742
4164.2951184080	1.0195367336
4166.2239257811	1.0141522884
4168.1527331541	1.0222314596
4170.0815405272	1.0224740505
4172.0103479002	1.0208740234
4173.9391552733	1.0088163614
4175.8679626463	1.0127332211
4177.7967700194	1.0256497860
4179.7255773924	1.0167695284
4181.6543847654	1.0172019005
4183.5831921385	1.0212746859
4185.5119995115	1.0215752125
4187.4408068846	1.0180872679
4189.3696142576	1.0160871744
4191.2984216307	1.0177345276
4193.2272290037	1.0138162374
4195.1560363768	1.0166306496
4197.0848437498	1.0168516636
4199.0136511229	1.0166983604
4200.9424584959	1.0169686079
4202.8712658690	1.0147594213
4204.8000732420	1.0203454494
4206.7288806151	1.0168492794
4208.6576879881	1.0115673542
4210.5864953611	1.0172500610
4212.5153027342	1.0188143253
4214.4441101072	1.0183380842
4216.3729174803	1.0217137337
4218.3017248533	1.0226137638
4220.2305322264	1.0203430653
4222.1593395994	1.0204195976
4224.0881469725	1.0199571848
4226.0169543455	1.0154998302
4227.9457617186	1.0166643858
4229.8745690916	1.0172388554
4231.8033764647	1.0181690454
4233.7321838377	1.0214058161
4235.6609912108	1.0135270357
4237.5897985838	1.0197300911
4239.5186059569	1.0221282244
4241.4474133299	1.0091269016
4243.3762207029	1.0148876905
4245.3050280760	1.0143909454
4247.2338354490	1.0125946999
4249.1626428221	1.0172108412
4251.0914501951	1.0181330442
4253.0202575682	1.0193325281
4254.9490649412	1.0139832497
4256.8778723143	1.0144640207
4258.8066796873	1.0138150454
4260.7354870604	1.0240356922
4262.6642944334	1.0307377577
4264.5931018065	1.0136423111
4266.5219091795	1.0183224678
4268.4507165526	1.0226851702
4270.3795239256	1.0143569708
4272.3083312986	1.0211530924
4274.2371386717	1.0211962461
4276.1659460447	1.0154285431
4278.0947534178	1.0137373209
4280.0235607908	1.0133618116
4281.9523681639	1.0160627365
4283.8811755369	1.0130687952
4285.8099829100	1.0102595091
4287.7387902830	1.0132985115
4289.6675976561	1.0159716606
4291.5964050291	1.0160573721
4293.5252124022	1.0122333765
4295.4540197752	1.0161918402
4297.3828271483	1.0249148607
4299.3116345213	1.0237860680
4301.2404418943	1.0188574791
4303.1692492674	1.0180281401
4305.0980566404	1.0162727833
4307.0268640135	1.0143823624
4308.9556713865	1.0170943737
4310.8844787596	1.0156871080
4312.8132861326	1.0126034021
4314.7420935057	1.0092415810
4316.6709008787	1.0170189142
4318.5997082518	1.0258338451
4320.5285156248	1.0131605864
4322.4573229979	1.0157197714
4324.3861303709	1.0203692913
4326.3149377440	1.0140788555
4328.2437451170	1.0192891359
4330.1725524900	1.0132821798
4332.1013598631	1.0083540678
4334.0301672361	1.0184552670
4335.9589746092	1.0221323967
4337.8877819822	1.0173305273
4339.8165893553	1.0163366795
4341.7453967283	1.0121169090
4343.6742041014	1.0097990036
4345.6030114744	1.0140734911
4347.5318188475	1.0150492191
4349.4606262205	1.0212166309
4351.3894335936	1.0197048187
4353.3182409666	1.0150103569
4355.2470483397	1.0135164261
4357.1758557127	1.0163356066
4359.1046630858	1.0203998089
4361.0334704588	1.0098541975
4362.9622778318	1.0153738260
4364.8910852049	1.0180985928
4366.8198925779	1.0088253021
4368.7486999510	1.0151503086
4370.6775073240	1.0124473572
4372.6063146971	1.0093303919
4374.5351220701	1.0193721056
4376.4639294432	1.0199174881
4378.3927368162	1.0095548630
4380.3215441893	1.0077424049
4382.2503515623	1.0110088587
4384.1791589354	1.0188155174
4386.1079663084	1.0208716393
4388.0367736815	1.0110206604
4389.9655810545	1.0134509802
4391.8943884275	1.0137428045
4393.8231958006	1.0135999918
4395.7520031736	1.0170983076
4397.6808105467	1.0152809620
4399.6096179197	1.0104750395
4401.5384252928	1.0044093132
4403.4672326658	1.0160148144
4405.3960400389	1.0226016045
4407.3248474119	1.0121784210
4409.2536547850	1.0080866814
4411.1824621580	1.0189008713
4413.1112695311	1.0229407549
4415.0400769041	1.0091058016
4416.9688842772	1.0123351812
4418.8976916502	1.0172865391
4420.8264990232	1.0127269030
4422.7553063963	1.0134937763
4424.6841137693	1.0116893053
4426.6129211424	1.0140967369
4428.5417285154	1.0139456987
4430.4705358885	1.0100821257
4432.3993432615	1.0146465302
4434.3281506346	1.0140767097
4436.2569580076	1.0084490776
4438.1857653807	1.0139857531
4440.1145727537	1.0155004263
4442.0433801268	1.0126347542
4443.9721874998	1.0072095394
4445.9009948729	1.0074476004
4447.8298022459	1.0220528841
4449.7586096189	1.0136939287
4451.6874169920	1.0087476969
4453.6162243650	1.0124526024
4455.5450317381	1.0089735985
4457.4738391111	1.0175685883
4459.4026464842	1.0113422871
4461.3314538572	1.0130006075
4463.2602612303	1.0138453245
4465.1890686033	1.0028196573
4467.1178759764	1.0096384287
4469.0466833494	1.0142140388
4470.9754907225	1.0198097229
4472.9042980955	1.0116714239
4474.8331054686	1.0026673079
4476.7619128416	1.0070563555
4478.6907202147	1.0078160763
4480.6195275877	1.0153181553
4482.5483349607	1.0097482204
4484.4771423338	1.0086078644
4486.4059497068	1.0130051374
4488.3347570799	1.0123682022
4490.2635644529	1.0178364515
4492.1923718260	1.0115016699
4494.1211791990	1.0185613632
4496.0499865721	1.0185115337
4497.9787939451	1.0039045811
4499.9076013182	1.0139554739
4501.8364086912	1.0169529915
4503.7652160643	1.0129188299
4505.6940234373	1.0155202150
4507.6228308104	1.0086997747
4509.5516381834	1.0060496330
4511.4804455564	1.0135034323
4513.4092529295	1.0112844706
4515.3380603025	1.0104420185
4517.2668676756	1.0194784403
4519.1956750486	1.0167059898
4521.1244824217	1.0152661800
4523.0532897947	1.0160354376
4524.9820971678	1.0148166418
4526.9109045408	1.0089018345
4528.8397119139	0.9995383620
4530.7685192869	1.0148851871
4532.6973266600	1.0201640129
4534.6261340330	1.0105372667
4536.5549414061	1.0132113695
4538.4837487791	1.0098574162
4540.4125561521	1.0088851452
4542.3413635252	1.0100848675
4544.2701708982	1.0081864595
4546.1989782713	1.0064120293
4548.1277856443	1.0116034746
4550.0565930174	1.0161627531
4551.9854003904	1.0046062469
4553.9142077635	1.0045814514
4555.8430151365	1.0152609348
4557.7718225096	1.0146273375
4559.7006298826	1.0095368624
4561.6294372557	1.0115667582
4563.5582446287	1.0132857561
4565.4870520018	1.0110263824
4567.4158593748	1.0183492899
4569.3446667478	1.0143673420
4571.2734741209	1.0074017048
4573.2022814939	1.0073456764
4575.1310888670	1.0009691715
4577.0598962400	1.0113689899
4578.9887036131	1.0127664804
4580.9175109861	1.0037865639
4582.8463183592	1.0068036318
4584.7751257322	1.0039902925
4586.7039331053	1.0115362406
4588.6327404783	1.0157780647
4590.5615478514	1.0111304522
4592.4903552244	1.0028454065
4594.4191625975	0.9947175980
4596.3479699705	1.0119353533
4598.2767773435	1.0111914873
4600.2055847166	1.0021173954
4602.1343920896	1.0088130236
4604.0631994627	1.0068410635
4605.9920068357	1.0136078596
4607.9208142088	1.0201244354
4609.8496215818	1.0197050571
4611.7784289549	1.0100259781
4613.7072363279	1.0038880110
4615.6360437010	1.0105830431
4617.5648510740	1.0118082762
4619.4936584471	1.0211845636
4621.4224658201	1.0172799826
4623.3512731932	1.0067009926
4625.2800805662	1.0077009201
4627.2088879393	1.0079026222
4629.1376953123	1.0162953138
4631.0665026853	1.0107337236
4632.9953100584	1.0012942553
4634.9241174314	1.0075585842
4636.8529248045	1.0100624561
4638.7817321775	1.0065777302
4640.7105395506	1.0015190840
4642.6393469236	1.0000998974
4644.5681542967	1.0058727264
4646.4969616697	1.0082628727
4648.4257690428	1.0049724579
4650.3545764158	1.0072429180
4652.2833837889	1.0043169260
4654.2121911619	1.0025231838
4656.1409985350	1.0037957430
4658.0698059080	0.9982240200
4659.9986132810	1.0086753368
4661.9274206541	1.0149233341
4663.8562280271	1.0093041658
4665.7850354002	1.0122783184
4667.7138427732	1.0053325891
4669.6426501463	0.9999037385
4671.5714575193	1.0028067827
4673.5002648924	0.9981514215
4675.4290722654	1.0028028488
4677.3578796385	1.0079959631
4679.2866870115	1.0029772520
4681.2154943846	1.0117387772
4683.1443017576	1.0123908520
4685.0731091307	1.0053485632
4687.0019165037	1.0116370916
4688.9307238767	1.0091753006
4690.8595312498	1.0098385811
4692.7883386228	1.0094082355
4694.7171459959	0.9988248348
4696.6459533689	0.9959017038
4698.5747607420	0.9942193627
4700.5035681150	0.9999138117
4702.4323754881	1.0059542656
4704.3611828611	1.0061137676
4706.2899902342	1.0029040575
4708.2187976072	1.0004817247
4710.1476049803	1.0156462193
4712.0764123533	1.0125513077
4714.0052197264	0.9986299276
4715.9340270994	1.0132981539
4717.8628344724	1.0115646124
4719.7916418455	1.0045826435
4721.7204492185	1.0137962103
4723.6492565916	0.9998363256
4725.5780639646	0.9988630414
4727.5068713377	1.0095236301
4729.4356787107	0.9979042411
4731.3644860838	1.0031992197
4733.2932934568	1.0069634914
4735.2221008299	0.9996960163
4737.1509082029	1.0054365396
4739.0797155760	1.0100097656
4741.0085229490	1.0153082609
4742.9373303221	1.0068503618
4744.8661376951	0.9987868667
4746.7949450682	1.0001804829
4748.7237524412	0.9968733788
4750.6525598142	1.0040495396
4752.5813671873	1.0037971735
4754.5101745603	1.0051189661
4756.4389819334	1.0041649342
4758.3677893064	0.9966495037
4760.2965966795	1.0071207285
4762.2254040525	1.0120995045
4764.1542114256	1.0126255751
4766.0830187986	1.0067520142
4768.0118261717	1.0067434311
4769.9406335447	1.0138525963
4771.8694409178	1.0045949221
4773.7982482908	1.0064765215
4775.7270556639	1.0090174675
4777.6558630369	1.0006418228
4779.5846704099	1.0016460419
4781.5134777830	1.0027332306
4783.4422851560	0.9931305051
4785.3710925291	1.0009136200
4787.2998999021	1.0038659573
4789.2287072752	0.9950151443
4791.1575146482	1.0106786489
4793.0863220213	0.9989574552
4795.0151293943	0.9927170873
4796.9439367674	1.0068359375
4798.8727441404	1.0027816296
4800.8015515135	1.0065702200
4802.7303588865	1.0054087639
4804.6591662596	1.0092355013
4806.5879736326	1.0021237135
4808.5167810056	0.9957928658
4810.4455883787	1.0034949780
4812.3743957517	1.0057293177
4814.3032031248	1.0082356930
4816.2320104978	0.9985076785
4818.1608178709	0.9995901585
4820.0896252439	0.9994840622
4822.0184326170	1.0058532953
4823.9472399900	1.0039446354
4825.8760473631	1.0082404613
4827.8048547361	1.0281476974
4829.7336621092	1.0026191473
4831.6624694822	1.0125370026
4833.5912768553	1.0045875311
4835.5200842283	0.9850984812
4837.4488916013	1.0155792236
4839.3776989744	0.9953606129
4841.3065063474	0.9936384559
4843.2353137205	1.0038936138
4845.1641210935	0.9939220548
4847.0929284666	1.0008751154
4849.0217358396	0.9928841591
4850.9505432127	1.0025861263
4852.8793505857	1.0069472790
4854.8081579588	0.9945380688
4856.7369653318	0.9974050522
4858.6657727049	0.9951192737
4860.5945800779	0.9963186979
4862.5233874510	0.9924850464
4864.4521948240	0.9847847223
4866.3810021971	0.9997491837
4868.3098095701	0.9980796576
4870.2386169431	0.9961052537
4872.1674243162	1.0077677965
4874.0962316892	1.0042957067
4876.0250390623	1.0004616976
4877.9538464353	0.9828698039
4879.8826538084	0.9942354560
4881.8114611814	1.0011820793
4883.7402685545	0.9928800464
4885.6690759275	1.0097768307
4887.5978833006	0.9917377234
4889.5266906736	1.0032161474
4891.4554980467	1.0086821318
4893.3843054197	0.9952571988
4895.3131127928	1.0091013908
4897.2419201658	0.9898450971
4899.1707275388	0.9969003201
4901.0995349119	0.9986292124
4903.0283422849	0.9823079705
4904.9571496580	0.9935488105
4906.8859570310	0.9998007417
4908.8147644041	1.0035139322
4910.7435717771	1.0059876442
4912.6723791502	1.0068637133
4914.6011865232	0.9952433109
4916.5299938963	0.9942708611
4918.4588012693	0.9936282635
4920.3876086424	0.9951771498
4922.3164160154	1.0099767447
4924.2452233885	0.9984803796
4926.1740307615	0.9871160388
4928.1028381345	0.9905812740
4930.0316455076	1.0038361549
4931.9604528806	1.0021637678
4933.8892602537	0.9891763330
4935.8180676267	0.9999411106
4937.7468749998	1.0095038414
4939.6756823728	0.9949769378
4941.6044897459	0.9880490303
4943.5332971189	1.0031132698
4945.4621044920	1.0063886642
4947.3909118650	1.0131024122
4949.3197192381	1.0018265247
4951.2485266111	0.9895715714
4953.1773339842	1.0059844255
4955.1061413572	0.9996460080
4957.0349487302	0.9956034422
4958.9637561033	0.9912279844
4960.8925634763	0.9931231141
4962.8213708494	1.0008659363
4964.7501782224	0.9940387011
4966.6789855955	0.9968415499
4968.6077929685	1.0024858713
4970.5366003416	1.0117257833
4972.4654077146	1.0128353834
4974.3942150877	1.0095162392
4976.3230224607	0.9879217148
4978.2518298338	0.9742992520
4980.1806372068	0.9783545136
4982.1094445799	0.9893141985
4984.0382519529	1.0167298317
4985.9670593259	0.9905386567
4987.8958666990	0.9864647388
4989.8246740720	1.0095643997
4991.7534814451	0.9911987185
4993.6822888181	0.9818205237
4995.6110961912	0.9938414097
4997.5399035642	1.0139561892
4999.4687109373	0.9886244535
5001.3975183103	0.9997417927
5003.3263256834	1.0092824697
5005.2551330564	0.9795473814
5007.1839404295	1.0162962675
5009.1127478025	1.0048229694
5011.0415551756	0.9906994104
5012.9703625486	1.0078415871
5014.8991699217	0.9875879884
5016.8279772947	0.9922100306
5018.7567846677	0.9986400604
5020.6855920408	0.9882030487
5022.6143994138	0.9749870896
5024.5432067869	0.9818367362
5026.4720141599	0.9870797396
5028.4008215330	0.9890466332
5030.3296289060	0.9856693149
5032.2584362791	0.9769886732
5034.1872436521	0.9998127222
5036.1160510252	0.9920079708
5038.0448583982	1.0012866259
5039.9736657713	1.0087844133
5041.9024731443	0.9822869301
5043.8312805174	0.9917029142
5045.7600878904	0.9886221290
5047.6888952634	1.0004080534
5049.6177026365	0.9991059899
5051.5465100095	0.9776331186
5053.4753173826	0.9928657413
5055.4041247556	0.9997432232
5057.3329321287	1.0147289038
5059.2617395017	1.0147871971
5061.1905468748	0.9839015603
5063.1193542478	0.9797931910
5065.0481616209	1.0017077923
5066.9769689939	1.0021282434
5068.9057763670	0.9875334501
5070.8345837400	0.9782509804
5072.7633911131	0.9861630797
5074.6921984861	1.0046254396
5076.6210058591	0.9921225309
5078.5498132322	1.0002127886
5080.4786206052	1.0035408735
5082.4074279783	0.9893435240
5084.3362353513	1.0033483505
5086.2650427244	0.9883486032
5088.1938500974	0.9769313931
5090.1226574705	0.9839279652
5092.0514648435	0.9923908710
5093.9802722166	1.0004523993
5095.9090795896	0.9886448383
5097.8378869627	0.9781569839
5099.7666943357	0.9791643023
5101.6955017088	0.9819325805
5103.6243090818	0.9740180969
5105.5531164548	0.9719194770
5107.4819238279	0.9684633017
5109.4107312009	0.9962550998
5111.3395385740	1.0099694729
5113.2683459470	0.9813827276
5115.1971533201	1.0076277256
5117.1259606931	0.9990416169
5119.0547680662	0.9790025949
5120.9835754392	0.9991236329
5122.9123828123	0.9920304418
5124.8411901853	0.9836619496
5126.7699975584	0.9846858978
5128.6988049314	0.9955812693
5130.6276123045	0.9809160829
5132.5564196775	0.9789350629
5134.4852270506	0.9843989015
5136.4140344236	0.9774295688
5138.3428417966	1.0007688999
5140.2716491697	0.9951862097
5142.2004565427	0.9995653033
5144.1292639158	0.9993037581
5146.0580712888	0.9771141410
5147.9868786619	0.9817932844
5149.9156860349	0.9704822302
5151.8444934080	0.9758339524
5153.7733007810	0.9957472682
5155.7021081541	0.9805495143
5157.6309155271	0.9767660499
5159.5597229002	1.0111736059
5161.4885302732	1.0103458166
5163.4173376463	0.9820104241
5165.3461450193	0.9830103517
5167.2749523923	0.9868636727
5169.2037597654	0.9834122062
5171.1325671384	0.9797083735
5173.0613745115	0.9930984378
5174.9901818845	0.9947006702
5176.9189892576	0.9984474778
5178.8477966306	1.0122282505
5180.7766040037	0.9855459929
5182.7054113767	0.9759219885
5184.6342187498	0.9804841280
5186.5630261228	0.9825926423
5188.4918334959	0.9972384572
5190.4206408689	0.9935918450
5192.3494482420	0.9844427109
5194.2782556150	0.9953644276
5196.2070629880	0.9886565208
5198.1358703611	0.9624444842
5200.0646777341	0.9894533753
5201.9934851072	0.9946717024
5203.9222924802	0.9759191275
5205.8510998533	0.9870198965
5207.7799072263	0.9653217196
5209.7087145994	0.9726948142
5211.6375219724	0.9821345806
5213.5663293455	0.9684994817
5215.4951367185	0.9714261889
5217.4239440916	0.9685364366
5219.3527514646	0.9882146716
5221.2815588377	0.9885187745
5223.2103662107	0.9758406281
5225.1391735837	0.9790120125
5227.0679809568	0.9914368391
5228.9967883298	1.0066142082
5230.9255957029	0.9823421240
5232.8544030759	0.9791716337
5234.7832104490	0.9783543348
5236.7120178220	0.9852606058
5238.6408251951	1.0190812349
5240.5696325681	0.9892880917
5242.4984399412	0.9787604213
5244.4272473142	0.9889677167
5246.3560546873	0.9810201526
5248.2848620603	0.9862236977
5250.2136694334	0.9773446918
5252.1424768064	0.9861090779
5254.0712841795	0.9887193441
5256.0000915525	0.9936566949
5257.9288989255	0.9903615713
5259.8577062986	0.9778137803
5261.7865136716	1.0029013157
5263.7153210447	0.9829933643
5265.6441284177	0.9687178135
5267.5729357908	0.9847314954
5269.5017431638	0.9763781428
5271.4305505369	0.9761300087
5273.3593579099	0.9735925794
5275.2881652830	0.9802586436
5277.2169726560	0.9912217259
5279.1457800291	0.9973855615
5281.0745874021	0.9942750335
5283.0033947752	0.9879319668
5284.9322021482	0.9864374399
5286.8610095212	0.9762302637
5288.7898168943	0.9828333259
5290.7186242673	1.0024104118
5292.6474316404	1.0017954111
5294.5762390134	0.9621906281
5296.5050463865	0.9745060205
5298.4338537595	1.0002664328
5300.3626611326	0.9711777568
5302.2914685056	0.9924293160
5304.2202758787	0.9926553965
5306.1490832517	0.9979893565
5308.0778906248	0.9983484149
5310.0066979978	0.9564274549
5311.9355053709	0.9804543257
5313.8643127439	0.9725708961
5315.7931201169	0.9812632203
5317.7219274900	1.0058239698
5319.6507348630	0.9715347290
5321.5795422361	0.9653746486
5323.5083496091	0.9704090357
5325.4371569822	0.9887006283
5327.3659643552	0.9816051722
5329.2947717283	0.9880957603
5331.2235791013	1.0058511496
5333.1523864744	0.9827494621
5335.0811938474	0.9922371507
5337.0100012205	0.9850308299
5338.9388085935	0.9829629064
5340.8676159666	0.9804728627
5342.7964233396	0.9672796130
5344.7252307126	0.9890037179
5346.6540380857	0.9956463575
5348.5828454587	0.9901995659
5350.5116528318	0.9743360877
5352.4404602048	0.9885790348
5354.3692675779	0.9770804048
5356.2980749509	0.9491220713
5358.2268823240	0.9878931642
5360.1556896970	0.9824294448
5362.0844970701	0.9768992662
5364.0133044431	0.9899848104
5365.9421118162	0.9793254733
5367.8709191892	0.9920673370
5369.7997265623	0.9680194259
5371.7285339353	0.9526790380
5373.6573413083	0.9831895232
5375.5861486814	0.9834769964
5377.5149560544	0.9856242537
5379.4437634275	0.9963445663
5381.3725708005	0.9813419580
5383.3013781736	0.9940946102
5385.2301855466	0.9951186180
5387.1589929197	0.9852271080
5389.0878002927	1.0057995319
5391.0166076658	0.9918546677
5392.9454150388	0.9925353527
5394.8742224119	0.9811148643
5396.8030297849	0.9613758922
5398.7318371580	1.0019834042
5400.6606445310	1.0095776320
5402.5894519041	0.9867934585
5404.5182592771	0.9824604392
5406.4470666501	0.9882982373
5408.3758740232	0.9826582670
5410.3046813962	0.9942091703
5412.2334887693	1.0037003756
5414.1622961423	0.9596068263
5416.0911035154	0.9598374963
5418.0199108884	0.9722902179
5419.9487182615	0.9634541869
5421.8775256345	0.9777595997
5423.8063330076	0.9812707901
5425.7351403806	0.9783718586
5427.6639477537	0.9609135985
5429.5927551267	0.9612562060
5431.5215624998	0.9739145041
5433.4503698728	0.9502679110
5435.3791772458	0.9629500508
5437.3079846189	0.9987056255
5439.2367919919	0.9883839488
5441.1655993650	0.9894625545
5443.0944067380	0.9902246594
5445.0232141111	0.9696303606
5446.9520214841	0.9821875691
5448.8808288572	0.9968806505
5450.8096362302	0.9975464940
5452.7384436033	0.9941981435
5454.6672509763	0.9792491198
5456.5960583494	0.9661501646
5458.5248657224	0.9696310759
5460.4536730955	0.9800269604
5462.3824804685	0.9750844836
5464.3112878415	0.9737302065
5466.2400952146	0.9684128761
5468.1689025876	0.9614261389
5470.0977099607	0.9731199145
5472.0265173337	0.9871897697
5473.9553247068	0.9756921530
5475.8841320798	0.9759098291
5477.8129394529	1.0036464930
5479.7417468259	0.9620631933
5481.6705541990	0.9507219195
5483.5993615720	0.9968265295
5485.5281689451	0.9709777832
5487.4569763181	0.9665821195
5489.3857836912	0.9902327657
5491.3145910642	0.9783895612
5493.2433984372	0.9864825606
5495.1722058103	1.0034278631
5497.1010131833	0.9861372709
5499.0298205564	0.9788355827
5500.9586279294	0.9856302738
5502.8874353025	0.9720460176
5504.8162426755	0.9659039974
5506.7450500486	0.9507530928
5508.6738574216	0.9540866613
5510.6026647947	0.9944824576
5512.5314721677	0.9693337679
5514.4602795408	0.9513530731
5516.3890869138	1.0006823540
5518.3178942869	0.9752967358
5520.2467016599	0.9620873332
5522.1755090330	0.9940006733
5524.1043164060	0.9403301477
5526.0331237790	0.9418318272
5527.9619311521	0.9979375005
5529.8907385251	0.9898363948
5531.8195458982	0.9781359434
5533.7483532712	0.9830423594
5535.6771606443	0.9442930818
5537.6059680173	0.9415866137
5539.5347753904	1.0112879276
5541.4635827634	0.9748606086
5543.3923901365	0.9513973594
5545.3211975095	0.9863270521
5547.2500048826	0.9749617577
5549.1788122556	0.9662486315
5551.1076196287	0.9446240664
5553.0364270017	0.9647768140
5554.9652343747	0.9377462268
5556.8940417478	0.9476240277
5558.8228491208	1.0082058907
5560.7516564939	0.9631724954
5562.6804638669	0.9888879657
5564.6092712400	1.0049618483
5566.5380786130	0.9954398870
5568.4668859861	0.9874743819
5570.3956933591	0.9539783001
5572.3245007322	0.9871979356
5574.2533081052	0.9648673534
5576.1821154783	0.9523741603
5578.1109228513	0.9741275907
5580.0397302244	0.9591023326
5581.9685375974	0.9669775963
5583.8973449704	0.9719775319
5585.8261523435	0.9502255917
5587.7549597165	0.9597170353
5589.6837670896	0.9860467315
5591.6125744626	0.9459494352
5593.5413818357	0.9707137346
5595.4701892087	1.0062493086
5597.3989965818	0.9624673128
5599.3278039548	0.9894176722
5601.2566113279	0.9971413612
5603.1854187009	0.9858998656
5605.1142260740	1.0029945374
5607.0430334470	0.9735791683
5608.9718408201	0.9743963480
5610.9006481931	0.9698963165
5612.8294555661	0.9608375430
5614.7582629392	1.0135684013
5616.6870703122	0.9856567383
5618.6158776853	0.9613066316
5620.5446850583	0.9686930180
5622.4734924314	0.9355164170
5624.4022998044	0.9791123271
5626.3311071775	0.9758936167
5628.2599145505	0.9711363912
5630.1887219236	0.9839287996
5632.1175292966	0.9269785285
5634.0463366697	0.9550911188
5635.9751440427	0.9669668078
5637.9039514158	0.9717925191
5639.8327587888	0.9799566865
5641.7615661619	0.9550673366
5643.6903735349	0.9858444929
5645.6191809079	0.9853179455
5647.5479882810	0.9824225307
5649.4767956540	0.9758864641
5651.4056030271	0.9549771547
5653.3344104001	0.9659721851
5655.2632177732	0.9685190320
5657.1920251462	0.9623097777
5659.1208325193	0.9619613886
5661.0496398923	0.9654045105
5662.9784472654	0.9754889607
5664.9072546384	0.9854122996
5666.8360620115	0.9538732171
5668.7648693845	0.9557654262
5670.6936767576	0.9597679377
5672.6224841306	0.9433783889
5674.5512915036	0.9664577246
5676.4800988767	0.9639819264
5678.4089062497	0.9984403253
5680.3377136228	0.9801787734
5682.2665209958	0.9378119111
5684.1953283689	0.9811300039
5686.1241357419	0.9671900272
5688.0529431150	0.9558687806
5689.9817504880	0.9555054903
5691.9105578611	0.9556986690
5693.8393652341	0.9794635773
5695.7681726072	0.9577524066
5697.6969799802	0.9665963650
5699.6257873533	0.9877440333
5701.5545947263	0.9686787724
5703.4834020993	0.9496770501
5705.4122094724	0.9419322610
5707.3410168454	0.9505987763
5709.2698242185	0.9660562277
5711.1986315915	0.9617537856
5713.1274389646	0.9478434324
5715.0562463376	0.9603451490
5716.9850537107	0.9834660292
5718.9138610837	0.9678142071
5720.8426684568	0.9353943467
5722.7714758298	0.9427580833
5724.7002832029	0.9494999051
5726.6290905759	0.9360358119
5728.5578979490	0.9410232306
5730.4867053220	0.9523057938
5732.4155126950	0.9739972353
5734.3443200681	0.9836147428
5736.2731274411	0.9600065947
5738.2019348142	0.9201002717
5740.1307421872	0.9371475577
5742.0595495603	1.0007655621
5743.9883569333	0.9792494178
5745.9171643064	0.9600129128
5747.8459716794	0.9763150811
5749.7747790525	0.9728724957
5751.7035864255	0.9704246521
5753.6323937986	0.9481111169
5755.5612011716	0.9733270407
5757.4900085447	0.9956114292
5759.4188159177	0.9838039875
5761.3476232907	1.0045094490
5763.2764306638	0.9994456768
5765.2052380368	1.0007055998
5767.1340454099	0.9742723107
5769.0628527829	0.9309430122
5770.9916601560	0.9545901418
5772.9204675290	0.9785815477
5774.8492749021	0.9821860790
5776.7780822751	1.0013335943
5778.7068896482	0.9962999225
5780.6356970212	0.9758352041
5782.5645043943	0.9825427532
5784.4933117673	0.9813227057
5786.4221191404	0.9992896318
5788.3509265134	0.9695768952
5790.2797338865	0.9239458442
5792.2085412595	0.9775302410
5794.1373486325	0.9874602556
5796.0661560056	0.9625325799
5797.9949633786	0.9490811825
5799.9237707517	0.9632545710
5801.8525781247	0.9465724826
5803.7813854978	0.9131850004
5805.7101928708	0.9982773066
5807.6390002439	0.9781848788
5809.5678076169	0.9488795996
5811.4966149900	0.9530769587
5813.4254223630	0.9263107777
5815.3542297361	0.9868643880
5817.2830371091	0.9383566380
5819.2118444822	0.9184660912
5821.1406518552	0.9584711194
5823.0694592282	0.9312468767
5824.9982666013	0.9456452131
5826.9270739743	0.9623983502
5828.8558813474	0.9272181392
5830.7846887204	0.9296441674
5832.7134960935	1.0031144619
5834.6423034665	0.9574180841
5836.5711108396	0.9587653279
5838.4999182126	1.0153117180
5840.4287255857	0.9668183327
5842.3575329587	0.9710708261
5844.2863403318	0.9202842712
5846.2151477048	0.9360552430
5848.1439550779	1.0083333254
5850.0727624509	0.9812796712
5852.0015698239	0.9866701365
5853.9303771970	0.9610195756
5855.8591845700	0.9309471846
5857.7879919431	0.9604413509
5859.7167993161	0.9816563725
5861.6456066892	0.9580733776
5863.5744140622	0.9624423981
5865.5032214353	0.9756909013
5867.4320288083	0.9539854527
5869.3608361814	0.9502621293
5871.2896435544	0.9406366944
5873.2184509275	0.9847288728
5875.1472583005	0.9958942533
5877.0760656736	0.9302173257
5879.0048730466	0.9169745445
5880.9336804196	0.9472928047
5882.8624877927	0.9860743880
5884.7912951657	0.9571528435
5886.7201025388	0.9271034598
5888.6489099118	0.9269032478
5890.5777172849	0.9118210077
5892.5065246579	0.9465117455
5894.4353320310	0.9749376774
5896.3641394040	0.9716125727
5898.2929467771	1.0065306425
5900.2217541501	0.9543051720
5902.1505615232	0.8988282681
5904.0793688962	0.9698410630
5906.0081762693	1.0197373629
5907.9369836423	1.0210683346
5909.8657910154	0.9570065141
5911.7945983884	0.9305573702
5913.7234057614	0.9669220448
5915.6522131345	0.9630294442
5917.5810205075	1.0030509233
5919.5098278806	0.9826551080
5921.4386352536	0.9574384093
5923.3674426267	0.9721485376
5925.2962499997	0.9710401297
5927.2250573728	0.9546620250
5929.1538647458	0.8979321718
5931.0826721189	0.9537451863
5933.0114794919	0.9716536999
5934.9402868650	0.9738013744
5936.8690942380	1.0119770765
5938.7979016111	0.9422776699
5940.7267089841	0.9786790013
5942.6555163571	0.9747399688
5944.5843237302	0.9337655306
5946.5131311032	0.9792975783
5948.4419384763	0.9579772949
5950.3707458493	0.9828141332
5952.2995532224	0.9634478092
5954.2283605954	0.9017565846
5956.1571679685	0.9861561060
5958.0859753415	1.0152434111
5960.0147827146	0.9624425173
5961.9435900876	0.9562621117
5963.8723974607	0.9376779795
5965.8012048337	0.9752887487
5967.7300122068	0.9784752131
5969.6588195798	0.9137426019
5971.5876269528	0.9503009319
5973.5164343259	0.9638814330
5975.4452416989	0.9137652516
5977.3740490720	0.9110200405
5979.3028564450	0.9656738639
5981.2316638181	0.9602775574
5983.1604711911	0.9514218569
5985.0892785642	0.9794172645
5987.0180859372	0.9132435322
5988.9468933103	0.9320966601
5990.8757006833	0.9558281898
5992.8045080564	0.9767646194
5994.7333154294	1.0029051304
5996.6621228025	0.9354034066
5998.5909301755	1.0313534737
6000.5197375485	1.0125186443
