399.2631262207	0.6442491412
401.1919335938	0.5400657654
403.1207409668	0.8617427349
405.0495483398	0.9394307733
406.9783557129	0.7073019743
408.9071630859	0.6729219556
410.8359704590	0.4986750484
412.7647778320	0.8395642042
414.6935852051	0.9216319919
416.6223925781	0.7200021744
418.5511999512	0.6624360085
420.4800073242	0.4432399273
422.4088146973	0.6988648772
424.3376220703	0.5992255211
426.2664294434	0.3883993626
428.1952368164	0.6060791016
430.1240441895	0.7570366263
432.0528515625	0.7342493534
433.9816589355	0.4254912734
435.9104663086	0.5192352533
437.8392736816	0.6383305192
439.7680810547	0.6917909384
441.6968884277	0.7420934439
443.6256958008	0.8417613506
445.5545031738	0.7994288206
447.4833105469	0.4596752822
449.4121179199	0.7507027984
451.3409252930	0.6540166736
453.2697326660	0.4864094257
455.1985400391	0.7238967419
457.1273474121	0.5620610118
459.0561547852	0.6130145192
460.9849621582	0.6280069351
462.9137695313	0.8777590990
464.8425769043	0.7672348022
466.7713842773	1.0358223915
468.7001916504	1.1657084227
470.6289990234	0.5016086102
472.5578063965	0.6727665067
474.4866137695	0.3331124187
476.4154211426	1.1480327845
478.3442285156	1.1094346046
480.2730358887	-0.0755694062
482.2018432617	0.5505145788
484.1306506348	0.5231776237
486.0594580078	0.7309576869
487.9882653809	0.5599532127
489.9170727539	0.7786375284
491.8458801270	0.7889927626
493.7746875000	0.4620637894
495.7034948730	1.1103630066
497.6323022461	0.2770045996
499.5611096191	0.2487217486
501.4899169922	0.7002896070
503.4187243652	0.3892765641
505.3475317383	0.3007378280
507.2763391113	0.8504731655
509.2051464844	0.8486338258
511.1339538574	0.9168491960
513.0627612305	2.1280293465
514.9915686035	0.5769293308
516.9203759766	1.3891329765
518.8491833496	0.6022800803
520.7779907227	-0.0556852371
522.7067980957	1.5572752953
524.6356054688	1.6812585592
526.5644128418	0.9024996758
528.4932202148	1.6122248173
530.4220275879	0.8005259633
532.3508349609	0.4366032183
534.2796423340	0.3272639215
536.2084497070	1.0988056660
538.1372570801	0.2267408520
540.0660644531	-0.5665092468
541.9948718262	3.4826676846
543.9236791992	1.6702594757
545.8524865723	1.3496230841
547.7812939453	0.7823850513
549.7101013184	0.2888863087
551.6389086914	1.2544040680
553.5677160645	0.6398948431
555.4965234375	1.3030078411
557.4253308105	1.7805564404
559.3541381836	0.6646038890
561.2829455566	2.0214939117
563.2117529297	1.1993194818
565.1405603027	-0.0091289086
567.0693676758	0.7714219093
568.9981750488	1.8806172609
570.9269824219	0.8688542247
572.8557897949	0.9986151457
574.7845971680	1.3439569473
576.7134045410	0.9113452435
578.6422119141	0.8699560165
580.5710192871	0.5246713758
582.4998266602	0.6480724812
584.4286340332	0.4668483734
586.3574414063	0.3193066418
588.2862487793	1.0581220388
590.2150561523	1.0014280081
592.1438635254	0.8487299085
594.0726708984	1.4912407398
596.0014782715	0.9795602560
597.9302856445	0.7726643682
599.8590930176	1.8600208759
601.7879003906	2.7613880634
603.7167077637	0.9268301725
605.6455151367	0.8284050226
607.5743225098	0.5165824294
609.5031298828	1.1847875118
611.4319372559	4.3633265495
613.3607446289	0.3363757730
615.2895520020	0.8961294889
617.2183593750	2.2080185413
619.1471667480	0.9769033194
621.0759741211	1.1031525135
623.0047814941	1.3402093649
624.9335888672	1.4093997478
626.8623962402	1.2205482721
628.7912036133	7.7742953300
630.7200109863	0.7793480754
632.6488183594	0.4972081184
634.5776257324	0.7271720767
636.5064331055	0.8092871904
638.4352404785	0.8045868278
640.3640478516	0.6268255711
642.2928552246	0.5743281245
644.2216625977	0.8540455699
646.1504699707	0.7150600553
648.0792773438	0.7851451039
650.0080847168	0.8511934876
651.9368920898	0.6603147984
653.8656994629	0.6959492564
655.7945068359	0.6633908749
657.7233142090	0.7462279201
659.6521215820	0.7951728702
661.5809289551	0.8025954366
663.5097363281	0.7922184467
665.4385437012	0.6772072911
667.3673510742	0.7211418748
669.2961584473	0.7019900084
671.2249658203	0.6371107697
673.1537731934	0.6555751562
675.0825805664	0.6486269832
677.0113879395	0.6523385048
678.9401953125	0.6987646818
680.8690026855	0.6769570708
682.7978100586	0.6672385931
684.7266174316	0.7239113450
686.6554248047	0.6512967944
688.5842321777	0.6836777925
690.5130395508	0.8562242985
692.4418469238	0.7966955304
694.3706542969	0.7049120069
696.2994616699	0.7734307647
698.2282690430	0.7144685984
700.1570764160	0.6615302563
702.0858837891	0.7678351998
704.0146911621	0.8016107678
705.9434985352	0.7558881640
707.8723059082	0.7544475198
709.8011132813	0.7423948050
711.7299206543	0.7057783604
713.6587280273	0.7845920920
715.5875354004	1.0215741396
717.5163427734	1.1473450661
719.4451501465	1.4976867437
721.3739575195	1.3604922295
723.3027648926	1.0521856546
725.2315722656	1.1304543018
727.1603796387	0.7604579926
729.0891870117	1.4812028408
731.0179943848	1.4936844110
732.9468017578	0.9282363057
734.8756091309	0.3642604053
736.8044165039	0.9021088481
738.7332238770	1.7607995272
740.6620312500	0.8781859279
742.5908386230	-2.6063961983
744.5196459961	3.5224268436
746.4484533691	1.1929059029
748.3772607422	1.6800394058
750.3060681152	1.3379973173
752.2348754883	1.3821107149
754.1636828613	1.3629868031
756.0924902344	0.9905579686
758.0212976074	1.1491487026
759.9501049805	1.2920253277
761.8789123535	0.6766598225
763.8077197266	0.4469929934
765.7365270996	0.9231493473
767.6653344727	1.8749605417
769.5941418457	0.8787374496
771.5229492188	0.3951950073
773.4517565918	0.9458112717
775.3805639648	1.1338044405
777.3093713379	0.9419541359
779.2381787109	1.2857307196
781.1669860840	1.2932547331
783.0957934570	0.7853894234
785.0246008301	1.0311146975
786.9534082031	1.1451932192
788.8822155762	0.5567438602
790.8110229492	1.3464787006
792.7398303223	1.2028273344
794.6686376953	1.0982636213
796.5974450684	1.0233556032
798.5262524414	0.5811058283
800.4550598145	0.8852171302
802.3838671875	1.3059350252
804.3126745605	1.0959064960
806.2414819336	1.0139588118
808.1702893066	1.7074939013
810.0990966797	1.2577043772
812.0279040527	0.9132249951
813.9567114258	1.1070179939
815.8855187988	0.9032744765
817.8143261719	1.5903838873
819.7431335449	1.1930513382
821.6719409180	1.4248768091
823.6007482910	1.3789889812
825.5295556641	0.8790432215
827.4583630371	1.2247114182
829.3871704102	0.8346474767
831.3159777832	1.3004366159
833.2447851563	1.1424310207
835.1735925293	0.6986920238
837.1023999023	1.0401798487
839.0312072754	0.8483191133
840.9600146484	0.9065170884
842.8888220215	1.2657506466
844.8176293945	0.8054353595
846.7464367676	0.9009610415
848.6752441406	1.2057662010
850.6040515137	1.0785673857
852.5328588867	1.3613846302
854.4616662598	0.9702736139
856.3904736328	1.1240640879
858.3192810059	1.2844413519
860.2480883789	0.9065059423
862.1768957520	1.4141690731
864.1057031250	3.9209978580
866.0345104980	3.0299277306
867.9633178711	1.3142324686
869.8921252441	0.9246625304
871.8209326172	0.6194009185
873.7497399902	0.6494646668
875.6785473633	2.3039207458
877.6073547363	1.8821433783
879.5361621094	0.8063319325
881.4649694824	0.8440127969
883.3937768555	1.1108130217
885.3225842285	0.9571768045
887.2513916016	1.1361097097
889.1801989746	1.8677735329
891.1090063477	1.3399080038
893.0378137207	1.8902307749
894.9666210938	1.3540378809
896.8954284668	1.2220100164
898.8242358398	3.1650934219
900.7530432129	1.1597677469
902.6818505859	0.9591963291
904.6106579590	0.8305207491
906.5394653320	1.2050169706
908.4682727051	1.4432116747
910.3970800781	1.2585446835
912.3258874512	1.4802359343
914.2546948242	1.0997633934
916.1835021973	0.9796431065
918.1123095703	0.9800160527
920.0411169434	1.0810247660
921.9699243164	1.0364761353
923.8987316895	1.1552463770
925.8275390625	1.1626391411
927.7563464355	1.0421122313
929.6851538086	1.2007589340
931.6139611816	0.9296995401
933.5427685547	0.9114995599
935.4715759277	1.0614037514
937.4003833008	1.0107681751
939.3291906738	1.0268241167
941.2579980469	1.0521821976
943.1868054199	1.0962630510
945.1156127930	0.9461032152
947.0444201660	0.8939497471
948.9732275391	1.0905052423
950.9020349121	1.0985419750
952.8308422852	0.9875860214
954.7596496582	1.1425063610
956.6884570313	1.1715409756
958.6172644043	0.9686324596
960.5460717773	0.9737813473
962.4748791504	1.0031933784
964.4036865234	1.0008399487
966.3324938965	0.9909656048
968.2613012695	1.0461939573
970.1901086426	1.0301159620
972.1189160156	1.0193905830
974.0477233887	1.0950458050
975.9765307617	0.9292330742
977.9053381348	0.9413725138
979.8341455078	1.0368828773
981.7629528809	1.0163497925
983.6917602539	1.0609197617
985.6205676270	1.0365885496
987.5493750000	1.0283827782
989.4781823730	1.0119339228
991.4069897461	0.9801738262
993.3357971191	1.0050430298
995.2646044922	1.0002595186
997.1934118652	1.0267900229
999.1222192383	1.0497584343
1001.0510266113	0.9995461702
1002.9798339844	0.9905183911
1004.9086413574	1.0026549101
1006.8374487305	1.0004686117
1008.7662561035	1.0006009340
1010.6950634766	1.0102645159
1012.6238708496	1.0215919018
1014.5526782227	1.0025638342
1016.4814855957	1.0189944506
1018.4102929688	1.0273756981
1020.3391003418	1.0090507269
1022.2679077148	1.0184887648
1024.1967150879	0.9926752448
1026.1255224609	0.9886587858
1028.0543298340	1.0096709728
1029.9831372070	1.0037837029
1031.9119445801	1.0022920370
1033.8407519531	0.9973161817
1035.7695593262	1.0024197102
1037.6983666992	1.0074901581
1039.6271740723	1.0054532290
1041.5559814453	1.0107002258
1043.4847888184	1.0057301521
1045.4135961914	1.0005593300
1047.3424035645	0.9995309114
1049.2712109375	1.0027610064
1051.2000183105	1.0194134712
1053.1288256836	1.0094927549
1055.0576330566	0.9934053421
1056.9864404297	1.0174012184
1058.9152478027	1.0133340359
1060.8440551758	1.0087102652
1062.7728625488	1.0145869255
1064.7016699219	0.9922279716
1066.6304772949	1.0093349218
1068.5592846680	1.0015562773
1070.4880920410	0.9919360280
1072.4168994141	1.0320152044
1074.3457067871	1.0196974277
1076.2745141602	1.0000131130
1078.2033215332	1.0268439054
1080.1321289062	1.0391746759
1082.0609362793	1.0108879805
1083.9897436523	1.0143759251
1085.9185510254	1.0062588453
1087.8473583984	0.9908647537
1089.7761657715	1.0180997849
1091.7049731445	0.9991681576
1093.6337805176	1.0200897455
1095.5625878906	1.0410060883
1097.4913952637	1.0213849545
1099.4202026367	1.0252121687
1101.3490100098	0.9986401200
1103.2778173828	1.0192630291
1105.2066247559	1.0169392824
1107.1354321289	0.9777083397
1109.0642395019	0.9866383076
1110.9930468750	0.9963483214
1112.9218542480	1.0244742632
1114.8506616211	1.0432046652
1116.7794689941	1.0168476105
1118.7082763672	1.0049538612
1120.6370837402	1.0174711943
1122.5658911133	1.0257954597
1124.4946984863	1.0403647423
1126.4235058594	1.0359930992
1128.3523132324	1.0395541191
1130.2811206055	1.0301882029
1132.2099279785	0.9923211336
1134.1387353516	1.0243804455
1136.0675427246	1.0184859037
1137.9963500977	1.0015985966
1139.9251574707	1.0361682177
1141.8539648437	1.0063772202
1143.7827722168	1.0003120899
1145.7115795898	1.0296695232
1147.6403869629	1.0172150135
1149.5691943359	1.0055370331
1151.4980017090	1.0077917576
1153.4268090820	1.0064417124
1155.3556164551	1.0226014853
1157.2844238281	1.0341905355
1159.2132312012	1.0010468960
1161.1420385742	1.0030530691
1163.0708459473	1.0225017071
1164.9996533203	1.0057315826
1166.9284606934	1.0228551626
1168.8572680664	1.0281563997
1170.7860754394	1.0066111088
1172.7148828125	1.0123816729
1174.6436901855	1.0017219782
1176.5724975586	0.9985143542
1178.5013049316	1.0187839270
1180.4301123047	1.0117883682
1182.3589196777	1.0048923492
1184.2877270508	1.0183171034
1186.2165344238	1.0191937685
1188.1453417969	1.0051374435
1190.0741491699	1.0025794506
1192.0029565430	1.0124918222
1193.9317639160	1.0093541145
1195.8605712891	1.0068175793
1197.7893786621	1.0177724361
1199.7181860351	1.0171009302
1201.6469934082	1.0107589960
1203.5758007812	1.0103747845
1205.5046081543	1.0111058950
1207.4334155273	1.0104864836
1209.3622229004	1.0076104403
1211.2910302734	1.0088419914
1213.2198376465	1.0102031231
1215.1486450195	1.0086457729
1217.0774523926	1.0064517260
1219.0062597656	1.0060895681
1220.9350671387	1.0081088543
1222.8638745117	1.0053840876
1224.7926818848	1.0027624369
1226.7214892578	1.0055789948
1228.6502966308	1.0057529211
1230.5791040039	1.0057402849
1232.5079113769	1.0103464127
1234.4367187500	1.0088173151
1236.3655261230	1.0094503164
1238.2943334961	1.0117629766
1240.2231408691	1.0090267658
1242.1519482422	1.0134240389
1244.0807556152	1.0089061260
1246.0095629883	1.0088347197
1247.9383703613	1.0166940689
1249.8671777344	1.0099347830
1251.7959851074	1.0102767944
1253.7247924805	1.0100461245
1255.6535998535	1.0076555014
1257.5824072266	1.0099810362
1259.5112145996	1.0078905821
1261.4400219726	1.0109103918
1263.3688293457	1.0133804083
1265.2976367187	1.0100792646
1267.2264440918	1.0077598095
1269.1552514648	1.0110979080
1271.0840588379	1.0076428652
1273.0128662109	1.0082376003
1274.9416735840	1.0168355703
1276.8704809570	1.0119501352
1278.7992883301	1.0118833780
1280.7280957031	1.0125685930
1282.6569030762	1.0109828711
1284.5857104492	1.0130709410
1286.5145178223	1.0139273405
1288.4433251953	1.0153039694
1290.3721325683	1.0116910934
1292.3009399414	1.0113066435
1294.2297473144	1.0056403875
1296.1585546875	1.0068507195
1298.0873620605	1.0130399466
1300.0161694336	1.0100589991
1301.9449768066	1.0129982233
1303.8737841797	1.0104594231
1305.8025915527	1.0098443031
1307.7313989258	1.0138124228
1309.6602062988	1.0150825977
1311.5890136719	1.0108163357
1313.5178210449	1.0085967779
1315.4466284180	1.0138280392
1317.3754357910	1.0093513727
1319.3042431640	1.0112109184
1321.2330505371	1.0132106543
1323.1618579101	1.0116230249
1325.0906652832	1.0108387470
1327.0194726562	1.0030403137
1328.9482800293	1.0097526312
1330.8770874023	1.0122773647
1332.8058947754	1.0075548887
1334.7347021484	1.0133385658
1336.6635095215	1.0131335258
1338.5923168945	1.0114902258
1340.5211242676	1.0091924667
1342.4499316406	1.0108690262
1344.3787390137	1.0134614706
1346.3075463867	1.0095444918
1348.2363537597	1.0150076151
1350.1651611328	1.0138412714
1352.0939685058	1.0090421438
1354.0227758789	1.0117112398
1355.9515832519	1.0098564625
1357.8803906250	1.0124170780
1359.8091979980	1.0082108974
1361.7380053711	1.0046598911
1363.6668127441	1.0104354620
1365.5956201172	1.0102885962
1367.5244274902	1.0141302347
1369.4532348633	1.0118125677
1371.3820422363	1.0061289072
1373.3108496094	1.0096808672
1375.2396569824	1.0124710798
1377.1684643555	1.0137251616
1379.0972717285	1.0139524937
1381.0260791015	1.0127023458
1382.9548864746	1.0112701654
1384.8836938476	1.0098963976
1386.8125012207	1.0122231245
1388.7413085937	1.0166816711
1390.6701159668	1.0117943287
1392.5989233398	1.0080502033
1394.5277307129	1.0086306334
1396.4565380859	1.0074645281
1398.3853454590	1.0112602711
1400.3141528320	1.0117282867
1402.2429602051	1.0119947195
1404.1717675781	1.0097101927
1406.1005749512	1.0100936890
1408.0293823242	1.0150554180
1409.9581896972	1.0081185102
1411.8869970703	1.0084785223
1413.8158044433	1.0146087408
1415.7446118164	1.0144968033
1417.6734191894	1.0070891380
1419.6022265625	1.0066776276
1421.5310339355	1.0140243769
1423.4598413086	1.0071855783
1425.3886486816	1.0129314661
1427.3174560547	1.0111185312
1429.2462634277	1.0021204948
1431.1750708008	1.0112025738
1433.1038781738	1.0146894455
1435.0326855469	1.0171332359
1436.9614929199	1.0081380606
1438.8903002929	1.0095632076
1440.8191076660	1.0141439438
1442.7479150390	1.0074868202
1444.6767224121	1.0140681267
1446.6055297851	1.0140897036
1448.5343371582	1.0183707476
1450.4631445312	1.0168761015
1452.3919519043	1.0131113529
1454.3207592773	1.0165898800
1456.2495666504	1.0049228668
1458.1783740234	1.0094249249
1460.1071813965	1.0142937899
1462.0359887695	1.0100694895
1463.9647961426	1.0088576078
1465.8936035156	1.0039764643
1467.8224108886	1.0110837221
1469.7512182617	1.0146390200
1471.6800256347	1.0106507540
1473.6088330078	1.0114161968
1475.5376403808	1.0060424805
1477.4664477539	1.0067411661
1479.3952551269	1.0108963251
1481.3240625000	1.0072394609
1483.2528698730	1.0067641735
1485.1816772461	1.0073446035
1487.1104846191	1.0059666634
1489.0392919922	1.0045969486
1490.9680993652	1.0039901733
1492.8969067383	1.0060924292
1494.8257141113	1.0071073771
1496.7545214843	1.0041110516
1498.6833288574	1.0045123100
1500.6121362304	1.0084075928
1502.5409436035	1.0048067570
1504.4697509765	1.0033496618
1506.3985583496	1.0060877800
1508.3273657226	1.0023827553
1510.2561730957	1.0023447275
1512.1849804687	1.0035594702
1514.1137878418	1.0034973621
1516.0425952148	1.0028907061
1517.9714025879	1.0026112795
1519.9002099609	1.0019110441
1521.8290173340	0.9983960390
1523.7578247070	1.0003273487
1525.6866320801	1.0008894205
1527.6154394531	1.0000922680
1529.5442468261	1.0015366077
1531.4730541992	0.9994970560
1533.4018615722	0.9993743896
1535.3306689453	1.0007743835
1537.2594763183	0.9995084405
1539.1882836914	0.9970252514
1541.1170910644	0.9951630235
1543.0458984375	0.9986047149
1544.9747058105	0.9993623495
1546.9035131836	0.9977326989
1548.8323205566	0.9960465431
1550.7611279297	0.9934108853
1552.6899353027	0.9956100583
1554.6187426758	0.9951741695
1556.5475500488	0.9953466058
1558.4763574218	0.9929613471
1560.4051647949	0.9876693487
1562.3339721679	0.9926134944
1564.2627795410	0.9901143312
1566.1915869140	0.9902675748
1568.1203942871	0.9906804562
1570.0492016601	0.9852417707
1571.9780090332	0.9871241450
1573.9068164062	0.9843090773
1575.8356237793	0.9827923775
1577.7644311523	0.9837503433
1579.6932385254	0.9803824425
1581.6220458984	0.9796796441
1583.5508532715	0.9804409146
1585.4796606445	0.9788104892
1587.4084680175	0.9754996300
1589.3372753906	0.9749769568
1591.2660827636	0.9720385075
1593.1948901367	0.9707961082
1595.1236975097	0.9683654904
1597.0525048828	0.9649511576
1598.9813122558	0.9636361003
1600.9101196289	0.9576842189
1602.8389270019	0.9561933279
1604.7677343750	0.9525116086
1606.6965417480	0.9475010633
1608.6253491211	0.9461884499
1610.5541564941	0.9423230290
1612.4829638672	0.9392741323
1614.4117712402	0.9361104965
1616.3405786132	0.9301561713
1618.2693859863	0.9236378670
1620.1981933593	0.9226312637
1622.1270007324	0.9188121557
1624.0558081054	0.9170747995
1625.9846154785	0.9172521234
1627.9134228515	0.9108431339
1629.8422302246	0.9089729190
1631.7710375976	0.9059974551
1633.6998449707	0.9034575820
1635.6286523437	0.9036347866
1637.5574597168	0.8993229270
1639.4862670898	0.9009622335
1641.4150744629	0.9032317400
1643.3438818359	0.9046444297
1645.2726892090	0.9041702747
1647.2014965820	0.9022607207
1649.1303039550	0.9083800912
1651.0591113281	0.9074602127
1652.9879187011	0.9049644470
1654.9167260742	0.9123202562
1656.8455334472	0.9166990519
1658.7743408203	0.9203532934
1660.7031481933	0.9202744365
1662.6319555664	0.9234408736
1664.5607629394	0.9273698926
1666.4895703125	0.9299526215
1668.4183776855	0.9322481751
1670.3471850586	0.9352762699
1672.2759924316	0.9415937066
1674.2047998047	0.9447352290
1676.1336071777	0.9479733706
1678.0624145507	0.9514824748
1679.9912219238	0.9557433128
1681.9200292968	0.9589468241
1683.8488366699	0.9591476917
1685.7776440429	0.9633217454
1687.7064514160	0.9672970176
1689.6352587890	0.9701828957
1691.5640661621	0.9749084711
1693.4928735351	0.9770154357
1695.4216809082	0.9776126146
1697.3504882812	0.9810084701
1699.2792956543	0.9821397662
1701.2081030273	0.9851190448
1703.1369104004	0.9892513156
1705.0657177734	0.9921179414
1706.9945251464	0.9967956543
1708.9233325195	0.9976966381
1710.8521398925	0.9988131523
1712.7809472656	0.9997838736
1714.7097546386	1.0016602278
1716.6385620117	1.0028899908
1718.5673693847	1.0022941828
1720.4961767578	1.0079227686
1722.4249841308	1.0101428032
1724.3537915039	1.0104100704
1726.2825988769	1.0122336149
1728.2114062500	1.0129859447
1730.1402136230	1.0152438879
1732.0690209961	1.0149294138
1733.9978283691	1.0131103992
1735.9266357421	1.0177212954
1737.8554431152	1.0182950497
1739.7842504882	1.0161007643
1741.7130578613	1.0187127590
1743.6418652343	1.0180968046
1745.5706726074	1.0197204351
1747.4994799804	1.0214486122
1749.4282873535	1.0197609663
1751.3570947265	1.0214368105
1753.2859020996	1.0224359035
1755.2147094726	1.0240560770
1757.1435168457	1.0226291418
1759.0723242187	1.0241409540
1761.0011315918	1.0260561705
1762.9299389648	1.0243066549
1764.8587463379	1.0275334120
1766.7875537109	1.0258923769
1768.7163610839	1.0266036987
1770.6451684570	1.0286828279
1772.5739758300	1.0269812346
1774.5027832031	1.0283788443
1776.4315905761	1.0275094509
1778.3603979492	1.0284587145
1780.2892053222	1.0284657478
1782.2180126953	1.0284276009
1784.1468200683	1.0289661884
1786.0756274414	1.0295640230
1788.0044348144	1.0310531855
1789.9332421875	1.0287470818
1791.8620495605	1.0287284851
1793.7908569336	1.0284067392
1795.7196643066	1.0305038691
1797.6484716796	1.0325701237
1799.5772790527	1.0296026468
1801.5060864257	1.0318844318
1803.4348937988	1.0326822996
1805.3637011718	1.0319544077
1807.2925085449	1.0325555801
1809.2213159179	1.0312355757
1811.1501232910	1.0323830843
1813.0789306640	1.0335195065
1815.0077380371	1.0324043036
1816.9365454101	1.0315352678
1818.8653527832	1.0327472687
1820.7941601562	1.0341771841
1822.7229675293	1.0330955982
1824.6517749023	1.0308188200
1826.5805822753	1.0305892229
1828.5093896484	1.0315088034
1830.4381970214	1.0329692364
1832.3670043945	1.0344827175
1834.2958117675	1.0335824490
1836.2246191406	1.0329208374
1838.1534265136	1.0326317549
1840.0822338867	1.0332206488
1842.0110412597	1.0343146324
1843.9398486328	1.0332988501
1845.8686560058	1.0330195427
1847.7974633789	1.0333333015
1849.7262707519	1.0329356194
1851.6550781250	1.0320770741
1853.5838854980	1.0343377590
1855.5126928710	1.0357402563
1857.4415002441	1.0330487490
1859.3703076171	1.0351977348
1861.2991149902	1.0355372429
1863.2279223632	1.0326058865
1865.1567297363	1.0339602232
1867.0855371093	1.0329742432
1869.0143444824	1.0309319496
1870.9431518554	1.0337854624
1872.8719592285	1.0358129740
1874.8007666015	1.0340027809
1876.7295739746	1.0333161354
1878.6583813476	1.0345922709
1880.5871887207	1.0345516205
1882.5159960937	1.0326597691
1884.4448034667	1.0318961143
1886.3736108398	1.0344202518
1888.3024182128	1.0345612764
1890.2312255859	1.0331091881
1892.1600329589	1.0333175659
1894.0888403320	1.0325080156
1896.0176477050	1.0327136517
1897.9464550781	1.0338522196
1899.8752624511	1.0334624052
1901.8040698242	1.0321961641
1903.7328771972	1.0336349010
1905.6616845703	1.0355890989
1907.5904919433	1.0326560736
1909.5192993164	1.0316669941
1911.4481066894	1.0345287323
1913.3769140625	1.0348098278
1915.3057214355	1.0333834887
1917.2345288085	1.0321964025
1919.1633361816	1.0333917141
1921.0921435546	1.0337038040
1923.0209509277	1.0318584442
1924.9497583007	1.0332648754
1926.8785656738	1.0328072309
1928.8073730468	1.0315729380
1930.7361804199	1.0341293812
1932.6649877929	1.0336762667
1934.5937951660	1.0320892334
1936.5226025390	1.0333020687
1938.4514099121	1.0341699123
1940.3802172851	1.0337425470
1942.3090246582	1.0339008570
1944.2378320312	1.0335576534
1946.1666394042	1.0301975012
1948.0954467773	1.0290141106
1950.0242541503	1.0320551395
1951.9530615234	1.0324018002
1953.8818688964	1.0319635868
1955.8106762695	1.0332523584
1957.7394836425	1.0312286615
1959.6682910156	1.0306884050
1961.5970983886	1.0322175026
1963.5259057617	1.0320507288
1965.4547131347	1.0331978798
1967.3835205078	1.0326119661
1969.3123278808	1.0313583612
1971.2411352539	1.0309854746
1973.1699426269	1.0300050974
1975.0987499999	1.0295532942
1977.0275573730	1.0303108692
1978.9563647460	1.0306978226
1980.8851721191	1.0299906731
1982.8139794921	1.0308564901
1984.7427868652	1.0289292336
1986.6715942382	1.0295593739
1988.6004016113	1.0316244364
1990.5292089843	1.0296429396
1992.4580163574	1.0307626724
1994.3868237304	1.0298961401
1996.3156311035	1.0303409100
1998.2444384765	1.0305855274
2000.1732458496	1.0288131237
2002.1020532226	1.0289663076
2004.0308605956	1.0281838179
2005.9596679687	1.0300773382
2007.8884753417	1.0279567242
2009.8172827148	1.0275856256
2011.7460900878	1.0292046070
2013.6748974609	1.0278401375
2015.6037048339	1.0282392502
2017.5325122070	1.0273513794
2019.4613195800	1.0304827690
2021.3901269531	1.0290344954
2023.3189343261	1.0268234015
2025.2477416992	1.0287728310
2027.1765490722	1.0275362730
2029.1053564453	1.0289549828
2031.0341638183	1.0282909870
2032.9629711914	1.0286036730
2034.8917785644	1.0283391476
2036.8205859374	1.0263564587
2038.7493933105	1.0268651247
2040.6782006835	1.0266374350
2042.6070080566	1.0271251202
2044.5358154296	1.0261638165
2046.4646228027	1.0261648893
2048.3934301757	1.0256897211
2050.3222375488	1.0276190042
2052.2510449218	1.0289014578
2054.1798522949	1.0255179405
2056.1086596679	1.0262452364
2058.0374670410	1.0267832279
2059.9662744140	1.0268547535
2061.8950817871	1.0250582695
2063.8238891601	1.0251603127
2065.7526965331	1.0272589922
2067.6815039062	1.0235805511
2069.6103112792	1.0241422653
2071.5391186523	1.0272789001
2073.4679260253	1.0264141560
2075.3967333984	1.0242851973
2077.3255407714	1.0247422457
2079.2543481445	1.0255451202
2081.1831555175	1.0240241289
2083.1119628906	1.0245839357
2085.0407702636	1.0241092443
2086.9695776367	1.0241620541
2088.8983850097	1.0265660286
2090.8271923828	1.0254832506
2092.7559997558	1.0232472420
2094.6848071288	1.0233479738
2096.6136145019	1.0237586498
2098.5424218749	1.0246429443
2100.4712292480	1.0250391960
2102.4000366210	1.0243865252
2104.3288439941	1.0245095491
2106.2576513671	1.0247913599
2108.1864587402	1.0248974562
2110.1152661132	1.0240986347
2112.0440734863	1.0239803791
2113.9728808593	1.0241744518
2115.9016882324	1.0254806280
2117.8304956054	1.0244375467
2119.7593029785	1.0222806931
2121.6881103515	1.0254056454
2123.6169177245	1.0236276388
2125.5457250976	1.0231927633
2127.4745324706	1.0243782997
2129.4033398437	1.0226873159
2131.3321472167	1.0250703096
2133.2609545898	1.0230480433
2135.1897619628	1.0229926109
2137.1185693359	1.0239391327
2139.0473767089	1.0228364468
2140.9761840820	1.0242041349
2142.9049914550	1.0243777037
2144.8337988281	1.0252358913
2146.7626062011	1.0236350298
2148.6914135742	1.0238052607
2150.6202209472	1.0231204033
2152.5490283203	1.0216298103
2154.4778356933	1.0238387585
2156.4066430663	1.0244649649
2158.3354504394	1.0248600245
2160.2642578124	1.0240709782
2162.1930651855	1.0242463350
2164.1218725585	1.0237609148
2166.0506799316	1.0256114006
2167.9794873046	1.0266000032
2169.9082946777	1.0236399174
2171.8371020507	1.0255943537
2173.7659094238	1.0245586634
2175.6947167968	1.0240563154
2177.6235241699	1.0255011320
2179.5523315429	1.0259052515
2181.4811389160	1.0256565809
2183.4099462890	1.0232620239
2185.3387536620	1.0271524191
2187.2675610351	1.0276894569
2189.1963684081	1.0249463320
2191.1251757812	1.0251090527
2193.0539831542	1.0239993334
2194.9827905273	1.0263537169
2196.9115979003	1.0270433426
2198.8404052734	1.0255401134
2200.7692126464	1.0266100168
2202.6980200195	1.0267937183
2204.6268273925	1.0267988443
2206.5556347656	1.0277446508
2208.4844421386	1.0272260904
2210.4132495117	1.0259720087
2212.3420568847	1.0267083645
2214.2708642577	1.0283325911
2216.1996716308	1.0267564058
2218.1284790038	1.0247591734
2220.0572863769	1.0267537832
2221.9860937499	1.0274987221
2223.9149011230	1.0266143084
2225.8437084960	1.0267702341
2227.7725158691	1.0275042057
2229.7013232421	1.0278265476
2231.6301306152	1.0269347429
2233.5589379882	1.0265371799
2235.4877453613	1.0267201662
2237.4165527343	1.0281261206
2239.3453601074	1.0275658369
2241.2741674804	1.0264881849
2243.2029748534	1.0274547338
2245.1317822265	1.0287324190
2247.0605895995	1.0288615227
2248.9893969726	1.0262173414
2250.9182043456	1.0285879374
2252.8470117187	1.0303963423
2254.7758190917	1.0276901722
2256.7046264648	1.0280990601
2258.6334338378	1.0283261538
2260.5622412109	1.0286834240
2262.4910485839	1.0280936956
2264.4198559570	1.0281645060
2266.3486633300	1.0298271179
2268.2774707031	1.0289052725
2270.2062780761	1.0273245573
2272.1350854491	1.0273071527
2274.0638928222	1.0280048847
2275.9927001952	1.0277063847
2277.9215075683	1.0298553705
2279.8503149413	1.0299344063
2281.7791223144	1.0269386768
2283.7079296874	1.0280311108
2285.6367370605	1.0293133259
2287.5655444335	1.0289400816
2289.4943518066	1.0286877155
2291.4231591796	1.0291167498
2293.3519665527	1.0292168856
2295.2807739257	1.0280470848
2297.2095812988	1.0276150703
2299.1383886718	1.0296418667
2301.0671960449	1.0304201841
2302.9960034179	1.0292395353
2304.9248107909	1.0284838676
2306.8536181640	1.0247528553
2308.7824255370	1.0253800154
2310.7112329101	1.0269292593
2312.6400402831	1.0231770277
2314.5688476562	1.0238599777
2316.4976550292	1.0230629444
2318.4264624023	1.0197088718
2320.3552697753	1.0186352730
2322.2840771484	1.0171545744
2324.2128845214	1.0151537657
2326.1416918945	1.0127063990
2328.0704992675	1.0111912489
2329.9993066406	1.0105847120
2331.9281140136	1.0112869740
2333.8569213866	1.0096205473
2335.7857287597	1.0085403919
2337.7145361327	1.0106829405
2339.6433435058	1.0097129345
2341.5721508788	1.0098316669
2343.5009582519	1.0118013620
2345.4297656249	1.0134953260
2347.3585729980	1.0188935995
2349.2873803710	1.0238375664
2351.2161877441	1.0199174881
2353.1449951171	1.0125164986
2355.0738024902	1.0097863674
2357.0026098632	1.0067085028
2358.9314172363	1.0037354231
2360.8602246093	1.0023576021
2362.7890319823	1.0036169291
2364.7178393554	1.0044689178
2366.6466467284	1.0057080984
2368.5754541015	1.0093224049
2370.5042614745	1.0108779669
2372.4330688476	1.0148124695
2374.3618762206	1.0181287527
2376.2906835937	1.0232322216
2378.2194909667	1.0279941559
2380.1482983398	1.0278791189
2382.0771057128	1.0316064358
2384.0059130859	1.0324991941
2385.9347204589	1.0323654413
2387.8635278320	1.0334087610
2389.7923352050	1.0320228338
2391.7211425780	1.0342812538
2393.6499499511	1.0358566046
2395.5787573241	1.0346353054
2397.5075646972	1.0327113867
2399.4363720702	1.0329540968
2401.3651794433	1.0329635143
2403.2939868163	1.0317900181
2405.2227941894	1.0324188471
2407.1516015624	1.0326904058
2409.0804089355	1.0335011482
2411.0092163085	1.0320161581
2412.9380236816	1.0331435204
2414.8668310546	1.0339983702
2416.7956384277	1.0319498777
2418.7244458007	1.0337308645
2420.6532531738	1.0332729816
2422.5820605468	1.0329185724
2424.5108679198	1.0315687656
2426.4396752929	1.0317924023
2428.3684826659	1.0337238312
2430.2972900390	1.0322431326
2432.2260974120	1.0335628986
2434.1549047851	1.0336183310
2436.0837121581	1.0356587172
2438.0125195312	1.0340888500
2439.9413269042	1.0311946869
2441.8701342773	1.0348111391
2443.7989416503	1.0308603048
2445.7277490234	1.0313270092
2447.6565563964	1.0356366634
2449.5853637695	1.0348234177
2451.5141711425	1.0363749266
2453.4429785155	1.0360077620
2455.3717858886	1.0360316038
2457.3005932616	1.0341738462
2459.2294006347	1.0335130692
2461.1582080077	1.0350714922
2463.0870153808	1.0338222980
2465.0158227538	1.0361438990
2466.9446301269	1.0358266830
2468.8734374999	1.0357438326
2470.8022448730	1.0368405581
2472.7310522460	1.0341300964
2474.6598596191	1.0352735519
2476.5886669921	1.0342110395
2478.5174743652	1.0333135128
2480.4462817382	1.0346767902
2482.3750891112	1.0339756012
2484.3038964843	1.0362223387
2486.2327038573	1.0346505642
2488.1615112304	1.0327489376
2490.0903186034	1.0354253054
2492.0191259765	1.0346558094
2493.9479333495	1.0330929756
2495.8767407226	1.0347939730
2497.8055480956	1.0357539654
2499.7343554687	1.0339524746
2501.6631628417	1.0343379974
2503.5919702148	1.0357530117
2505.5207775878	1.0348961353
2507.4495849609	1.0341635942
2509.3783923339	1.0351928473
2511.3071997069	1.0356112719
2513.2360070800	1.0352697372
2515.1648144530	1.0359959602
2517.0936218261	1.0345320702
2519.0224291991	1.0348063707
2520.9512365722	1.0354171991
2522.8800439452	1.0347206593
2524.8088513183	1.0360955000
2526.7376586913	1.0363824368
2528.6664660644	1.0370243788
2530.5952734374	1.0346667767
2532.5240808105	1.0327751637
2534.4528881835	1.0339558125
2536.3816955566	1.0353817940
2538.3105029296	1.0369076729
2540.2393103027	1.0366654396
2542.1681176757	1.0381876230
2544.0969250487	1.0349433422
2546.0257324218	1.0334291458
2547.9545397948	1.0362012386
2549.8833471679	1.0349678993
2551.8121545409	1.0357064009
2553.7409619140	1.0349525213
2555.6697692870	1.0354562998
2557.5985766601	1.0365014076
2559.5273840331	1.0354384184
2561.4561914062	1.0343790054
2563.3849987792	1.0332221985
2565.3138061523	1.0349746943
2567.2426135253	1.0344977379
2569.1714208984	1.0353099108
2571.1002282714	1.0359674692
2573.0290356444	1.0353088379
2574.9578430175	1.0369237661
2576.8866503905	1.0371222496
2578.8154577636	1.0364607573
2580.7442651366	1.0336561203
2582.6730725097	1.0353531837
2584.6018798827	1.0368833542
2586.5306872558	1.0340341330
2588.4594946288	1.0355401039
2590.3883020019	1.0360324383
2592.3171093749	1.0363551378
2594.2459167480	1.0376180410
2596.1747241210	1.0374984741
2598.1035314941	1.0376588106
2600.0323388671	1.0347551107
2601.9611462401	1.0341486931
2603.8899536132	1.0350689888
2605.8187609862	1.0326153040
2607.7475683593	1.0340647697
2609.6763757323	1.0338068008
2611.6051831054	1.0338302851
2613.5339904784	1.0354552269
2615.4627978515	1.0319855213
2617.3916052245	1.0359742641
2619.3204125976	1.0392073393
2621.2492199706	1.0382434130
2623.1780273437	1.0371533632
2625.1068347167	1.0341180563
2627.0356420898	1.0377709866
2628.9644494628	1.0363402367
2630.8932568358	1.0347203016
2632.8220642089	1.0371652842
2634.7508715819	1.0368866920
2636.6796789550	1.0368759632
2638.6084863280	1.0350676775
2640.5372937011	1.0372201204
2642.4661010741	1.0356663465
2644.3949084472	1.0319758654
2646.3237158202	1.0329692364
2648.2525231933	1.0346832275
2650.1813305663	1.0351026058
2652.1101379394	1.0335677862
2654.0389453124	1.0368397236
2655.9677526855	1.0357182026
2657.8965600585	1.0336591005
2659.8253674315	1.0361164808
2661.7541748046	1.0359241962
2663.6829821776	1.0365145206
2665.6117895507	1.0345999002
2667.5405969237	1.0338193178
2669.4694042968	1.0353366137
2671.3982116698	1.0343291759
2673.3270190429	1.0335522890
2675.2558264159	1.0334746838
2677.1846337890	1.0324115753
2679.1134411620	1.0332294703
2681.0422485351	1.0339566469
2682.9710559081	1.0328103304
2684.8998632812	1.0338406563
2686.8286706542	1.0325253010
2688.7574780273	1.0344029665
2690.6862854003	1.0354107618
2692.6150927733	1.0340070724
2694.5439001464	1.0382541418
2696.4727075194	1.0357513428
2698.4015148925	1.0330250263
2700.3303222655	1.0346460342
2702.2591296386	1.0339039564
2704.1879370116	1.0329432487
2706.1167443847	1.0336118937
2708.0455517577	1.0334471464
2709.9743591308	1.0310236216
2711.9031665038	1.0326247215
2713.8319738769	1.0331276655
2715.7607812499	1.0354273319
2717.6895886230	1.0360072851
2719.6183959960	1.0326963663
2721.5472033690	1.0342383385
2723.4760107421	1.0316550732
2725.4048181151	1.0320451260
2727.3336254882	1.0340317488
2729.2624328612	1.0326191187
2731.1912402343	1.0334739685
2733.1200476073	1.0328019857
2735.0488549804	1.0327143669
2736.9776623534	1.0321458578
2738.9064697265	1.0328136683
2740.8352770995	1.0310217142
2742.7640844726	1.0298730135
2744.6928918456	1.0339523554
2746.6216992187	1.0337843895
2748.5505065917	1.0340152979
2750.4793139647	1.0335621834
2752.4081213378	1.0322542191
2754.3369287108	1.0334857702
2756.2657360839	1.0334347486
2758.1945434569	1.0336041451
2760.1233508300	1.0320011377
2762.0521582030	1.0318353176
2763.9809655761	1.0331983566
2765.9097729491	1.0323148966
2767.8385803222	1.0331261158
2769.7673876952	1.0323512554
2771.6961950683	1.0315995216
2773.6250024413	1.0333448648
2775.5538098144	1.0318903923
2777.4826171874	1.0320674181
2779.4114245604	1.0314208269
2781.3402319335	1.0289642811
2783.2690393065	1.0323780775
2785.1978466796	1.0316565037
2787.1266540526	1.0295293331
2789.0554614257	1.0315186977
2790.9842687987	1.0294572115
2792.9130761718	1.0286687613
2794.8418835448	1.0296437740
2796.7706909179	1.0302946568
2798.6994982909	1.0308089256
2800.6283056640	1.0309343338
2802.5571130370	1.0321843624
2804.4859204101	1.0294847488
2806.4147277831	1.0295372009
2808.3435351562	1.0308703184
2810.2723425292	1.0266320705
2812.2011499022	1.0265290737
2814.1299572753	1.0275009871
2816.0587646483	1.0281108618
2817.9875720214	1.0292303562
2819.9163793944	1.0277481079
2821.8451867675	1.0279611349
2823.7739941405	1.0279632807
2825.7028015136	1.0280056000
2827.6316088866	1.0277450085
2829.5604162597	1.0280812979
2831.4892236327	1.0267779827
2833.4180310058	1.0227022171
2835.3468383788	1.0253835917
2837.2756457519	1.0273928642
2839.2044531249	1.0274784565
2841.1332604979	1.0275807381
2843.0620678710	1.0252114534
2844.9908752440	1.0262910128
2846.9196826171	1.0230144262
2848.8484899901	1.0219469070
2850.7772973632	1.0245170593
2852.7061047362	1.0207294226
2854.6349121093	1.0226640701
2856.5637194823	1.0250529051
2858.4925268554	1.0231728554
2860.4213342284	1.0247223377
2862.3501416015	1.0241303444
2864.2789489745	1.0229293108
2866.2077563476	1.0241802931
2868.1365637206	1.0238102674
2870.0653710936	1.0218678713
2871.9941784667	1.0223995447
2873.9229858397	1.0234514475
2875.8517932128	1.0214768648
2877.7806005858	1.0215307474
2879.7094079589	1.0225319862
2881.6382153319	1.0213544369
2883.5670227050	1.0195367336
2885.4958300780	1.0187100172
2887.4246374511	1.0191031694
2889.3534448241	1.0177621841
2891.2822521972	1.0180857182
2893.2110595702	1.0185850859
2895.1398669433	1.0181710720
2897.0686743163	1.0178172588
2898.9974816893	1.0157376528
2900.9262890624	1.0170087814
2902.8550964354	1.0170277357
2904.7839038085	1.0153337717
2906.7127111815	1.0128746033
2908.6415185546	1.0120487213
2910.5703259276	1.0146943331
2912.4991333007	1.0115187168
2914.4279406737	1.0125926733
2916.3567480468	1.0130223036
2918.2855554198	1.0089826584
2920.2143627929	1.0103459358
2922.1431701659	1.0089832544
2924.0719775390	1.0114803314
2926.0007849120	1.0134496689
2927.9295922851	1.0086089373
2929.8583996581	1.0080345869
2931.7872070311	1.0092716217
2933.7160144042	1.0069549084
2935.6448217772	1.0063599348
2937.5736291503	1.0090371370
2939.5024365233	1.0072450638
2941.4312438964	1.0082386732
2943.3600512694	1.0093427896
2945.2888586425	1.0075902939
2947.2176660155	1.0095839500
2949.1464733886	1.0068092346
2951.0752807616	1.0068726540
2953.0040881347	1.0057376623
2954.9328955077	1.0010308027
2956.8617028808	1.0045542717
2958.7905102538	1.0046056509
2960.7193176268	1.0046805143
2962.6481249999	1.0065581799
2964.5769323729	1.0028003454
2966.5057397460	1.0028964281
2968.4345471190	1.0044990778
2970.3633544921	1.0016686916
2972.2921618651	1.0012938976
2974.2209692382	1.0029073954
2976.1497766112	0.9989807010
2978.0785839843	0.9971588850
2980.0073913573	0.9993851781
2981.9361987304	0.9973464012
2983.8650061034	0.9958699942
2985.7938134765	0.9959481359
2987.7226208495	0.9955018759
2989.6514282225	0.9930145741
2991.5802355956	0.9911890030
2993.5090429686	0.9941176772
2995.4378503417	0.9952740073
2997.3666577147	0.9952933192
2999.2954650878	0.9924934506
3001.2242724608	0.9904126525
3003.1530798339	0.9918407798
3005.0818872069	0.9885082245
3007.0106945800	0.9854196310
3008.9395019530	0.9827681780
3010.8683093261	0.9858730435
3012.7971166991	0.9898561239
3014.7259240722	0.9835630655
3016.6547314452	0.9822272658
3018.5835388182	0.9840766788
3020.5123461913	0.9811845422
3022.4411535643	0.9772575498
3024.3699609374	0.9784945846
3026.2987683104	0.9794859290
3028.2275756835	0.9738203883
3030.1563830565	0.9759967327
3032.0851904296	0.9781103730
3034.0139978026	0.9735075831
3035.9428051757	0.9719041586
3037.8716125487	0.9715584517
3039.8004199218	0.9725677967
3041.7292272948	0.9705086946
3043.6580346679	0.9658012986
3045.5868420409	0.9643290043
3047.5156494139	0.9649218321
3049.4444567870	0.9655225277
3051.3732641600	0.9631150961
3053.3020715331	0.9615097046
3055.2308789061	0.9621106982
3057.1596862792	0.9584344625
3059.0884936522	0.9585080147
3061.0173010253	0.9599887729
3062.9461083983	0.9564903378
3064.8749157714	0.9562624097
3066.8037231444	0.9519339204
3068.7325305175	0.9490259886
3070.6613378905	0.9493926764
3072.5901452636	0.9468850493
3074.5189526366	0.9473594427
3076.4477600097	0.9452104568
3078.3765673827	0.9460301995
3080.3053747557	0.9445826411
3082.2341821288	0.9389953613
3084.1629895018	0.9394779205
3086.0917968749	0.9371056557
3088.0206042479	0.9313243628
3089.9494116210	0.9293918014
3091.8782189940	0.9326781631
3093.8070263671	0.9307852387
3095.7358337401	0.9277530909
3097.6646411132	0.9280717373
3099.5934484862	0.9264580607
3101.5222558593	0.9241540432
3103.4510632323	0.9171087146
3105.3798706054	0.9168370962
3107.3086779784	0.9191548824
3109.2374853514	0.9158925414
3111.1662927245	0.9135417938
3113.0951000975	0.9102501869
3115.0239074706	0.9096274972
3116.9527148436	0.9091528654
3118.8815222167	0.9061156511
3120.8103295897	0.9027796984
3122.7391369628	0.9029084444
3124.6679443358	0.8998597860
3126.5967517089	0.8953669667
3128.5255590819	0.8961551785
3130.4543664550	0.8927802444
3132.3831738280	0.8898132443
3134.3119812011	0.8865653872
3136.2407885741	0.8853978515
3138.1695959471	0.8852959871
3140.0984033202	0.8816404939
3142.0272106932	0.8806268573
3143.9560180663	0.8777247071
3145.8848254393	0.8760673404
3147.8136328124	0.8720018268
3149.7424401854	0.8692224622
3151.6712475585	0.8699331284
3153.6000549315	0.8653698564
3155.5288623046	0.8640664220
3157.4576696776	0.8629340529
3159.3864770507	0.8582780957
3161.3152844237	0.8567534685
3163.2440917968	0.8554750085
3165.1728991698	0.8500023484
3167.1017065428	0.8496768475
3169.0305139159	0.8479526043
3170.9593212889	0.8444781899
3172.8881286620	0.8468626142
3174.8169360350	0.8389024734
3176.7457434081	0.8376130462
3178.6745507811	0.8404515982
3180.6033581542	0.8334408998
3182.5321655272	0.8321714401
3184.4609729003	0.8285126686
3186.3897802733	0.8245954514
3188.3185876464	0.8250799179
3190.2473950194	0.8236694932
3192.1762023925	0.8191438317
3194.1050097655	0.8182820678
3196.0338171386	0.8189657927
3197.9626245116	0.8147217631
3199.8914318846	0.8099018931
3201.8202392577	0.8054565787
3203.7490466307	0.8087807894
3205.6778540038	0.8073906898
3207.6066613768	0.8039744496
3209.5354687499	0.8050101399
3211.4642761229	0.7993856668
3213.3930834960	0.7982591391
3215.3218908690	0.7982891798
3217.2506982421	0.7972008586
3219.1795056151	0.7914369702
3221.1083129882	0.7909060121
3223.0371203612	0.7939818501
3224.9659277343	0.7852252126
3226.8947351073	0.7879699469
3228.8235424803	0.7899148464
3230.7523498534	0.7849578261
3232.6811572264	0.7834311724
3234.6099645995	0.7804381251
3236.5387719725	0.7806585431
3238.4675793456	0.7790359855
3240.3963867186	0.7769741416
3242.3251940917	0.7738646865
3244.2540014647	0.7755780220
3246.1828088378	0.7765125036
3248.1116162108	0.7753046155
3250.0404235839	0.7774622440
3251.9692309569	0.7717822194
3253.8980383300	0.7708054781
3255.8268457030	0.7690491080
3257.7556530760	0.7658526897
3259.6844604491	0.7689625025
3261.6132678221	0.7688401341
3263.5420751952	0.7693871260
3265.4708825682	0.7684420347
3267.3996899413	0.7684002519
3269.3284973143	0.7682811022
3271.2573046874	0.7660398483
3273.1861120604	0.7638025880
3275.1149194335	0.7639101744
3277.0437268065	0.7652868032
3278.9725341796	0.7597522736
3280.9013415526	0.7604935765
3282.8301489257	0.7643099427
3284.7589562987	0.7593945265
3286.6877636717	0.7561032176
3288.6165710448	0.7596201301
3290.5453784178	0.7616873980
3292.4741857909	0.7565865517
3294.4029931639	0.7574443817
3296.3318005370	0.7590234876
3298.2606079100	0.7556457520
3300.1894152831	0.7594060898
3302.1182226561	0.7596135736
3304.0470300292	0.7540287375
3305.9758374022	0.7538884282
3307.9046447753	0.7576218843
3309.8334521483	0.7587051988
3311.7622595214	0.7535284758
3313.6910668944	0.7529690266
3315.6198742675	0.7540515661
3317.5486816405	0.7492265105
3319.4774890135	0.7530158162
3321.4062963866	0.7546565533
3323.3351037596	0.7488299608
3325.2639111327	0.7510980964
3327.1927185057	0.7513915896
3329.1215258788	0.7490684390
3331.0503332518	0.7500673532
3332.9791406249	0.7515825629
3334.9079479979	0.7528718710
3336.8367553710	0.7496907711
3338.7655627440	0.7487763166
3340.6943701171	0.7498243451
3342.6231774901	0.7482874393
3344.5519848632	0.7503331304
3346.4807922362	0.7492979765
3348.4095996092	0.7470778823
3350.3384069823	0.7491521239
3352.2672143553	0.7458592057
3354.1960217284	0.7448975444
3356.1248291014	0.7476738095
3358.0536364745	0.7459176779
3359.9824438475	0.7466723919
3361.9112512206	0.7475711703
3363.8400585936	0.7458774447
3365.7688659667	0.7443843484
3367.6976733397	0.7446107268
3369.6264807128	0.7488211393
3371.5552880858	0.7493187785
3373.4840954589	0.7472754717
3375.4129028319	0.7517389655
3377.3417102049	0.7503806949
3379.2705175780	0.7469730973
3381.1993249510	0.7532963753
3383.1281323241	0.7521370649
3385.0569396971	0.7523753047
3386.9857470702	0.7548620701
3388.9145544432	0.7475281358
3390.8433618163	0.7486931682
3392.7721691893	0.7516775727
3394.7009765624	0.7534126639
3396.6297839354	0.7579905987
3398.5585913085	0.7589327693
3400.4873986815	0.7603338361
3402.4162060546	0.7577599883
3404.3450134276	0.7597478628
3406.2738208006	0.7663686872
3408.2026281737	0.7633182406
3410.1314355467	0.7623097897
3412.0602429198	0.7645674944
3413.9890502928	0.7644707561
3415.9178576659	0.7686169744
3417.8466650389	0.7689288259
3419.7754724120	0.7714754343
3421.7042797850	0.7759011984
3423.6330871581	0.7730705142
3425.5618945311	0.7785524130
3427.4907019042	0.7795411348
3429.4195092772	0.7754871845
3431.3483166503	0.7781645656
3433.2771240233	0.7795445919
3435.2059313963	0.7856361866
3437.1347387694	0.7900165319
3439.0635461424	0.7883215547
3440.9923535155	0.7889623642
3442.9211608885	0.7936766148
3444.8499682616	0.7929081917
3446.7787756346	0.7943804264
3448.7075830077	0.7991633415
3450.6363903807	0.7951620221
3452.5651977538	0.7992492318
3454.4940051268	0.8014783859
3456.4228124999	0.8001406789
3458.3516198729	0.8036195636
3460.2804272460	0.8054977059
3462.2092346190	0.8088092208
3464.1380419921	0.8083950877
3466.0668493651	0.8096156120
3467.9956567381	0.8101824522
3469.9244641112	0.8146135211
3471.8532714842	0.8174274564
3473.7820788573	0.8167778850
3475.7108862303	0.8235540986
3477.6396936034	0.8237540126
3479.5685009764	0.8267898560
3481.4973083495	0.8316140175
3483.4261157225	0.8317059875
3485.3549230956	0.8305241466
3487.2837304686	0.8328128457
3489.2125378417	0.8397517204
3491.1413452147	0.8404983282
3493.0701525878	0.8404004574
3494.9989599608	0.8382800221
3496.9277673338	0.8409838676
3498.8565747069	0.8437010050
3500.7853820799	0.8461679220
3502.7141894530	0.8500185609
3504.6429968260	0.8478263617
3506.5718041991	0.8519546390
3508.5006115721	0.8541124463
3510.4294189452	0.8595442772
3512.3582263182	0.8607240915
3514.2870336913	0.8595121503
3516.2158410643	0.8623899221
3518.1446484374	0.8593281507
3520.0734558104	0.8667354584
3522.0022631835	0.8669804931
3523.9310705565	0.8666771650
3525.8598779295	0.8718872666
3527.7886853026	0.8713589907
3529.7174926756	0.8749404550
3531.6463000487	0.8747761846
3533.5751074217	0.8772305846
3535.5039147948	0.8809922338
3537.4327221678	0.8840608001
3539.3615295409	0.8825804591
3541.2903369139	0.8835386038
3543.2191442870	0.8906807303
3545.1479516600	0.8916633725
3547.0767590331	0.8910389543
3549.0055664061	0.8883863688
3550.9343737792	0.8948476911
3552.8631811522	0.8972629309
3554.7919885252	0.8979498744
3556.7207958983	0.9054821134
3558.6496032713	0.9034570456
3560.5784106444	0.9051941037
3562.5072180174	0.9053804874
3564.4360253905	0.9068772197
3566.3648327635	0.9095047116
3568.2936401366	0.9094132781
3570.2224475096	0.9152727723
3572.1512548827	0.9175748229
3574.0800622557	0.9180020690
3576.0088696288	0.9144545794
3577.9376770018	0.9146806598
3579.8664843749	0.9212542176
3581.7952917479	0.9257193804
3583.7240991210	0.9284402132
3585.6529064940	0.9283505678
3587.5817138670	0.9261686802
3589.5105212401	0.9293537140
3591.4393286131	0.9330155253
3593.3681359862	0.9299123287
3595.2969433592	0.9342942834
3597.2257507323	0.9324539304
3599.1545581053	0.9322872162
3601.0833654784	0.9410974383
3603.0121728514	0.9378791451
3604.9409802245	0.9416399002
3606.8697875975	0.9415850043
3608.7985949706	0.9407545924
3610.7274023436	0.9490748048
3612.6562097167	0.9486177564
3614.5850170897	0.9505420923
3616.5138244627	0.9510437846
3618.4426318358	0.9534515142
3620.3714392088	0.9548677206
3622.3002465819	0.9496399760
3624.2290539549	0.9540033340
3626.1578613280	0.9619023800
3628.0866687010	0.9597809911
3630.0154760741	0.9586359262
3631.9442834471	0.9655414224
3633.8730908202	0.9663195610
3635.8018981932	0.9664803147
3637.7307055663	0.9682073593
3639.6595129393	0.9702892303
3641.5883203124	0.9721075296
3643.5171276854	0.9710047841
3645.4459350584	0.9759324789
3647.3747424315	0.9777281284
3649.3035498045	0.9763744473
3651.2323571776	0.9819396734
3653.1611645506	0.9812948704
3655.0899719237	0.9826832414
3657.0187792967	0.9855095744
3658.9475866698	0.9824931026
3660.8763940428	0.9892597795
3662.8052014159	0.9914256930
3664.7340087889	0.9898372889
3666.6628161620	0.9943654537
3668.5916235350	0.9908438325
3670.5204309081	0.9958376288
3672.4492382811	0.9981847405
3674.3780456541	0.9973037243
3676.3068530272	1.0032662153
3678.2356604002	1.0002343655
3680.1644677733	1.0044002533
3682.0932751463	1.0077922344
3684.0220825194	1.0098797083
3685.9508898924	1.0080233812
3687.8796972655	1.0077238083
3689.8085046385	1.0152235031
3691.7373120116	1.0079774857
3693.6661193846	1.0110661983
3695.5949267577	1.0146816969
3697.5237341307	1.0129644871
3699.4525415038	1.0166594982
3701.3813488768	1.0135383606
3703.3101562499	1.0109101534
3705.2389636229	1.0132352114
3707.1677709959	1.0174610615
3709.0965783690	1.0135850906
3711.0253857420	1.0143378973
3712.9541931151	1.0167902708
3714.8830004881	1.0125175714
3716.8118078612	1.0178411007
3718.7406152342	1.0156980753
3720.6694226073	1.0119456053
3722.5982299803	1.0164949894
3724.5270373534	1.0181872845
3726.4558447264	1.0157960653
3728.3846520995	1.0154603720
3730.3134594725	1.0182940960
3732.2422668456	1.0190763474
3734.1710742186	1.0231860876
3736.0998815916	1.0214339495
3738.0286889647	1.0167020559
3739.9574963377	1.0188658237
3741.8863037108	1.0190473795
3743.8151110838	1.0173362494
3745.7439184569	1.0155078173
3747.6727258299	1.0185785294
3749.6015332030	1.0211244822
3751.5303405760	1.0179526806
3753.4591479491	1.0172939301
3755.3879553221	1.0190731287
3757.3167626952	1.0200901031
3759.2455700682	1.0211364031
3761.1743774413	1.0191184282
3763.1031848143	1.0243818760
3765.0319921873	1.0246194601
3766.9607995604	1.0154244900
3768.8896069334	1.0232539177
3770.8184143065	1.0219186544
3772.7472216795	1.0176234245
3774.6760290526	1.0229829550
3776.6048364256	1.0212128162
3778.5336437987	1.0230739117
3780.4624511717	1.0215365887
3782.3912585448	1.0207015276
3784.3200659178	1.0182000399
3786.2488732909	1.0190925598
3788.1776806639	1.0230230093
3790.1064880370	1.0158593655
3792.0352954100	1.0186220407
3793.9641027830	1.0239810944
3795.8929101561	1.0226067305
3797.8217175291	1.0208222866
3799.7505249022	1.0202420950
3801.6793322752	1.0142689943
3803.6081396483	1.0151144266
3805.5369470213	1.0242398977
3807.4657543944	1.0254738331
3809.3945617674	1.0253545046
3811.3233691405	1.0203120708
3813.2521765135	1.0201418400
3815.1809838866	1.0195755959
3817.1097912596	1.0143562555
3819.0385986327	1.0212538242
3820.9674060057	1.0156486034
3822.8962133787	1.0185424089
3824.8250207518	1.0200183392
3826.7538281248	1.0161272287
3828.6826354979	1.0201855898
3830.6114428709	1.0154612064
3832.5402502440	1.0202078819
3834.4690576170	1.0244661570
3836.3978649901	1.0198819637
3838.3266723631	1.0193732977
3840.2554797362	1.0196158886
3842.1842871092	1.0180318356
3844.1130944823	1.0204699039
3846.0419018553	1.0201646090
3847.9707092284	1.0201917887
3849.8995166014	1.0257337093
3851.8283239745	1.0174672604
3853.7571313475	1.0154395103
3855.6859387205	1.0194643736
3857.6147460936	1.0199718475
3859.5435534666	1.0228604078
3861.4723608397	1.0221458673
3863.4011682127	1.0256190300
3865.3299755858	1.0174076557
3867.2587829588	1.0193884373
3869.1875903319	1.0156352520
3871.1163977049	1.0096931458
3873.0452050780	1.0185372829
3874.9740124510	1.0130733252
3876.9028198241	1.0237007141
3878.8316271971	1.0188632011
3880.7604345702	1.0130487680
3882.6892419432	1.0233234167
3884.6180493162	1.0165073872
3886.5468566893	1.0167336464
3888.4756640623	1.0154526234
3890.4044714354	1.0224660635
3892.3332788084	1.0207097530
3894.2620861815	1.0176771879
3896.1908935545	1.0278526545
3898.1197009276	1.0201983452
3900.0485083006	1.0189954042
3901.9773156737	1.0132675171
3903.9061230467	1.0142177343
3905.8349304198	1.0234733820
3907.7637377928	1.0193725824
3909.6925451659	1.0197170973
3911.6213525389	1.0153723955
3913.5501599119	1.0219684839
3915.4789672850	1.0248162746
3917.4077746580	1.0174406767
3919.3365820311	1.0201582909
3921.2653894041	1.0154700279
3923.1941967772	1.0177652836
3925.1230041502	1.0195842981
3927.0518115233	1.0159885883
3928.9806188963	1.0231566429
3930.9094262694	1.0192159414
3932.8382336424	1.0142115355
3934.7670410155	1.0164835453
3936.6958483885	1.0164945126
3938.6246557616	1.0218530893
3940.5534631346	1.0189856291
3942.4822705076	1.0154700279
3944.4110778807	1.0157331228
3946.3398852537	1.0170245171
3948.2686926268	1.0185648203
3950.1974999998	1.0108935833
3952.1263073729	1.0189589262
3954.0551147459	1.0235059261
3955.9839221190	1.0153717995
3957.9127294920	1.0182521343
3959.8415368651	1.0204253197
3961.7703442381	1.0208165646
3963.6991516112	1.0189113617
3965.6279589842	1.0238498449
3967.5567663573	1.0245822668
3969.4855737303	1.0187646151
3971.4143811034	1.0181274414
3973.3431884764	1.0153341293
3975.2719958494	1.0190588236
3977.2008032225	1.0173038244
3979.1296105955	1.0184047222
3981.0584179686	1.0209105015
3982.9872253416	1.0169234276
3984.9160327147	1.0199583769
3986.8448400877	1.0202884674
3988.7736474608	1.0222746134
3990.7024548338	1.0194339752
3992.6312622069	1.0136858225
3994.5600695799	1.0134587288
3996.4888769530	1.0141842365
3998.4176843260	1.0097452402
4000.3464916991	1.0120284557
4002.2752990721	1.0245696306
4004.2041064451	1.0172694921
4006.1329138182	1.0168110132
4008.0617211912	1.0198143721
4009.9905285643	1.0148073435
4011.9193359373	1.0206056833
4013.8481433104	1.0199960470
4015.7769506834	1.0205988884
4017.7057580565	1.0160418749
4019.6345654295	1.0132827759
4021.5633728026	1.0186078548
4023.4921801756	1.0213043690
4025.4209875487	1.0204154253
4027.3497949217	1.0154999495
4029.2786022948	1.0205521584
4031.2074096678	1.0197277069
4033.1362170408	1.0199766159
4035.0650244139	1.0172805786
4036.9938317869	1.0135042667
4038.9226391600	1.0214036703
4040.8514465330	1.0156503916
4042.7802539061	1.0161199570
4044.7090612791	1.0197656155
4046.6378686522	1.0197054148
4048.5666760252	1.0176256895
4050.4954833983	1.0102232695
4052.4242907713	1.0109864473
4054.3530981444	1.0106911659
4056.2819055174	1.0171077251
4058.2107128905	1.0195270777
4060.1395202635	1.0192023516
4062.0683276365	1.0201327801
4063.9971350096	1.0163658857
4065.9259423826	1.0213456154
4067.8547497557	1.0166680813
4069.7835571287	1.0131738186
4071.7123645018	1.0155191422
4073.6411718748	1.0152900219
4075.5699792479	1.0187906027
4077.4987866209	1.0146899223
4079.4275939940	1.0206819773
4081.3564013670	1.0278480053
4083.2852087401	1.0137618780
4085.2140161131	1.0113354921
4087.1428234862	1.0191917419
4089.0716308592	1.0180011988
4091.0004382323	1.0224958658
4092.9292456053	1.0159267187
4094.8580529783	1.0089737177
4096.7868603514	1.0226221085
4098.7156677244	1.0203121901
4100.6444750975	1.0129023790
4102.5732824705	1.0199167728
4104.5020898436	1.0186077356
4106.4308972166	1.0163244009
4108.3597045897	1.0190041065
4110.2885119627	1.0141071081
4112.2173193358	1.0170394182
4114.1461267088	1.0170449018
4116.0749340819	1.0094140768
4118.0037414549	1.0185524225
4119.9325488280	1.0145623684
4121.8613562010	1.0102680922
4123.7901635740	1.0181146860
4125.7189709471	1.0130944252
4127.6477783201	1.0152593851
4129.5765856932	1.0158991814
4131.5053930662	1.0118103027
4133.4342004393	1.0165966749
4135.3630078123	1.0226569176
4137.2918151854	1.0183614492
4139.2206225584	1.0162353516
4141.1494299315	1.0224784613
4143.0782373045	1.0145965815
4145.0070446776	1.0116554499
4146.9358520506	1.0159534216
4148.8646594237	1.0173591375
4150.7934667967	1.0196233988
4152.7222741697	1.0155059099
4154.6510815428	1.0117671490
4156.5798889158	1.0128811598
4158.5086962889	1.0188641548
4160.4375036619	1.0185960531
4162.3663110350	1.0145910978
4164.2951184080	1.0137873888
4166.2239257811	1.0152839422
4168.1527331541	1.0126742125
4170.0815405272	1.0070754290
4172.0103479002	1.0137566328
4173.9391552733	1.0167766809
4175.8679626463	1.0148080587
4177.7967700194	1.0137169361
4179.7255773924	1.0151190758
4181.6543847654	1.0190417767
4183.5831921385	1.0164146423
4185.5119995115	1.0177848339
4187.4408068846	1.0220619440
4189.3696142576	1.0207411051
4191.2984216307	1.0178620815
4193.2272290037	1.0230460167
4195.1560363768	1.0180152655
4197.0848437498	1.0136898756
4199.0136511229	1.0179765224
4200.9424584959	1.0150257349
4202.8712658690	1.0251038074
4204.8000732420	1.0189760923
4206.7288806151	1.0145153999
4208.6576879881	1.0210845470
4210.5864953611	1.0124310255
4212.5153027342	1.0183821917
4214.4441101072	1.0170718431
4216.3729174803	1.0098820925
4218.3017248533	1.0059792995
4220.2305322264	1.0122301579
4222.1593395994	1.0201065540
4224.0881469725	1.0096187592
4226.0169543455	1.0181324482
4227.9457617186	1.0222989321
4229.8745690916	1.0132011175
4231.8033764647	1.0117832422
4233.7321838377	1.0155297518
4235.6609912108	1.0172343254
4237.5897985838	1.0149275064
4239.5186059569	1.0163745880
4241.4474133299	1.0085096359
4243.3762207029	1.0128303766
4245.3050280760	1.0150600672
4247.2338354490	1.0098029375
4249.1626428221	1.0125869513
4251.0914501951	1.0078848600
4253.0202575682	1.0158150196
4254.9490649412	1.0151705742
4256.8778723143	1.0089474916
4258.8066796873	1.0116759539
4260.7354870604	1.0124137402
4262.6642944334	1.0178662539
4264.5931018065	1.0104361773
4266.5219091795	1.0106420517
4268.4507165526	1.0195261240
4270.3795239256	1.0128132105
4272.3083312986	1.0097013712
4274.2371386717	1.0192418098
4276.1659460447	1.0206823349
4278.0947534178	1.0106317997
4280.0235607908	1.0109549761
4281.9523681639	1.0103995800
4283.8811755369	1.0098460913
4285.8099829100	1.0159580708
4287.7387902830	1.0157794952
4289.6675976561	1.0145108700
4291.5964050291	1.0115840435
4293.5252124022	1.0156559944
4295.4540197752	1.0199233294
4297.3828271483	1.0105528831
4299.3116345213	1.0118458271
4301.2404418943	1.0180894136
4303.1692492674	1.0156197548
4305.0980566404	1.0199353695
4307.0268640135	1.0141916275
4308.9556713865	1.0064899921
4310.8844787596	1.0144535303
4312.8132861326	1.0071921349
4314.7420935057	1.0085376501
4316.6709008787	1.0223304033
4318.5997082518	1.0124990940
4320.5285156248	1.0118032694
4322.4573229979	1.0204432011
4324.3861303709	1.0217566490
4326.3149377440	1.0202552080
4328.2437451170	1.0136345625
4330.1725524900	1.0157089233
4332.1013598631	1.0162665844
4334.0301672361	1.0166721344
4335.9589746092	1.0171581507
4337.8877819822	1.0130341053
4339.8165893553	1.0154223442
4341.7453967283	1.0117782354
4343.6742041014	1.0144356489
4345.6030114744	1.0142358541
4347.5318188475	1.0066846609
4349.4606262205	1.0142945051
4351.3894335936	1.0166616440
4353.3182409666	1.0187641382
4355.2470483397	1.0152428150
4357.1758557127	1.0063261986
4359.1046630858	1.0128240585
4361.0334704588	1.0168654919
4362.9622778318	1.0153009892
4364.8910852049	1.0063116550
4366.8198925779	0.9994690418
4368.7486999510	1.0148398876
4370.6775073240	1.0255398750
4372.6063146971	1.0173399448
4374.5351220701	1.0243425369
4376.4639294432	1.0240403414
4378.3927368162	1.0103027821
4380.3215441893	1.0195144415
4382.2503515623	1.0110841990
4384.1791589354	1.0044736862
4386.1079663084	1.0134620667
4388.0367736815	1.0089515448
4389.9655810545	1.0061373711
4391.8943884275	1.0030832291
4393.8231958006	1.0210398436
4395.7520031736	1.0197856426
4397.6808105467	1.0111546516
4399.6096179197	1.0225511789
4401.5384252928	1.0075162649
4403.4672326658	1.0156210661
4405.3960400389	1.0183053017
4407.3248474119	1.0061088800
4409.2536547850	1.0161286592
4411.1824621580	1.0099304914
4413.1112695311	1.0074881315
4415.0400769041	1.0098536015
4416.9688842772	1.0096473694
4418.8976916502	1.0120130777
4420.8264990232	1.0115731955
4422.7553063963	1.0071467161
4424.6841137693	1.0085834265
4426.6129211424	1.0133931637
4428.5417285154	1.0058488846
4430.4705358885	1.0125077963
4432.3993432615	1.0139273405
4434.3281506346	1.0120062828
4436.2569580076	1.0177386999
4438.1857653807	1.0115356445
4440.1145727537	1.0136616230
4442.0433801268	1.0121889114
4443.9721874998	1.0107235909
4445.9009948729	1.0139096975
4447.8298022459	1.0146423578
4449.7586096189	1.0116540194
4451.6874169920	1.0093564987
4453.6162243650	1.0163043737
4455.5450317381	1.0145962238
4457.4738391111	1.0154589415
4459.4026464842	1.0145548582
4461.3314538572	1.0123815536
4463.2602612303	1.0145466328
4465.1890686033	1.0108751059
4467.1178759764	1.0094730854
4469.0466833494	1.0135767460
4470.9754907225	1.0177669525
4472.9042980955	1.0066149235
4474.8331054686	1.0067402124
4476.7619128416	1.0081154108
4478.6907202147	1.0043821335
4480.6195275877	1.0120227337
4482.5483349607	1.0066902637
4484.4771423338	1.0081664324
4486.4059497068	1.0122392178
4488.3347570799	1.0152808428
4490.2635644529	1.0087145567
4492.1923718260	1.0047821999
4494.1211791990	1.0155631304
4496.0499865721	1.0102025270
4497.9787939451	1.0154728889
4499.9076013182	1.0121016502
4501.8364086912	1.0145797729
4503.7652160643	1.0191233158
4505.6940234373	1.0046583414
4507.6228308104	1.0137621164
4509.5516381834	1.0100588799
4511.4804455564	1.0083765984
4513.4092529295	1.0146194696
4515.3380603025	1.0104602575
4517.2668676756	1.0080848932
4519.1956750486	1.0069524050
4521.1244824217	1.0127707720
4523.0532897947	1.0025413036
4524.9820971678	1.0040135384
4526.9109045408	1.0136785507
4528.8397119139	1.0139229298
4530.7685192869	1.0145591497
4532.6973266600	1.0092289448
4534.6261340330	1.0152571201
4536.5549414061	1.0150911808
4538.4837487791	1.0080169439
4540.4125561521	1.0135976076
4542.3413635252	1.0213267803
4544.2701708982	1.0144156218
4546.1989782713	1.0117299557
4548.1277856443	1.0132806301
4550.0565930174	1.0078825951
4551.9854003904	1.0094590187
4553.9142077635	1.0037134886
4555.8430151365	1.0141755342
4557.7718225096	1.0181142092
4559.7006298826	1.0076059103
4561.6294372557	1.0151151419
4563.5582446287	1.0116850138
4565.4870520018	1.0132787228
4567.4158593748	1.0180650949
4569.3446667478	1.0142952204
4571.2734741209	1.0107872486
4573.2022814939	1.0111985207
4575.1310888670	1.0070959330
4577.0598962400	1.0042660236
4578.9887036131	1.0122139454
4580.9175109861	1.0049306154
4582.8463183592	1.0116682053
4584.7751257322	1.0183843374
4586.7039331053	1.0111535788
4588.6327404783	1.0125460625
4590.5615478514	1.0085103512
4592.4903552244	1.0037871599
4594.4191625975	1.0016683340
4596.3479699705	1.0134265423
4598.2767773435	1.0133239031
4600.2055847166	1.0082930326
4602.1343920896	1.0056689978
4604.0631994627	0.9999524951
4605.9920068357	1.0133557320
4607.9208142088	1.0119549036
4609.8496215818	1.0142310858
4611.7784289549	1.0156978369
4613.7072363279	1.0047318935
4615.6360437010	1.0018336773
4617.5648510740	1.0062417984
4619.4936584471	1.0191463232
4621.4224658201	1.0060048103
4623.3512731932	1.0044558048
4625.2800805662	1.0129719973
4627.2088879393	1.0062808990
4629.1376953123	1.0135487318
4631.0665026853	1.0042166710
4632.9953100584	1.0049351454
4634.9241174314	1.0201674700
4636.8529248045	1.0051970482
4638.7817321775	1.0118097067
4640.7105395506	1.0258393288
4642.6393469236	1.0023510456
4644.5681542967	1.0071564913
4646.4969616697	1.0165324211
4648.4257690428	1.0101985931
4650.3545764158	1.0160084963
4652.2833837889	1.0028007030
4654.2121911619	1.0103564262
4656.1409985350	1.0131349564
4658.0698059080	1.0030190945
4659.9986132810	1.0112539530
4661.9274206541	0.9954513907
4663.8562280271	0.9972373843
4665.7850354002	1.0085637569
4667.7138427732	1.0062597990
4669.6426501463	1.0111531019
4671.5714575193	1.0059536695
4673.5002648924	1.0042661428
4675.4290722654	1.0093169212
4677.3578796385	1.0091296434
4679.2866870115	1.0055583715
4681.2154943846	1.0066214800
4683.1443017576	1.0021549463
4685.0731091307	1.0004342794
4687.0019165037	1.0100499392
4688.9307238767	1.0094578266
4690.8595312498	1.0101147890
4692.7883386228	1.0060949326
4694.7171459959	1.0007220507
4696.6459533689	1.0047390461
4698.5747607420	1.0005688667
4700.5035681150	0.9984382987
4702.4323754881	1.0054445267
4704.3611828611	1.0208698511
4706.2899902342	1.0122336149
4708.2187976072	0.9934633374
4710.1476049803	1.0107511282
4712.0764123533	1.0114467144
4714.0052197264	1.0125818253
4715.9340270994	1.0238152742
4717.8628344724	1.0098073483
4719.7916418455	1.0126552582
4721.7204492185	1.0049675703
4723.6492565916	1.0012109280
4725.5780639646	1.0112299919
4727.5068713377	1.0022957325
4729.4356787107	1.0031474829
4731.3644860838	1.0020594597
4733.2932934568	1.0010576248
4735.2221008299	0.9995936155
4737.1509082029	1.0050690174
4739.0797155760	1.0118957758
4741.0085229490	1.0149137974
4742.9373303221	1.0146110058
4744.8661376951	0.9954572320
4746.7949450682	1.0076479912
4748.7237524412	1.0048990250
4750.6525598142	0.9950110912
4752.5813671873	1.0100717545
4754.5101745603	1.0005980730
4756.4389819334	1.0007126331
4758.3677893064	1.0041148663
4760.2965966795	1.0086134672
4762.2254040525	1.0034438372
4764.1542114256	1.0077860355
4766.0830187986	1.0111631155
4768.0118261717	0.9907453060
4769.9406335447	1.0055168867
4771.8694409178	1.0063362122
4773.7982482908	1.0044978857
4775.7270556639	1.0066803694
4777.6558630369	1.0023899078
4779.5846704099	1.0131287575
4781.5134777830	1.0060768127
4783.4422851560	1.0058526993
4785.3710925291	1.0003222227
4787.2998999021	0.9969795942
4789.2287072752	0.9980884194
4791.1575146482	1.0020854473
4793.0863220213	1.0070716143
4795.0151293943	0.9955305457
4796.9439367674	1.0021038055
4798.8727441404	1.0051892996
4800.8015515135	1.0127295256
4802.7303588865	1.0140203238
4804.6591662596	1.0030804873
4806.5879736326	1.0068070889
4808.5167810056	1.0133011341
4810.4455883787	1.0140380859
4812.3743957517	1.0021234751
4814.3032031248	1.0074322224
4816.2320104978	1.0081872940
4818.1608178709	1.0084280968
4820.0896252439	1.0138897896
4822.0184326170	1.0139988661
4823.9472399900	1.0162897110
4825.8760473631	1.0009224415
4827.8048547361	1.0078887939
4829.7336621092	1.0174129009
4831.6624694822	1.0151762962
4833.5912768553	1.0023847818
4835.5200842283	0.9986922145
4837.4488916013	1.0186705589
4839.3776989744	1.0113705397
4841.3065063474	1.0078369379
4843.2353137205	0.9973558784
4845.1641210935	1.0030214787
4847.0929284666	1.0211560726
4849.0217358396	0.9964395761
4850.9505432127	0.9817040563
4852.8793505857	0.9933583140
4854.8081579588	1.0064412355
4856.7369653318	0.9948936701
4858.6657727049	0.9968585968
4860.5945800779	1.0099503994
4862.5233874510	1.0153894424
4864.4521948240	1.0115422010
4866.3810021971	1.0016767979
4868.3098095701	1.0129607916
4870.2386169431	1.0030459166
4872.1674243162	1.0169636011
4874.0962316892	1.0125250816
4876.0250390623	0.9875417948
4877.9538464353	1.0096353292
4879.8826538084	0.9927520156
4881.8114611814	0.9936400652
4883.7402685545	1.0070682764
4885.6690759275	0.9990298152
4887.5978833006	1.0096203089
4889.5266906736	1.0108239651
4891.4554980467	1.0142114162
4893.3843054197	1.0029928684
4895.3131127928	1.0023874044
4897.2419201658	1.0088372231
4899.1707275388	1.0044767857
4901.0995349119	1.0162125826
4903.0283422849	1.0111091137
4904.9571496580	1.0028634071
4906.8859570310	1.0117652416
4908.8147644041	1.0069000721
4910.7435717771	0.9915040135
4912.6723791502	0.9947792888
4914.6011865232	1.0056458712
4916.5299938963	1.0068116188
4918.4588012693	0.9917400479
4920.3876086424	0.9925057888
4922.3164160154	1.0214493275
4924.2452233885	1.0168608427
4926.1740307615	1.0069288015
4928.1028381345	1.0092837811
4930.0316455076	0.9939432144
4931.9604528806	0.9915223718
4933.8892602537	1.0008661747
4935.8180676267	0.9911997318
4937.7468749998	0.9931553602
4939.6756823728	1.0120327473
4941.6044897459	1.0006004572
4943.5332971189	0.9991057515
4945.4621044920	1.0122069120
4947.3909118650	1.0105327368
4949.3197192381	1.0079876184
4951.2485266111	1.0129690170
4953.1773339842	1.0100147724
4955.1061413572	0.9789630771
4957.0349487302	0.9927905202
4958.9637561033	1.0127376318
4960.8925634763	0.9924945235
4962.8213708494	0.9925239086
4964.7501782224	0.9911707640
4966.6789855955	1.0074056387
4968.6077929685	1.0154327154
4970.5366003416	0.9996152520
4972.4654077146	0.9932558537
4974.3942150877	0.9985083938
4976.3230224607	1.0081242323
4978.2518298338	0.9926520586
4980.1806372068	0.9973180294
4982.1094445799	1.0015681982
4984.0382519529	0.9994204044
4985.9670593259	1.0153284073
4987.8958666990	0.9993935227
4989.8246740720	0.9946836829
4991.7534814451	1.0114490986
4993.6822888181	1.0101128817
4995.6110961912	1.0030027628
4997.5399035642	1.0034147501
4999.4687109373	0.9995716810
5001.3975183103	1.0016045570
5003.3263256834	1.0144485235
5005.2551330564	1.0058505535
5007.1839404295	0.9959149957
5009.1127478025	1.0004427433
5011.0415551756	0.9921672940
5012.9703625486	0.9846850634
5014.8991699217	1.0139325857
5016.8279772947	1.0093613863
5018.7567846677	0.9820029140
5020.6855920408	0.9966313243
5022.6143994138	0.9986935258
5024.5432067869	1.0066534281
5026.4720141599	0.9969413877
5028.4008215330	0.9951158166
5030.3296289060	1.0096075535
5032.2584362791	0.9947282076
5034.1872436521	1.0126616955
5036.1160510252	0.9990505576
5038.0448583982	0.9961330295
5039.9736657713	1.0175472498
5041.9024731443	1.0052593946
5043.8312805174	1.0064589977
5045.7600878904	0.9910930991
5047.6888952634	0.9947311282
5049.6177026365	1.0024777651
5051.5465100095	1.0035618544
5053.4753173826	1.0086816549
5055.4041247556	1.0116891861
5057.3329321287	1.0064079762
5059.2617395017	0.9752322435
5061.1905468748	0.9979718328
5063.1193542478	1.0077135563
5065.0481616209	0.9892383218
5066.9769689939	0.9926403165
5068.9057763670	1.0022965670
5070.8345837400	1.0126299858
5072.7633911131	0.9904043078
5074.6921984861	0.9995920062
5076.6210058591	1.0065203905
5078.5498132322	1.0030608177
5080.4786206052	1.0048739910
5082.4074279783	1.0061118603
5084.3362353513	1.0189778805
5086.2650427244	0.9766022563
5088.1938500974	0.9779672027
5090.1226574705	1.0047416687
5092.0514648435	0.9865224957
5093.9802722166	0.9950124025
5095.9090795896	1.0186821222
5097.8378869627	1.0047702789
5099.7666943357	0.9794167280
5101.6955017088	1.0024689436
5103.6243090818	1.0101568699
5105.5531164548	1.0021792650
5107.4819238279	1.0032075644
5109.4107312009	1.0017940998
5111.3395385740	0.9919793010
5113.2683459470	0.9928529859
5115.1971533201	1.0129843950
5117.1259606931	0.9900266528
5119.0547680662	1.0149487257
5120.9835754392	1.0044261217
5122.9123828123	0.9719882607
5124.8411901853	1.0079739094
5126.7699975584	0.9714183211
5128.6988049314	0.9722399116
5130.6276123045	1.0005397797
5132.5564196775	0.9995951056
5134.4852270506	1.0092028379
5136.4140344236	0.9936121106
5138.3428417966	0.9958291054
5140.2716491697	1.0125197172
5142.2004565427	1.0086829662
5144.1292639158	0.9834672809
5146.0580712888	1.0015643835
5147.9868786619	0.9970346689
5149.9156860349	0.9848418832
5151.8444934080	0.9882234335
5153.7733007810	0.9730712771
5155.7021081541	1.0123034716
5157.6309155271	0.9831632972
5159.5597229002	0.9867547750
5161.4885302732	1.0174198151
5163.4173376463	0.9867106080
5165.3461450193	1.0027080774
5167.2749523923	0.9732084870
5169.2037597654	0.9848039746
5171.1325671384	1.0089110136
5173.0613745115	0.9949660301
5174.9901818845	0.9975503683
5176.9189892576	0.9837342501
5178.8477966306	0.9884535670
5180.7766040037	0.9702068567
5182.7054113767	0.9877955317
5184.6342187498	1.0138300657
5186.5630261228	1.0159617662
5188.4918334959	1.0020840168
5190.4206408689	0.9758805633
5192.3494482420	1.0047812462
5194.2782556150	0.9898582697
5196.2070629880	0.9874195457
5198.1358703611	0.9967533946
5200.0646777341	0.9774428606
5201.9934851072	0.9907677174
5203.9222924802	0.9742232561
5205.8510998533	0.9734711051
5207.7799072263	0.9992987514
5209.7087145994	0.9984611273
5211.6375219724	0.9872434735
5213.5663293455	0.9945676923
5215.4951367185	1.0060758591
5217.4239440916	1.0032187700
5219.3527514646	0.9977355003
5221.2815588377	0.9919540882
5223.2103662107	1.0080494881
5225.1391735837	1.0055696964
5227.0679809568	0.9895953536
5228.9967883298	0.9986129999
5230.9255957029	1.0194014311
5232.8544030759	1.0060782433
5234.7832104490	0.9934792519
5236.7120178220	1.0153298378
5238.6408251951	1.0001915693
5240.5696325681	1.0094666481
5242.4984399412	1.0066092014
5244.4272473142	0.9855259657
5246.3560546873	0.9887226224
5248.2848620603	0.9697017670
5250.2136694334	1.0102564096
5252.1424768064	1.0148184299
5254.0712841795	0.9867684841
5256.0000915525	1.0032016039
5257.9288989255	1.0027641058
5259.8577062986	1.0097434521
5261.7865136716	0.9903850555
5263.7153210447	1.0042024851
5265.6441284177	1.0121030807
5267.5729357908	0.9798015952
5269.5017431638	1.0165266991
5271.4305505369	1.0176310539
5273.3593579099	0.9825415015
5275.2881652830	0.9931959510
5277.2169726560	0.9887372851
5279.1457800291	0.9788810611
5281.0745874021	0.9918835163
5283.0033947752	0.9861640334
5284.9322021482	0.9753586054
5286.8610095212	0.9791553617
5288.7898168943	0.9936002493
5290.7186242673	1.0047049522
5292.6474316404	0.9804113507
5294.5762390134	0.9922857881
5296.5050463865	1.0068278313
5298.4338537595	0.9761029482
5300.3626611326	0.9894225597
5302.2914685056	0.9969162345
5304.2202758787	0.9914516211
5306.1490832517	1.0065016747
5308.0778906248	0.9972158074
5310.0066979978	0.9950818419
5311.9355053709	1.0018144846
5313.8643127439	0.9963611364
5315.7931201169	0.9867683053
5317.7219274900	0.9927948713
5319.6507348630	1.0068792105
5321.5795422361	1.0066741705
5323.5083496091	1.0161451101
5325.4371569822	0.9995052814
5327.3659643552	0.9830220342
5329.2947717283	1.0032492876
5331.2235791013	0.9974281788
5333.1523864744	0.9992612004
5335.0811938474	1.0186768770
5337.0100012205	1.0084037781
5338.9388085935	0.9794999957
5340.8676159666	0.9866476655
5342.7964233396	0.9981222153
5344.7252307126	0.9746145010
5346.6540380857	0.9866263866
5348.5828454587	0.9937239885
5350.5116528318	0.9979958534
5352.4404602048	0.9932534695
5354.3692675779	0.9845059514
5356.2980749509	1.0281020403
5358.2268823240	1.0036743879
5360.1556896970	0.9953690767
5362.0844970701	1.0133470297
5364.0133044431	0.9893558025
5365.9421118162	1.0120875835
5367.8709191892	0.9980104566
5369.7997265623	0.9848015904
5371.7285339353	0.9938383698
5373.6573413083	0.9877930880
5375.5861486814	0.9982894659
5377.5149560544	1.0009680986
5379.4437634275	1.0013639927
5381.3725708005	0.9878876805
5383.3013781736	0.9888005853
5385.2301855466	0.9819719195
5387.1589929197	0.9882430434
5389.0878002927	0.9962437153
5391.0166076658	0.9729428887
5392.9454150388	1.0054979324
5394.8742224119	1.0053046942
5396.8030297849	1.0016881227
5398.7318371580	1.0215671062
5400.6606445310	0.9832084775
5402.5894519041	0.9863226414
5404.5182592771	1.0093632936
5406.4470666501	1.0049461126
5408.3758740232	1.0019826889
5410.3046813962	0.9949355125
5412.2334887693	0.9818028212
5414.1622961423	0.9900015593
5416.0911035154	0.9958339930
5418.0199108884	0.9635014534
5419.9487182615	0.9817581773
5421.8775256345	0.9987205267
5423.8063330076	0.9779309630
5425.7351403806	0.9972786307
5427.6639477537	1.0011394024
5429.5927551267	1.0076268911
5431.5215624998	1.0034110546
5433.4503698728	0.9703646898
5435.3791772458	0.9827841520
5437.3079846189	0.9943772554
5439.2367919919	1.0007426739
5441.1655993650	0.9919367433
5443.0944067380	0.9761263728
5445.0232141111	1.0133265257
5446.9520214841	1.0033925772
5448.8808288572	0.9834662676
5450.8096362302	0.9915070534
5452.7384436033	0.9812847376
5454.6672509763	1.0063674450
5456.5960583494	0.9956895709
5458.5248657224	0.9856189489
5460.4536730955	1.0267778635
5462.3824804685	1.0036884546
5464.3112878415	0.9703172445
5466.2400952146	0.9792174697
5468.1689025876	0.9749569297
5470.0977099607	0.9754204750
5472.0265173337	0.9914884567
5473.9553247068	0.9740173221
5475.8841320798	0.9664192796
5477.8129394529	0.9990857840
5479.7417468259	1.0158759356
5481.6705541990	1.0044617653
5483.5993615720	0.9555801749
5485.5281689451	0.9480324984
5487.4569763181	0.9951414466
5489.3857836912	0.9800657034
5491.3145910642	0.9741697907
5493.2433984372	1.0145709515
5495.1722058103	0.9968637228
5497.1010131833	0.9832664132
5499.0298205564	1.0099720955
5500.9586279294	1.0148106813
5502.8874353025	0.9968719482
5504.8162426755	0.9893211722
5506.7450500486	0.9717884660
5508.6738574216	0.9615572691
5510.6026647947	1.0200258493
5512.5314721677	1.0265519619
5514.4602795408	0.9914004207
5516.3890869138	1.0005438328
5518.3178942869	0.9807849526
5520.2467016599	0.9809835553
5522.1755090330	0.9921064973
5524.1043164060	0.9896125197
5526.0331237790	0.9828860760
5527.9619311521	0.9862278700
5529.8907385251	1.0171346664
5531.8195458982	1.0003776550
5533.7483532712	0.9867653847
5535.6771606443	0.9925313592
5537.6059680173	1.0019234419
5539.5347753904	1.0131974220
5541.4635827634	0.9922757745
5543.3923901365	0.9806631804
5545.3211975095	1.0113253593
5547.2500048826	1.0014436245
5549.1788122556	0.9471585751
5551.1076196287	1.0006780624
5553.0364270017	1.0105292797
5554.9652343747	0.9785459042
5556.8940417478	1.0134308338
5558.8228491208	0.9917079806
5560.7516564939	1.0211335421
5562.6804638669	0.9902113676
5564.6092712400	0.9481983781
5566.5380786130	0.9958775640
5568.4668859861	0.9713258147
5570.3956933591	0.9784175158
5572.3245007322	0.9983167052
5574.2533081052	0.9937662482
5576.1821154783	0.9830736518
5578.1109228513	0.9608440399
5580.0397302244	0.9763172269
5581.9685375974	1.0065289736
5583.8973449704	1.0137351751
5585.8261523435	0.9914267063
5587.7549597165	0.9920113087
5589.6837670896	0.9825274348
5591.6125744626	0.9801291823
5593.5413818357	0.9748511314
5595.4701892087	0.9801679254
5597.3989965818	0.9883053303
5599.3278039548	0.9677363634
5601.2566113279	1.0112099648
5603.1854187009	0.9797015786
5605.1142260740	0.9529909492
5607.0430334470	0.9833222628
5608.9718408201	0.9791027308
5610.9006481931	0.9904989004
5612.8294555661	0.9496740699
5614.7582629392	0.9722902775
5616.6870703122	0.9760671854
5618.6158776853	0.9428362250
5620.5446850583	0.9929855466
5622.4734924314	0.9967842102
5624.4022998044	1.0143402815
5626.3311071775	0.9993890524
5628.2599145505	0.9621070623
5630.1887219236	0.9682859778
5632.1175292966	0.9684558511
5634.0463366697	1.0012660027
5635.9751440427	0.9964607358
5637.9039514158	0.9780647755
5639.8327587888	0.9820841551
5641.7615661619	0.9682676196
5643.6903735349	0.9872820973
5645.6191809079	1.0069216490
5647.5479882810	0.9744375348
5649.4767956540	0.9464702010
5651.4056030271	0.9498894215
5653.3344104001	0.9812160730
5655.2632177732	0.9981533885
5657.1920251462	0.9683098197
5659.1208325193	0.9618066549
5661.0496398923	0.9714259505
5662.9784472654	0.9976271987
5664.9072546384	1.0253037214
5666.8360620115	0.9859163165
5668.7648693845	0.9556327462
5670.6936767576	0.9749824405
5672.6224841306	0.9835285544
5674.5512915036	0.9654811621
5676.4800988767	0.9751029611
5678.4089062497	0.9999349117
5680.3377136228	0.9883857965
5682.2665209958	0.9837827086
5684.1953283689	1.0065197945
5686.1241357419	0.9880133867
5688.0529431150	0.9398715496
5689.9817504880	0.9486645460
5691.9105578611	0.9814379215
5693.8393652341	0.9987194538
5695.7681726072	0.9949362874
5697.6969799802	0.9903023243
5699.6257873533	0.9956024885
5701.5545947263	0.9642693400
5703.4834020993	0.9747375250
5705.4122094724	1.0012158155
5707.3410168454	0.9728603959
5709.2698242185	0.9789401293
5711.1986315915	0.9971125722
5713.1274389646	0.9818905592
5715.0562463376	0.9703758359
5716.9850537107	0.9652338624
5718.9138610837	0.9788450599
5720.8426684568	0.9888255596
5722.7714758298	0.9751880169
5724.7002832029	1.0072870255
5726.6290905759	1.0308254957
5728.5578979490	0.9879770279
5730.4867053220	0.9637542963
5732.4155126950	0.9825703502
5734.3443200681	1.0000007153
5736.2731274411	0.9761705995
5738.2019348142	0.9585045576
5740.1307421872	0.9644077420
5742.0595495603	0.9793397784
5743.9883569333	0.9848250747
5745.9171643064	0.9647101760
5747.8459716794	0.9646943212
5749.7747790525	0.9562155008
5751.7035864255	0.9361354113
5753.6323937986	0.9461075068
5755.5612011716	0.9742618799
5757.4900085447	0.9635746479
5759.4188159177	0.9664674997
5761.3476232907	0.9953606129
5763.2764306638	0.9678835869
5765.2052380368	0.9870433807
5767.1340454099	0.9930102229
5769.0628527829	0.9811618328
5770.9916601560	0.9996772408
5772.9204675290	0.9721756577
5774.8492749021	1.0084440708
5776.7780822751	1.0142959356
5778.7068896482	0.9838995934
5780.6356970212	1.0203379393
5782.5645043943	1.0189849138
5784.4933117673	0.9897646904
5786.4221191404	0.9605697989
5788.3509265134	0.9847419858
5790.2797338865	0.9938274026
5792.2085412595	0.9526843429
5794.1373486325	0.9878001213
5796.0661560056	1.0087056160
5797.9949633786	0.9835181832
5799.9237707517	0.9869495034
5801.8525781247	0.9809413552
5803.7813854978	0.9750658274
5805.7101928708	0.9900529981
5807.6390002439	0.9910151958
5809.5678076169	1.0078665018
5811.4966149900	1.0264524221
5813.4254223630	1.0037382841
5815.3542297361	1.0002584457
5817.2830371091	1.0183997154
5819.2118444822	1.0237104893
5821.1406518552	0.9807112217
5823.0694592282	0.9536473751
5824.9982666013	1.0130012035
5826.9270739743	1.0025180578
5828.8558813474	0.9564750791
5830.7846887204	0.9563437104
5832.7134960935	0.9518594742
5834.6423034665	0.9513818622
5836.5711108396	0.9522930980
5838.4999182126	1.0197327137
5840.4287255857	1.0366985798
5842.3575329587	0.9912794828
5844.2863403318	0.9752146006
5846.2151477048	0.9307918549
5848.1439550779	0.9576170444
5850.0727624509	0.9563072920
5852.0015698239	0.9607828856
5853.9303771970	1.0002248287
5855.8591845700	0.9622804523
5857.7879919431	1.0034699440
5859.7167993161	0.9570686221
5861.6456066892	0.9593592882
5863.5744140622	1.0170006752
5865.5032214353	0.9269028306
5867.4320288083	0.9831754565
5869.3608361814	0.9969917536
5871.2896435544	0.9643578529
5873.2184509275	0.9970500469
5875.1472583005	0.9551149011
5877.0760656736	1.0034520626
5879.0048730466	1.0015685558
5880.9336804196	0.9478298426
5882.8624877927	0.9757775664
5884.7912951657	0.9818176627
5886.7201025388	0.9965302944
5888.6489099118	0.9984618425
5890.5777172849	0.9596208930
5892.5065246579	0.9707124233
5894.4353320310	0.9680317640
5896.3641394040	0.9261333346
5898.2929467771	0.9628524780
5900.2217541501	0.9650229812
5902.1505615232	0.9530515671
5904.0793688962	0.9928237200
5906.0081762693	0.9558252096
5907.9369836423	0.9424637556
5909.8657910154	0.9488480091
5911.7945983884	0.9720664620
5913.7234057614	0.9841620922
5915.6522131345	0.9838208556
5917.5810205075	1.0132727623
5919.5098278806	0.9048699141
5921.4386352536	0.9097178578
5923.3674426267	0.9853570461
5925.2962499997	0.9142417908
5927.2250573728	0.9421622753
5929.1538647458	0.9360882640
5931.0826721189	0.9388021827
5933.0114794919	0.9988082647
5934.9402868650	0.9648309946
5936.8690942380	0.9773502946
5938.7979016111	0.9746922851
5940.7267089841	0.9751092196
5942.6555163571	0.9758962393
5944.5843237302	0.9192283154
5946.5131311032	0.9279258847
5948.4419384763	0.9464139342
5950.3707458493	0.9691789746
5952.2995532224	0.9967826009
5954.2283605954	0.9789912105
5956.1571679685	1.0195714235
5958.0859753415	1.0089226961
5960.0147827146	0.9224622250
5961.9435900876	0.9777038097
5963.8723974607	1.0043921471
5965.8012048337	0.9329972863
5967.7300122068	0.9599744678
5969.6588195798	0.9635368586
5971.5876269528	0.9785219431
5973.5164343259	0.9833695889
5975.4452416989	0.9707555175
5977.3740490720	0.9765319228
5979.3028564450	0.9283406138
5981.2316638181	1.0229409933
5983.1604711911	1.0283900499
5985.0892785642	0.9137470126
5987.0180859372	0.9316701293
5988.9468933103	0.9511491060
5990.8757006833	0.9766926765
5992.8045080564	0.9671820998
5994.7333154294	0.9897829294
5996.6621228025	0.9533215761
5998.5909301755	0.8890968561
6000.5197375485	0.9655557871
