399.2631262207	0.1148652285
401.1919335938	0.2238829434
403.1207409668	-0.0152868787
405.0495483398	0.2360209972
406.9783557129	0.1498571038
408.9071630859	0.1111929193
410.8359704590	0.1629044563
412.7647778320	0.0526426584
414.6935852051	0.2647092342
416.6223925781	0.1689522713
418.5511999512	0.0956962705
420.4800073242	0.2409153730
422.4088146973	0.1513910145
424.3376220703	0.2281580865
426.2664294434	0.1780567467
428.1952368164	0.1062336862
430.1240441895	0.2304069400
432.0528515625	0.2512108982
433.9816589355	0.2494992018
435.9104663086	0.2246619165
437.8392736816	0.1435593218
439.7680810547	0.1135935262
441.6968884277	0.1958238184
443.6256958008	0.2053816468
445.5545031738	0.1087911129
447.4833105469	0.2046381682
449.4121179199	0.2498637438
451.3409252930	0.1673856974
453.2697326660	0.3549978137
455.1985400391	0.2905413806
457.1273474121	0.0125795435
459.0561547852	0.1843435466
460.9849621582	0.4136740565
462.9137695313	0.2706773579
464.8425769043	0.2241801023
466.7713842773	0.0346644484
468.7001916504	0.0157861337
470.6289990234	0.2540809214
472.5578063965	0.4298111498
474.4866137695	0.2682182789
476.4154211426	0.2585290670
478.3442285156	0.6882840395
480.2730358887	0.5225597024
482.2018432617	0.0572202504
484.1306506348	0.6955674291
486.0594580078	0.1745098084
487.9882653809	-0.1410251111
489.9170727539	0.3316458166
491.8458801270	0.9369649887
493.7746875000	0.5412796736
495.7034948730	1.0845199823
497.6323022461	1.1054430008
499.5611096191	1.0128035545
501.4899169922	-0.0475005582
503.4187243652	0.0269440487
505.3475317383	1.8905152082
507.2763391113	0.3398523331
509.2051464844	0.5440911651
511.1339538574	0.3343428671
513.0627612305	1.1193488836
514.9915686035	1.1057547331
516.9203759766	0.1281917542
518.8491833496	0.4614734650
520.7779907227	0.0256857481
522.7067980957	0.2461594045
524.6356054688	0.6428921223
526.5644128418	0.4913755953
528.4932202148	0.6184208989
530.4220275879	0.7085625529
532.3508349609	0.9684165716
534.2796423340	0.4387826324
536.2084497070	0.3013338149
538.1372570801	0.9420571327
540.0660644531	0.4398497045
541.9948718262	0.0848650113
543.9236791992	0.5138790607
545.8524865723	0.4379067123
547.7812939453	-0.2031166106
549.7101013184	0.1292315871
551.6389086914	-0.0814039335
553.5677160645	0.3670984805
555.4965234375	0.9421595931
557.4253308105	0.0508785695
559.3541381836	0.5669927597
561.2829455566	0.1983718127
563.2117529297	0.0368276611
565.1405603027	-0.1309688687
567.0693676758	0.1476120949
568.9981750488	0.1399091631
570.9269824219	0.1586149186
572.8557897949	1.2689586878
574.7845971680	1.2986402512
576.7134045410	1.1888477802
578.6422119141	1.1896002293
580.5710192871	1.8770515919
582.4998266602	1.0985749960
584.4286340332	-0.2984466553
586.3574414063	-0.0087376162
588.2862487793	-0.7066409588
590.2150561523	-1.0807907581
592.1438635254	-0.1771935523
594.0726708984	-0.4684886038
596.0014782715	1.1193739176
597.9302856445	0.0933996513
599.8590930176	0.3891556859
601.7879003906	0.2317510992
603.7167077637	-1.0571802855
605.6455151367	0.7449122667
607.5743225098	0.5054701567
609.5031298828	-0.0515742600
611.4319372559	0.4928238094
613.3607446289	0.3131360412
615.2895520020	-0.3647351861
617.2183593750	0.2733096778
619.1471667480	3.9519419670
621.0759741211	-0.1716155410
623.0047814941	-0.5848425031
624.9335888672	-0.4728333652
626.8623962402	0.6006039977
628.7912036133	1.7855153084
630.7200109863	0.1406570226
632.6488183594	0.2295221686
634.5776257324	0.3375161886
636.5064331055	0.2092321515
638.4352404785	0.2845837772
640.3640478516	0.1737840474
642.2928552246	0.1313478649
644.2216625977	0.3138184249
646.1504699707	0.3397748768
648.0792773438	0.3284009695
650.0080847168	0.2174159437
651.9368920898	0.2641385496
653.8656994629	0.3335990310
655.7945068359	0.2571573853
657.7233142090	0.2905935943
659.6521215820	0.2802522779
661.5809289551	0.3017612100
663.5097363281	0.2978864610
665.4385437012	0.3075610101
667.3673510742	0.3008656800
669.2961584473	0.2562632561
671.2249658203	0.3628994226
673.1537731934	0.2770422697
675.0825805664	0.2201504707
677.0113879395	0.2767386734
678.9401953125	0.2727181911
680.8690026855	0.3196035624
682.7978100586	0.2798970640
684.7266174316	0.3268117607
686.6554248047	0.3545934260
688.5842321777	0.2920156419
690.5130395508	0.3006913662
692.4418469238	0.2761276662
694.3706542969	0.3361625075
696.2994616699	0.3190656602
698.2282690430	0.2962493598
700.1570764160	0.3269419670
702.0858837891	0.2755247056
704.0146911621	0.3054504097
705.9434985352	0.3385323882
707.8723059082	0.3118184507
709.8011132813	0.3427119851
711.7299206543	0.3189506829
713.6587280273	0.3470165730
715.5875354004	0.3996548355
717.5163427734	0.1779627949
719.4451501465	-0.0857191756
721.3739575195	0.5946362019
723.3027648926	0.5467949510
725.2315722656	0.1468533576
727.1603796387	3.0580132008
729.0891870117	1.4834237099
731.0179943848	0.1580721587
732.9468017578	0.5305075645
734.8756091309	-0.4321439862
736.8044165039	0.2618449926
738.7332238770	-0.3809040785
740.6620312500	-2.8220367432
742.5908386230	1.1112757921
744.5196459961	-0.4449572265
746.4484533691	-0.8843407035
748.3772607422	0.2674680054
750.3060681152	0.0052682385
752.2348754883	1.7120517492
754.1636828613	0.7816138864
756.0924902344	-0.1806408465
758.0212976074	0.7134668827
759.9501049805	0.8391902447
761.8789123535	1.2866479158
763.8077197266	1.7235106230
765.7365270996	0.7977689505
767.6653344727	0.3731153309
769.5941418457	0.2887715995
771.5229492188	-0.0429779775
773.4517565918	0.5347741246
775.3805639648	0.7757800817
777.3093713379	0.5824275017
779.2381787109	0.2210627347
781.1669860840	0.2269738168
783.0957934570	0.2783063352
785.0246008301	0.4996293485
786.9534082031	1.7142895460
788.8822155762	0.3860358298
790.8110229492	0.1904550791
792.7398303223	1.3171895742
794.6686376953	0.4800575972
796.5974450684	0.5747711062
798.5262524414	0.5668327808
800.4550598145	0.3823902905
802.3838671875	0.6521692872
804.3126745605	0.2415080518
806.2414819336	0.3706153929
808.1702893066	1.0629953146
810.0990966797	0.2924640179
812.0279040527	0.4945556223
813.9567114258	0.5955247283
815.8855187988	0.4822844565
817.8143261719	1.0638873577
819.7431335449	0.2708418071
821.6719409180	1.0786242485
823.6007482910	0.6407643557
825.5295556641	0.0602148436
827.4583630371	1.1814701557
829.3871704102	0.6932044625
831.3159777832	0.4602670670
833.2447851563	0.5697615147
835.1735925293	0.5562513471
837.1023999023	0.5616965890
839.0312072754	0.5434044003
840.9600146484	0.6084031463
842.8888220215	0.4678946137
844.8176293945	0.4620411992
846.7464367676	0.5976492763
848.6752441406	0.5253206491
850.6040515137	0.5571817160
852.5328588867	0.6708135605
854.4616662598	0.6577345729
856.3904736328	0.6661775112
858.3192810059	0.8633296490
860.2480883789	0.4301173389
862.1768957520	0.5861412883
864.1057031250	0.9844127297
866.0345104980	0.4006024599
867.9633178711	0.5820497870
869.8921252441	0.1952764392
871.8209326172	1.5824846029
873.7497399902	3.0214345455
875.6785473633	0.6790028214
877.6073547363	0.8377572298
879.5361621094	0.5980154276
881.4649694824	0.3922012448
883.3937768555	1.2036600113
885.3225842285	0.9759050012
887.2513916016	0.6918680072
889.1801989746	0.8190988898
891.1090063477	3.2338345051
893.0378137207	2.5201740265
894.9666210938	0.8496077061
896.8954284668	0.8479424119
898.8242358398	1.0179712772
900.7530432129	0.5588061213
902.6818505859	0.8922258615
904.6106579590	0.7931174636
906.5394653320	0.4853374958
908.4682727051	1.1576209068
910.3970800781	0.8625560999
912.3258874512	0.9067329764
914.2546948242	0.6469455361
916.1835021973	0.7027459741
918.1123095703	0.8041648269
920.0411169434	0.5652013421
921.9699243164	0.6052504182
923.8987316895	0.5182691216
925.8275390625	0.6671415567
927.7563464355	0.5977759361
929.6851538086	0.4346556664
931.6139611816	0.6079741120
933.5427685547	0.5417797565
935.4715759277	0.5322547555
937.4003833008	0.5757489204
939.3291906738	0.6076819301
941.2579980469	0.6191411018
943.1868054199	0.5579861999
945.1156127930	0.6530274153
947.0444201660	0.6585040689
948.9732275391	0.5770491362
950.9020349121	0.5751671791
952.8308422852	0.5056008697
954.7596496582	0.4978742301
956.6884570313	0.5687488914
958.6172644043	0.5193487406
960.5460717773	0.5497947335
962.4748791504	0.6212198734
964.4036865234	0.5638319254
966.3324938965	0.5064501166
968.2613012695	0.4728393257
970.1901086426	0.5184385777
972.1189160156	0.5562696457
974.0477233887	0.5352149606
975.9765307617	0.5528848171
977.9053381348	0.5713434815
979.8341455078	0.5764691830
981.7629528809	0.5680268407
983.6917602539	0.5798724294
985.6205676270	0.5630903840
987.5493750000	0.5468372107
989.4781823730	0.5437301993
991.4069897461	0.5192250609
993.3357971191	0.5289581418
995.2646044922	0.5358204246
997.1934118652	0.5286480188
999.1222192383	0.5362226963
1001.0510266113	0.5240033269
1002.9798339844	0.5192546844
1004.9086413574	0.5393275619
1006.8374487305	0.5344911218
1008.7662561035	0.5149940848
1010.6950634766	0.5153389573
1012.6238708496	0.5186708570
1014.5526782227	0.5260339379
1016.4814855957	0.5303528905
1018.4102929688	0.5202064514
1020.3391003418	0.5154146552
1022.2679077148	0.5108880401
1024.1967150879	0.5135500431
1026.1255224609	0.5225116611
1028.0543298340	0.5146012306
1029.9831372070	0.5059160590
1031.9119445801	0.5072022676
1033.8407519531	0.5111498237
1035.7695593262	0.5083154440
1037.6983666992	0.5007304549
1039.6271740723	0.5051695108
1041.5559814453	0.5108915567
1043.4847888184	0.5082257390
1045.4135961914	0.5068174005
1047.3424035645	0.5067206621
1049.2712109375	0.5015435815
1051.2000183105	0.5022849441
1053.1288256836	0.5065017939
1055.0576330566	0.5009677410
1056.9864404297	0.5015283823
1058.9152478027	0.5010039806
1060.8440551758	0.4945057333
1062.7728625488	0.4933998883
1064.7016699219	0.5081322789
1066.6304772949	0.5105682611
1068.5592846680	0.4901286662
1070.4880920410	0.5069915056
1072.4168994141	0.4941627085
1074.3457067871	0.4730918705
1076.2745141602	0.5048394203
1078.2033215332	0.5033621192
1080.1321289062	0.5104436874
1082.0609362793	0.5103088021
1083.9897436523	0.4983321428
1085.9185510254	0.4955729246
1087.8473583984	0.4745440185
1089.7761657715	0.4951528609
1091.7049731445	0.4931631684
1093.6337805176	0.4915430248
1095.5625878906	0.4950553179
1097.4913952637	0.4774554670
1099.4202026367	0.5035842061
1101.3490100098	0.4820552468
1103.2778173828	0.4726506174
1105.2066247559	0.5109882355
1107.1354321289	0.5037260652
1109.0642395019	0.5042836666
1110.9930468750	0.4954930246
1112.9218542480	0.4729987979
1114.8506616211	0.4936219454
1116.7794689941	0.5102269650
1118.7082763672	0.5038836002
1120.6370837402	0.4892500639
1122.5658911133	0.4704396725
1124.4946984863	0.4829899371
1126.4235058594	0.5050607920
1128.3523132324	0.4953811169
1130.2811206055	0.4791763425
1132.2099279785	0.4994637072
1134.1387353516	0.4984093308
1136.0675427246	0.4851498604
1137.9963500977	0.5035470724
1139.9251574707	0.4908513427
1141.8539648437	0.4840400517
1143.7827722168	0.4917730093
1145.7115795898	0.4830229878
1147.6403869629	0.4721062183
1149.5691943359	0.4672129154
1151.4980017090	0.4745887518
1153.4268090820	0.4687617719
1155.3556164551	0.4617829621
1157.2844238281	0.4679277241
1159.2132312012	0.4707836509
1161.1420385742	0.4643584192
1163.0708459473	0.4657703042
1164.9996533203	0.4687198699
1166.9284606934	0.4588016272
1168.8572680664	0.4680529833
1170.7860754394	0.4678066075
1172.7148828125	0.4550404251
1174.6436901855	0.4635854065
1176.5724975586	0.4669885635
1178.5013049316	0.4618234932
1180.4301123047	0.4621288776
1182.3589196777	0.4663142860
1184.2877270508	0.4644998908
1186.2165344238	0.4607669711
1188.1453417969	0.4543081224
1190.0741491699	0.4513499439
1192.0029565430	0.4566848278
1193.9317639160	0.4518175125
1195.8605712891	0.4498077929
1197.7893786621	0.4521234632
1199.7181860351	0.4510131478
1201.6469934082	0.4535423219
1203.5758007812	0.4541059732
1205.5046081543	0.4508527815
1207.4334155273	0.4479973316
1209.3622229004	0.4481424987
1211.2910302734	0.4485310912
1213.2198376465	0.4493045807
1215.1486450195	0.4474405944
1217.0774523926	0.4449397624
1219.0062597656	0.4456131756
1220.9350671387	0.4443866313
1222.8638745117	0.4439331293
1224.7926818848	0.4428121150
1226.7214892578	0.4434698522
1228.6502966308	0.4442799985
1230.5791040039	0.4423632920
1232.5079113769	0.4434560537
1234.4367187500	0.4424311221
1236.3655261230	0.4421097934
1238.2943334961	0.4423411489
1240.2231408691	0.4427536428
1242.1519482422	0.4449588656
1244.0807556152	0.4435624182
1246.0095629883	0.4436151087
1247.9383703613	0.4410480559
1249.8671777344	0.4397067428
1251.7959851074	0.4441171288
1253.7247924805	0.4423595667
1255.6535998535	0.4403340220
1257.5824072266	0.4419486523
1259.5112145996	0.4395161867
1261.4400219726	0.4366895854
1263.3688293457	0.4396111965
1265.2976367187	0.4388456345
1267.2264440918	0.4381223917
1269.1552514648	0.4418050051
1271.0840588379	0.4376556277
1273.0128662109	0.4407429099
1274.9416735840	0.4428191483
1276.8704809570	0.4370769560
1278.7992883301	0.4397789538
1280.7280957031	0.4389663637
1282.6569030762	0.4418328404
1284.5857104492	0.4406845570
1286.5145178223	0.4368045330
1288.4433251953	0.4404296279
1290.3721325683	0.4370396435
1292.3009399414	0.4399883151
1294.2297473144	0.4391600788
1296.1585546875	0.4344513118
1298.0873620605	0.4365005493
1300.0161694336	0.4376617372
1301.9449768066	0.4363573492
1303.8737841797	0.4335560501
1305.8025915527	0.4370629489
1307.7313989258	0.4319778681
1309.6602062988	0.4309970737
1311.5890136719	0.4366904199
1313.5178210449	0.4336201549
1315.4466284180	0.4347243309
1317.3754357910	0.4310351014
1319.3042431640	0.4294494689
1321.2330505371	0.4334881902
1323.1618579101	0.4320113361
1325.0906652832	0.4308194220
1327.0194726562	0.4287781715
1328.9482800293	0.4281361401
1330.8770874023	0.4312369525
1332.8058947754	0.4285805821
1334.7347021484	0.4251978397
1336.6635095215	0.4287589192
1338.5923168945	0.4302734733
1340.5211242676	0.4321106076
1342.4499316406	0.4272055626
1344.3787390137	0.4236673117
1346.3075463867	0.4309903085
1348.2363537597	0.4279641807
1350.1651611328	0.4262559712
1352.0939685058	0.4274660051
1354.0227758789	0.4259600043
1355.9515832519	0.4256582558
1357.8803906250	0.4231375754
1359.8091979980	0.4259419143
1361.7380053711	0.4248291850
1363.6668127441	0.4244120717
1365.5956201172	0.4250737131
1367.5244274902	0.4235920012
1369.4532348633	0.4236553013
1371.3820422363	0.4215538204
1373.3108496094	0.4249397516
1375.2396569824	0.4225671589
1377.1684643555	0.4195826352
1379.0972717285	0.4217306077
1381.0260791015	0.4211358726
1382.9548864746	0.4207377136
1384.8836938476	0.4208826423
1386.8125012207	0.4241702557
1388.7413085937	0.4222044051
1390.6701159668	0.4209747910
1392.5989233398	0.4206608236
1394.5277307129	0.4180061519
1396.4565380859	0.4180771708
1398.3853454590	0.4158943892
1400.3141528320	0.4171512723
1402.2429602051	0.4160732627
1404.1717675781	0.4151960313
1406.1005749512	0.4180518389
1408.0293823242	0.4165369868
1409.9581896972	0.4154062569
1411.8869970703	0.4141904116
1413.8158044433	0.4151348770
1415.7446118164	0.4160130024
1417.6734191894	0.4152132273
1419.6022265625	0.4165038764
1421.5310339355	0.4152370989
1423.4598413086	0.4130587578
1425.3886486816	0.4133618474
1427.3174560547	0.4164325297
1429.2462634277	0.4163351059
1431.1750708008	0.4131036103
1433.1038781738	0.4125054479
1435.0326855469	0.4126603305
1436.9614929199	0.4130162597
1438.8903002929	0.4128412902
1440.8191076660	0.4136257768
1442.7479150390	0.4134816527
1444.6767224121	0.4100323915
1446.6055297851	0.4122940600
1448.5343371582	0.4175206423
1450.4631445312	0.4164979756
1452.3919519043	0.4132856429
1454.3207592773	0.4092897475
1456.2495666504	0.4099624157
1458.1783740234	0.4131480753
1460.1071813965	0.4095814228
1462.0359887695	0.4068724215
1463.9647961426	0.4065234065
1465.8936035156	0.4072169065
1467.8224108886	0.4044977725
1469.7512182617	0.4033095241
1471.6800256347	0.4046287239
1473.6088330078	0.4001298547
1475.5376403808	0.3992744684
1477.4664477539	0.4008554220
1479.3952551269	0.3987709582
1481.3240625000	0.3973477483
1483.2528698730	0.3961718082
1485.1816772461	0.3946667612
1487.1104846191	0.3934484720
1489.0392919922	0.3925155699
1490.9680993652	0.3913653493
1492.8969067383	0.3900904357
1494.8257141113	0.3898132741
1496.7545214843	0.3905526102
1498.6833288574	0.3886134326
1500.6121362304	0.3859460354
1502.5409436035	0.3862827122
1504.4697509765	0.3849300146
1506.3985583496	0.3835825026
1508.3273657226	0.3851693273
1510.2561730957	0.3836569488
1512.1849804687	0.3817324936
1514.1137878418	0.3795425892
1516.0425952148	0.3788154125
1517.9714025879	0.3793829381
1519.9002099609	0.3781423867
1521.8290173340	0.3777893186
1523.7578247070	0.3763674200
1525.6866320801	0.3752548695
1527.6154394531	0.3740361631
1529.5442468261	0.3726686537
1531.4730541992	0.3714040518
1533.4018615722	0.3693739474
1535.3306689453	0.3693023026
1537.2594763183	0.3670324385
1539.1882836914	0.3661487103
1541.1170910644	0.3676414192
1543.0458984375	0.3645446599
1544.9747058105	0.3629737496
1546.9035131836	0.3617914021
1548.8323205566	0.3611747622
1550.7611279297	0.3599640727
1552.6899353027	0.3577766716
1554.6187426758	0.3574584723
1556.5475500488	0.3556294143
1558.4763574218	0.3550378978
1560.4051647949	0.3555971086
1562.3339721679	0.3519511223
1564.2627795410	0.3488278985
1566.1915869140	0.3476707637
1568.1203942871	0.3461825252
1570.0492016601	0.3448990583
1571.9780090332	0.3414154053
1573.9068164062	0.3392675817
1575.8356237793	0.3406497836
1577.7644311523	0.3353470266
1579.6932385254	0.3331464827
1581.6220458984	0.3340880573
1583.5508532715	0.3300314844
1585.4796606445	0.3288156986
1587.4084680175	0.3268304765
1589.3372753906	0.3230056763
1591.2660827636	0.3217231929
1593.1948901367	0.3198097050
1595.1236975097	0.3191934824
1597.0525048828	0.3172363043
1598.9813122558	0.3140917122
1600.9101196289	0.3129943907
1602.8389270019	0.3097800314
1604.7677343750	0.3082152009
1606.6965417480	0.3080039322
1608.6253491211	0.3058219552
1610.5541564941	0.3050277829
1612.4829638672	0.3029558063
1614.4117712402	0.3016785383
1616.3405786132	0.3024552166
1618.2693859863	0.3017651439
1620.1981933593	0.3017957211
1622.1270007324	0.3027359843
1624.0558081054	0.3035871089
1625.9846154785	0.3040671349
1627.9134228515	0.3049399555
1629.8422302246	0.3087408245
1631.7710375976	0.3108919859
1633.6998449707	0.3120121956
1635.6286523437	0.3162861466
1637.5574597168	0.3201665282
1639.4862670898	0.3254019618
1641.4150744629	0.3278165758
1643.3438818359	0.3310325742
1645.2726892090	0.3374003470
1647.2014965820	0.3412698805
1649.1303039550	0.3461333811
1651.0591113281	0.3505685627
1652.9879187011	0.3590295315
1654.9167260742	0.3626478910
1656.8455334472	0.3652518988
1658.7743408203	0.3699811995
1660.7031481933	0.3751865625
1662.6319555664	0.3821384311
1664.5607629394	0.3845685124
1666.4895703125	0.3910808563
1668.4183776855	0.3960821927
1670.3471850586	0.3999757469
1672.2759924316	0.4059723616
1674.2047998047	0.4094966054
1676.1336071777	0.4164317548
1678.0624145507	0.4193444550
1679.9912219238	0.4244291782
1681.9200292968	0.4288083911
1683.8488366699	0.4322719574
1685.7776440429	0.4403316677
1687.7064514160	0.4413206577
1689.6352587890	0.4448184073
1691.5640661621	0.4506371319
1693.4928735351	0.4542698860
1695.4216809082	0.4584695697
1697.3504882812	0.4607655406
1699.2792956543	0.4642264843
1701.2081030273	0.4698830247
1703.1369104004	0.4712787271
1705.0657177734	0.4739886522
1706.9945251464	0.4772067070
1708.9233325195	0.4780834317
1710.8521398925	0.4825013578
1712.7809472656	0.4830433726
1714.7097546386	0.4842850566
1716.6385620117	0.4882714450
1718.5673693847	0.4898335338
1720.4961767578	0.4918513894
1722.4249841308	0.4910096526
1724.3537915039	0.4936158955
1726.2825988769	0.4939552844
1728.2114062500	0.4947454333
1730.1402136230	0.4981335402
1732.0690209961	0.4960641265
1733.9978283691	0.4989590049
1735.9266357421	0.5000785589
1737.8554431152	0.4998276830
1739.7842504882	0.5013146996
1741.7130578613	0.5000684857
1743.6418652343	0.5003282428
1745.5706726074	0.5007185936
1747.4994799804	0.5009291172
1749.4282873535	0.4999419749
1751.3570947265	0.5008060932
1753.2859020996	0.5008860826
1755.2147094726	0.5000794530
1757.1435168457	0.5012854338
1759.0723242187	0.5005801916
1761.0011315918	0.5011893511
1762.9299389648	0.5001651049
1764.8587463379	0.4991070926
1766.7875537109	0.5007994771
1768.7163610839	0.5004767179
1770.6451684570	0.4998496175
1772.5739758300	0.4989323616
1774.5027832031	0.4987834394
1776.4315905761	0.4989086688
1778.3603979492	0.4986865222
1780.2892053222	0.4985769093
1782.2180126953	0.4973828793
1784.1468200683	0.4978249967
1786.0756274414	0.4973431528
1788.0044348144	0.4957119524
1789.9332421875	0.4956944585
1791.8620495605	0.4959361851
1793.7908569336	0.4958068430
1795.7196643066	0.4949418604
1797.6484716796	0.4952326119
1799.5772790527	0.4949710071
1801.5060864257	0.4933445156
1803.4348937988	0.4929358661
1805.3637011718	0.4927840531
1807.2925085449	0.4929640889
1809.2213159179	0.4930714369
1811.1501232910	0.4918778241
1813.0789306640	0.4910576046
1815.0077380371	0.4913210571
1816.9365454101	0.4901545048
1818.8653527832	0.4899018407
1820.7941601562	0.4894475639
1822.7229675293	0.4875803888
1824.6517749023	0.4888926148
1826.5805822753	0.4878654182
1828.5093896484	0.4860211909
1830.4381970214	0.4865778089
1832.3670043945	0.4857322872
1834.2958117675	0.4862021804
1836.2246191406	0.4861449301
1838.1534265136	0.4856923819
1840.0822338867	0.4846488237
1842.0110412597	0.4820146263
1843.9398486328	0.4825962782
1845.8686560058	0.4829509556
1847.7974633789	0.4811455011
1849.7262707519	0.4815066159
1851.6550781250	0.4810343683
1853.5838854980	0.4796427786
1855.5126928710	0.4798932970
1857.4415002441	0.4800322950
1859.3703076171	0.4801312089
1861.2991149902	0.4784421921
1863.2279223632	0.4780387580
1865.1567297363	0.4787041545
1867.0855371093	0.4767688215
1869.0143444824	0.4768420458
1870.9431518554	0.4756446183
1872.8719592285	0.4748214781
1874.8007666015	0.4753527045
1876.7295739746	0.4739406109
1878.6583813476	0.4737273157
1880.5871887207	0.4726584554
1882.5159960937	0.4725989997
1884.4448034667	0.4719720185
1886.3736108398	0.4710300863
1888.3024182128	0.4717863798
1890.2312255859	0.4707991183
1892.1600329589	0.4704421461
1894.0888403320	0.4701539278
1896.0176477050	0.4689143598
1897.9464550781	0.4667755067
1899.8752624511	0.4679554701
1901.8040698242	0.4693485200
1903.7328771972	0.4671414196
1905.6616845703	0.4666903913
1907.5904919433	0.4648880959
1909.5192993164	0.4648980498
1911.4481066894	0.4648229182
1913.3769140625	0.4645000994
1915.3057214355	0.4654811919
1917.2345288085	0.4625031650
1919.1633361816	0.4629004300
1921.0921435546	0.4617701769
1923.0209509277	0.4604811668
1924.9497583007	0.4619558752
1926.8785656738	0.4600748718
1928.8073730468	0.4607027471
1930.7361804199	0.4593112171
1932.6649877929	0.4586396813
1934.5937951660	0.4590834677
1936.5226025390	0.4565417469
1938.4514099121	0.4574480057
1940.3802172851	0.4567900300
1942.3090246582	0.4558177590
1944.2378320312	0.4563194215
1946.1666394042	0.4551259875
1948.0954467773	0.4544757605
1950.0242541503	0.4543613493
1951.9530615234	0.4539724588
1953.8818688964	0.4524088800
1955.8106762695	0.4523564577
1957.7394836425	0.4520942569
1959.6682910156	0.4512243569
1961.5970983886	0.4518763423
1963.5259057617	0.4510514736
1965.4547131347	0.4498575032
1967.3835205078	0.4493768215
1969.3123278808	0.4495202005
1971.2411352539	0.4490019679
1973.1699426269	0.4478523433
1975.0987499999	0.4471246004
1977.0275573730	0.4463463128
1978.9563647460	0.4456667006
1980.8851721191	0.4445814788
1982.8139794921	0.4442213774
1984.7427868652	0.4437932670
1986.6715942382	0.4440651238
1988.6004016113	0.4435285330
1990.5292089843	0.4419912100
1992.4580163574	0.4420981705
1994.3868237304	0.4418735504
1996.3156311035	0.4427320957
1998.2444384765	0.4407183528
2000.1732458496	0.4382660389
2002.1020532226	0.4388356507
2004.0308605956	0.4378415942
2005.9596679687	0.4381293058
2007.8884753417	0.4384548366
2009.8172827148	0.4384029508
2011.7460900878	0.4367085397
2013.6748974609	0.4360858798
2015.6037048339	0.4376478791
2017.5325122070	0.4356598556
2019.4613195800	0.4353817403
2021.3901269531	0.4344286919
2023.3189343261	0.4330022037
2025.2477416992	0.4340209663
2027.1765490722	0.4339568615
2029.1053564453	0.4335563183
2031.0341638183	0.4320552647
2032.9629711914	0.4319842458
2034.8917785644	0.4321188033
2036.8205859374	0.4320685267
2038.7493933105	0.4321596622
2040.6782006835	0.4303345382
2042.6070080566	0.4293601513
2044.5358154296	0.4300145209
2046.4646228027	0.4308328032
2048.3934301757	0.4293321669
2050.3222375488	0.4289331436
2052.2510449218	0.4289717376
2054.1798522949	0.4271388650
2056.1086596679	0.4274963439
2058.0374670410	0.4279792309
2059.9662744140	0.4276197255
2061.8950817871	0.4272438586
2063.8238891601	0.4260063767
2065.7526965331	0.4248135388
2067.6815039062	0.4259116054
2069.6103112792	0.4256545007
2071.5391186523	0.4242426753
2073.4679260253	0.4262706041
2075.3967333984	0.4257674515
2077.3255407714	0.4243677258
2079.2543481445	0.4247487783
2081.1831555175	0.4236391485
2083.1119628906	0.4235907495
2085.0407702636	0.4243892431
2086.9695776367	0.4237141311
2088.8983850097	0.4231312871
2090.8271923828	0.4236781597
2092.7559997558	0.4229111075
2094.6848071288	0.4233087301
2096.6136145019	0.4238926172
2098.5424218749	0.4229688942
2100.4712292480	0.4236731231
2102.4000366210	0.4232389927
2104.3288439941	0.4227849543
2106.2576513671	0.4227789938
2108.1864587402	0.4221618176
2110.1152661132	0.4224625826
2112.0440734863	0.4222634733
2113.9728808593	0.4223003685
2115.9016882324	0.4233883619
2117.8304956054	0.4226790369
2119.7593029785	0.4208984375
2121.6881103515	0.4221070409
2123.6169177245	0.4230172932
2125.5457250976	0.4224482775
2127.4745324706	0.4216820002
2129.4033398437	0.4217576087
2131.3321472167	0.4233701527
2133.2609545898	0.4230295420
2135.1897619628	0.4234663844
2137.1185693359	0.4229340851
2139.0473767089	0.4221378863
2140.9761840820	0.4229036570
2142.9049914550	0.4221043289
2144.8337988281	0.4230124056
2146.7626062011	0.4227013886
2148.6914135742	0.4227615893
2150.6202209472	0.4238668084
2152.5490283203	0.4235264957
2154.4778356933	0.4238215387
2156.4066430663	0.4228732288
2158.3354504394	0.4237329364
2160.2642578124	0.4247770011
2162.1930651855	0.4238149524
2164.1218725585	0.4233898222
2166.0506799316	0.4239505529
2167.9794873046	0.4236023724
2169.9082946777	0.4232094288
2171.8371020507	0.4256194234
2173.7659094238	0.4244547188
2175.6947167968	0.4235218167
2177.6235241699	0.4253900647
2179.5523315429	0.4254549444
2181.4811389160	0.4256415069
2183.4099462890	0.4248740375
2185.3387536620	0.4261205792
2187.2675610351	0.4259938300
2189.1963684081	0.4247555435
2191.1251757812	0.4263273478
2193.0539831542	0.4255652428
2194.9827905273	0.4259136021
2196.9115979003	0.4270620942
2198.8404052734	0.4264781177
2200.7692126464	0.4260047376
2202.6980200195	0.4259544611
2204.6268273925	0.4260546267
2206.5556347656	0.4258697629
2208.4844421386	0.4275626242
2210.4132495117	0.4281252325
2212.3420568847	0.4269569218
2214.2708642577	0.4274721742
2216.1996716308	0.4281882048
2218.1284790038	0.4278303087
2220.0572863769	0.4278375804
2221.9860937499	0.4287408590
2223.9149011230	0.4283947945
2225.8437084960	0.4276699126
2227.7725158691	0.4276859462
2229.7013232421	0.4280833006
2231.6301306152	0.4288784862
2233.5589379882	0.4294739068
2235.4877453613	0.4291945398
2237.4165527343	0.4287484884
2239.3453601074	0.4293290973
2241.2741674804	0.4290553629
2243.2029748534	0.4297356009
2245.1317822265	0.4296702743
2247.0605895995	0.4282464385
2248.9893969726	0.4304081202
2250.9182043456	0.4301992357
2252.8470117187	0.4284013808
2254.7758190917	0.4298645258
2256.7046264648	0.4306253493
2258.6334338378	0.4302749634
2260.5622412109	0.4307887554
2262.4910485839	0.4318907857
2264.4198559570	0.4311798215
2266.3486633300	0.4312134981
2268.2774707031	0.4310832322
2270.2062780761	0.4299825430
2272.1350854491	0.4316124320
2274.0638928222	0.4310525060
2275.9927001952	0.4301083088
2277.9215075683	0.4310944974
2279.8503149413	0.4310946167
2281.7791223144	0.4314779639
2283.7079296874	0.4309935272
2285.6367370605	0.4311882854
2287.5655444335	0.4315436780
2289.4943518066	0.4311151803
2291.4231591796	0.4315528572
2293.3519665527	0.4309837818
2295.2807739257	0.4306634367
2297.2095812988	0.4314619899
2299.1383886718	0.4321914613
2301.0671960449	0.4313536882
2302.9960034179	0.4305394590
2304.9248107909	0.4310224056
2306.8536181640	0.4312066436
2308.7824255370	0.4328390658
2310.7112329101	0.4323808253
2312.6400402831	0.4314485192
2314.5688476562	0.4331954718
2316.4976550292	0.4326334000
2318.4264624023	0.4322907627
2320.3552697753	0.4329706728
2322.2840771484	0.4343540967
2324.2128845214	0.4343278408
2326.1416918945	0.4334799349
2328.0704992675	0.4364129305
2329.9993066406	0.4360148609
2331.9281140136	0.4344074130
2333.8569213866	0.4345494509
2335.7857287597	0.4347130358
2337.7145361327	0.4353404343
2339.6433435058	0.4344297051
2341.5721508788	0.4359340966
2343.5009582519	0.4354684949
2345.4297656249	0.4346276224
2347.3585729980	0.4341567159
2349.2873803710	0.4311402440
2351.2161877441	0.4325788915
2353.1449951171	0.4333376884
2355.0738024902	0.4338248968
2357.0026098632	0.4361014366
2358.9314172363	0.4357407689
2360.8602246093	0.4369625449
2362.7890319823	0.4368588924
2364.7178393554	0.4366723597
2366.6466467284	0.4364306033
2368.5754541015	0.4350987673
2370.5042614745	0.4338201880
2372.4330688476	0.4321219027
2374.3618762206	0.4328528345
2376.2906835937	0.4319092333
2378.2194909667	0.4305786192
2380.1482983398	0.4302953780
2382.0771057128	0.4295558929
2384.0059130859	0.4295237958
2385.9347204589	0.4285611212
2387.8635278320	0.4300032556
2389.7923352050	0.4302472770
2391.7211425780	0.4282020330
2393.6499499511	0.4289790392
2395.5787573241	0.4288530648
2397.5075646972	0.4289118648
2399.4363720702	0.4290609360
2401.3651794433	0.4289294779
2403.2939868163	0.4292201400
2405.2227941894	0.4287575185
2407.1516015624	0.4290808141
2409.0804089355	0.4278025627
2411.0092163085	0.4282586575
2412.9380236816	0.4287043810
2414.8668310546	0.4276440442
2416.7956384277	0.4289639294
2418.7244458007	0.4275291562
2420.6532531738	0.4281148612
2422.5820605468	0.4285089970
2424.5108679198	0.4258284271
2426.4396752929	0.4269637167
2428.3684826659	0.4273722768
2430.2972900390	0.4276728034
2432.2260974120	0.4270814657
2434.1549047851	0.4259147644
2436.0837121581	0.4259585440
2438.0125195312	0.4245424569
2439.9413269042	0.4253970385
2441.8701342773	0.4260369837
2443.7989416503	0.4266917109
2445.7277490234	0.4263095558
2447.6565563964	0.4245540798
2449.5853637695	0.4271403551
2451.5141711425	0.4264750779
2453.4429785155	0.4238571823
2455.3717858886	0.4240968227
2457.3005932616	0.4236935377
2459.2294006347	0.4257340133
2461.1582080077	0.4258492589
2463.0870153808	0.4242486656
2465.0158227538	0.4252422750
2466.9446301269	0.4240897298
2468.8734374999	0.4234474301
2470.8022448730	0.4231289029
2472.7310522460	0.4237173796
2474.6598596191	0.4250704944
2476.5886669921	0.4232017100
2478.5174743652	0.4236870408
2480.4462817382	0.4229120314
2482.3750891112	0.4217347503
2484.3038964843	0.4226377904
2486.2327038573	0.4216930568
2488.1615112304	0.4223131835
2490.0903186034	0.4215850532
2492.0191259765	0.4215946496
2493.9479333495	0.4210627675
2495.8767407226	0.4193199575
2497.8055480956	0.4207894802
2499.7343554687	0.4207880795
2501.6631628417	0.4208678305
2503.5919702148	0.4202432930
2505.5207775878	0.4199204743
2507.4495849609	0.4199867547
2509.3783923339	0.4188502431
2511.3071997069	0.4191665053
2513.2360070800	0.4187817872
2515.1648144530	0.4187978804
2517.0936218261	0.4180033505
2519.0224291991	0.4186206758
2520.9512365722	0.4192456603
2522.8800439452	0.4183200300
2524.8088513183	0.4184696376
2526.7376586913	0.4154618382
2528.6664660644	0.4152498543
2530.5952734374	0.4166562855
2532.5240808105	0.4163478613
2534.4528881835	0.4161316752
2536.3816955566	0.4152749181
2538.3105029296	0.4172503054
2540.2393103027	0.4165305793
2542.1681176757	0.4153699577
2544.0969250487	0.4158868492
2546.0257324218	0.4146322310
2547.9545397948	0.4153442085
2549.8833471679	0.4146375060
2551.8121545409	0.4140470922
2553.7409619140	0.4138029814
2555.6697692870	0.4127071202
2557.5985766601	0.4140593708
2559.5273840331	0.4127231240
2561.4561914062	0.4115741551
2563.3849987792	0.4130404890
2565.3138061523	0.4125225544
2567.2426135253	0.4121699035
2569.1714208984	0.4116488993
2571.1002282714	0.4108620286
2573.0290356444	0.4111675918
2574.9578430175	0.4115350544
2576.8866503905	0.4114643335
2578.8154577636	0.4097985327
2580.7442651366	0.4084000289
2582.6730725097	0.4093529284
2584.6018798827	0.4084536433
2586.5306872558	0.4067158103
2588.4594946288	0.4089401662
2590.3883020019	0.4088139236
2592.3171093749	0.4074517190
2594.2459167480	0.4081104398
2596.1747241210	0.4071966410
2598.1035314941	0.4068685472
2600.0323388671	0.4050380886
2601.9611462401	0.4054468870
2603.8899536132	0.4058235586
2605.8187609862	0.4030940533
2607.7475683593	0.4047416747
2609.6763757323	0.4052211642
2611.6051831054	0.4042276144
2613.5339904784	0.4033029675
2615.4627978515	0.4034311473
2617.3916052245	0.4040396214
2619.3204125976	0.4023086131
2621.2492199706	0.4034076333
2623.1780273437	0.4030435681
2625.1068347167	0.4018214047
2627.0356420898	0.4016733766
2628.9644494628	0.4013297856
2630.8932568358	0.4008025527
2632.8220642089	0.3996123672
2634.7508715819	0.3997320533
2636.6796789550	0.3986030519
2638.6084863280	0.3999803662
2640.5372937011	0.3993598521
2642.4661010741	0.3968336582
2644.3949084472	0.3984548151
2646.3237158202	0.3975998163
2648.2525231933	0.3957936168
2650.1813305663	0.3949763179
2652.1101379394	0.3952035010
2654.0389453124	0.3947797120
2655.9677526855	0.3943203390
2657.8965600585	0.3939091563
2659.8253674315	0.3925635517
2661.7541748046	0.3924309015
2663.6829821776	0.3912402093
2665.6117895507	0.3930934370
2667.5405969237	0.3931197822
2669.4694042968	0.3910292685
2671.3982116698	0.3916049004
2673.3270190429	0.3901596963
2675.2558264159	0.3903725445
2677.1846337890	0.3899427950
2679.1134411620	0.3888939321
2681.0422485351	0.3890830576
2682.9710559081	0.3872217834
2684.8998632812	0.3864036202
2686.8286706542	0.3868938982
2688.7574780273	0.3858605325
2690.6862854003	0.3861004114
2692.6150927733	0.3872011602
2694.5439001464	0.3852952123
2696.4727075194	0.3849134743
2698.4015148925	0.3832377791
2700.3303222655	0.3822225928
2702.2591296386	0.3837854564
2704.1879370116	0.3816532791
2706.1167443847	0.3819661438
2708.0455517577	0.3815636039
2709.9743591308	0.3805785775
2711.9031665038	0.3811298609
2713.8319738769	0.3798970878
2715.7607812499	0.3804025650
2717.6895886230	0.3781406283
2719.6183959960	0.3775049448
2721.5472033690	0.3797517419
2723.4760107421	0.3776066601
2725.4048181151	0.3770924211
2727.3336254882	0.3778361380
2729.2624328612	0.3758663535
2731.1912402343	0.3746491075
2733.1200476073	0.3739318252
2735.0488549804	0.3737986982
2736.9776623534	0.3742568493
2738.9064697265	0.3722474873
2740.8352770995	0.3703038394
2742.7640844726	0.3710142374
2744.6928918456	0.3711962402
2746.6216992187	0.3695738018
2748.5505065917	0.3702378273
2750.4793139647	0.3694414496
2752.4081213378	0.3660747111
2754.3369287108	0.3667472005
2756.2657360839	0.3664540052
2758.1945434569	0.3658131063
2760.1233508300	0.3656478226
2762.0521582030	0.3637719452
2763.9809655761	0.3635942042
2765.9097729491	0.3629902899
2767.8385803222	0.3623391986
2769.7673876952	0.3611207902
2771.6961950683	0.3606360257
2773.6250024413	0.3604878187
2775.5538098144	0.3593781888
2777.4826171874	0.3597348928
2779.4114245604	0.3583134413
2781.3402319335	0.3569194973
2783.2690393065	0.3561688662
2785.1978466796	0.3540880382
2787.1266540526	0.3533776104
2789.0554614257	0.3550795615
2790.9842687987	0.3548251987
2792.9130761718	0.3522374034
2794.8418835448	0.3524697423
2796.7706909179	0.3521386087
2798.6994982909	0.3504853249
2800.6283056640	0.3499600887
2802.5571130370	0.3494267166
2804.4859204101	0.3478409052
2806.4147277831	0.3464329839
2808.3435351562	0.3467792571
2810.2723425292	0.3458104730
2812.2011499022	0.3453345895
2814.1299572753	0.3453258872
2816.0587646483	0.3437238038
2817.9875720214	0.3432430625
2819.9163793944	0.3414106071
2821.8451867675	0.3391203880
2823.7739941405	0.3396909237
2825.7028015136	0.3385853767
2827.6316088866	0.3371873796
2829.5604162597	0.3374619484
2831.4892236327	0.3363127112
2833.4180310058	0.3355847895
2835.3468383788	0.3339105248
2837.2756457519	0.3336966634
2839.2044531249	0.3329574168
2841.1332604979	0.3299751580
2843.0620678710	0.3308478892
2844.9908752440	0.3286648095
2846.9196826171	0.3270018399
2848.8484899901	0.3278672695
2850.7772973632	0.3266729116
2852.7061047362	0.3272315562
2854.6349121093	0.3244189024
2856.5637194823	0.3228585720
2858.4925268554	0.3245885372
2860.4213342284	0.3224961460
2862.3501416015	0.3215072453
2864.2789489745	0.3229717314
2866.2077563476	0.3214714825
2868.1365637206	0.3199058175
2870.0653710936	0.3195798695
2871.9941784667	0.3165730238
2873.9229858397	0.3152331412
2875.8517932128	0.3150778413
2877.7806005858	0.3141184151
2879.7094079589	0.3136364818
2881.6382153319	0.3120748103
2883.5670227050	0.3117935061
2885.4958300780	0.3127659261
2887.4246374511	0.3116404712
2889.3534448241	0.3094834089
2891.2822521972	0.3089611530
2893.2110595702	0.3068153262
2895.1398669433	0.3062770367
2897.0686743163	0.3058661520
2898.9974816893	0.3024120629
2900.9262890624	0.3038717806
2902.8550964354	0.3024148047
2904.7839038085	0.2996747792
2906.7127111815	0.3005280197
2908.6415185546	0.2979202867
2910.5703259276	0.2973031700
2912.4991333007	0.2962519228
2914.4279406737	0.2928678095
2916.3567480468	0.2931463718
2918.2855554198	0.2934015989
2920.2143627929	0.2905215323
2922.1431701659	0.2909524143
2924.0719775390	0.2926639915
2926.0007849120	0.2893146276
2927.9295922851	0.2884311080
2929.8583996581	0.2890695930
2931.7872070311	0.2875811458
2933.7160144042	0.2860615849
2935.6448217772	0.2848264873
2937.5736291503	0.2862590849
2939.5024365233	0.2837627828
2941.4312438964	0.2794638574
2943.3600512694	0.2811031044
2945.2888586425	0.2810501456
2947.2176660155	0.2789800167
2949.1464733886	0.2774933875
2951.0752807616	0.2759720981
2953.0040881347	0.2778321803
2954.9328955077	0.2773715258
2956.8617028808	0.2741395831
2958.7905102538	0.2730995715
2960.7193176268	0.2732982934
2962.6481249999	0.2741701305
2964.5769323729	0.2721901834
2966.5057397460	0.2702763677
2968.4345471190	0.2699638009
2970.3633544921	0.2692381740
2972.2921618651	0.2698448002
2974.2209692382	0.2682205737
2976.1497766112	0.2666026056
2978.0785839843	0.2660185695
2980.0073913573	0.2641964555
2981.9361987304	0.2636736631
2983.8650061034	0.2613626719
2985.7938134765	0.2603999674
2987.7226208495	0.2629761398
2989.6514282225	0.2615399063
2991.5802355956	0.2596823871
2993.5090429686	0.2592541277
2995.4378503417	0.2569019794
2997.3666577147	0.2569554448
2999.2954650878	0.2564632297
3001.2242724608	0.2534359396
3003.1530798339	0.2533585131
3005.0818872069	0.2536600232
3007.0106945800	0.2517058551
3008.9395019530	0.2505418360
3010.8683093261	0.2499274760
3012.7971166991	0.2498912811
3014.7259240722	0.2503035069
3016.6547314452	0.2481027991
3018.5835388182	0.2467123568
3020.5123461913	0.2471068799
3022.4411535643	0.2462826371
3024.3699609374	0.2462581098
3026.2987683104	0.2459523827
3028.2275756835	0.2446540892
3030.1563830565	0.2426467538
3032.0851904296	0.2406402528
3034.0139978026	0.2409848273
3035.9428051757	0.2403431833
3037.8716125487	0.2396919876
3039.8004199218	0.2401596755
3041.7292272948	0.2383093983
3043.6580346679	0.2382155955
3045.5868420409	0.2375780344
3047.5156494139	0.2364268154
3049.4444567870	0.2364266515
3051.3732641600	0.2342921793
3053.3020715331	0.2367264032
3055.2308789061	0.2360666692
3057.1596862792	0.2336490005
3059.0884936522	0.2347532809
3061.0173010253	0.2322231531
3062.9461083983	0.2329522818
3064.8749157714	0.2312048376
3066.8037231444	0.2303102762
3068.7325305175	0.2306257188
3070.6613378905	0.2288696170
3072.5901452636	0.2312637419
3074.5189526366	0.2268075496
3076.4477600097	0.2258308083
3078.3765673827	0.2286380529
3080.3053747557	0.2259189188
3082.2341821288	0.2238723189
3084.1629895018	0.2246449590
3086.0917968749	0.2256887555
3088.0206042479	0.2232574821
3089.9494116210	0.2248797417
3091.8782189940	0.2228080332
3093.8070263671	0.2223634422
3095.7358337401	0.2238142639
3097.6646411132	0.2207855433
3099.5934484862	0.2235877514
3101.5222558593	0.2200524360
3103.4510632323	0.2194088697
3105.3798706054	0.2214855999
3107.3086779784	0.2207366675
3109.2374853514	0.2213528454
3111.1662927245	0.2185717076
3113.0951000975	0.2216587067
3115.0239074706	0.2199705690
3116.9527148436	0.2176092267
3118.8815222167	0.2167494893
3120.8103295897	0.2150897980
3122.7391369628	0.2182801664
3124.6679443358	0.2159454674
3126.5967517089	0.2158432454
3128.5255590819	0.2143334150
3130.4543664550	0.2139773965
3132.3831738280	0.2168134451
3134.3119812011	0.2154980302
3136.2407885741	0.2166443914
3138.1695959471	0.2140222639
3140.0984033202	0.2131406665
3142.0272106932	0.2146997750
3143.9560180663	0.2130110711
3145.8848254393	0.2135428637
3147.8136328124	0.2132004946
3149.7424401854	0.2131360918
3151.6712475585	0.2152089179
3153.6000549315	0.2124674469
3155.5288623046	0.2109146565
3157.4576696776	0.2152829766
3159.3864770507	0.2125718147
3161.3152844237	0.2111342549
3163.2440917968	0.2144474983
3165.1728991698	0.2134940177
3167.1017065428	0.2144363970
3169.0305139159	0.2131659240
3170.9593212889	0.2121195644
3172.8881286620	0.2133014798
3174.8169360350	0.2109677643
3176.7457434081	0.2114194334
3178.6745507811	0.2119928002
3180.6033581542	0.2111043930
3182.5321655272	0.2126753330
3184.4609729003	0.2121807933
3186.3897802733	0.2140647322
3188.3185876464	0.2158970535
3190.2473950194	0.2141932547
3192.1762023925	0.2140181512
3194.1050097655	0.2112488449
3196.0338171386	0.2129081935
3197.9626245116	0.2145828158
3199.8914318846	0.2150301188
3201.8202392577	0.2190076411
3203.7490466307	0.2158719152
3205.6778540038	0.2169067711
3207.6066613768	0.2193340063
3209.5354687499	0.2183992863
3211.4642761229	0.2199840993
3213.3930834960	0.2197209299
3215.3218908690	0.2203178853
3217.2506982421	0.2201496214
3219.1795056151	0.2220294625
3221.1083129882	0.2217538953
3223.0371203612	0.2192244232
3224.9659277343	0.2207816988
3226.8947351073	0.2212570757
3228.8235424803	0.2215918303
3230.7523498534	0.2237136066
3232.6811572264	0.2236223221
3234.6099645995	0.2215236723
3236.5387719725	0.2240600139
3238.4675793456	0.2241808176
3240.3963867186	0.2260822207
3242.3251940917	0.2294944376
3244.2540014647	0.2267894745
3246.1828088378	0.2286517322
3248.1116162108	0.2275078446
3250.0404235839	0.2279581428
3251.9692309569	0.2304429114
3253.8980383300	0.2301937789
3255.8268457030	0.2325218022
3257.7556530760	0.2312261164
3259.6844604491	0.2338183969
3261.6132678221	0.2359433174
3263.5420751952	0.2366208881
3265.4708825682	0.2360680997
3267.3996899413	0.2336594760
3269.3284973143	0.2375185490
3271.2573046874	0.2373213917
3273.1861120604	0.2387762815
3275.1149194335	0.2416227162
3277.0437268065	0.2397378087
3278.9725341796	0.2402369827
3280.9013415526	0.2410679162
3282.8301489257	0.2429179698
3284.7589562987	0.2434633821
3286.6877636717	0.2435467988
3288.6165710448	0.2458327562
3290.5453784178	0.2447107732
3292.4741857909	0.2431267947
3294.4029931639	0.2456457019
3296.3318005370	0.2455205172
3298.2606079100	0.2452891320
3300.1894152831	0.2494633943
3302.1182226561	0.2515733540
3304.0470300292	0.2512634695
3305.9758374022	0.2511345446
3307.9046447753	0.2533722520
3309.8334521483	0.2530024052
3311.7622595214	0.2510118484
3313.6910668944	0.2535168231
3315.6198742675	0.2539096773
3317.5486816405	0.2540063858
3319.4774890135	0.2560979724
3321.4062963866	0.2561724782
3323.3351037596	0.2565070391
3325.2639111327	0.2579855025
3327.1927185057	0.2583238482
3329.1215258788	0.2596705556
3331.0503332518	0.2594515085
3332.9791406249	0.2581624687
3334.9079479979	0.2627284229
3336.8367553710	0.2651598155
3338.7655627440	0.2660763562
3340.6943701171	0.2675614059
3342.6231774901	0.2666358054
3344.5519848632	0.2691275775
3346.4807922362	0.2694320977
3348.4095996092	0.2688144445
3350.3384069823	0.2714242637
3352.2672143553	0.2724065781
3354.1960217284	0.2741160989
3356.1248291014	0.2782115340
3358.0536364745	0.2781668603
3359.9824438475	0.2774128318
3361.9112512206	0.2805749476
3363.8400585936	0.2787259221
3365.7688659667	0.2819497883
3367.6976733397	0.2862688005
3369.6264807128	0.2832303047
3371.5552880858	0.2863526642
3373.4840954589	0.2865924239
3375.4129028319	0.2894439101
3377.3417102049	0.2934624255
3379.2705175780	0.2915929556
3381.1993249510	0.2959610522
3383.1281323241	0.2973341048
3385.0569396971	0.3002092540
3386.9857470702	0.3004851639
3388.9145544432	0.2995147705
3390.8433618163	0.3048535287
3392.7721691893	0.3014572263
3394.7009765624	0.3051653504
3396.6297839354	0.3106419444
3398.5585913085	0.3088913858
3400.4873986815	0.3123898506
3402.4162060546	0.3151371181
3404.3450134276	0.3167531192
3406.2738208006	0.3167822957
3408.2026281737	0.3214276135
3410.1314355467	0.3252507746
3412.0602429198	0.3254125118
3413.9890502928	0.3276889622
3415.9178576659	0.3284275234
3417.8466650389	0.3332378864
3419.7754724120	0.3333752453
3421.7042797850	0.3346706927
3423.6330871581	0.3402348459
3425.5618945311	0.3406372964
3427.4907019042	0.3434610963
3429.4195092772	0.3450254500
3431.3483166503	0.3466461301
3433.2771240233	0.3487172425
3435.2059313963	0.3525257707
3437.1347387694	0.3564960361
3439.0635461424	0.3562010825
3440.9923535155	0.3598143160
3442.9211608885	0.3611368239
3444.8499682616	0.3616667390
3446.7787756346	0.3653583825
3448.7075830077	0.3671875298
3450.6363903807	0.3704875410
3452.5651977538	0.3735547662
3454.4940051268	0.3751313388
3456.4228124999	0.3780879974
3458.3516198729	0.3823182881
3460.2804272460	0.3856227398
3462.2092346190	0.3858208656
3464.1380419921	0.3866661191
3466.0668493651	0.3899554014
3467.9956567381	0.3902686536
3469.9244641112	0.3939870596
3471.8532714842	0.3999958038
3473.7820788573	0.3998999298
3475.7108862303	0.4020962715
3477.6396936034	0.4050368369
3479.5685009764	0.4068849981
3481.4973083495	0.4118173420
3483.4261157225	0.4137264788
3485.3549230956	0.4139350355
3487.2837304686	0.4196559489
3489.2125378417	0.4219686687
3491.1413452147	0.4200206399
3493.0701525878	0.4251039624
3494.9989599608	0.4275619090
3496.9277673338	0.4292237759
3498.8565747069	0.4351512492
3500.7853820799	0.4356519878
3502.7141894530	0.4340759814
3504.6429968260	0.4377620518
3506.5718041991	0.4421757162
3508.5006115721	0.4420884550
3510.4294189452	0.4479159117
3512.3582263182	0.4518857598
3514.2870336913	0.4518506527
3516.2158410643	0.4552016556
3518.1446484374	0.4538321197
3520.0734558104	0.4588217139
3522.0022631835	0.4612548351
3523.9310705565	0.4593139291
3525.8598779295	0.4671156704
3527.7886853026	0.4708621204
3529.7174926756	0.4718111455
3531.6463000487	0.4741971791
3533.5751074217	0.4770545661
3535.5039147948	0.4803547859
3537.4327221678	0.4831088185
3539.3615295409	0.4855057001
3541.2903369139	0.4855170846
3543.2191442870	0.4890688062
3545.1479516600	0.4941194355
3547.0767590331	0.4962764084
3549.0055664061	0.4985452592
3550.9343737792	0.5015656948
3552.8631811522	0.5025820136
3554.7919885252	0.5049881339
3556.7207958983	0.5106675625
3558.6496032713	0.5098643303
3560.5784106444	0.5116663575
3562.5072180174	0.5187348723
3564.4360253905	0.5184612870
3566.3648327635	0.5211946964
3568.2936401366	0.5237032175
3570.2224475096	0.5240651369
3572.1512548827	0.5306337476
3574.0800622557	0.5310369730
3576.0088696288	0.5328196287
3577.9376770018	0.5380181670
3579.8664843749	0.5373089910
3581.7952917479	0.5404808521
3583.7240991210	0.5441906452
3585.6529064940	0.5445785522
3587.5817138670	0.5442106128
3589.5105212401	0.5487028360
3591.4393286131	0.5537410975
3593.3681359862	0.5549347401
3595.2969433592	0.5579066873
3597.2257507323	0.5577468872
3599.1545581053	0.5619394779
3601.0833654784	0.5665214658
3603.0121728514	0.5647262335
3604.9409802245	0.5683947206
3606.8697875975	0.5730759501
3608.7985949706	0.5747315884
3610.7274023436	0.5740818381
3612.6562097167	0.5765744448
3614.5850170897	0.5821731091
3616.5138244627	0.5839185715
3618.4426318358	0.5843091011
3620.3714392088	0.5872008801
3622.3002465819	0.5901742578
3624.2290539549	0.5932496190
3626.1578613280	0.5978515744
3628.0866687010	0.5978720784
3630.0154760741	0.6050484776
3631.9442834471	0.6098021865
3633.8730908202	0.6070907116
3635.8018981932	0.6114990711
3637.7307055663	0.6125214696
3639.6595129393	0.6159224510
3641.5883203124	0.6212261319
3643.5171276854	0.6226388812
3645.4459350584	0.6278537512
3647.3747424315	0.6320422292
3649.3035498045	0.6387077570
3651.2323571776	0.6452458501
3653.1611645506	0.6465247273
3655.0899719237	0.6463350058
3657.0187792967	0.6513733864
3658.9475866698	0.6551046371
3660.8763940428	0.6565077305
3662.8052014159	0.6649655700
3664.7340087889	0.6676921248
3666.6628161620	0.6694166064
3668.5916235350	0.6728442311
3670.5204309081	0.6747494340
3672.4492382811	0.6800157428
3674.3780456541	0.6842259765
3676.3068530272	0.6890590787
3678.2356604002	0.6894609332
3680.1644677733	0.6895853877
3682.0932751463	0.6916863322
3684.0220825194	0.6966914535
3685.9508898924	0.6978353262
3687.8796972655	0.6980625391
3689.8085046385	0.7027771473
3691.7373120116	0.6998274922
3693.6661193846	0.7028425336
3695.5949267577	0.7061768770
3697.5237341307	0.7065317631
3699.4525415038	0.7078356147
3701.3813488768	0.7054952383
3703.3101562499	0.7080000639
3705.2389636229	0.7055149078
3707.1677709959	0.7054821253
3709.0965783690	0.7054677010
3711.0253857420	0.7042039633
3712.9541931151	0.7112163901
3714.8830004881	0.7091630697
3716.8118078612	0.7061049342
3718.7406152342	0.7007874250
3720.6694226073	0.6988064051
3722.5982299803	0.7011601925
3724.5270373534	0.7003569603
3726.4558447264	0.7003846169
3728.3846520995	0.6975076795
3730.3134594725	0.6975047588
3732.2422668456	0.6956606507
3734.1710742186	0.6961902380
3736.0998815916	0.6958407164
3738.0286889647	0.6936399341
3739.9574963377	0.6968153119
3741.8863037108	0.6917788386
3743.8151110838	0.6922137737
3745.7439184569	0.6936588883
3747.6727258299	0.6878843307
3749.6015332030	0.6894865632
3751.5303405760	0.6888359785
3753.4591479491	0.6858552098
3755.3879553221	0.6848658919
3757.3167626952	0.6845158935
3759.2455700682	0.6842462420
3761.1743774413	0.6827440262
3763.1031848143	0.6818533540
3765.0319921873	0.6828867793
3766.9607995604	0.6811711192
3768.8896069334	0.6791210175
3770.8184143065	0.6780562401
3772.7472216795	0.6759687662
3774.6760290526	0.6763376594
3776.6048364256	0.6728819609
3778.5336437987	0.6720362902
3780.4624511717	0.6754397154
3782.3912585448	0.6752020121
3784.3200659178	0.6749084592
3786.2488732909	0.6776813865
3788.1776806639	0.6754271388
3790.1064880370	0.6658484936
3792.0352954100	0.6694507003
3793.9641027830	0.6707217693
3795.8929101561	0.6690610647
3797.8217175291	0.6729234457
3799.7505249022	0.6672924161
3801.6793322752	0.6684222817
3803.6081396483	0.6629563570
3805.5369470213	0.6601720452
3807.4657543944	0.6639790535
3809.3945617674	0.6615763903
3811.3233691405	0.6645732522
3813.2521765135	0.6579701304
3815.1809838866	0.6562100649
3817.1097912596	0.6609289050
3819.0385986327	0.6554524899
3820.9674060057	0.6578326821
3822.8962133787	0.6601349115
3824.8250207518	0.6567341089
3826.7538281248	0.6579825878
3828.6826354979	0.6573457122
3830.6114428709	0.6526275277
3832.5402502440	0.6558560133
3834.4690576170	0.6555922031
3836.3978649901	0.6497150064
3838.3266723631	0.6546078920
3840.2554797362	0.6571074128
3842.1842871092	0.6549236774
3844.1130944823	0.6529772282
3846.0419018553	0.6526892185
3847.9707092284	0.6497607231
3849.8995166014	0.6436029673
3851.8283239745	0.6447735429
3853.7571313475	0.6444517970
3855.6859387205	0.6463420391
3857.6147460936	0.6479603648
3859.5435534666	0.6437131166
3861.4723608397	0.6443449855
3863.4011682127	0.6457161307
3865.3299755858	0.6435497999
3867.2587829588	0.6430604458
3869.1875903319	0.6420025826
3871.1163977049	0.6381116509
3873.0452050780	0.6356692910
3874.9740124510	0.6406232715
3876.9028198241	0.6434915662
3878.8316271971	0.6379366517
3880.7604345702	0.6372735500
3882.6892419432	0.6348794699
3884.6180493162	0.6343301535
3886.5468566893	0.6370871067
3888.4756640623	0.6328139901
3890.4044714354	0.6337112784
3892.3332788084	0.6336874962
3894.2620861815	0.6339969039
3896.1908935545	0.6345901489
3898.1197009276	0.6337098479
3900.0485083006	0.6338756680
3901.9773156737	0.6310443282
3903.9061230467	0.6342840195
3905.8349304198	0.6288526654
3907.7637377928	0.6286734939
3909.6925451659	0.6342485547
3911.6213525389	0.6286206841
3913.5501599119	0.6309055090
3915.4789672850	0.6298919320
3917.4077746580	0.6285953522
3919.3365820311	0.6314457655
3921.2653894041	0.6275471449
3923.1941967772	0.6271282434
3925.1230041502	0.6290209889
3927.0518115233	0.6273894906
3928.9806188963	0.6228246689
3930.9094262694	0.6249676347
3932.8382336424	0.6254227161
3934.7670410155	0.6235455871
3936.6958483885	0.6232457161
3938.6246557616	0.6168690324
3940.5534631346	0.6188923717
3942.4822705076	0.6254251599
3944.4110778807	0.6225360036
3946.3398852537	0.6183978915
3948.2686926268	0.6251075864
3950.1974999998	0.6270097494
3952.1263073729	0.6192841530
3954.0551147459	0.6206178069
3955.9839221190	0.6202954054
3957.9127294920	0.6178426147
3959.8415368651	0.6193124056
3961.7703442381	0.6180034280
3963.6991516112	0.6172422767
3965.6279589842	0.6212061048
3967.5567663573	0.6226307154
3969.4855737303	0.6204782724
3971.4143811034	0.6190369725
3973.3431884764	0.6159936786
3975.2719958494	0.6187637448
3977.2008032225	0.6174569130
3979.1296105955	0.6154939532
3981.0584179686	0.6173351407
3982.9872253416	0.6148522496
3984.9160327147	0.6217669845
3986.8448400877	0.6196769476
3988.7736474608	0.6121890545
3990.7024548338	0.6126369834
3992.6312622069	0.6098872423
3994.5600695799	0.6111184955
3996.4888769530	0.6133282781
3998.4176843260	0.6164312363
4000.3464916991	0.6114167571
4002.2752990721	0.6105254889
4004.2041064451	0.6196992993
4006.1329138182	0.6117388010
4008.0617211912	0.6093531847
4009.9905285643	0.6133725643
4011.9193359373	0.6093067527
4013.8481433104	0.6112072468
4015.7769506834	0.6098631620
4017.7057580565	0.6088429093
4019.6345654295	0.6129447222
4021.5633728026	0.6123394966
4023.4921801756	0.6095845699
4025.4209875487	0.6050206423
4027.3497949217	0.6047920585
4029.2786022948	0.6099147201
4031.2074096678	0.6082829833
4033.1362170408	0.6060363650
4035.0650244139	0.6089158058
4036.9938317869	0.6105063558
4038.9226391600	0.6102491021
4040.8514465330	0.6074129343
4042.7802539061	0.6079055667
4044.7090612791	0.6107681990
4046.6378686522	0.6058948040
4048.5666760252	0.6051050425
4050.4954833983	0.6070133448
4052.4242907713	0.6027306914
4054.3530981444	0.6025888324
4056.2819055174	0.6016425490
4058.2107128905	0.6036694050
4060.1395202635	0.6088259220
4062.0683276365	0.6060708165
4063.9971350096	0.6054124832
4065.9259423826	0.6055786610
4067.8547497557	0.6054916978
4069.7835571287	0.6072186232
4071.7123645018	0.6040781140
4073.6411718748	0.5991879106
4075.5699792479	0.6033118963
4077.4987866209	0.6056778431
4079.4275939940	0.5990315080
4081.3564013670	0.6043664217
4083.2852087401	0.6087821126
4085.2140161131	0.6050048470
4087.1428234862	0.5965119004
4089.0716308592	0.5907276273
4091.0004382323	0.6012225747
4092.9292456053	0.6000891924
4094.8580529783	0.6001721621
4096.7868603514	0.6051297188
4098.7156677244	0.6013516188
4100.6444750975	0.6001815796
4102.5732824705	0.5949557424
4104.5020898436	0.5982683301
4106.4308972166	0.5958690047
4108.3597045897	0.5941795707
4110.2885119627	0.6004391909
4112.2173193358	0.5985434055
4114.1461267088	0.6045501828
4116.0749340819	0.5999830961
4118.0037414549	0.5979084373
4119.9325488280	0.6014555693
4121.8613562010	0.5937500000
4123.7901635740	0.5966641903
4125.7189709471	0.5992670059
4127.6477783201	0.5986679792
4129.5765856932	0.5976161361
4131.5053930662	0.5976783633
4133.4342004393	0.5993838310
4135.3630078123	0.5962214470
4137.2918151854	0.5949230194
4139.2206225584	0.5939361453
4141.1494299315	0.5959821939
4143.0782373045	0.5968571901
4145.0070446776	0.5952507854
4146.9358520506	0.5929623842
4148.8646594237	0.5936130881
4150.7934667967	0.5975082517
4152.7222741697	0.5957435369
4154.6510815428	0.5983003974
4156.5798889158	0.5969510078
4158.5086962889	0.5954363346
4160.4375036619	0.5981666446
4162.3663110350	0.5960344672
4164.2951184080	0.5952104926
4166.2239257811	0.5870996714
4168.1527331541	0.5908246636
4170.0815405272	0.5962458253
4172.0103479002	0.5884949565
4173.9391552733	0.5943970680
4175.8679626463	0.5947494507
4177.7967700194	0.5915092230
4179.7255773924	0.5937958956
4181.6543847654	0.5915302038
4183.5831921385	0.5917039514
4185.5119995115	0.5934709311
4187.4408068846	0.5969636440
4189.3696142576	0.5929064751
4191.2984216307	0.5908616781
4193.2272290037	0.5945383906
4195.1560363768	0.5895193219
4197.0848437498	0.5893526673
4199.0136511229	0.5969730616
4200.9424584959	0.5992754102
4202.8712658690	0.5923976302
4204.8000732420	0.5894547701
4206.7288806151	0.5920977592
4208.6576879881	0.5868234038
4210.5864953611	0.5810492039
4212.5153027342	0.5893943310
4214.4441101072	0.5945544243
4216.3729174803	0.5847160220
4218.3017248533	0.5891984701
4220.2305322264	0.5965591073
4222.1593395994	0.5896451473
4224.0881469725	0.5881500840
4226.0169543455	0.5889489055
4227.9457617186	0.5878195167
4229.8745690916	0.5876398683
4231.8033764647	0.5887861848
4233.7321838377	0.5881961584
4235.6609912108	0.5884763598
4237.5897985838	0.5893445611
4239.5186059569	0.5890632868
4241.4474133299	0.5882949829
4243.3762207029	0.5879305601
4245.3050280760	0.5971378684
4247.2338354490	0.5954014063
4249.1626428221	0.5880027413
4251.0914501951	0.5901105404
4253.0202575682	0.5882795453
4254.9490649412	0.5898337960
4256.8778723143	0.5879592299
4258.8066796873	0.5874521136
4260.7354870604	0.5918375254
4262.6642944334	0.5887728930
4264.5931018065	0.5852141976
4266.5219091795	0.5824026465
4268.4507165526	0.5800725818
4270.3795239256	0.5833336115
4272.3083312986	0.5860471129
4274.2371386717	0.5805976391
4276.1659460447	0.5838733315
4278.0947534178	0.5859571099
4280.0235607908	0.5802128911
4281.9523681639	0.5882798433
4283.8811755369	0.5907725692
4285.8099829100	0.5848193169
4287.7387902830	0.5870537758
4289.6675976561	0.5866279602
4291.5964050291	0.5815114975
4293.5252124022	0.5892865658
4295.4540197752	0.5922585726
4297.3828271483	0.5812923312
4299.3116345213	0.5855492353
4301.2404418943	0.5852115750
4303.1692492674	0.5802245140
4305.0980566404	0.5879552364
4307.0268640135	0.5898221135
4308.9556713865	0.5871136189
4310.8844787596	0.5873741508
4312.8132861326	0.5880923271
4314.7420935057	0.5820711851
4316.6709008787	0.5802467465
4318.5997082518	0.5866125226
4320.5285156248	0.5864053369
4322.4573229979	0.5824784636
4324.3861303709	0.5818620920
4326.3149377440	0.5874249935
4328.2437451170	0.5897194147
4330.1725524900	0.5836389065
4332.1013598631	0.5852917433
4334.0301672361	0.5879417658
4335.9589746092	0.5841749907
4337.8877819822	0.5883402228
4339.8165893553	0.5838433504
4341.7453967283	0.5793944597
4343.6742041014	0.5859185457
4345.6030114744	0.5849561691
4347.5318188475	0.5865445733
4349.4606262205	0.5814256072
4351.3894335936	0.5797538161
4353.3182409666	0.5855403543
4355.2470483397	0.5830807090
4357.1758557127	0.5782973170
4359.1046630858	0.5725293756
4361.0334704588	0.5821636915
4362.9622778318	0.5864764452
4364.8910852049	0.5810768604
4366.8198925779	0.5781860948
4368.7486999510	0.5767883658
4370.6775073240	0.5829407573
4372.6063146971	0.5775116682
4374.5351220701	0.5763794184
4376.4639294432	0.5784332156
4378.3927368162	0.5767543912
4380.3215441893	0.5784366727
4382.2503515623	0.5779980421
4384.1791589354	0.5819947720
4386.1079663084	0.5807188153
4388.0367736815	0.5839500427
4389.9655810545	0.5846921206
4391.8943884275	0.5795544982
4393.8231958006	0.5822406411
4395.7520031736	0.5808684230
4397.6808105467	0.5769889951
4399.6096179197	0.5763745308
4401.5384252928	0.5837540627
4403.4672326658	0.5846111178
4405.3960400389	0.5799590349
4407.3248474119	0.5837484598
4409.2536547850	0.5798678398
4411.1824621580	0.5726914406
4413.1112695311	0.5803805590
4415.0400769041	0.5851466060
4416.9688842772	0.5771499276
4418.8976916502	0.5735055804
4420.8264990232	0.5707174540
4422.7553063963	0.5741543770
4424.6841137693	0.5776053667
4426.6129211424	0.5743585825
4428.5417285154	0.5741717815
4430.4705358885	0.5763577223
4432.3993432615	0.5799143910
4434.3281506346	0.5702604651
4436.2569580076	0.5735495090
4438.1857653807	0.5848765969
4440.1145727537	0.5774729848
4442.0433801268	0.5769015551
4443.9721874998	0.5805686116
4445.9009948729	0.5779718161
4447.8298022459	0.5735351443
4449.7586096189	0.5785310864
4451.6874169920	0.5792202353
4453.6162243650	0.5799373388
4455.5450317381	0.5791760087
4457.4738391111	0.5659134984
4459.4026464842	0.5779486895
4461.3314538572	0.5797491074
4463.2602612303	0.5698902011
4465.1890686033	0.5781139731
4467.1178759764	0.5732751489
4469.0466833494	0.5743774772
4470.9754907225	0.5781576037
4472.9042980955	0.5697612762
4474.8331054686	0.5738702416
4476.7619128416	0.5790348053
4478.6907202147	0.5730658174
4480.6195275877	0.5776599050
4482.5483349607	0.5766398907
4484.4771423338	0.5721274614
4486.4059497068	0.5838722587
4488.3347570799	0.5774315596
4490.2635644529	0.5687217712
4492.1923718260	0.5724900961
4494.1211791990	0.5740954876
4496.0499865721	0.5788217783
4497.9787939451	0.5745794177
4499.9076013182	0.5736966729
4501.8364086912	0.5775984526
4503.7652160643	0.5756918788
4505.6940234373	0.5795176029
4507.6228308104	0.5775768757
4509.5516381834	0.5740072727
4511.4804455564	0.5769581199
4513.4092529295	0.5724596977
4515.3380603025	0.5734897852
4517.2668676756	0.5708503127
4519.1956750486	0.5668382645
4521.1244824217	0.5759253502
4523.0532897947	0.5676237345
4524.9820971678	0.5637341142
4526.9109045408	0.5696018338
4528.8397119139	0.5640300512
4530.7685192869	0.5687291622
4532.6973266600	0.5736133456
4534.6261340330	0.5703005195
4536.5549414061	0.5758982897
4538.4837487791	0.5784162283
4540.4125561521	0.5691832304
4542.3413635252	0.5782272220
4544.2701708982	0.5853252411
4546.1989782713	0.5745289922
4548.1277856443	0.5751948953
4550.0565930174	0.5738728046
4551.9854003904	0.5675446987
4553.9142077635	0.5718215704
4555.8430151365	0.5820551515
4557.7718225096	0.5701978207
4559.7006298826	0.5656540394
4561.6294372557	0.5753467679
4563.5582446287	0.5683034658
4565.4870520018	0.5743014812
4567.4158593748	0.5691216588
4569.3446667478	0.5653524995
4571.2734741209	0.5673770308
4573.2022814939	0.5595177412
4575.1310888670	0.5718430877
4577.0598962400	0.5704978704
4578.9887036131	0.5667498708
4580.9175109861	0.5706669092
4582.8463183592	0.5698140264
4584.7751257322	0.5675451159
4586.7039331053	0.5708986521
4588.6327404783	0.5759760737
4590.5615478514	0.5639855266
4592.4903552244	0.5718438625
4594.4191625975	0.5730837584
4596.3479699705	0.5629321337
4598.2767773435	0.5679317713
4600.2055847166	0.5673675537
4602.1343920896	0.5720544457
4604.0631994627	0.5761860013
4605.9920068357	0.5815274715
4607.9208142088	0.5782644153
4609.8496215818	0.5734920502
4611.7784289549	0.5767062902
4613.7072363279	0.5721078515
4615.6360437010	0.5712070465
4617.5648510740	0.5691843033
4619.4936584471	0.5671791434
4621.4224658201	0.5686189532
4623.3512731932	0.5698946714
4625.2800805662	0.5666475892
4627.2088879393	0.5706061125
4629.1376953123	0.5752509236
4631.0665026853	0.5640016198
4632.9953100584	0.5573755503
4634.9241174314	0.5598387122
4636.8529248045	0.5682134032
4638.7817321775	0.5689258575
4640.7105395506	0.5656967759
4642.6393469236	0.5643531084
4644.5681542967	0.5741136670
4646.4969616697	0.5787732005
4648.4257690428	0.5634211898
4650.3545764158	0.5715173483
4652.2833837889	0.5694195032
4654.2121911619	0.5618399382
4656.1409985350	0.5649272799
4658.0698059080	0.5648592114
4659.9986132810	0.5727194548
4661.9274206541	0.5685287714
4663.8562280271	0.5779382586
4665.7850354002	0.5720934272
4667.7138427732	0.5711013675
4669.6426501463	0.5772762299
4671.5714575193	0.5503618121
4673.5002648924	0.5642307997
4675.4290722654	0.5714287758
4677.3578796385	0.5670567155
4679.2866870115	0.5756381750
4681.2154943846	0.5609875321
4683.1443017576	0.5664210916
4685.0731091307	0.5707464814
4687.0019165037	0.5673459768
4688.9307238767	0.5677676797
4690.8595312498	0.5645666718
4692.7883386228	0.5600801110
4694.7171459959	0.5555077195
4696.6459533689	0.5702476501
4698.5747607420	0.5685768127
4700.5035681150	0.5594254732
4702.4323754881	0.5739257932
4704.3611828611	0.5701163411
4706.2899902342	0.5593267679
4708.2187976072	0.5675098896
4710.1476049803	0.5678004026
4712.0764123533	0.5641546249
4714.0052197264	0.5728552938
4715.9340270994	0.5739803910
4717.8628344724	0.5671820641
4719.7916418455	0.5671858788
4721.7204492185	0.5687044859
4723.6492565916	0.5711588860
4725.5780639646	0.5674333572
4727.5068713377	0.5598862171
4729.4356787107	0.5694429278
4731.3644860838	0.5732733011
4733.2932934568	0.5715481043
4735.2221008299	0.5719508529
4737.1509082029	0.5557247400
4739.0797155760	0.5703040361
4741.0085229490	0.5834219456
4742.9373303221	0.5599353313
4744.8661376951	0.5666040182
4746.7949450682	0.5729226470
4748.7237524412	0.5665772557
4750.6525598142	0.5743449330
4752.5813671873	0.5676769614
4754.5101745603	0.5616889000
4756.4389819334	0.5772800446
4758.3677893064	0.5863989592
4760.2965966795	0.5657634139
4762.2254040525	0.5556563735
4764.1542114256	0.5698221326
4766.0830187986	0.5689561963
4768.0118261717	0.5710202456
4769.9406335447	0.5716290474
4771.8694409178	0.5590685010
4773.7982482908	0.5697839856
4775.7270556639	0.5710040331
4777.6558630369	0.5617323518
4779.5846704099	0.5646746159
4781.5134777830	0.5625257492
4783.4422851560	0.5698359609
4785.3710925291	0.5615008473
4787.2998999021	0.5529634953
4789.2287072752	0.5631178021
4791.1575146482	0.5652245283
4793.0863220213	0.5685364604
4795.0151293943	0.5658786893
4796.9439367674	0.5672882199
4798.8727441404	0.5619853735
4800.8015515135	0.5687347054
4802.7303588865	0.5778906345
4804.6591662596	0.5614572167
4806.5879736326	0.5726180077
4808.5167810056	0.5639094710
4810.4455883787	0.5704661012
4812.3743957517	0.5899247527
4814.3032031248	0.5535786748
4816.2320104978	0.5669629574
4818.1608178709	0.5809329748
4820.0896252439	0.5615054965
4822.0184326170	0.5650054216
4823.9472399900	0.5618370771
4825.8760473631	0.5690076351
4827.8048547361	0.5759539604
4829.7336621092	0.5770385861
4831.6624694822	0.5709831119
4833.5912768553	0.5650438666
4835.5200842283	0.5663889050
4837.4488916013	0.5485290289
4839.3776989744	0.5595937371
4841.3065063474	0.5781983733
4843.2353137205	0.5561198592
4845.1641210935	0.5629441738
4847.0929284666	0.5815567374
4849.0217358396	0.5645520091
4850.9505432127	0.5664833188
4852.8793505857	0.5674918294
4854.8081579588	0.5526181459
4856.7369653318	0.5661060810
4858.6657727049	0.5686433911
4860.5945800779	0.5647552609
4862.5233874510	0.5725150704
4864.4521948240	0.5580915213
4866.3810021971	0.5563519597
4868.3098095701	0.5607053638
4870.2386169431	0.5533257723
4872.1674243162	0.5705861449
4874.0962316892	0.5772634745
4876.0250390623	0.5691691041
4877.9538464353	0.5671626329
4879.8826538084	0.5544326305
4881.8114611814	0.5568327308
4883.7402685545	0.5617371202
4885.6690759275	0.5685431957
4887.5978833006	0.5751530528
4889.5266906736	0.5626270771
4891.4554980467	0.5608503222
4893.3843054197	0.5668419600
4895.3131127928	0.5804359317
4897.2419201658	0.5684627295
4899.1707275388	0.5539885163
4901.0995349119	0.5671744347
4903.0283422849	0.5554924607
4904.9571496580	0.5630245209
4906.8859570310	0.5649811625
4908.8147644041	0.5536702275
4910.7435717771	0.5679981112
4912.6723791502	0.5580399632
4914.6011865232	0.5567568541
4916.5299938963	0.5703232884
4918.4588012693	0.5623468161
4920.3876086424	0.5529357195
4922.3164160154	0.5626007915
4924.2452233885	0.5666949749
4926.1740307615	0.5545712709
4928.1028381345	0.5637311339
4930.0316455076	0.5642133355
4931.9604528806	0.5520985126
4933.8892602537	0.5611433983
4935.8180676267	0.5610163212
4937.7468749998	0.5584993362
4939.6756823728	0.5673842430
4941.6044897459	0.5507008433
4943.5332971189	0.5517588854
4945.4621044920	0.5730579495
4947.3909118650	0.5544685721
4949.3197192381	0.5463142395
4951.2485266111	0.5574955344
4953.1773339842	0.5593758821
4955.1061413572	0.5606470704
4957.0349487302	0.5634825230
4958.9637561033	0.5469134450
4960.8925634763	0.5347477198
4962.8213708494	0.5591782331
4964.7501782224	0.5611304045
4966.6789855955	0.5601028204
4968.6077929685	0.5611377954
4970.5366003416	0.5639636517
4972.4654077146	0.5707371831
4974.3942150877	0.5479137301
4976.3230224607	0.5559493899
4978.2518298338	0.5534853339
4980.1806372068	0.5604826212
4982.1094445799	0.5735244751
4984.0382519529	0.5554744601
4985.9670593259	0.5803763866
4987.8958666990	0.5738667846
4989.8246740720	0.5603942275
4991.7534814451	0.5681191087
4993.6822888181	0.5569103360
4995.6110961912	0.5629053712
4997.5399035642	0.5680742860
4999.4687109373	0.5586891174
5001.3975183103	0.5602653027
5003.3263256834	0.5734860301
5005.2551330564	0.5541194081
5007.1839404295	0.5486909151
5009.1127478025	0.5606618524
5011.0415551756	0.5639515519
5012.9703625486	0.5614960790
5014.8991699217	0.5440140963
5016.8279772947	0.5481421947
5018.7567846677	0.5438361168
5020.6855920408	0.5620320439
5022.6143994138	0.5590100288
5024.5432067869	0.5395879745
5026.4720141599	0.5687125921
5028.4008215330	0.5580086708
5030.3296289060	0.5660585165
5032.2584362791	0.5834834576
5034.1872436521	0.5673851371
5036.1160510252	0.5506670475
5038.0448583982	0.5496596694
5039.9736657713	0.5632910132
5041.9024731443	0.5543336272
5043.8312805174	0.5676327348
5045.7600878904	0.5638007522
5047.6888952634	0.5614758730
5049.6177026365	0.5768190622
5051.5465100095	0.5673670769
5053.4753173826	0.5516787171
5055.4041247556	0.5389012694
5057.3329321287	0.5693326592
5059.2617395017	0.5710066557
5061.1905468748	0.5586773753
5063.1193542478	0.5635654926
5065.0481616209	0.5628736019
5066.9769689939	0.5765281320
5068.9057763670	0.5652930737
5070.8345837400	0.5573853254
5072.7633911131	0.5504723191
5074.6921984861	0.5556446910
5076.6210058591	0.5531185865
5078.5498132322	0.5481517315
5080.4786206052	0.5714156628
5082.4074279783	0.5584324002
5084.3362353513	0.5523516536
5086.2650427244	0.5523980260
5088.1938500974	0.5496516228
5090.1226574705	0.5527386665
5092.0514648435	0.5479146838
5093.9802722166	0.5610973835
5095.9090795896	0.5618480444
5097.8378869627	0.5429701209
5099.7666943357	0.5476406813
5101.6955017088	0.5650158525
5103.6243090818	0.5502315164
5105.5531164548	0.5535857081
5107.4819238279	0.5587325692
5109.4107312009	0.5524779558
5111.3395385740	0.5634840727
5113.2683459470	0.5601199269
5115.1971533201	0.5614902377
5117.1259606931	0.5446692705
5119.0547680662	0.5484704971
5120.9835754392	0.5536615252
5122.9123828123	0.5529396534
5124.8411901853	0.5666381717
5126.7699975584	0.5462918282
5128.6988049314	0.5496136546
5130.6276123045	0.5291656852
5132.5564196775	0.5456920266
5134.4852270506	0.5780983567
5136.4140344236	0.5396404862
5138.3428417966	0.5534342527
5140.2716491697	0.5595416427
5142.2004565427	0.5412355065
5144.1292639158	0.5372692347
5146.0580712888	0.5456601977
5147.9868786619	0.5619269013
5149.9156860349	0.5678263307
5151.8444934080	0.5645036101
5153.7733007810	0.5481339097
5155.7021081541	0.5611516237
5157.6309155271	0.5602459908
5159.5597229002	0.5666413307
5161.4885302732	0.5653465986
5163.4173376463	0.5431041718
5165.3461450193	0.5515250564
5167.2749523923	0.5520535707
5169.2037597654	0.5607425570
5171.1325671384	0.5447371006
5173.0613745115	0.5566453338
5174.9901818845	0.5799395442
5176.9189892576	0.5689452291
5178.8477966306	0.5777642131
5180.7766040037	0.5468184948
5182.7054113767	0.5358488560
5184.6342187498	0.5351799726
5186.5630261228	0.5403840542
5188.4918334959	0.5622938871
5190.4206408689	0.5548602343
5192.3494482420	0.5568899512
5194.2782556150	0.5471975207
5196.2070629880	0.5493090749
5198.1358703611	0.5409985781
5200.0646777341	0.5428107977
5201.9934851072	0.5612305999
5203.9222924802	0.5309341550
5205.8510998533	0.5422544479
5207.7799072263	0.5812317729
5209.7087145994	0.5787152648
5211.6375219724	0.5686306953
5213.5663293455	0.5657848120
5215.4951367185	0.5519441366
5217.4239440916	0.5426224470
5219.3527514646	0.5619241595
5221.2815588377	0.5714990497
5223.2103662107	0.5516958833
5225.1391735837	0.5314667225
5227.0679809568	0.5614932179
5228.9967883298	0.5705713034
5230.9255957029	0.5500237346
5232.8544030759	0.5696454644
5234.7832104490	0.5668447614
5236.7120178220	0.5715531707
5238.6408251951	0.5690005422
5240.5696325681	0.5401625037
5242.4984399412	0.5599184632
5244.4272473142	0.5545765162
5246.3560546873	0.5407577157
5248.2848620603	0.5574671626
5250.2136694334	0.5332165360
5252.1424768064	0.5465456247
5254.0712841795	0.5726997852
5256.0000915525	0.5471947789
5257.9288989255	0.5617914200
5259.8577062986	0.5717076659
5261.7865136716	0.5631383657
5263.7153210447	0.5633510351
5265.6441284177	0.5621982217
5267.5729357908	0.5721983314
5269.5017431638	0.5535347462
5271.4305505369	0.5620329380
5273.3593579099	0.5594828725
5275.2881652830	0.5417527556
5277.2169726560	0.5675640106
5279.1457800291	0.5382282734
5281.0745874021	0.5526737571
5283.0033947752	0.5792840123
5284.9322021482	0.5240762830
5286.8610095212	0.5577327013
5288.7898168943	0.5797992349
5290.7186242673	0.5325189829
5292.6474316404	0.5562080145
5294.5762390134	0.5638530850
5296.5050463865	0.5345110297
5298.4338537595	0.5273921490
5300.3626611326	0.5444040895
5302.2914685056	0.5704900026
5304.2202758787	0.5519155264
5306.1490832517	0.5462158322
5308.0778906248	0.5685348511
5310.0066979978	0.5491138697
5311.9355053709	0.5444682240
5313.8643127439	0.5699640512
5315.7931201169	0.5774298906
5317.7219274900	0.5744538903
5319.6507348630	0.5677409172
5321.5795422361	0.5738902092
5323.5083496091	0.5688257217
5325.4371569822	0.5505206585
5327.3659643552	0.5692976117
5329.2947717283	0.5659376979
5331.2235791013	0.5646447539
5333.1523864744	0.5843356848
5335.0811938474	0.5568752885
5337.0100012205	0.5586734414
5338.9388085935	0.5531924963
5340.8676159666	0.5392108560
5342.7964233396	0.5452171564
5344.7252307126	0.5221657157
5346.6540380857	0.5516136289
5348.5828454587	0.5688098073
5350.5116528318	0.5573185086
5352.4404602048	0.5677607059
5354.3692675779	0.5722281933
5356.2980749509	0.5884274244
5358.2268823240	0.5602571964
5360.1556896970	0.5402178168
5362.0844970701	0.5567099452
5364.0133044431	0.5735499859
5365.9421118162	0.5813174844
5367.8709191892	0.5716611147
5369.7997265623	0.5656287074
5371.7285339353	0.5506521463
5373.6573413083	0.5669130087
5375.5861486814	0.5692182183
5377.5149560544	0.5569339395
5379.4437634275	0.5506588221
5381.3725708005	0.5291764140
5383.3013781736	0.5787763000
5385.2301855466	0.5829210281
5387.1589929197	0.5481784344
5389.0878002927	0.5760447383
5391.0166076658	0.5765616298
5392.9454150388	0.5651026368
5394.8742224119	0.5723015070
5396.8030297849	0.5969979763
5398.7318371580	0.5532284379
5400.6606445310	0.5226287246
5402.5894519041	0.5825700760
5404.5182592771	0.5714955926
5406.4470666501	0.5517455935
5408.3758740232	0.5578091741
5410.3046813962	0.5640764832
5412.2334887693	0.5923402309
5414.1622961423	0.5662648082
5416.0911035154	0.5767107606
5418.0199108884	0.5867789984
5419.9487182615	0.5660474896
5421.8775256345	0.5737037659
5423.8063330076	0.5391861796
5425.7351403806	0.5717860460
5427.6639477537	0.5844584107
5429.5927551267	0.5338051319
5431.5215624998	0.5826082230
5433.4503698728	0.5474623442
5435.3791772458	0.5279584527
5437.3079846189	0.5990376472
5439.2367919919	0.5594645143
5441.1655993650	0.5409612656
5443.0944067380	0.5650876164
5445.0232141111	0.5631380677
5446.9520214841	0.5792127252
5448.8808288572	0.5652250051
5450.8096362302	0.5413513780
5452.7384436033	0.5673852563
5454.6672509763	0.5703327060
5456.5960583494	0.5629596710
5458.5248657224	0.5918965936
5460.4536730955	0.5683773756
5462.3824804685	0.5667418242
5464.3112878415	0.5836948752
5466.2400952146	0.5714719892
5468.1689025876	0.6038042307
5470.0977099607	0.5893216729
5472.0265173337	0.5860434771
5473.9553247068	0.5853825808
5475.8841320798	0.5411723256
5477.8129394529	0.5756024122
5479.7417468259	0.5600618720
5481.6705541990	0.5249927044
5483.5993615720	0.5806893110
5485.5281689451	0.5900323987
5487.4569763181	0.5742861629
5489.3857836912	0.5721871853
5491.3145910642	0.5606428981
5493.2433984372	0.5573822856
5495.1722058103	0.5613538027
5497.1010131833	0.5824520588
5499.0298205564	0.5624963641
5500.9586279294	0.5505185723
5502.8874353025	0.5837363601
5504.8162426755	0.5726974010
5506.7450500486	0.5918406844
5508.6738574216	0.6022611260
5510.6026647947	0.5565897822
5512.5314721677	0.5522205234
5514.4602795408	0.5424929857
5516.3890869138	0.5354998112
5518.3178942869	0.5628870130
5520.2467016599	0.5824603438
5522.1755090330	0.5613520145
5524.1043164060	0.5323559046
5526.0331237790	0.5651822686
5527.9619311521	0.5924718976
5529.8907385251	0.5917185545
5531.8195458982	0.5832591057
5533.7483532712	0.5735248923
5535.6771606443	0.5839202404
5537.6059680173	0.5871410966
5539.5347753904	0.5839601755
5541.4635827634	0.5824378729
5543.3923901365	0.5521581173
5545.3211975095	0.5472596288
5547.2500048826	0.5929318666
5549.1788122556	0.5847696066
5551.1076196287	0.5891287327
5553.0364270017	0.5991867185
5554.9652343747	0.5690923333
5556.8940417478	0.6100412607
5558.8228491208	0.6073028445
5560.7516564939	0.5603716373
5562.6804638669	0.5705060959
5564.6092712400	0.5750910044
5566.5380786130	0.5775146484
5568.4668859861	0.5883572102
5570.3956933591	0.5807781816
5572.3245007322	0.5518154502
5574.2533081052	0.5487490296
5576.1821154783	0.5838103294
5578.1109228513	0.6109491587
5580.0397302244	0.5870162845
5581.9685375974	0.5630236268
5583.8973449704	0.5853970647
5585.8261523435	0.5849795341
5587.7549597165	0.5769698024
5589.6837670896	0.5732469559
5591.6125744626	0.5899158716
5593.5413818357	0.5909327269
5595.4701892087	0.5654309988
5597.3989965818	0.6137909889
5599.3278039548	0.5910270810
5601.2566113279	0.5305424929
5603.1854187009	0.5477703810
5605.1142260740	0.5620747805
5607.0430334470	0.5694315434
5608.9718408201	0.5836284757
5610.9006481931	0.5893501639
5612.8294555661	0.5236900449
5614.7582629392	0.5261014700
5616.6870703122	0.5757973194
5618.6158776853	0.5332766175
5620.5446850583	0.5440629721
5622.4734924314	0.5353374481
5624.4022998044	0.5362683535
5626.3311071775	0.5887069106
5628.2599145505	0.5594280362
5630.1887219236	0.5580739379
5632.1175292966	0.5599220395
5634.0463366697	0.5618951917
5635.9751440427	0.5709511042
5637.9039514158	0.5302653313
5639.8327587888	0.5494404435
5641.7615661619	0.5642984509
5643.6903735349	0.5513222814
5645.6191809079	0.5642624497
5647.5479882810	0.5400381088
5649.4767956540	0.5505196452
5651.4056030271	0.5795741677
5653.3344104001	0.5820416808
5655.2632177732	0.5820211768
5657.1920251462	0.5827398300
5659.1208325193	0.5996401310
5661.0496398923	0.5483464003
5662.9784472654	0.5378224254
5664.9072546384	0.5776283145
5666.8360620115	0.5513029695
5668.7648693845	0.5861284137
5670.6936767576	0.5906694531
5672.6224841306	0.5641101599
5674.5512915036	0.5872555971
5676.4800988767	0.5854365826
5678.4089062497	0.5862541795
5680.3377136228	0.5475201011
5682.2665209958	0.5479784608
5684.1953283689	0.5723500252
5686.1241357419	0.5454789996
5688.0529431150	0.5327714682
5689.9817504880	0.5540118217
5691.9105578611	0.6081750989
5693.8393652341	0.5751601458
5695.7681726072	0.5450841784
5697.6969799802	0.5759584308
5699.6257873533	0.5658871531
5701.5545947263	0.5834665895
5703.4834020993	0.5644898415
5705.4122094724	0.5502285361
5707.3410168454	0.5840053558
5709.2698242185	0.5575128198
5711.1986315915	0.5655884743
5713.1274389646	0.6007397175
5715.0562463376	0.5450513363
5716.9850537107	0.5184045434
5718.9138610837	0.5696208477
5720.8426684568	0.5842242837
5722.7714758298	0.5540806055
5724.7002832029	0.5709457994
5726.6290905759	0.6216975451
5728.5578979490	0.6176155210
5730.4867053220	0.5888777375
5732.4155126950	0.5716191530
5734.3443200681	0.5470969081
5736.2731274411	0.5422648191
5738.2019348142	0.5742042661
5740.1307421872	0.6013635397
5742.0595495603	0.5881244540
5743.9883569333	0.5880641937
5745.9171643064	0.5676506758
5747.8459716794	0.5537058115
5749.7747790525	0.5939828157
5751.7035864255	0.5597014427
5753.6323937986	0.5226377845
5755.5612011716	0.5665397048
5757.4900085447	0.6109791398
5759.4188159177	0.5704787374
5761.3476232907	0.5311532617
5763.2764306638	0.5717752576
5765.2052380368	0.5765485764
5767.1340454099	0.5823535919
5769.0628527829	0.5830248594
5770.9916601560	0.5493110418
5772.9204675290	0.5474276543
5774.8492749021	0.5662328005
5776.7780822751	0.5475826859
5778.7068896482	0.5232729316
5780.6356970212	0.6029071212
5782.5645043943	0.5907920003
5784.4933117673	0.5269731283
5786.4221191404	0.5875713229
5788.3509265134	0.6082443595
5790.2797338865	0.5774173737
5792.2085412595	0.5295854807
5794.1373486325	0.5487763882
5796.0661560056	0.5822127461
5797.9949633786	0.5706494451
5799.9237707517	0.5977115035
5801.8525781247	0.5652556419
5803.7813854978	0.5640129447
5805.7101928708	0.6062373519
5807.6390002439	0.5882394910
5809.5678076169	0.5625497103
5811.4966149900	0.5637418628
5813.4254223630	0.5922173262
5815.3542297361	0.5793394446
5817.2830371091	0.5859422684
5819.2118444822	0.5999382734
5821.1406518552	0.5677309632
5823.0694592282	0.5842332840
5824.9982666013	0.6480695009
5826.9270739743	0.6519401670
5828.8558813474	0.5774968266
5830.7846887204	0.5683661699
5832.7134960935	0.5513403416
5834.6423034665	0.5052894354
5836.5711108396	0.5599004626
5838.4999182126	0.6018403172
5840.4287255857	0.5866419077
5842.3575329587	0.5795465112
5844.2863403318	0.6380203962
5846.2151477048	0.6470260024
5848.1439550779	0.5627624989
5850.0727624509	0.5913148522
5852.0015698239	0.5864895582
5853.9303771970	0.5366191864
5855.8591845700	0.5490033031
5857.7879919431	0.5303514004
5859.7167993161	0.5677900314
5861.6456066892	0.5958399773
5863.5744140622	0.6141422391
5865.5032214353	0.6050108671
5867.4320288083	0.5901805758
5869.3608361814	0.6423652172
5871.2896435544	0.5952157974
5873.2184509275	0.5654731989
5875.1472583005	0.5413356423
5877.0760656736	0.5663426518
5879.0048730466	0.6186695695
5880.9336804196	0.5631769896
5882.8624877927	0.5871946812
5884.7912951657	0.5551059842
5886.7201025388	0.5863781571
5888.6489099118	0.6737810969
5890.5777172849	0.6622821689
5892.5065246579	0.6153647900
5894.4353320310	0.5800682902
5896.3641394040	0.6275810003
5898.2929467771	0.5681138635
5900.2217541501	0.6594790220
5902.1505615232	0.6643883586
5904.0793688962	0.5303800106
5906.0081762693	0.6478660107
5907.9369836423	0.5334298015
5909.8657910154	0.5377767682
5911.7945983884	0.6313131452
5913.7234057614	0.5018343925
5915.6522131345	0.5454221368
5917.5810205075	0.6051474810
5919.5098278806	0.5478729010
5921.4386352536	0.5493790507
5923.3674426267	0.6713880301
5925.2962499997	0.5903456211
5927.2250573728	0.5368778110
5929.1538647458	0.6509676576
5931.0826721189	0.5567371249
5933.0114794919	0.6037517190
5934.9402868650	0.6107099056
5936.8690942380	0.5701152086
5938.7979016111	0.6100611091
5940.7267089841	0.5420457721
5942.6555163571	0.6096165180
5944.5843237302	0.5986807346
5946.5131311032	0.5857478976
5948.4419384763	0.6043660641
5950.3707458493	0.5455834866
5952.2995532224	0.5983148813
5954.2283605954	0.5530583858
5956.1571679685	0.5576461554
5958.0859753415	0.6189884543
5960.0147827146	0.5358067155
5961.9435900876	0.5590108633
5963.8723974607	0.6408507228
5965.8012048337	0.6079904437
5967.7300122068	0.5981737375
5969.6588195798	0.5960515141
5971.5876269528	0.5234832764
5973.5164343259	0.5339314938
5975.4452416989	0.5712678432
5977.3740490720	0.5451980829
5979.3028564450	0.5547278523
5981.2316638181	0.5624017715
5983.1604711911	0.5261251926
5985.0892785642	0.5242529511
5987.0180859372	0.6189774275
5988.9468933103	0.6032454967
5990.8757006833	0.5359110832
5992.8045080564	0.6448505521
5994.7333154294	0.6404163241
5996.6621228025	0.5587658882
5998.5909301755	0.5987318754
6000.5197375485	0.6173686385
