399.2631262207	0.2789499164
401.1919335938	0.4164749086
403.1207409668	0.1613377482
405.0495483398	0.1831437945
406.9783557129	0.1675339490
408.9071630859	0.1883231848
410.8359704590	0.3445868790
412.7647778320	-0.0561584756
414.6935852051	0.0612094328
416.6223925781	0.2679398656
418.5511999512	0.0637328252
420.4800073242	0.2431897372
422.4088146973	0.2505191267
424.3376220703	0.1485939920
426.2664294434	0.1791736782
428.1952368164	0.1736283004
430.1240441895	0.1172691733
432.0528515625	0.1641789824
433.9816589355	0.2556464970
435.9104663086	0.1969675124
437.8392736816	0.0981122702
439.7680810547	0.0998188555
441.6968884277	0.1757905781
443.6256958008	0.2129667401
445.5545031738	0.2776741982
447.4833105469	0.3086571395
449.4121179199	0.2539507449
451.3409252930	0.1368562430
453.2697326660	0.0800914466
455.1985400391	0.2970399559
457.1273474121	0.3036797941
459.0561547852	0.1588712633
460.9849621582	0.1313889623
462.9137695313	0.1918133795
464.8425769043	0.3400735855
466.7713842773	0.1523391008
468.7001916504	0.1798210591
470.6289990234	0.1656708270
472.5578063965	0.2297461778
474.4866137695	0.1571346223
476.4154211426	0.0076836483
478.3442285156	0.2973973453
480.2730358887	0.4435550272
482.2018432617	0.3048994243
484.1306506348	-0.1404515952
486.0594580078	0.6689778566
487.9882653809	0.8036481142
489.9170727539	0.1505076289
491.8458801270	1.0675203800
493.7746875000	-0.2885088027
495.7034948730	0.4543455243
497.6323022461	0.7140455246
499.5611096191	0.3629269600
501.4899169922	0.7065488100
503.4187243652	0.1847309172
505.3475317383	0.3754196763
507.2763391113	0.6163965464
509.2051464844	2.3694195747
511.1339538574	0.7203173637
513.0627612305	0.1029914916
514.9915686035	0.4883126915
516.9203759766	0.5553488135
518.8491833496	-4.3994669914
520.7779907227	1.3225846291
522.7067980957	0.6844173074
524.6356054688	2.0156831741
526.5644128418	0.3138929904
528.4932202148	0.6299695373
530.4220275879	1.6412366629
532.3508349609	1.2342703342
534.2796423340	7.9620413780
536.2084497070	-0.7009391189
538.1372570801	0.1314281076
540.0660644531	7.5170679092
541.9948718262	1.0201469660
543.9236791992	-0.3001878560
545.8524865723	14.5823040009
547.7812939453	0.6844734550
549.7101013184	-1.2641929388
551.6389086914	1.0060921907
553.5677160645	12.3781175613
555.4965234375	0.5032522678
557.4253308105	1.1976227760
559.3541381836	1.5073045492
561.2829455566	0.3622407317
563.2117529297	-1.4221446514
565.1405603027	1.7857741117
567.0693676758	1.0794945955
568.9981750488	1.7970353365
570.9269824219	0.6187247634
572.8557897949	6.0433235168
574.7845971680	-4.8888688087
576.7134045410	0.1204583123
578.6422119141	0.3568983674
580.5710192871	-31.0965499878
582.4998266602	1.0968297720
584.4286340332	-5.4649982452
586.3574414063	0.2081901878
588.2862487793	0.9640030265
590.2150561523	-2.8147385120
592.1438635254	0.4958698750
594.0726708984	-0.0712742060
596.0014782715	-0.2441872507
597.9302856445	9.1930589676
599.8590930176	1.0183591843
601.7879003906	0.8357930779
603.7167077637	-17.3411426544
605.6455151367	0.0485738106
607.5743225098	-0.2009989023
609.5031298828	1.2086315155
611.4319372559	2.7905640602
613.3607446289	2.0740480423
615.2895520020	0.1080297604
617.2183593750	-9.8251924515
619.1471667480	1.7443758249
621.0759741211	1.1125168800
623.0047814941	-0.2699840963
624.9335888672	-2.7677919865
626.8623962402	-1.4364058971
628.7912036133	3.5788068771
630.7200109863	0.2359310687
632.6488183594	0.5530154109
634.5776257324	0.3512401283
636.5064331055	0.2431747913
638.4352404785	0.1348551959
640.3640478516	0.1867091656
642.2928552246	0.3218184710
644.2216625977	0.2264561504
646.1504699707	0.2938222289
648.0792773438	0.3121831119
650.0080847168	0.2563349903
651.9368920898	0.2892311215
653.8656994629	0.2693490684
655.7945068359	0.2568780780
657.7233142090	0.2405761480
659.6521215820	0.2787860632
661.5809289551	0.2770642638
663.5097363281	0.2611403763
665.4385437012	0.3419243693
667.3673510742	0.3205192089
669.2961584473	0.2750423551
671.2249658203	0.2821010947
673.1537731934	0.2831603289
675.0825805664	0.3046985865
677.0113879395	0.3074768484
678.9401953125	0.2947116494
680.8690026855	0.2830954492
682.7978100586	0.3031188846
684.7266174316	0.3226610422
686.6554248047	0.3092060685
688.5842321777	0.3166359365
690.5130395508	0.3166279197
692.4418469238	0.3156008422
694.3706542969	0.3204857111
696.2994616699	0.3054316938
698.2282690430	0.3136657476
700.1570764160	0.3134793639
702.0858837891	0.2980417609
704.0146911621	0.3137277663
705.9434985352	0.3217942119
707.8723059082	0.2993413806
709.8011132813	0.3153533041
711.7299206543	0.3830149174
713.6587280273	0.3650892973
715.5875354004	0.2435218096
717.5163427734	0.4821189940
719.4451501465	0.8651134372
721.3739575195	0.5642222762
723.3027648926	0.6896091104
725.2315722656	0.7915046215
727.1603796387	0.3175053000
729.0891870117	0.0144864246
731.0179943848	-0.0862286165
732.9468017578	-3.7136693001
734.8756091309	-4.3065333366
736.8044165039	7.4522829056
738.7332238770	8.3535585403
740.6620312500	2.7692856789
742.5908386230	2.0085563660
744.5196459961	0.3777398765
746.4484533691	1.1255568266
748.3772607422	-6.6424932480
750.3060681152	1.1400330067
752.2348754883	-0.1506121457
754.1636828613	0.4883190691
756.0924902344	2.4807052612
758.0212976074	6.5783152580
759.9501049805	1.5526350737
761.8789123535	1.2231334448
763.8077197266	-0.0673980862
765.7365270996	0.2750524282
767.6653344727	0.4135241210
769.5941418457	0.8179500103
771.5229492188	0.9513811469
773.4517565918	0.3827179670
775.3805639648	0.4375540018
777.3093713379	0.8776540160
779.2381787109	0.6181713939
781.1669860840	-0.0767116025
783.0957934570	0.3968300223
785.0246008301	1.5814517736
786.9534082031	0.6911770105
788.8822155762	1.4503133297
790.8110229492	0.8909947872
792.7398303223	0.2345400155
794.6686376953	0.4028245509
796.5974450684	0.4225127399
798.5262524414	0.1553635150
800.4550598145	0.4395991862
802.3838671875	0.5405581594
804.3126745605	0.6557269096
806.2414819336	0.4608363807
808.1702893066	0.4863842130
810.0990966797	1.6601340771
812.0279040527	0.8711349368
813.9567114258	0.6899445653
815.8855187988	0.3579123616
817.8143261719	0.3954819143
819.7431335449	0.6327920556
821.6719409180	0.4778052270
823.6007482910	1.0001927614
825.5295556641	0.6219865084
827.4583630371	0.5231164694
829.3871704102	0.5518953204
831.3159777832	0.3762603700
833.2447851563	0.4429483414
835.1735925293	0.5353026390
837.1023999023	0.4985157847
839.0312072754	0.3166458905
840.9600146484	0.4617181718
842.8888220215	0.5346894860
844.8176293945	0.5586505532
846.7464367676	0.7257964015
848.6752441406	0.5601073503
850.6040515137	0.5956153870
852.5328588867	0.6179493070
854.4616662598	0.5409595370
856.3904736328	0.5273098946
858.3192810059	0.6382306814
860.2480883789	0.5598967075
862.1768957520	0.9733276963
864.1057031250	1.1968387365
866.0345104980	0.9761112928
867.9633178711	1.3056155443
869.8921252441	0.5953981280
871.8209326172	0.8317455649
873.7497399902	0.7106169462
875.6785473633	0.3895862401
877.6073547363	0.6546398401
879.5361621094	0.7538048625
881.4649694824	1.2026033401
883.3937768555	0.8287689686
885.3225842285	1.0128916502
887.2513916016	1.2828493118
889.1801989746	3.9818315506
891.1090063477	1.6828900576
893.0378137207	0.3217643797
894.9666210938	0.7524604797
896.8954284668	0.7581627369
898.8242358398	0.7093632817
900.7530432129	0.4591011703
902.6818505859	0.5164223313
904.6106579590	0.8603365421
906.5394653320	0.7336767912
908.4682727051	0.9903366566
910.3970800781	0.7163013220
912.3258874512	0.8318767548
914.2546948242	0.7954760194
916.1835021973	0.6715375185
918.1123095703	0.5807106495
920.0411169434	0.6039584875
921.9699243164	0.8208707571
923.8987316895	0.5729085207
925.8275390625	0.6139748096
927.7563464355	0.5965211987
929.6851538086	0.5935210586
931.6139611816	0.6102617979
933.5427685547	0.5418840647
935.4715759277	0.5945007801
937.4003833008	0.5140897632
939.3291906738	0.6059861183
941.2579980469	0.5574570894
943.1868054199	0.4358683228
945.1156127930	0.5026566386
947.0444201660	0.4867117107
948.9732275391	0.5148314238
950.9020349121	0.5621921420
952.8308422852	0.5009599328
954.7596496582	0.5118832588
956.6884570313	0.6194288135
958.6172644043	0.5080170631
960.5460717773	0.4835956097
962.4748791504	0.5938842893
964.4036865234	0.4803008139
966.3324938965	0.5123215318
968.2613012695	0.5775174499
970.1901086426	0.5455873609
972.1189160156	0.5007278323
974.0477233887	0.5337662697
975.9765307617	0.5783128738
977.9053381348	0.4955539703
979.8341455078	0.4645681977
981.7629528809	0.4870823622
983.6917602539	0.5283759832
985.6205676270	0.5066456795
987.5493750000	0.4976945221
989.4781823730	0.5083634257
991.4069897461	0.4832707644
993.3357971191	0.4939255416
995.2646044922	0.4989054203
997.1934118652	0.5047288537
999.1222192383	0.5024255514
1001.0510266113	0.4988888204
1002.9798339844	0.4974647462
1004.9086413574	0.4867760241
1006.8374487305	0.4885342419
1008.7662561035	0.4869067669
1010.6950634766	0.4941167533
1012.6238708496	0.4869582951
1014.5526782227	0.4867115319
1016.4814855957	0.4929562807
1018.4102929688	0.4816222489
1020.3391003418	0.4845825732
1022.2679077148	0.4802386165
1024.1967150879	0.4807600677
1026.1255224609	0.4829859734
1028.0543298340	0.4743004143
1029.9831372070	0.4754417241
1031.9119445801	0.4756756127
1033.8407519531	0.4758100808
1035.7695593262	0.4757262468
1037.6983666992	0.4783079028
1039.6271740723	0.4792526662
1041.5559814453	0.4695500135
1043.4847888184	0.4700349867
1045.4135961914	0.4798911214
1047.3424035645	0.4748053849
1049.2712109375	0.4699617326
1051.2000183105	0.4779463410
1053.1288256836	0.4734059274
1055.0576330566	0.4709940553
1056.9864404297	0.4718771279
1058.9152478027	0.4617009759
1060.8440551758	0.4697829187
1062.7728625488	0.4686138332
1064.7016699219	0.4573808610
1066.6304772949	0.4694702625
1068.5592846680	0.4695876837
1070.4880920410	0.4630863070
1072.4168994141	0.4583402872
1074.3457067871	0.4598327279
1076.2745141602	0.4705614448
1078.2033215332	0.4658553600
1080.1321289062	0.4742953777
1082.0609362793	0.4693730474
1083.9897436523	0.4523741603
1085.9185510254	0.4554786682
1087.8473583984	0.4556612372
1089.7761657715	0.4585918188
1091.7049731445	0.4556121826
1093.6337805176	0.4628021121
1095.5625878906	0.4594760239
1097.4913952637	0.4502987266
1099.4202026367	0.4570891261
1101.3490100098	0.4552744329
1103.2778173828	0.4475630820
1105.2066247559	0.4480046630
1107.1354321289	0.4674776196
1109.0642395019	0.4482662678
1110.9930468750	0.4656260610
1112.9218542480	0.4830910563
1114.8506616211	0.4275299609
1116.7794689941	0.4353449345
1118.7082763672	0.4505388141
1120.6370837402	0.4488855004
1122.5658911133	0.4604254365
1124.4946984863	0.4632491767
1126.4235058594	0.4618079364
1128.3523132324	0.4693021476
1130.2811206055	0.4568223953
1132.2099279785	0.4289504886
1134.1387353516	0.4509723485
1136.0675427246	0.4461338520
1137.9963500977	0.4545663893
1139.9251574707	0.4665407836
1141.8539648437	0.4370093048
1143.7827722168	0.4401233196
1145.7115795898	0.4366103411
1147.6403869629	0.4376501441
1149.5691943359	0.4345533550
1151.4980017090	0.4275833666
1153.4268090820	0.4427827597
1155.3556164551	0.4435324669
1157.2844238281	0.4340779483
1159.2132312012	0.4305434227
1161.1420385742	0.4338601828
1163.0708459473	0.4319688082
1164.9996533203	0.4332362711
1166.9284606934	0.4270246923
1168.8572680664	0.4227317870
1170.7860754394	0.4333210886
1172.7148828125	0.4273965657
1174.6436901855	0.4246709049
1176.5724975586	0.4240925908
1178.5013049316	0.4210995734
1180.4301123047	0.4243921041
1182.3589196777	0.4243451059
1184.2877270508	0.4258404374
1186.2165344238	0.4215203524
1188.1453417969	0.4186508358
1190.0741491699	0.4192675650
1192.0029565430	0.4150001407
1193.9317639160	0.4188131988
1195.8605712891	0.4221819341
1197.7893786621	0.4157531857
1199.7181860351	0.4152032435
1201.6469934082	0.4167746305
1203.5758007812	0.4143200219
1205.5046081543	0.4139878154
1207.4334155273	0.4141840935
1209.3622229004	0.4129407406
1211.2910302734	0.4126538634
1213.2198376465	0.4135828018
1215.1486450195	0.4106467962
1217.0774523926	0.4112024903
1219.0062597656	0.4115050137
1220.9350671387	0.4063984752
1222.8638745117	0.4092873633
1224.7926818848	0.4118539691
1226.7214892578	0.4085930884
1228.6502966308	0.4070530236
1230.5791040039	0.4091143906
1232.5079113769	0.4088444710
1234.4367187500	0.4072884023
1236.3655261230	0.4077459872
1238.2943334961	0.4043012559
1240.2231408691	0.4070503116
1242.1519482422	0.4086184502
1244.0807556152	0.4047277868
1246.0095629883	0.4036181867
1247.9383703613	0.4026278257
1249.8671777344	0.4065470994
1251.7959851074	0.4066826403
1253.7247924805	0.4039288759
1255.6535998535	0.4036517441
1257.5824072266	0.4044257104
1259.5112145996	0.4058585465
1261.4400219726	0.4042992890
1263.3688293457	0.4036215544
1265.2976367187	0.4051691592
1267.2264440918	0.4066818953
1269.1552514648	0.4029688835
1271.0840588379	0.4034073651
1273.0128662109	0.4026962519
1274.9416735840	0.3981316090
1276.8704809570	0.4024981856
1278.7992883301	0.4019679427
1280.7280957031	0.4007392526
1282.6569030762	0.4015206993
1284.5857104492	0.4013239741
1286.5145178223	0.4030898511
1288.4433251953	0.4019229412
1290.3721325683	0.3996302485
1292.3009399414	0.3976479471
1294.2297473144	0.4000340700
1296.1585546875	0.4003704190
1298.0873620605	0.3995518386
1300.0161694336	0.4013370275
1301.9449768066	0.4028119743
1303.8737841797	0.3981626928
1305.8025915527	0.3945472836
1307.7313989258	0.3987815678
1309.6602062988	0.3943743706
1311.5890136719	0.3926624060
1313.5178210449	0.3954113424
1315.4466284180	0.3953640163
1317.3754357910	0.3957876563
1319.3042431640	0.3945449293
1321.2330505371	0.3966389596
1323.1618579101	0.3982966542
1325.0906652832	0.3989799023
1327.0194726562	0.3961349428
1328.9482800293	0.3938589096
1330.8770874023	0.3931745887
1332.8058947754	0.3922171891
1334.7347021484	0.3924460411
1336.6635095215	0.3905631304
1338.5923168945	0.3926612735
1340.5211242676	0.3904717267
1342.4499316406	0.3895099461
1344.3787390137	0.3918532431
1346.3075463867	0.3897881806
1348.2363537597	0.3903804123
1350.1651611328	0.3875375390
1352.0939685058	0.3881556690
1354.0227758789	0.3898503482
1355.9515832519	0.3880873322
1357.8803906250	0.3891674280
1359.8091979980	0.3901186883
1361.7380053711	0.3922344744
1363.6668127441	0.3878467083
1365.5956201172	0.3867467642
1367.5244274902	0.3881705403
1369.4532348633	0.3837339878
1371.3820422363	0.3866498768
1373.3108496094	0.3881603181
1375.2396569824	0.3858386874
1377.1684643555	0.3867705464
1379.0972717285	0.3843428195
1381.0260791015	0.3852128088
1382.9548864746	0.3888478875
1384.8836938476	0.3872408271
1386.8125012207	0.3892869353
1388.7413085937	0.3864259422
1390.6701159668	0.3794736862
1392.5989233398	0.3850747049
1394.5277307129	0.3877826035
1396.4565380859	0.3822625577
1398.3853454590	0.3849500716
1400.3141528320	0.3849737346
1402.2429602051	0.3789296150
1404.1717675781	0.3811972141
1406.1005749512	0.3827891648
1408.0293823242	0.3803233802
1409.9581896972	0.3801551163
1411.8869970703	0.3781840205
1413.8158044433	0.3814262748
1415.7446118164	0.3797804713
1417.6734191894	0.3795269132
1419.6022265625	0.3859733045
1421.5310339355	0.3764369786
1423.4598413086	0.3758932054
1425.3886486816	0.3794748485
1427.3174560547	0.3760257363
1429.2462634277	0.3802451789
1431.1750708008	0.3800616860
1433.1038781738	0.3767528832
1435.0326855469	0.3773168325
1436.9614929199	0.3816942275
1438.8903002929	0.3797478676
1440.8191076660	0.3746570051
1442.7479150390	0.3777876794
1444.6767224121	0.3772735298
1446.6055297851	0.3746750355
1448.5343371582	0.3754725456
1450.4631445312	0.3751744628
1452.3919519043	0.3755310476
1454.3207592773	0.3773243725
1456.2495666504	0.3808102012
1458.1783740234	0.3769611716
1460.1071813965	0.3712725937
1462.0359887695	0.3688058555
1463.9647961426	0.3698358238
1465.8936035156	0.3729162216
1467.8224108886	0.3680306971
1469.7512182617	0.3673925102
1471.6800256347	0.3709154725
1473.6088330078	0.3671515286
1475.5376403808	0.3687075377
1477.4664477539	0.3668395281
1479.3952551269	0.3628756702
1481.3240625000	0.3644326031
1483.2528698730	0.3618006110
1485.1816772461	0.3612947166
1487.1104846191	0.3610629141
1489.0392919922	0.3603230417
1490.9680993652	0.3604690135
1492.8969067383	0.3550528288
1494.8257141113	0.3561546504
1496.7545214843	0.3597208858
1498.6833288574	0.3549142480
1500.6121362304	0.3543362319
1502.5409436035	0.3529494405
1504.4697509765	0.3523026109
1506.3985583496	0.3618476689
1508.3273657226	0.3558965921
1510.2561730957	0.3496009111
1512.1849804687	0.3511836231
1514.1137878418	0.3464798927
1516.0425952148	0.3484289944
1517.9714025879	0.3486262262
1519.9002099609	0.3456781805
1521.8290173340	0.3506211638
1523.7578247070	0.3446293771
1525.6866320801	0.3437105715
1527.6154394531	0.3455090523
1529.5442468261	0.3408146501
1531.4730541992	0.3405817449
1533.4018615722	0.3407921791
1535.3306689453	0.3389057517
1537.2594763183	0.3371040225
1539.1882836914	0.3429360986
1541.1170910644	0.3427497447
1543.0458984375	0.3367648423
1544.9747058105	0.3365248144
1546.9035131836	0.3316470087
1548.8323205566	0.3303454220
1550.7611279297	0.3291772604
1552.6899353027	0.3291400075
1554.6187426758	0.3298395276
1556.5475500488	0.3274037242
1558.4763574218	0.3366836905
1560.4051647949	0.3311499059
1562.3339721679	0.3215208054
1564.2627795410	0.3228690326
1566.1915869140	0.3191550672
1568.1203942871	0.3182886243
1570.0492016601	0.3200355172
1571.9780090332	0.3146787584
1573.9068164062	0.3130862415
1575.8356237793	0.3161964118
1577.7644311523	0.3121756911
1579.6932385254	0.3092067242
1581.6220458984	0.3096478283
1583.5508532715	0.3063605428
1585.4796606445	0.3041609228
1587.4084680175	0.3026187420
1589.3372753906	0.3018023968
1591.2660827636	0.3007409275
1593.1948901367	0.2976799309
1595.1236975097	0.2970782220
1597.0525048828	0.2940783799
1598.9813122558	0.2918343544
1600.9101196289	0.2929183543
1602.8389270019	0.2915118635
1604.7677343750	0.2902794480
1606.6965417480	0.2891218364
1608.6253491211	0.2868525386
1610.5541564941	0.2860088646
1612.4829638672	0.2869065702
1614.4117712402	0.2870410681
1616.3405786132	0.2886425257
1618.2693859863	0.2879846394
1620.1981933593	0.2856189013
1622.1270007324	0.2892183661
1624.0558081054	0.2904790640
1625.9846154785	0.2897790670
1627.9134228515	0.2926892638
1629.8422302246	0.2955893278
1631.7710375976	0.2969380021
1633.6998449707	0.3003886640
1635.6286523437	0.3082939684
1637.5574597168	0.3077695072
1639.4862670898	0.3095693290
1641.4150744629	0.3146038055
1643.3438818359	0.3180992305
1645.2726892090	0.3236618042
1647.2014965820	0.3297669590
1649.1303039550	0.3322423995
1651.0591113281	0.3366546631
1652.9879187011	0.3537791967
1654.9167260742	0.3483469486
1656.8455334472	0.3463975787
1658.7743408203	0.3542957306
1660.7031481933	0.3565381765
1662.6319555664	0.3649441600
1664.5607629394	0.3678802252
1666.4895703125	0.3699606061
1668.4183776855	0.3781977892
1670.3471850586	0.3831303418
1672.2759924316	0.3841929138
1674.2047998047	0.3895747960
1676.1336071777	0.3979736865
1678.0624145507	0.3969686329
1679.9912219238	0.4011850655
1681.9200292968	0.4048752189
1683.8488366699	0.4120222926
1685.7776440429	0.4177193046
1687.7064514160	0.4131007493
1689.6352587890	0.4210448265
1691.5640661621	0.4223616719
1693.4928735351	0.4251846373
1695.4216809082	0.4371002316
1697.3504882812	0.4336646795
1699.2792956543	0.4396004975
1701.2081030273	0.4447228014
1703.1369104004	0.4395841658
1705.0657177734	0.4445999861
1706.9945251464	0.4467154443
1708.9233325195	0.4451988637
1710.8521398925	0.4473166168
1712.7809472656	0.4486106038
1714.7097546386	0.4528316259
1716.6385620117	0.4571657777
1718.5673693847	0.4597089887
1720.4961767578	0.4562472105
1722.4249841308	0.4541368484
1724.3537915039	0.4590597749
1726.2825988769	0.4554805160
1728.2114062500	0.4572776854
1730.1402136230	0.4592747986
1732.0690209961	0.4582646489
1733.9978283691	0.4697062373
1735.9266357421	0.4630751312
1737.8554431152	0.4599310458
1739.7842504882	0.4619582593
1741.7130578613	0.4586112797
1743.6418652343	0.4610286653
1745.5706726074	0.4604707956
1747.4994799804	0.4604857564
1749.4282873535	0.4617537260
1751.3570947265	0.4631898105
1753.2859020996	0.4598946869
1755.2147094726	0.4581048191
1757.1435168457	0.4618731737
1759.0723242187	0.4584063292
1761.0011315918	0.4605256319
1762.9299389648	0.4612821639
1764.8587463379	0.4572607875
1766.7875537109	0.4598272145
1768.7163610839	0.4583055377
1770.6451684570	0.4600501060
1772.5739758300	0.4630797803
1774.5027832031	0.4590012133
1776.4315905761	0.4569363296
1778.3603979492	0.4562632740
1780.2892053222	0.4554973245
1782.2180126953	0.4531515539
1784.1468200683	0.4544337392
1786.0756274414	0.4554069042
1788.0044348144	0.4521391690
1789.9332421875	0.4523048401
1791.8620495605	0.4538790882
1793.7908569336	0.4528199732
1795.7196643066	0.4507218301
1797.6484716796	0.4500564933
1799.5772790527	0.4503800571
1801.5060864257	0.4505465031
1803.4348937988	0.4495104551
1805.3637011718	0.4475932717
1807.2925085449	0.4473720789
1809.2213159179	0.4481335282
1811.1501232910	0.4481889307
1813.0789306640	0.4462484717
1815.0077380371	0.4460815191
1816.9365454101	0.4460300803
1818.8653527832	0.4448199868
1820.7941601562	0.4452725649
1822.7229675293	0.4440089166
1824.6517749023	0.4444627762
1826.5805822753	0.4432829320
1828.5093896484	0.4423340559
1830.4381970214	0.4448577166
1832.3670043945	0.4413813055
1834.2958117675	0.4398306906
1836.2246191406	0.4403581023
1838.1534265136	0.4386947155
1840.0822338867	0.4375303984
1842.0110412597	0.4370939434
1843.9398486328	0.4397030473
1845.8686560058	0.4384393394
1847.7974633789	0.4360634685
1849.7262707519	0.4358312190
1851.6550781250	0.4344744980
1853.5838854980	0.4355224073
1855.5126928710	0.4346061051
1857.4415002441	0.4329539537
1859.3703076171	0.4338356555
1861.2991149902	0.4322857261
1863.2279223632	0.4319509268
1865.1567297363	0.4323126972
1867.0855371093	0.4321534038
1869.0143444824	0.4333696961
1870.9431518554	0.4313732386
1872.8719592285	0.4297287762
1874.8007666015	0.4293491542
1876.7295739746	0.4287686348
1878.6583813476	0.4286179543
1880.5871887207	0.4270260930
1882.5159960937	0.4272079170
1884.4448034667	0.4267539084
1886.3736108398	0.4257982075
1888.3024182128	0.4262476563
1890.2312255859	0.4252682328
1892.1600329589	0.4248013496
1894.0888403320	0.4234572053
1896.0176477050	0.4230445325
1897.9464550781	0.4237405062
1899.8752624511	0.4224005044
1901.8040698242	0.4218452871
1903.7328771972	0.4221772850
1905.6616845703	0.4215893447
1907.5904919433	0.4204852581
1909.5192993164	0.4195113182
1911.4481066894	0.4189601243
1913.3769140625	0.4192105234
1915.3057214355	0.4175138772
1917.2345288085	0.4173515439
1919.1633361816	0.4181299806
1921.0921435546	0.4156202972
1923.0209509277	0.4166181982
1924.9497583007	0.4154745638
1926.8785656738	0.4143133759
1928.8073730468	0.4163815379
1930.7361804199	0.4140197933
1932.6649877929	0.4134661257
1934.5937951660	0.4127608538
1936.5226025390	0.4120608270
1938.4514099121	0.4123455286
1940.3802172851	0.4115544260
1942.3090246582	0.4131919444
1944.2378320312	0.4109792709
1946.1666394042	0.4093424678
1948.0954467773	0.4093807042
1950.0242541503	0.4073781073
1951.9530615234	0.4081221223
1953.8818688964	0.4081962705
1955.8106762695	0.4071166217
1957.7394836425	0.4061940610
1959.6682910156	0.4060055017
1961.5970983886	0.4066757858
1963.5259057617	0.4051595330
1965.4547131347	0.4036845267
1967.3835205078	0.4039486945
1969.3123278808	0.4035126269
1971.2411352539	0.4018980861
1973.1699426269	0.4006249905
1975.0987499999	0.4009885192
1977.0275573730	0.4027097523
1978.9563647460	0.4009540379
1980.8851721191	0.3992065489
1982.8139794921	0.4002881050
1984.7427868652	0.3988496065
1986.6715942382	0.3982194364
1988.6004016113	0.3979168236
1990.5292089843	0.3981300294
1992.4580163574	0.3975223601
1994.3868237304	0.3964229524
1996.3156311035	0.3989053667
1998.2444384765	0.3972511888
2000.1732458496	0.3962313533
2002.1020532226	0.3956270516
2004.0308605956	0.3937023580
2005.9596679687	0.3948322535
2007.8884753417	0.3928307891
2009.8172827148	0.3924826682
2011.7460900878	0.3917030096
2013.6748974609	0.3921132088
2015.6037048339	0.3937132359
2017.5325122070	0.3909065127
2019.4613195800	0.3921281993
2021.3901269531	0.3908208013
2023.3189343261	0.3888667226
2025.2477416992	0.3900507390
2027.1765490722	0.3895147443
2029.1053564453	0.3895640671
2031.0341638183	0.3880271018
2032.9629711914	0.3880216479
2034.8917785644	0.3873604834
2036.8205859374	0.3868048191
2038.7493933105	0.3877958655
2040.6782006835	0.3861453831
2042.6070080566	0.3867267072
2044.5358154296	0.3874833286
2046.4646228027	0.3865496218
2048.3934301757	0.3857942820
2050.3222375488	0.3850799799
2052.2510449218	0.3855664134
2054.1798522949	0.3856361210
2056.1086596679	0.3846219480
2058.0374670410	0.3851917982
2059.9662744140	0.3856814504
2061.8950817871	0.3837753236
2063.8238891601	0.3838320076
2065.7526965331	0.3844114542
2067.6815039062	0.3834852576
2069.6103112792	0.3825035691
2071.5391186523	0.3825481236
2073.4679260253	0.3827359080
2075.3967333984	0.3811055720
2077.3255407714	0.3820462823
2079.2543481445	0.3823704422
2081.1831555175	0.3817819357
2083.1119628906	0.3823594451
2085.0407702636	0.3808538318
2086.9695776367	0.3812832832
2088.8983850097	0.3808226287
2090.8271923828	0.3794830143
2092.7559997558	0.3807409406
2094.6848071288	0.3814560771
2096.6136145019	0.3810372949
2098.5424218749	0.3798548877
2100.4712292480	0.3805724084
2102.4000366210	0.3814162314
2104.3288439941	0.3806729019
2106.2576513671	0.3813259304
2108.1864587402	0.3817726374
2110.1152661132	0.3803502917
2112.0440734863	0.3797380030
2113.9728808593	0.3809453845
2115.9016882324	0.3802841604
2117.8304956054	0.3790806532
2119.7593029785	0.3796655536
2121.6881103515	0.3795840740
2123.6169177245	0.3797429800
2125.5457250976	0.3802962601
2127.4745324706	0.3805247545
2129.4033398437	0.3808468878
2131.3321472167	0.3809920847
2133.2609545898	0.3805274367
2135.1897619628	0.3792964220
2137.1185693359	0.3805081844
2139.0473767089	0.3812613189
2140.9761840820	0.3801891506
2142.9049914550	0.3812741637
2144.8337988281	0.3806645870
2146.7626062011	0.3807191849
2148.6914135742	0.3816924393
2150.6202209472	0.3800618351
2152.5490283203	0.3795742691
2154.4778356933	0.3796560168
2156.4066430663	0.3804870546
2158.3354504394	0.3810270131
2160.2642578124	0.3806781769
2162.1930651855	0.3806494772
2164.1218725585	0.3808685839
2166.0506799316	0.3814116716
2167.9794873046	0.3814293742
2169.9082946777	0.3822914958
2171.8371020507	0.3816534877
2173.7659094238	0.3814017177
2175.6947167968	0.3817117214
2177.6235241699	0.3810643554
2179.5523315429	0.3823518157
2181.4811389160	0.3822652400
2183.4099462890	0.3822012544
2185.3387536620	0.3826018572
2187.2675610351	0.3829417825
2189.1963684081	0.3827026784
2191.1251757812	0.3819068372
2193.0539831542	0.3821961284
2194.9827905273	0.3810810447
2196.9115979003	0.3828048110
2198.8404052734	0.3833580911
2200.7692126464	0.3821569383
2202.6980200195	0.3834520876
2204.6268273925	0.3831814229
2206.5556347656	0.3842432797
2208.4844421386	0.3842053711
2210.4132495117	0.3835785389
2212.3420568847	0.3838809431
2214.2708642577	0.3830838799
2216.1996716308	0.3840042353
2218.1284790038	0.3841188252
2220.0572863769	0.3841626346
2221.9860937499	0.3848008513
2223.9149011230	0.3838974833
2225.8437084960	0.3840137124
2227.7725158691	0.3850741684
2229.7013232421	0.3841066957
2231.6301306152	0.3839797676
2233.5589379882	0.3853524625
2235.4877453613	0.3847343028
2237.4165527343	0.3848982453
2239.3453601074	0.3854898512
2241.2741674804	0.3847707212
2243.2029748534	0.3847710788
2245.1317822265	0.3857810497
2247.0605895995	0.3857359886
2248.9893969726	0.3848730624
2250.9182043456	0.3848203719
2252.8470117187	0.3839074075
2254.7758190917	0.3835533261
2256.7046264648	0.3843813241
2258.6334338378	0.3852543533
2260.5622412109	0.3859098256
2262.4910485839	0.3860816360
2264.4198559570	0.3850730062
2266.3486633300	0.3836259544
2268.2774707031	0.3846156597
2270.2062780761	0.3852306902
2272.1350854491	0.3851758242
2274.0638928222	0.3853212595
2275.9927001952	0.3859661818
2277.9215075683	0.3857496381
2279.8503149413	0.3837233186
2281.7791223144	0.3856290281
2283.7079296874	0.3863251507
2285.6367370605	0.3858477175
2287.5655444335	0.3865318000
2289.4943518066	0.3848114014
2291.4231591796	0.3859398365
2293.3519665527	0.3855300844
2295.2807739257	0.3844406009
2297.2095812988	0.3862805963
2299.1383886718	0.3851619959
2301.0671960449	0.3851943016
2302.9960034179	0.3865377307
2304.9248107909	0.3860993981
2306.8536181640	0.3877046704
2308.7824255370	0.3896511793
2310.7112329101	0.3877392411
2312.6400402831	0.3873972595
2314.5688476562	0.3904708922
2316.4976550292	0.3905871809
2318.4264624023	0.3907024562
2320.3552697753	0.3923382759
2322.2840771484	0.3927432597
2324.2128845214	0.3937070966
2326.1416918945	0.3948483467
2328.0704992675	0.3956574798
2329.9993066406	0.3966918588
2331.9281140136	0.3979343176
2333.8569213866	0.3981704712
2335.7857287597	0.3984797895
2337.7145361327	0.3983708620
2339.6433435058	0.3978915811
2341.5721508788	0.3991800547
2343.5009582519	0.3978491426
2345.4297656249	0.3956512809
2347.3585729980	0.3910499513
2349.2873803710	0.3872284293
2351.2161877441	0.3917422295
2353.1449951171	0.3953933418
2355.0738024902	0.3980343044
2357.0026098632	0.4019216895
2358.9314172363	0.4021568894
2360.8602246093	0.4021364748
2362.7890319823	0.4012448490
2364.7178393554	0.4019769430
2366.6466467284	0.4016392231
2368.5754541015	0.3979672492
2370.5042614745	0.3942062259
2372.4330688476	0.3938179314
2374.3618762206	0.3912778497
2376.2906835937	0.3864154518
2378.2194909667	0.3874146342
2380.1482983398	0.3848005533
2382.0771057128	0.3822024465
2384.0059130859	0.3822446465
2385.9347204589	0.3809535205
2387.8635278320	0.3815742135
2389.7923352050	0.3808499575
2391.7211425780	0.3824854493
2393.6499499511	0.3815086782
2395.5787573241	0.3804262578
2397.5075646972	0.3821997344
2399.4363720702	0.3806073964
2401.3651794433	0.3806435168
2403.2939868163	0.3803718090
2405.2227941894	0.3815346360
2407.1516015624	0.3814089000
2409.0804089355	0.3796067834
2411.0092163085	0.3798877895
2412.9380236816	0.3796137869
2414.8668310546	0.3807297647
2416.7956384277	0.3797256052
2418.7244458007	0.3791483045
2420.6532531738	0.3794648349
2422.5820605468	0.3789134622
2424.5108679198	0.3792076111
2426.4396752929	0.3792028725
2428.3684826659	0.3787664771
2430.2972900390	0.3784880340
2432.2260974120	0.3798910677
2434.1549047851	0.3787769973
2436.0837121581	0.3778127730
2438.0125195312	0.3773214817
2439.9413269042	0.3777123690
2441.8701342773	0.3782608807
2443.7989416503	0.3754533231
2445.7277490234	0.3772599101
2447.6565563964	0.3774227500
2449.5853637695	0.3778651059
2451.5141711425	0.3800747395
2453.4429785155	0.3776024282
2455.3717858886	0.3771907389
2457.3005932616	0.3756524026
2459.2294006347	0.3754319251
2461.1582080077	0.3761090040
2463.0870153808	0.3756862581
2465.0158227538	0.3773546815
2466.9446301269	0.3763507009
2468.8734374999	0.3757796586
2470.8022448730	0.3747656643
2472.7310522460	0.3720244765
2474.6598596191	0.3735145628
2476.5886669921	0.3755500615
2478.5174743652	0.3743579388
2480.4462817382	0.3742797375
2482.3750891112	0.3743547797
2484.3038964843	0.3742344975
2486.2327038573	0.3742580712
2488.1615112304	0.3720324934
2490.0903186034	0.3715796471
2492.0191259765	0.3729780316
2493.9479333495	0.3736472726
2495.8767407226	0.3718621135
2497.8055480956	0.3708894253
2499.7343554687	0.3726982474
2501.6631628417	0.3726522326
2503.5919702148	0.3716210723
2505.5207775878	0.3702591956
2507.4495849609	0.3704937100
2509.3783923339	0.3705636859
2511.3071997069	0.3699703813
2513.2360070800	0.3702359200
2515.1648144530	0.3690125048
2517.0936218261	0.3691239655
2519.0224291991	0.3699138165
2520.9512365722	0.3696263433
2522.8800439452	0.3692254722
2524.8088513183	0.3697161973
2526.7376586913	0.3692322671
2528.6664660644	0.3682684302
2530.5952734374	0.3671067059
2532.5240808105	0.3665016890
2534.4528881835	0.3667962253
2536.3816955566	0.3641457260
2538.3105029296	0.3665611446
2540.2393103027	0.3674772382
2542.1681176757	0.3665521145
2544.0969250487	0.3683926463
2546.0257324218	0.3633903861
2547.9545397948	0.3642728329
2549.8833471679	0.3658511937
2551.8121545409	0.3639880717
2553.7409619140	0.3649650216
2555.6697692870	0.3640511334
2557.5985766601	0.3649442792
2559.5273840331	0.3632926047
2561.4561914062	0.3635881543
2563.3849987792	0.3646517098
2565.3138061523	0.3632967472
2567.2426135253	0.3628822863
2569.1714208984	0.3613824248
2571.1002282714	0.3624708354
2573.0290356444	0.3611477315
2574.9578430175	0.3604951203
2576.8866503905	0.3619243801
2578.8154577636	0.3615628481
2580.7442651366	0.3609331548
2582.6730725097	0.3594377935
2584.6018798827	0.3596415520
2586.5306872558	0.3597843349
2588.4594946288	0.3607254922
2590.3883020019	0.3598228991
2592.3171093749	0.3579643965
2594.2459167480	0.3582439423
2596.1747241210	0.3581230640
2598.1035314941	0.3585909903
2600.0323388671	0.3575940728
2601.9611462401	0.3567983210
2603.8899536132	0.3555112481
2605.8187609862	0.3553038836
2607.7475683593	0.3564136624
2609.6763757323	0.3551003933
2611.6051831054	0.3547191322
2613.5339904784	0.3549880683
2615.4627978515	0.3543403447
2617.3916052245	0.3523761034
2619.3204125976	0.3526294231
2621.2492199706	0.3538366854
2623.1780273437	0.3537888229
2625.1068347167	0.3533979058
2627.0356420898	0.3523148000
2628.9644494628	0.3522375226
2630.8932568358	0.3508828580
2632.8220642089	0.3514601886
2634.7508715819	0.3513283134
2636.6796789550	0.3503887653
2638.6084863280	0.3504881561
2640.5372937011	0.3476484418
2642.4661010741	0.3481937647
2644.3949084472	0.3489499390
2646.3237158202	0.3490383923
2648.2525231933	0.3487850428
2650.1813305663	0.3474299312
2652.1101379394	0.3476975858
2654.0389453124	0.3459663391
2655.9677526855	0.3456237912
2657.8965600585	0.3450420797
2659.8253674315	0.3449984491
2661.7541748046	0.3456488848
2663.6829821776	0.3446091712
2665.6117895507	0.3445848525
2667.5405969237	0.3439001739
2669.4694042968	0.3440387845
2671.3982116698	0.3430708647
2673.3270190429	0.3423009515
2675.2558264159	0.3408458829
2677.1846337890	0.3405600786
2679.1134411620	0.3424871862
2681.0422485351	0.3398889005
2682.9710559081	0.3391923010
2684.8998632812	0.3382558823
2686.8286706542	0.3385663331
2688.7574780273	0.3398689926
2690.6862854003	0.3373832405
2692.6150927733	0.3387239277
2694.5439001464	0.3377738595
2696.4727075194	0.3376565278
2698.4015148925	0.3398297429
2700.3303222655	0.3369975686
2702.2591296386	0.3355522156
2704.1879370116	0.3351952732
2706.1167443847	0.3345982730
2708.0455517577	0.3339774907
2709.9743591308	0.3333866000
2711.9031665038	0.3335097730
2713.8319738769	0.3326706290
2715.7607812499	0.3323682249
2717.6895886230	0.3324190974
2719.6183959960	0.3318648338
2721.5472033690	0.3314332068
2723.4760107421	0.3297426999
2725.4048181151	0.3280726969
2727.3336254882	0.3281119168
2729.2624328612	0.3269659579
2731.1912402343	0.3268837035
2733.1200476073	0.3279946148
2735.0488549804	0.3266433775
2736.9776623534	0.3243558705
2738.9064697265	0.3247424662
2740.8352770995	0.3267130554
2742.7640844726	0.3250384629
2744.6928918456	0.3237738907
2746.6216992187	0.3229429126
2748.5505065917	0.3232677877
2750.4793139647	0.3241022825
2752.4081213378	0.3200175762
2754.3369287108	0.3218502998
2756.2657360839	0.3229157031
2758.1945434569	0.3183364868
2760.1233508300	0.3187247813
2762.0521582030	0.3197601438
2763.9809655761	0.3197100461
2765.9097729491	0.3170671165
2767.8385803222	0.3162040710
2769.7673876952	0.3170702159
2771.6961950683	0.3153922856
2773.6250024413	0.3155881166
2775.5538098144	0.3140586615
2777.4826171874	0.3142682612
2779.4114245604	0.3151869476
2781.3402319335	0.3126506507
2783.2690393065	0.3126114607
2785.1978466796	0.3117125630
2787.1266540526	0.3103449345
2789.0554614257	0.3108262420
2790.9842687987	0.3092941046
2792.9130761718	0.3086512983
2794.8418835448	0.3085897267
2796.7706909179	0.3055549264
2798.6994982909	0.3046820462
2800.6283056640	0.3065218627
2802.5571130370	0.3062953949
2804.4859204101	0.3049879372
2806.4147277831	0.3051018119
2808.3435351562	0.3050045371
2810.2723425292	0.3025747240
2812.2011499022	0.3016923368
2814.1299572753	0.3017622232
2816.0587646483	0.3008666635
2817.9875720214	0.3007679880
2819.9163793944	0.2998230457
2821.8451867675	0.2976229787
2823.7739941405	0.2964186072
2825.7028015136	0.2978698611
2827.6316088866	0.2978250086
2829.5604162597	0.2973771393
2831.4892236327	0.2972115874
2833.4180310058	0.2948399782
2835.3468383788	0.2951860428
2837.2756457519	0.2942151725
2839.2044531249	0.2924488485
2841.1332604979	0.2919231355
2843.0620678710	0.2901291549
2844.9908752440	0.2905280590
2846.9196826171	0.2896690369
2848.8484899901	0.2883720994
2850.7772973632	0.2881510854
2852.7061047362	0.2873477638
2854.6349121093	0.2862421572
2856.5637194823	0.2859887779
2858.4925268554	0.2868269682
2860.4213342284	0.2840934694
2862.3501416015	0.2835204005
2864.2789489745	0.2842501402
2866.2077563476	0.2823525071
2868.1365637206	0.2827861011
2870.0653710936	0.2817811668
2871.9941784667	0.2809255123
2873.9229858397	0.2812832892
2875.8517932128	0.2800486386
2877.7806005858	0.2796263993
2879.7094079589	0.2787186801
2881.6382153319	0.2765770555
2883.5670227050	0.2759887278
2885.4958300780	0.2768829763
2887.4246374511	0.2754734755
2889.3534448241	0.2735869288
2891.2822521972	0.2729300857
2893.2110595702	0.2721757889
2895.1398669433	0.2726038098
2897.0686743163	0.2709626257
2898.9974816893	0.2687363923
2900.9262890624	0.2693687379
2902.8550964354	0.2683685720
2904.7839038085	0.2684067488
2906.7127111815	0.2695230842
2908.6415185546	0.2660829425
2910.5703259276	0.2641119361
2912.4991333007	0.2644408643
2914.4279406737	0.2631335557
2916.3567480468	0.2627784312
2918.2855554198	0.2630481720
2920.2143627929	0.2618445456
2922.1431701659	0.2601726055
2924.0719775390	0.2609472573
2926.0007849120	0.2596879601
2927.9295922851	0.2578280270
2929.8583996581	0.2608461678
2931.7872070311	0.2611658573
2933.7160144042	0.2587660551
2935.6448217772	0.2594355047
2937.5736291503	0.2597373724
2939.5024365233	0.2570034862
2941.4312438964	0.2565740347
2943.3600512694	0.2558479011
2945.2888586425	0.2534773648
2947.2176660155	0.2548614144
2949.1464733886	0.2528352439
2951.0752807616	0.2513742745
2953.0040881347	0.2518340647
2954.9328955077	0.2491598278
2956.8617028808	0.2504244745
2958.7905102538	0.2508848608
2960.7193176268	0.2496984601
2962.6481249999	0.2495790124
2964.5769323729	0.2491501272
2966.5057397460	0.2494946271
2968.4345471190	0.2485870123
2970.3633544921	0.2479179800
2972.2921618651	0.2459742874
2974.2209692382	0.2437741160
2976.1497766112	0.2444336414
2978.0785839843	0.2436897308
2980.0073913573	0.2425371259
2981.9361987304	0.2426790893
2983.8650061034	0.2417381853
2985.7938134765	0.2426628321
2987.7226208495	0.2414769381
2989.6514282225	0.2388590127
2991.5802355956	0.2411633879
2993.5090429686	0.2392076403
2995.4378503417	0.2380464971
2997.3666577147	0.2393119782
2999.2954650878	0.2362529635
3001.2242724608	0.2371814549
3003.1530798339	0.2386804968
3005.0818872069	0.2386931330
3007.0106945800	0.2364712059
3008.9395019530	0.2334795892
3010.8683093261	0.2360838801
3012.7971166991	0.2374063730
3014.7259240722	0.2344523221
3016.6547314452	0.2318912297
3018.5835388182	0.2334489971
3020.5123461913	0.2332410514
3022.4411535643	0.2305318117
3024.3699609374	0.2304889709
3026.2987683104	0.2298494279
3028.2275756835	0.2302171886
3030.1563830565	0.2301423550
3032.0851904296	0.2295344621
3034.0139978026	0.2298925668
3035.9428051757	0.2276426554
3037.8716125487	0.2273645848
3039.8004199218	0.2297976315
3041.7292272948	0.2287203819
3043.6580346679	0.2272631973
3045.5868420409	0.2267203927
3047.5156494139	0.2243878245
3049.4444567870	0.2249569744
3051.3732641600	0.2260954231
3053.3020715331	0.2255651504
3055.2308789061	0.2257883400
3057.1596862792	0.2240476906
3059.0884936522	0.2225846350
3061.0173010253	0.2231806219
3062.9461083983	0.2227838337
3064.8749157714	0.2223196775
3066.8037231444	0.2232786119
3068.7325305175	0.2219077498
3070.6613378905	0.2204986960
3072.5901452636	0.2205219865
3074.5189526366	0.2195040435
3076.4477600097	0.2195533663
3078.3765673827	0.2178913653
3080.3053747557	0.2174050212
3082.2341821288	0.2187809497
3084.1629895018	0.2180411369
3086.0917968749	0.2175756246
3088.0206042479	0.2180289328
3089.9494116210	0.2191200554
3091.8782189940	0.2179405391
3093.8070263671	0.2171938270
3095.7358337401	0.2163176090
3097.6646411132	0.2147754282
3099.5934484862	0.2160467505
3101.5222558593	0.2142773122
3103.4510632323	0.2144710571
3105.3798706054	0.2155558616
3107.3086779784	0.2130854577
3109.2374853514	0.2153959572
3111.1662927245	0.2152072489
3113.0951000975	0.2135061622
3115.0239074706	0.2161597013
3116.9527148436	0.2141538411
3118.8815222167	0.2113586813
3120.8103295897	0.2113118470
3122.7391369628	0.2123257518
3124.6679443358	0.2105013579
3126.5967517089	0.2077366263
3128.5255590819	0.2121108472
3130.4543664550	0.2119145840
3132.3831738280	0.2102553397
3134.3119812011	0.2115128487
3136.2407885741	0.2095676512
3138.1695959471	0.2124373168
3140.0984033202	0.2139650583
3142.0272106932	0.2121119052
3143.9560180663	0.2113164961
3145.8848254393	0.2114569694
3147.8136328124	0.2104034275
3149.7424401854	0.2096992582
3151.6712475585	0.2117248029
3153.6000549315	0.2091936022
3155.5288623046	0.2103676796
3157.4576696776	0.2115138620
3159.3864770507	0.2099459022
3161.3152844237	0.2114527225
3163.2440917968	0.2105721831
3165.1728991698	0.2116161585
3167.1017065428	0.2111910731
3169.0305139159	0.2113000304
3170.9593212889	0.2107070237
3172.8881286620	0.2097956687
3174.8169360350	0.2117264569
3176.7457434081	0.2101179510
3178.6745507811	0.2102141827
3180.6033581542	0.2093442827
3182.5321655272	0.2096472979
3184.4609729003	0.2095727921
3186.3897802733	0.2109798044
3188.3185876464	0.2148011178
3190.2473950194	0.2116676122
3192.1762023925	0.2121103704
3194.1050097655	0.2106282413
3196.0338171386	0.2100625336
3197.9626245116	0.2138656676
3199.8914318846	0.2129921913
3201.8202392577	0.2142996490
3203.7490466307	0.2125788182
3205.6778540038	0.2122793943
3207.6066613768	0.2160583884
3209.5354687499	0.2146357745
3211.4642761229	0.2132172287
3213.3930834960	0.2166248411
3215.3218908690	0.2185016721
3217.2506982421	0.2166650295
3219.1795056151	0.2181251645
3221.1083129882	0.2182377130
3223.0371203612	0.2169394940
3224.9659277343	0.2186920792
3226.8947351073	0.2197240442
3228.8235424803	0.2204468548
3230.7523498534	0.2201901823
3232.6811572264	0.2203634530
3234.6099645995	0.2226796895
3236.5387719725	0.2235483080
3238.4675793456	0.2210972458
3240.3963867186	0.2201776057
3242.3251940917	0.2248958647
3244.2540014647	0.2259572148
3246.1828088378	0.2248496562
3248.1116162108	0.2284528315
3250.0404235839	0.2267189622
3251.9692309569	0.2279281020
3253.8980383300	0.2308758050
3255.8268457030	0.2280288637
3257.7556530760	0.2324871123
3259.6844604491	0.2324173301
3261.6132678221	0.2310706377
3263.5420751952	0.2336872965
3265.4708825682	0.2318874002
3267.3996899413	0.2355793566
3269.3284973143	0.2369315028
3271.2573046874	0.2341467440
3273.1861120604	0.2343873680
3275.1149194335	0.2356907278
3277.0437268065	0.2357445508
3278.9725341796	0.2399691790
3280.9013415526	0.2434938401
3282.8301489257	0.2374968529
3284.7589562987	0.2391762435
3286.6877636717	0.2402008176
3288.6165710448	0.2391638756
3290.5453784178	0.2449813038
3292.4741857909	0.2452731878
3294.4029931639	0.2433633804
3296.3318005370	0.2415164262
3298.2606079100	0.2450912893
3300.1894152831	0.2463789433
3302.1182226561	0.2428093106
3304.0470300292	0.2472206801
3305.9758374022	0.2521930337
3307.9046447753	0.2528640926
3309.8334521483	0.2511160970
3311.7622595214	0.2527665496
3313.6910668944	0.2531152070
3315.6198742675	0.2502679527
3317.5486816405	0.2509003878
3319.4774890135	0.2507981360
3321.4062963866	0.2508556843
3323.3351037596	0.2542551160
3325.2639111327	0.2572934628
3327.1927185057	0.2568238378
3329.1215258788	0.2596651614
3331.0503332518	0.2606427670
3332.9791406249	0.2591590583
3334.9079479979	0.2618896961
3336.8367553710	0.2622950077
3338.7655627440	0.2641023099
3340.6943701171	0.2639507651
3342.6231774901	0.2641444802
3344.5519848632	0.2678413391
3346.4807922362	0.2685385048
3348.4095996092	0.2683179379
3350.3384069823	0.2667630017
3352.2672143553	0.2715101242
3354.1960217284	0.2736268640
3356.1248291014	0.2700402439
3358.0536364745	0.2751867175
3359.9824438475	0.2770419121
3361.9112512206	0.2761237621
3363.8400585936	0.2777561843
3365.7688659667	0.2775081992
3367.6976733397	0.2802840769
3369.6264807128	0.2802088857
3371.5552880858	0.2795625031
3373.4840954589	0.2818780243
3375.4129028319	0.2840418220
3377.3417102049	0.2884345651
3379.2705175780	0.2891361713
3381.1993249510	0.2920871079
3383.1281323241	0.2928146124
3385.0569396971	0.2899315953
3386.9857470702	0.2978644669
3388.9145544432	0.2998479307
3390.8433618163	0.2979072034
3392.7721691893	0.3011372387
3394.7009765624	0.3032724261
3396.6297839354	0.3083500862
3398.5585913085	0.3092206717
3400.4873986815	0.3096393347
3402.4162060546	0.3124976456
3404.3450134276	0.3126329482
3406.2738208006	0.3142082691
3408.2026281737	0.3174060881
3410.1314355467	0.3208173513
3412.0602429198	0.3228651285
3413.9890502928	0.3255360425
3415.9178576659	0.3270409405
3417.8466650389	0.3259665668
3419.7754724120	0.3284314871
3421.7042797850	0.3337034881
3423.6330871581	0.3362031877
3425.5618945311	0.3376363516
3427.4907019042	0.3395003080
3429.4195092772	0.3401975036
3431.3483166503	0.3414422572
3433.2771240233	0.3427659571
3435.2059313963	0.3458085358
3437.1347387694	0.3492069244
3439.0635461424	0.3523758948
3440.9923535155	0.3554174900
3442.9211608885	0.3575606048
3444.8499682616	0.3617416620
3446.7787756346	0.3602867126
3448.7075830077	0.3607833982
3450.6363903807	0.3674034178
3452.5651977538	0.3676277399
3454.4940051268	0.3688524961
3456.4228124999	0.3718819916
3458.3516198729	0.3737820685
3460.2804272460	0.3773687184
3462.2092346190	0.3801071048
3464.1380419921	0.3826056719
3466.0668493651	0.3840714693
3467.9956567381	0.3866324127
3469.9244641112	0.3889060616
3471.8532714842	0.3857035637
3473.7820788573	0.3876079917
3475.7108862303	0.3955535591
3477.6396936034	0.3968633115
3479.5685009764	0.3987728953
3481.4973083495	0.4022642374
3483.4261157225	0.4039129615
3485.3549230956	0.4075523615
3487.2837304686	0.4074864686
3489.2125378417	0.4094116986
3491.1413452147	0.4123193920
3493.0701525878	0.4132397175
3494.9989599608	0.4190979600
3496.9277673338	0.4213746488
3498.8565747069	0.4212042391
3500.7853820799	0.4250343740
3502.7141894530	0.4299486578
3504.6429968260	0.4332639277
3506.5718041991	0.4330459535
3508.5006115721	0.4349868000
3510.4294189452	0.4388040602
3512.3582263182	0.4395780563
3514.2870336913	0.4396997988
3516.2158410643	0.4414644539
3518.1446484374	0.4447028041
3520.0734558104	0.4475849569
3522.0022631835	0.4496973753
3523.9310705565	0.4506290257
3525.8598779295	0.4543266892
3527.7886853026	0.4597909153
3529.7174926756	0.4595672786
3531.6463000487	0.4628081620
3533.5751074217	0.4664044380
3535.5039147948	0.4658752680
3537.4327221678	0.4707322717
3539.3615295409	0.4713326097
3541.2903369139	0.4732834101
3543.2191442870	0.4793671370
3545.1479516600	0.4804190099
3547.0767590331	0.4832496345
3549.0055664061	0.4838019907
3550.9343737792	0.4860756695
3552.8631811522	0.4878886938
3554.7919885252	0.4886688590
3556.7207958983	0.4957138598
3558.6496032713	0.4954974651
3560.5784106444	0.4962165654
3562.5072180174	0.5026413202
3564.4360253905	0.5059255362
3566.3648327635	0.5091178417
3568.2936401366	0.5087912083
3570.2224475096	0.5081614852
3572.1512548827	0.5089129806
3574.0800622557	0.5122781396
3576.0088696288	0.5160527229
3577.9376770018	0.5170809031
3579.8664843749	0.5188180804
3581.7952917479	0.5193777680
3583.7240991210	0.5222932100
3585.6529064940	0.5277812481
3587.5817138670	0.5338299870
3589.5105212401	0.5351294279
3591.4393286131	0.5342680812
3593.3681359862	0.5395100713
3595.2969433592	0.5398390293
3597.2257507323	0.5385215282
3599.1545581053	0.5436605215
3601.0833654784	0.5447348356
3603.0121728514	0.5434959531
3604.9409802245	0.5483086109
3606.8697875975	0.5521302223
3608.7985949706	0.5524583459
3610.7274023436	0.5574724078
3612.6562097167	0.5598261356
3614.5850170897	0.5613178015
3616.5138244627	0.5649064779
3618.4426318358	0.5673112273
3620.3714392088	0.5716212988
3622.3002465819	0.5690781474
3624.2290539549	0.5696002245
3626.1578613280	0.5758807659
3628.0866687010	0.5793417096
3630.0154760741	0.5873846412
3631.9442834471	0.5854410529
3633.8730908202	0.5825605392
3635.8018981932	0.5882412791
3637.7307055663	0.5878945589
3639.6595129393	0.5895453095
3641.5883203124	0.5976464152
3643.5171276854	0.6000251770
3645.4459350584	0.6026617289
3647.3747424315	0.6088025570
3649.3035498045	0.6155338883
3651.2323571776	0.6176152825
3653.1611645506	0.6144234538
3655.0899719237	0.6215807199
3657.0187792967	0.6265621781
3658.9475866698	0.6247642636
3660.8763940428	0.6317995191
3662.8052014159	0.6326566339
3664.7340087889	0.6354612708
3666.6628161620	0.6403858066
3668.5916235350	0.6436382532
3670.5204309081	0.6545148492
3672.4492382811	0.6522024274
3674.3780456541	0.6559724212
3676.3068530272	0.6676494479
3678.2356604002	0.6642966270
3680.1644677733	0.6633614302
3682.0932751463	0.6608542204
3684.0220825194	0.6602934599
3685.9508898924	0.6645913124
3687.8796972655	0.6674848199
3689.8085046385	0.6704512835
3691.7373120116	0.6724078655
3693.6661193846	0.6713047624
3695.5949267577	0.6695963740
3697.5237341307	0.6699726582
3699.4525415038	0.6697933674
3701.3813488768	0.6725893021
3703.3101562499	0.6762638688
3705.2389636229	0.6695511937
3707.1677709959	0.6657652855
3709.0965783690	0.6701959968
3711.0253857420	0.6707845926
3712.9541931151	0.6709121466
3714.8830004881	0.6694476008
3716.8118078612	0.6693044305
3718.7406152342	0.6653552055
3720.6694226073	0.6596121788
3722.5982299803	0.6650615335
3724.5270373534	0.6670864224
3726.4558447264	0.6680181623
3728.3846520995	0.6629374623
3730.3134594725	0.6555693746
3732.2422668456	0.6611512303
3734.1710742186	0.6607562304
3736.0998815916	0.6570165157
3738.0286889647	0.6603346467
3739.9574963377	0.6581800580
3741.8863037108	0.6480729580
3743.8151110838	0.6548776627
3745.7439184569	0.6657098532
3747.6727258299	0.6491500735
3749.6015332030	0.6529647708
3751.5303405760	0.6555010080
3753.4591479491	0.6499713659
3755.3879553221	0.6485623717
3757.3167626952	0.6394498348
3759.2455700682	0.6472513080
3761.1743774413	0.6446993351
3763.1031848143	0.6399259567
3765.0319921873	0.6419771910
3766.9607995604	0.6362343431
3768.8896069334	0.6407519579
3770.8184143065	0.6389102340
3772.7472216795	0.6404103041
3774.6760290526	0.6363148689
3776.6048364256	0.6289195418
3778.5336437987	0.6390384436
3780.4624511717	0.6353241205
3782.3912585448	0.6297553778
3784.3200659178	0.6300159693
3786.2488732909	0.6311693788
3788.1776806639	0.6322444081
3790.1064880370	0.6233427525
3792.0352954100	0.6220592260
3793.9641027830	0.6238849163
3795.8929101561	0.6238718033
3797.8217175291	0.6206728816
3799.7505249022	0.6191561222
3801.6793322752	0.6320124269
3803.6081396483	0.6268799901
3805.5369470213	0.6206409335
3807.4657543944	0.6255702972
3809.3945617674	0.6176580191
3811.3233691405	0.6194356084
3813.2521765135	0.6181430221
3815.1809838866	0.6140293479
3817.1097912596	0.6239948273
3819.0385986327	0.6146297455
3820.9674060057	0.6121882796
3822.8962133787	0.6155750155
3824.8250207518	0.6073285341
3826.7538281248	0.6085036397
3828.6826354979	0.6067415476
3830.6114428709	0.6076648831
3832.5402502440	0.6095365286
3834.4690576170	0.6057790518
3836.3978649901	0.6080030203
3838.3266723631	0.6089638472
3840.2554797362	0.6099740267
3842.1842871092	0.6055974364
3844.1130944823	0.6044135690
3846.0419018553	0.6043364406
3847.9707092284	0.5989173055
3849.8995166014	0.6035501957
3851.8283239745	0.6081767678
3853.7571313475	0.6125692129
3855.6859387205	0.6065519452
3857.6147460936	0.5986925960
3859.5435534666	0.5986259580
3861.4723608397	0.5941104889
3863.4011682127	0.5983833671
3865.3299755858	0.6024090052
3867.2587829588	0.5953232646
3869.1875903319	0.5999684930
3871.1163977049	0.6024098396
3873.0452050780	0.5981080532
3874.9740124510	0.5958823562
3876.9028198241	0.5899044275
3878.8316271971	0.5908905268
3880.7604345702	0.5937149525
3882.6892419432	0.5931455493
3884.6180493162	0.5948318243
3886.5468566893	0.5933424234
3888.4756640623	0.5874156356
3890.4044714354	0.5875990987
3892.3332788084	0.5941406488
3894.2620861815	0.5888657570
3896.1908935545	0.5836446881
3898.1197009276	0.5901866555
3900.0485083006	0.5912241340
3901.9773156737	0.5901531577
3903.9061230467	0.5920057893
3905.8349304198	0.5843161941
3907.7637377928	0.5799910426
3909.6925451659	0.5822342038
3911.6213525389	0.5808770061
3913.5501599119	0.5779042244
3915.4789672850	0.5768649578
3917.4077746580	0.5837150812
3919.3365820311	0.5887439847
3921.2653894041	0.5833005309
3923.1941967772	0.5788137913
3925.1230041502	0.5773266554
3927.0518115233	0.5790708661
3928.9806188963	0.5790277123
3930.9094262694	0.5776874423
3932.8382336424	0.5768027306
3934.7670410155	0.5769027472
3936.6958483885	0.5794512630
3938.6246557616	0.5776416659
3940.5534631346	0.5774367452
3942.4822705076	0.5756692886
3944.4110778807	0.5743529797
3946.3398852537	0.5757756829
3948.2686926268	0.5728690624
3950.1974999998	0.5725771785
3952.1263073729	0.5724352002
3954.0551147459	0.5756986737
3955.9839221190	0.5715332031
3957.9127294920	0.5660225153
3959.8415368651	0.5715695620
3961.7703442381	0.5682041645
3963.6991516112	0.5673539042
3965.6279589842	0.5706158876
3967.5567663573	0.5716133118
3969.4855737303	0.5710574389
3971.4143811034	0.5697745681
3973.3431884764	0.5723808408
3975.2719958494	0.5652413964
3977.2008032225	0.5613638759
3979.1296105955	0.5671371818
3981.0584179686	0.5704275370
3982.9872253416	0.5687299967
3984.9160327147	0.5643302798
3986.8448400877	0.5650854111
3988.7736474608	0.5639614463
3990.7024548338	0.5629960895
3992.6312622069	0.5675071478
3994.5600695799	0.5674891472
3996.4888769530	0.5616773963
3998.4176843260	0.5628500581
4000.3464916991	0.5672903061
4002.2752990721	0.5653801560
4004.2041064451	0.5645355582
4006.1329138182	0.5632399321
4008.0617211912	0.5621411204
4009.9905285643	0.5607053041
4011.9193359373	0.5600147247
4013.8481433104	0.5608761907
4015.7769506834	0.5580805540
4017.7057580565	0.5619499683
4019.6345654295	0.5636641383
4021.5633728026	0.5568555593
4023.4921801756	0.5582985282
4025.4209875487	0.5605729222
4027.3497949217	0.5577713847
4029.2786022948	0.5613588095
4031.2074096678	0.5608085990
4033.1362170408	0.5566552281
4035.0650244139	0.5616068244
4036.9938317869	0.5626544952
4038.9226391600	0.5591244698
4040.8514465330	0.5574266315
4042.7802539061	0.5609090328
4044.7090612791	0.5615726113
4046.6378686522	0.5559474826
4048.5666760252	0.5593693852
4050.4954833983	0.5560600758
4052.4242907713	0.5518671870
4054.3530981444	0.5574032664
4056.2819055174	0.5540915132
4058.2107128905	0.5511155725
4060.1395202635	0.5538611412
4062.0683276365	0.5545315146
4063.9971350096	0.5555170178
4065.9259423826	0.5576471686
4067.8547497557	0.5517163277
4069.7835571287	0.5485343337
4071.7123645018	0.5535005331
4073.6411718748	0.5482097864
4075.5699792479	0.5485997796
4077.4987866209	0.5543903112
4079.4275939940	0.5501760840
4081.3564013670	0.5482617617
4083.2852087401	0.5471319556
4085.2140161131	0.5472651720
4087.1428234862	0.5491988659
4089.0716308592	0.5472986102
4091.0004382323	0.5502695441
4092.9292456053	0.5535612106
4094.8580529783	0.5506067276
4096.7868603514	0.5498333573
4098.7156677244	0.5476806164
4100.6444750975	0.5510339141
4102.5732824705	0.5570163131
4104.5020898436	0.5509911180
4106.4308972166	0.5537654757
4108.3597045897	0.5569814444
4110.2885119627	0.5489758253
4112.2173193358	0.5480777025
4114.1461267088	0.5478289127
4116.0749340819	0.5473104119
4118.0037414549	0.5479132533
4119.9325488280	0.5489469171
4121.8613562010	0.5480465889
4123.7901635740	0.5442690253
4125.7189709471	0.5475627184
4127.6477783201	0.5492270589
4129.5765856932	0.5490105748
4131.5053930662	0.5460598469
4133.4342004393	0.5413472056
4135.3630078123	0.5460863709
4137.2918151854	0.5497489572
4139.2206225584	0.5515653491
4141.1494299315	0.5511325002
4143.0782373045	0.5467724204
4145.0070446776	0.5444067121
4146.9358520506	0.5415186286
4148.8646594237	0.5422257185
4150.7934667967	0.5440524817
4152.7222741697	0.5437740088
4154.6510815428	0.5449471474
4156.5798889158	0.5443986058
4158.5086962889	0.5415844917
4160.4375036619	0.5401909351
4162.3663110350	0.5414786339
4164.2951184080	0.5442624092
4166.2239257811	0.5463753939
4168.1527331541	0.5452619195
4170.0815405272	0.5418540239
4172.0103479002	0.5418182611
4173.9391552733	0.5450996161
4175.8679626463	0.5409870744
4177.7967700194	0.5379604697
4179.7255773924	0.5407553911
4181.6543847654	0.5385613441
4183.5831921385	0.5410700440
4185.5119995115	0.5437393785
4187.4408068846	0.5418091416
4189.3696142576	0.5409445763
4191.2984216307	0.5394697189
4193.2272290037	0.5407372713
4195.1560363768	0.5385100842
4197.0848437498	0.5358371735
4199.0136511229	0.5374991894
4200.9424584959	0.5393100381
4202.8712658690	0.5386582613
4204.8000732420	0.5396791697
4206.7288806151	0.5403180122
4208.6576879881	0.5357861519
4210.5864953611	0.5379222035
4212.5153027342	0.5382167697
4214.4441101072	0.5414707065
4216.3729174803	0.5462608933
4218.3017248533	0.5397602916
4220.2305322264	0.5377968550
4222.1593395994	0.5338072777
4224.0881469725	0.5345992446
4226.0169543455	0.5403609276
4227.9457617186	0.5380565524
4229.8745690916	0.5349646807
4231.8033764647	0.5356875658
4233.7321838377	0.5406933427
4235.6609912108	0.5391658545
4237.5897985838	0.5397623777
4239.5186059569	0.5404080153
4241.4474133299	0.5387404561
4243.3762207029	0.5398380160
4245.3050280760	0.5374985337
4247.2338354490	0.5372920036
4249.1626428221	0.5321866870
4251.0914501951	0.5335351825
4253.0202575682	0.5400283337
4254.9490649412	0.5402112603
4256.8778723143	0.5372965336
4258.8066796873	0.5341535211
4260.7354870604	0.5378210545
4262.6642944334	0.5313266516
4264.5931018065	0.5291320086
4266.5219091795	0.5321178436
4268.4507165526	0.5305352807
4270.3795239256	0.5365660787
4272.3083312986	0.5361945629
4274.2371386717	0.5389625430
4276.1659460447	0.5363132954
4278.0947534178	0.5287619233
4280.0235607908	0.5369164944
4281.9523681639	0.5405653119
4283.8811755369	0.5360563993
4285.8099829100	0.5364723206
4287.7387902830	0.5329322219
4289.6675976561	0.5277037621
4291.5964050291	0.5341197252
4293.5252124022	0.5289757848
4295.4540197752	0.5259448886
4297.3828271483	0.5362245440
4299.3116345213	0.5348173380
4301.2404418943	0.5331665874
4303.1692492674	0.5272510648
4305.0980566404	0.5294628143
4307.0268640135	0.5318368673
4308.9556713865	0.5304620266
4310.8844787596	0.5343291163
4312.8132861326	0.5231163502
4314.7420935057	0.5360001326
4316.6709008787	0.5454040170
4318.5997082518	0.5296328664
4320.5285156248	0.5329251289
4322.4573229979	0.5350871086
4324.3861303709	0.5312884450
4326.3149377440	0.5285814404
4328.2437451170	0.5341042280
4330.1725524900	0.5313093066
4332.1013598631	0.5226869583
4334.0301672361	0.5323026180
4335.9589746092	0.5301249623
4337.8877819822	0.5262746811
4339.8165893553	0.5293317437
4341.7453967283	0.5271682143
4343.6742041014	0.5298539996
4345.6030114744	0.5320356488
4347.5318188475	0.5325652361
4349.4606262205	0.5352204442
4351.3894335936	0.5331419110
4353.3182409666	0.5324131846
4355.2470483397	0.5348058939
4357.1758557127	0.5223556161
4359.1046630858	0.5194942951
4361.0334704588	0.5248802304
4362.9622778318	0.5282807350
4364.8910852049	0.5384672880
4366.8198925779	0.5253117085
4368.7486999510	0.5220623016
4370.6775073240	0.5328175426
4372.6063146971	0.5300245285
4374.5351220701	0.5280026197
4376.4639294432	0.5219137669
4378.3927368162	0.5267978907
4380.3215441893	0.5247163773
4382.2503515623	0.5159986019
4384.1791589354	0.5216389298
4386.1079663084	0.5232663751
4388.0367736815	0.5224999189
4389.9655810545	0.5262518525
4391.8943884275	0.5305475593
4393.8231958006	0.5234000087
4395.7520031736	0.5247998238
4397.6808105467	0.5342968106
4399.6096179197	0.5322095156
4401.5384252928	0.5301986337
4403.4672326658	0.5272737741
4405.3960400389	0.5276052356
4407.3248474119	0.5226594806
4409.2536547850	0.5181030035
4411.1824621580	0.5210275650
4413.1112695311	0.5242493153
4415.0400769041	0.5252774358
4416.9688842772	0.5207466483
4418.8976916502	0.5286511779
4420.8264990232	0.5253138542
4422.7553063963	0.5187436342
4424.6841137693	0.5278529525
4426.6129211424	0.5199931264
4428.5417285154	0.5214930773
4430.4705358885	0.5326307416
4432.3993432615	0.5226515532
4434.3281506346	0.5135450959
4436.2569580076	0.5169749260
4438.1857653807	0.5227857232
4440.1145727537	0.5240688920
4442.0433801268	0.5213178992
4443.9721874998	0.5218444467
4445.9009948729	0.5195847154
4447.8298022459	0.5192264915
4449.7586096189	0.5227178335
4451.6874169920	0.5221173763
4453.6162243650	0.5302602649
4455.5450317381	0.5223357081
4457.4738391111	0.5173910260
4459.4026464842	0.5316846371
4461.3314538572	0.5261037350
4463.2602612303	0.5263919234
4465.1890686033	0.5208477974
4467.1178759764	0.5215979815
4469.0466833494	0.5333762765
4470.9754907225	0.5175096989
4472.9042980955	0.5185006261
4474.8331054686	0.5260404348
4476.7619128416	0.5274031758
4478.6907202147	0.5301269889
4480.6195275877	0.5245708227
4482.5483349607	0.5239136219
4484.4771423338	0.5245549083
4486.4059497068	0.5249449611
4488.3347570799	0.5197073221
4490.2635644529	0.5184008479
4492.1923718260	0.5164121985
4494.1211791990	0.5225369930
4496.0499865721	0.5287976265
4497.9787939451	0.5120955706
4499.9076013182	0.5180829167
4501.8364086912	0.5300573111
4503.7652160643	0.5277003646
4505.6940234373	0.5240001082
4507.6228308104	0.5177487731
4509.5516381834	0.5250415802
4511.4804455564	0.5280867219
4513.4092529295	0.5170553923
4515.3380603025	0.5145804882
4517.2668676756	0.5169919133
4519.1956750486	0.5067741275
4521.1244824217	0.5187691450
4523.0532897947	0.5270987153
4524.9820971678	0.5132179260
4526.9109045408	0.5263200998
4528.8397119139	0.5194406509
4530.7685192869	0.5128118396
4532.6973266600	0.5181734562
4534.6261340330	0.5084599853
4536.5549414061	0.5162640810
4538.4837487791	0.5192048550
4540.4125561521	0.5290979147
4542.3413635252	0.5288645029
4544.2701708982	0.5156135559
4546.1989782713	0.5249189138
4548.1277856443	0.5245668888
4550.0565930174	0.5212488174
4551.9854003904	0.5230035782
4553.9142077635	0.5232952833
4555.8430151365	0.5204508305
4557.7718225096	0.5171347857
4559.7006298826	0.5212357640
4561.6294372557	0.5207991004
4563.5582446287	0.5180274248
4565.4870520018	0.5185422301
4567.4158593748	0.5135819912
4569.3446667478	0.5112177730
4571.2734741209	0.5225099921
4573.2022814939	0.5182366371
4575.1310888670	0.5172868967
4577.0598962400	0.5230617523
4578.9887036131	0.5159935951
4580.9175109861	0.5250949264
4582.8463183592	0.5161958337
4584.7751257322	0.5085365772
4586.7039331053	0.5161446929
4588.6327404783	0.5103358030
4590.5615478514	0.5147406459
4592.4903552244	0.5150188804
4594.4191625975	0.5176376104
4596.3479699705	0.5196968317
4598.2767773435	0.5174651146
4600.2055847166	0.5202776790
4602.1343920896	0.5171301961
4604.0631994627	0.5155251622
4605.9920068357	0.5103037953
4607.9208142088	0.5136959553
4609.8496215818	0.5199158788
4611.7784289549	0.5166203976
4613.7072363279	0.5165162683
4615.6360437010	0.5221751928
4617.5648510740	0.5166428089
4619.4936584471	0.5089178681
4621.4224658201	0.5186231136
4623.3512731932	0.5124912262
4625.2800805662	0.5130320191
4627.2088879393	0.5252408981
4629.1376953123	0.5192320943
4631.0665026853	0.5195885897
4632.9953100584	0.5196568370
4634.9241174314	0.5109375119
4636.8529248045	0.5066391230
4638.7817321775	0.5131235123
4640.7105395506	0.5146821141
4642.6393469236	0.5185564160
4644.5681542967	0.5194154382
4646.4969616697	0.5089612603
4648.4257690428	0.5166047812
4650.3545764158	0.5241988897
4652.2833837889	0.5237889886
4654.2121911619	0.5163756013
4656.1409985350	0.5160278678
4658.0698059080	0.5198035836
4659.9986132810	0.5103999376
4661.9274206541	0.5162951350
4663.8562280271	0.5270883441
4665.7850354002	0.5245879889
4667.7138427732	0.5084413886
4669.6426501463	0.5078369379
4671.5714575193	0.5192164183
4673.5002648924	0.5238060355
4675.4290722654	0.5243275762
4677.3578796385	0.5150727034
4679.2866870115	0.5279042721
4681.2154943846	0.5202701092
4683.1443017576	0.5080579519
4685.0731091307	0.5198688507
4687.0019165037	0.5144956708
4688.9307238767	0.5202490687
4690.8595312498	0.5160025358
4692.7883386228	0.5136408806
4694.7171459959	0.5193616152
4696.6459533689	0.5089316964
4698.5747607420	0.5156279206
4700.5035681150	0.5176490545
4702.4323754881	0.5102571845
4704.3611828611	0.5157402754
4706.2899902342	0.5144891739
4708.2187976072	0.5122219324
4710.1476049803	0.5240831971
4712.0764123533	0.5166090131
4714.0052197264	0.5201523304
4715.9340270994	0.5239966512
4717.8628344724	0.5011889338
4719.7916418455	0.5231580138
4721.7204492185	0.5259057879
4723.6492565916	0.5014047027
4725.5780639646	0.5064496994
4727.5068713377	0.5110149384
4729.4356787107	0.5153801441
4731.3644860838	0.5113329291
4733.2932934568	0.5221411586
4735.2221008299	0.5191591978
4737.1509082029	0.5060331821
4739.0797155760	0.5175502300
4741.0085229490	0.5130167007
4742.9373303221	0.5129958987
4744.8661376951	0.5118499398
4746.7949450682	0.5059683919
4748.7237524412	0.5066103935
4750.6525598142	0.5111189485
4752.5813671873	0.5146334171
4754.5101745603	0.5066616535
4756.4389819334	0.5170946717
4758.3677893064	0.5136500597
4760.2965966795	0.5081013441
4762.2254040525	0.5155673027
4764.1542114256	0.5095015168
4766.0830187986	0.5287802815
4768.0118261717	0.5305945277
4769.9406335447	0.5074040890
4771.8694409178	0.4992082715
4773.7982482908	0.5063050985
4775.7270556639	0.5184644461
4777.6558630369	0.4993237257
4779.5846704099	0.5012862086
4781.5134777830	0.5098629594
4783.4422851560	0.5083578229
4785.3710925291	0.5248327255
4787.2998999021	0.5075830221
4789.2287072752	0.5095464587
4791.1575146482	0.5125191212
4793.0863220213	0.4971323907
4795.0151293943	0.5115166903
4796.9439367674	0.5068808794
4798.8727441404	0.5151600242
4800.8015515135	0.5192644000
4802.7303588865	0.5092473030
4804.6591662596	0.5197276473
4806.5879736326	0.5131614804
4808.5167810056	0.5156017542
4810.4455883787	0.5161360502
4812.3743957517	0.5086048245
4814.3032031248	0.5075862408
4816.2320104978	0.5040851831
4818.1608178709	0.5111072063
4820.0896252439	0.5126306415
4822.0184326170	0.5092244148
4823.9472399900	0.5037830472
4825.8760473631	0.5052031279
4827.8048547361	0.5163154006
4829.7336621092	0.5088553429
4831.6624694822	0.5070042014
4833.5912768553	0.5197401643
4835.5200842283	0.5106816888
4837.4488916013	0.5085883141
4839.3776989744	0.5165010691
4841.3065063474	0.5065661669
4843.2353137205	0.5109973550
4845.1641210935	0.5122352242
4847.0929284666	0.5050684810
4849.0217358396	0.5068938732
4850.9505432127	0.5118204951
4852.8793505857	0.5177551508
4854.8081579588	0.5069288015
4856.7369653318	0.5079141855
4858.6657727049	0.5108191371
4860.5945800779	0.5021427870
4862.5233874510	0.5085111856
4864.4521948240	0.5126852989
4866.3810021971	0.5132575631
4868.3098095701	0.5197048783
4870.2386169431	0.5089575648
4872.1674243162	0.4936121702
4874.0962316892	0.5216375589
4876.0250390623	0.5219821930
4877.9538464353	0.4951510727
4879.8826538084	0.5061268806
4881.8114611814	0.5057897568
4883.7402685545	0.5095616579
4885.6690759275	0.5050192475
4887.5978833006	0.4991253316
4889.5266906736	0.5059135556
4891.4554980467	0.4975587428
4893.3843054197	0.5012877584
4895.3131127928	0.4973043203
4897.2419201658	0.5061842799
4899.1707275388	0.5105908513
4901.0995349119	0.5033593178
4903.0283422849	0.5152696371
4904.9571496580	0.5077293515
4906.8859570310	0.5114768744
4908.8147644041	0.5139344335
4910.7435717771	0.5008553863
4912.6723791502	0.5013959408
4914.6011865232	0.5088221431
4916.5299938963	0.5087895989
4918.4588012693	0.5002363324
4920.3876086424	0.5120167136
4922.3164160154	0.5133517981
4924.2452233885	0.5066796541
4926.1740307615	0.5114079118
4928.1028381345	0.5051813126
4930.0316455076	0.5014608502
4931.9604528806	0.5069761872
4933.8892602537	0.5179768801
4935.8180676267	0.5129424334
4937.7468749998	0.5045093298
4939.6756823728	0.5062624812
4941.6044897459	0.5160900950
4943.5332971189	0.5248957276
4945.4621044920	0.5052799582
4947.3909118650	0.5062495470
4949.3197192381	0.5172584653
4951.2485266111	0.5044549704
4953.1773339842	0.5045008063
4955.1061413572	0.5064388514
4957.0349487302	0.4992219508
4958.9637561033	0.4975100756
4960.8925634763	0.5010051727
4962.8213708494	0.4984080195
4964.7501782224	0.5054227114
4966.6789855955	0.5100424886
4968.6077929685	0.5033010840
4970.5366003416	0.5064722300
4972.4654077146	0.5090540648
4974.3942150877	0.5182307959
4976.3230224607	0.5148729086
4978.2518298338	0.5077369213
4980.1806372068	0.5074574947
4982.1094445799	0.5010540485
4984.0382519529	0.5033012629
4985.9670593259	0.5001287460
4987.8958666990	0.5008376837
4989.8246740720	0.4993477762
4991.7534814451	0.5074977279
4993.6822888181	0.5074357390
4995.6110961912	0.4957991242
4997.5399035642	0.5088878274
4999.4687109373	0.5039321184
5001.3975183103	0.5126567483
5003.3263256834	0.5164402723
5005.2551330564	0.5064304471
5007.1839404295	0.4971572161
5009.1127478025	0.4862811267
5011.0415551756	0.5095655918
5012.9703625486	0.4979865849
5014.8991699217	0.4969731271
5016.8279772947	0.4990970790
5018.7567846677	0.4962483943
5020.6855920408	0.5195990801
5022.6143994138	0.4950874448
5024.5432067869	0.4971972704
5026.4720141599	0.4935344756
5028.4008215330	0.4837719798
5030.3296289060	0.5005413890
5032.2584362791	0.5025016665
5034.1872436521	0.5208105445
5036.1160510252	0.5119156241
5038.0448583982	0.5109717846
5039.9736657713	0.5168327689
5041.9024731443	0.5113440156
5043.8312805174	0.5083509088
5045.7600878904	0.4983061254
5047.6888952634	0.4999897182
5049.6177026365	0.4952272475
5051.5465100095	0.5000020266
5053.4753173826	0.5007197261
5055.4041247556	0.5094564557
5057.3329321287	0.5193186998
5059.2617395017	0.5227807164
5061.1905468748	0.5237124562
5063.1193542478	0.5093571544
5065.0481616209	0.5220985413
5066.9769689939	0.5178029537
5068.9057763670	0.5115669370
5070.8345837400	0.5031169653
5072.7633911131	0.4882248640
5074.6921984861	0.4960204959
5076.6210058591	0.4940153956
5078.5498132322	0.4961682856
5080.4786206052	0.4980389178
5082.4074279783	0.5191199183
5084.3362353513	0.5000016093
5086.2650427244	0.4913127422
5088.1938500974	0.5220873952
5090.1226574705	0.5033426285
5092.0514648435	0.5297308564
5093.9802722166	0.5335013270
5095.9090795896	0.5026293993
5097.8378869627	0.5023638606
5099.7666943357	0.5005646348
5101.6955017088	0.5061382651
5103.6243090818	0.4898675382
5105.5531164548	0.5051532388
5107.4819238279	0.5140622854
5109.4107312009	0.5040263534
5111.3395385740	0.5163819790
5113.2683459470	0.5030958056
5115.1971533201	0.4993976057
5117.1259606931	0.4934524298
5119.0547680662	0.4948202968
5120.9835754392	0.5013195276
5122.9123828123	0.4834982455
5124.8411901853	0.4845116735
5126.7699975584	0.4824561477
5128.6988049314	0.4897456467
5130.6276123045	0.5044218898
5132.5564196775	0.4905406237
5134.4852270506	0.4967179298
5136.4140344236	0.5044687390
5138.3428417966	0.5122134686
5140.2716491697	0.5251450539
5142.2004565427	0.5093677640
5144.1292639158	0.5017304420
5146.0580712888	0.4968550503
5147.9868786619	0.4996926188
5149.9156860349	0.5068221688
5151.8444934080	0.5106020570
5153.7733007810	0.5127703547
5155.7021081541	0.4992278814
5157.6309155271	0.5098896623
5159.5597229002	0.5019194484
5161.4885302732	0.4918296337
5163.4173376463	0.5077028275
5165.3461450193	0.5129451752
5167.2749523923	0.5110430717
5169.2037597654	0.5117914081
5171.1325671384	0.5276861787
5173.0613745115	0.4872081280
5174.9901818845	0.4698262811
5176.9189892576	0.4944559932
5178.8477966306	0.4892420173
5180.7766040037	0.5099205375
5182.7054113767	0.4962228239
5184.6342187498	0.4917603731
5186.5630261228	0.5232826471
5188.4918334959	0.5032482147
5190.4206408689	0.5015563369
5192.3494482420	0.5254161954
5194.2782556150	0.5111994743
5196.2070629880	0.5096590519
5198.1358703611	0.5156880021
5200.0646777341	0.4941176176
5201.9934851072	0.5034058690
5203.9222924802	0.4947707057
5205.8510998533	0.4881971776
5207.7799072263	0.5076855421
5209.7087145994	0.4924963117
5211.6375219724	0.5004246831
5213.5663293455	0.4979799688
5215.4951367185	0.4873157442
5217.4239440916	0.5026690364
5219.3527514646	0.4959213138
5221.2815588377	0.4919515550
5223.2103662107	0.5040042400
5225.1391735837	0.4902224839
5227.0679809568	0.4925817251
5228.9967883298	0.5107157230
5230.9255957029	0.5116757154
5232.8544030759	0.5361329913
5234.7832104490	0.5140795708
5236.7120178220	0.5188868046
5238.6408251951	0.5344252586
5240.5696325681	0.4845375121
5242.4984399412	0.4990786016
5244.4272473142	0.5073804259
5246.3560546873	0.5120721459
5248.2848620603	0.5188444853
5250.2136694334	0.5020663738
5252.1424768064	0.5034592748
5254.0712841795	0.5123014450
5256.0000915525	0.5073806643
5257.9288989255	0.4699957967
5259.8577062986	0.5080787539
5261.7865136716	0.5155426860
5263.7153210447	0.5004922748
5265.6441284177	0.5091300607
5267.5729357908	0.4793043733
5269.5017431638	0.5136505365
5271.4305505369	0.4978661835
5273.3593579099	0.5111625195
5275.2881652830	0.5340440273
5277.2169726560	0.4908326864
5279.1457800291	0.4983680546
5281.0745874021	0.4877949357
5283.0033947752	0.5182494521
5284.9322021482	0.5272595286
5286.8610095212	0.5287874937
5288.7898168943	0.5469807386
5290.7186242673	0.5049011111
5292.6474316404	0.5160647631
5294.5762390134	0.5147148967
5296.5050463865	0.4987771213
5298.4338537595	0.5073787570
5300.3626611326	0.5161135197
5302.2914685056	0.5287850499
5304.2202758787	0.4919489920
5306.1490832517	0.5016535521
5308.0778906248	0.5251153708
5310.0066979978	0.4847298861
5311.9355053709	0.5191344023
5313.8643127439	0.5331861377
5315.7931201169	0.5016208291
5317.7219274900	0.5330132246
5319.6507348630	0.4925735593
5321.5795422361	0.4867564738
5323.5083496091	0.5308715701
5325.4371569822	0.5109229088
5327.3659643552	0.5155423880
5329.2947717283	0.5150455832
5331.2235791013	0.5147082210
5333.1523864744	0.5113645792
5335.0811938474	0.5316964984
5337.0100012205	0.5350143313
5338.9388085935	0.5055762529
5340.8676159666	0.5139316320
5342.7964233396	0.5090250969
5344.7252307126	0.5349770188
5346.6540380857	0.5099396110
5348.5828454587	0.4882767797
5350.5116528318	0.5201700330
5352.4404602048	0.5275685787
5354.3692675779	0.5257031918
5356.2980749509	0.4855977595
5358.2268823240	0.5187245607
5360.1556896970	0.5205302835
5362.0844970701	0.4854966998
5364.0133044431	0.5269340277
5365.9421118162	0.4940997958
5367.8709191892	0.4793066084
5369.7997265623	0.5177064538
5371.7285339353	0.5245685577
5373.6573413083	0.4908525944
5375.5861486814	0.4816485047
5377.5149560544	0.5325818062
5379.4437634275	0.5245528817
5381.3725708005	0.4909334779
5383.3013781736	0.5133910775
5385.2301855466	0.5327809453
5387.1589929197	0.4848727584
5389.0878002927	0.4838511050
5391.0166076658	0.5331258774
5392.9454150388	0.5173397064
5394.8742224119	0.5012549162
5396.8030297849	0.5015099645
5398.7318371580	0.4905003309
5400.6606445310	0.5062848926
5402.5894519041	0.5179500580
5404.5182592771	0.5021778345
5406.4470666501	0.5064780712
5408.3758740232	0.5153636932
5410.3046813962	0.5519357324
5412.2334887693	0.5675762296
5414.1622961423	0.5210695863
5416.0911035154	0.5346924663
5418.0199108884	0.5248289704
5419.9487182615	0.5044851303
5421.8775256345	0.5128488541
5423.8063330076	0.4983686805
5425.7351403806	0.5183275938
5427.6639477537	0.5058112144
5429.5927551267	0.5179980993
5431.5215624998	0.5454502106
5433.4503698728	0.5144296885
5435.3791772458	0.5143735409
5437.3079846189	0.4967489541
5439.2367919919	0.4932096899
5441.1655993650	0.5187816024
5443.0944067380	0.5322959423
5445.0232141111	0.5535870194
5446.9520214841	0.5407404900
5448.8808288572	0.5322483182
5450.8096362302	0.5110251904
5452.7384436033	0.4960198700
5454.6672509763	0.5371603966
5456.5960583494	0.5291886926
5458.5248657224	0.5031838417
5460.4536730955	0.4911768734
5462.3824804685	0.4913027585
5464.3112878415	0.5189749002
5466.2400952146	0.5173572302
5468.1689025876	0.5165280104
5470.0977099607	0.5120105147
5472.0265173337	0.4970617592
5473.9553247068	0.5145408511
5475.8841320798	0.5482205749
5477.8129394529	0.5344548821
5479.7417468259	0.4987846613
5481.6705541990	0.5332346559
5483.5993615720	0.5356420279
5485.5281689451	0.5024778247
5487.4569763181	0.5266454816
5489.3857836912	0.5260332823
5491.3145910642	0.5229675770
5493.2433984372	0.5207593441
5495.1722058103	0.5227253437
5497.1010131833	0.5402799845
5499.0298205564	0.5050424933
5500.9586279294	0.4961184561
5502.8874353025	0.5256975889
5504.8162426755	0.5073367357
5506.7450500486	0.4835077524
5508.6738574216	0.5084557533
5510.6026647947	0.5252716541
5512.5314721677	0.4935889244
5514.4602795408	0.5276282430
5516.3890869138	0.5578156710
5518.3178942869	0.4806481302
5520.2467016599	0.4764167964
5522.1755090330	0.5197759271
5524.1043164060	0.5251013041
5526.0331237790	0.5193939805
5527.9619311521	0.5258575082
5529.8907385251	0.5512593389
5531.8195458982	0.5035334826
5533.7483532712	0.5173847675
5535.6771606443	0.5601689219
5537.6059680173	0.5136560202
5539.5347753904	0.5254181027
5541.4635827634	0.4983420968
5543.3923901365	0.4834721684
5545.3211975095	0.5379182696
5547.2500048826	0.5388208032
5549.1788122556	0.5248395205
5551.1076196287	0.4920620322
5553.0364270017	0.4785607755
5554.9652343747	0.4908001721
5556.8940417478	0.5206385851
5558.8228491208	0.5420862436
5560.7516564939	0.5240615010
5562.6804638669	0.5290971398
5564.6092712400	0.5128169656
5566.5380786130	0.4986327887
5568.4668859861	0.5159339905
5570.3956933591	0.5350059271
5572.3245007322	0.5482012630
5574.2533081052	0.5383755565
5576.1821154783	0.5372098684
5578.1109228513	0.5075850487
5580.0397302244	0.5017585754
5581.9685375974	0.5572229028
5583.8973449704	0.5645570755
5585.8261523435	0.5541998148
5587.7549597165	0.5665445924
5589.6837670896	0.5476132035
5591.6125744626	0.4937358499
5593.5413818357	0.4974972308
5595.4701892087	0.5417740345
5597.3989965818	0.5054630041
5599.3278039548	0.5034362674
5601.2566113279	0.5532560349
5603.1854187009	0.5430110097
5605.1142260740	0.5283686519
5607.0430334470	0.5225780010
5608.9718408201	0.5093754530
5610.9006481931	0.4886711538
5612.8294555661	0.5322905183
5614.7582629392	0.5625335574
5616.6870703122	0.4987260103
5618.6158776853	0.5097579360
5620.5446850583	0.5210567713
5622.4734924314	0.4857568443
5624.4022998044	0.5079286695
5626.3311071775	0.5032747388
5628.2599145505	0.5032609701
5630.1887219236	0.5329712033
5632.1175292966	0.5302078724
5634.0463366697	0.5488145947
5635.9751440427	0.5539326668
5637.9039514158	0.5227566957
5639.8327587888	0.5401831865
5641.7615661619	0.5481204987
5643.6903735349	0.5274422169
5645.6191809079	0.5008270144
5647.5479882810	0.4951176941
5649.4767956540	0.5215904117
5651.4056030271	0.5110337734
5653.3344104001	0.5228515863
5655.2632177732	0.5090827346
5657.1920251462	0.4762022495
5659.1208325193	0.5148979425
5661.0496398923	0.5496786237
5662.9784472654	0.5259935856
5664.9072546384	0.4966509342
5666.8360620115	0.5046495199
5668.7648693845	0.4988290370
5670.6936767576	0.5318568349
5672.6224841306	0.5114269257
5674.5512915036	0.4691204429
5676.4800988767	0.5600800514
5678.4089062497	0.5511065125
5680.3377136228	0.5596552491
5682.2665209958	0.6036318541
5684.1953283689	0.5051435828
5686.1241357419	0.4781606197
5688.0529431150	0.4981271029
5689.9817504880	0.4953845143
5691.9105578611	0.5013681650
5693.8393652341	0.4963123500
5695.7681726072	0.5235626101
5697.6969799802	0.5354807377
5699.6257873533	0.4995776117
5701.5545947263	0.5242845416
5703.4834020993	0.5156105161
5705.4122094724	0.5107142329
5707.3410168454	0.5578023195
5709.2698242185	0.5281707644
5711.1986315915	0.5388866067
5713.1274389646	0.4863902330
5715.0562463376	0.4640884995
5716.9850537107	0.5341927409
5718.9138610837	0.5081288815
5720.8426684568	0.5423119068
5722.7714758298	0.5458541512
5724.7002832029	0.5406390429
5726.6290905759	0.5355927348
5728.5578979490	0.5117009878
5730.4867053220	0.5374017358
5732.4155126950	0.5004645586
5734.3443200681	0.5311010480
5736.2731274411	0.5443662405
5738.2019348142	0.5216602683
5740.1307421872	0.5306704044
5742.0595495603	0.5331360698
5743.9883569333	0.5099552870
5745.9171643064	0.4903051555
5747.8459716794	0.5500747561
5749.7747790525	0.5060238838
5751.7035864255	0.5216760635
5753.6323937986	0.5542767048
5755.5612011716	0.4929423928
5757.4900085447	0.5238762498
5759.4188159177	0.4919418991
5761.3476232907	0.5153723955
5763.2764306638	0.5505592227
5765.2052380368	0.5672913194
5767.1340454099	0.5676965117
5769.0628527829	0.4744275808
5770.9916601560	0.5238160491
5772.9204675290	0.5259533525
5774.8492749021	0.5200005770
5776.7780822751	0.5761750937
5778.7068896482	0.5136046410
5780.6356970212	0.5391464829
5782.5645043943	0.5400296450
5784.4933117673	0.5095445514
5786.4221191404	0.5433225036
5788.3509265134	0.5100274682
5790.2797338865	0.5178284049
5792.2085412595	0.5154922605
5794.1373486325	0.4933517575
5796.0661560056	0.5307132602
5797.9949633786	0.5026944876
5799.9237707517	0.5089164376
5801.8525781247	0.5549919009
5803.7813854978	0.5093928576
5805.7101928708	0.5065134764
5807.6390002439	0.5900622606
5809.5678076169	0.5597726107
5811.4966149900	0.4783667922
5813.4254223630	0.5086619258
5815.3542297361	0.4911954105
5817.2830371091	0.5087365508
5819.2118444822	0.5808127522
5821.1406518552	0.5117138624
5823.0694592282	0.5240572095
5824.9982666013	0.4998639524
5826.9270739743	0.4458271265
5828.8558813474	0.5347315669
5830.7846887204	0.5555665493
5832.7134960935	0.5517050028
5834.6423034665	0.5407925844
5836.5711108396	0.5116335750
5838.4999182126	0.4727650583
5840.4287255857	0.5082373023
5842.3575329587	0.5906313658
5844.2863403318	0.5026759505
5846.2151477048	0.5535264015
5848.1439550779	0.6047943234
5850.0727624509	0.4635740519
5852.0015698239	0.5410994291
5853.9303771970	0.5414538980
5855.8591845700	0.4627224803
5857.7879919431	0.5556389093
5859.7167993161	0.5586543679
5861.6456066892	0.4873373806
5863.5744140622	0.4607348740
5865.5032214353	0.5175814629
5867.4320288083	0.5437648296
5869.3608361814	0.5646867156
5871.2896435544	0.5405275226
5873.2184509275	0.4827108681
5875.1472583005	0.5672111511
5877.0760656736	0.4805803001
5879.0048730466	0.4776785970
5880.9336804196	0.5767635107
5882.8624877927	0.5270041227
5884.7912951657	0.5512758493
5886.7201025388	0.5237925649
5888.6489099118	0.5070130229
5890.5777172849	0.5176520348
5892.5065246579	0.5287118554
5894.4353320310	0.5215586424
5896.3641394040	0.4701548517
5898.2929467771	0.5440699458
5900.2217541501	0.5454473495
5902.1505615232	0.5065022707
5904.0793688962	0.5235109329
5906.0081762693	0.4946553707
5907.9369836423	0.4991463423
5909.8657910154	0.5718671083
5911.7945983884	0.5581801534
5913.7234057614	0.5141760111
5915.6522131345	0.6321343780
5917.5810205075	0.6441029310
5919.5098278806	0.5315194726
5921.4386352536	0.4949135780
5923.3674426267	0.5530101657
5925.2962499997	0.5580493212
5927.2250573728	0.4811918437
5929.1538647458	0.5615876913
5931.0826721189	0.5613144040
5933.0114794919	0.5000239015
5934.9402868650	0.5573543906
5936.8690942380	0.5718551278
5938.7979016111	0.5161553025
5940.7267089841	0.4936124682
5942.6555163571	0.5793212056
5944.5843237302	0.5672345757
5946.5131311032	0.5560571551
5948.4419384763	0.5599384308
5950.3707458493	0.5451492071
5952.2995532224	0.5546063185
5954.2283605954	0.5035746098
5956.1571679685	0.5696630478
5958.0859753415	0.6067108512
5960.0147827146	0.5270828605
5961.9435900876	0.5233619809
5963.8723974607	0.5601689219
5965.8012048337	0.5266592503
5967.7300122068	0.5510962605
5969.6588195798	0.6325186491
5971.5876269528	0.5624897480
5973.5164343259	0.4830831289
5975.4452416989	0.5539528728
5977.3740490720	0.6118854880
5979.3028564450	0.5148350596
5981.2316638181	0.5168781281
5983.1604711911	0.5027672648
5985.0892785642	0.4715100527
5987.0180859372	0.5783655047
5988.9468933103	0.5064713359
5990.8757006833	0.4951235056
5992.8045080564	0.5931377411
5994.7333154294	0.6344116330
5996.6621228025	0.5456669927
5998.5909301755	0.4132217467
6000.5197375485	0.5338489413
