399.2631262207	0.2745100856
401.1919335938	0.0783489645
403.1207409668	0.1362978667
405.0495483398	0.1814869642
406.9783557129	0.2730666697
408.9071630859	0.2753660679
410.8359704590	0.2856512368
412.7647778320	0.1499818116
414.6935852051	0.1394934207
416.6223925781	0.2603367865
418.5511999512	0.1607290804
420.4800073242	0.1925798208
422.4088146973	0.3159994483
424.3376220703	0.1552442312
426.2664294434	0.1112271100
428.1952368164	0.2357869297
430.1240441895	0.1803141236
432.0528515625	0.1984022856
433.9816589355	0.2568474114
435.9104663086	0.1786672324
437.8392736816	0.0556706302
439.7680810547	0.2599062920
441.6968884277	0.3700524569
443.6256958008	-0.0233755931
445.5545031738	-0.0259693377
447.4833105469	0.1624902040
449.4121179199	0.1672300547
451.3409252930	0.1713131219
453.2697326660	0.2295950055
455.1985400391	0.2000858486
457.1273474121	0.3237690032
459.0561547852	0.3838773966
460.9849621582	0.1153228283
462.9137695313	0.2147693187
464.8425769043	0.4291199148
466.7713842773	0.4970895350
468.7001916504	0.3388761878
470.6289990234	-0.0401781984
472.5578063965	0.4602499008
474.4866137695	0.8711203933
476.4154211426	0.3489834368
478.3442285156	0.4210539162
480.2730358887	0.6360017657
482.2018432617	0.5654415488
484.1306506348	0.5691246390
486.0594580078	1.2500303984
487.9882653809	-0.0017388276
489.9170727539	0.2450126857
491.8458801270	2.1580741405
493.7746875000	-0.6492989659
495.7034948730	0.2691340446
497.6323022461	1.2154029608
499.5611096191	0.4510339499
501.4899169922	0.6571296453
503.4187243652	1.4714150429
505.3475317383	0.7515774369
507.2763391113	-0.3620251417
509.2051464844	0.0659877360
511.1339538574	0.5241314173
513.0627612305	0.5165622234
514.9915686035	0.3029049337
516.9203759766	0.9019430280
518.8491833496	0.7046869993
520.7779907227	0.4447110295
522.7067980957	0.8525847793
524.6356054688	-0.1468298137
526.5644128418	0.6902616620
528.4932202148	0.4221106768
530.4220275879	0.2794093192
532.3508349609	3.1539843082
534.2796423340	-6.4269475937
536.2084497070	0.3075886667
538.1372570801	0.2703936100
540.0660644531	2.2834470272
541.9948718262	2.8424656391
543.9236791992	-0.7348363400
545.8524865723	0.5515366197
547.7812939453	0.4217831194
549.7101013184	0.5454831719
551.6389086914	8.5730495453
553.5677160645	8.5730495453
555.4965234375	4.8637433052
557.4253308105	0.4693216383
559.3541381836	0.4652867317
561.2829455566	0.5422933102
563.2117529297	0.8490228653
565.1405603027	0.8106949925
567.0693676758	0.5870718956
568.9981750488	0.6008813381
570.9269824219	0.0374090299
572.8557897949	-0.4442959130
574.7845971680	0.8850490451
576.7134045410	1.8054568768
578.6422119141	1.0933520794
580.5710192871	1.4185854197
582.4998266602	1.3203543425
584.4286340332	0.0557934493
586.3574414063	1.5189508200
588.2862487793	2.3870909214
590.2150561523	-0.1966093928
592.1438635254	0.1847874224
594.0726708984	2.3986778259
596.0014782715	-0.7659025788
597.9302856445	3.6387348175
599.8590930176	0.9221965075
601.7879003906	0.5458292365
603.7167077637	0.7219575644
605.6455151367	0.1651116312
607.5743225098	1.0273759365
609.5031298828	-2.9200057983
611.4319372559	0.2422621548
613.3607446289	0.9533290863
615.2895520020	3.9239730835
617.2183593750	0.1870050728
619.1471667480	0.9359727502
621.0759741211	-1.5832760334
623.0047814941	-0.6053927541
624.9335888672	0.1573469788
626.8623962402	0.2790941298
628.7912036133	0.1005809158
630.7200109863	0.1731630713
632.6488183594	0.4164628386
634.5776257324	0.3786688745
636.5064331055	0.3657794893
638.4352404785	0.2384395450
640.3640478516	0.2474526018
642.2928552246	0.4115294218
644.2216625977	0.3296832740
646.1504699707	0.2434509248
648.0792773438	0.2375220805
650.0080847168	0.2722984552
651.9368920898	0.2509824634
653.8656994629	0.2589950264
655.7945068359	0.3205485344
657.7233142090	0.3444858193
659.6521215820	0.3042835593
661.5809289551	0.3088206947
663.5097363281	0.3618986607
665.4385437012	0.3048546016
667.3673510742	0.3038147986
669.2961584473	0.3190326393
671.2249658203	0.2906636596
673.1537731934	0.3390235603
675.0825805664	0.3758371770
677.0113879395	0.4061392546
678.9401953125	0.3750101030
680.8690026855	0.3539667428
682.7978100586	0.4000259340
684.7266174316	0.3647900522
686.6554248047	0.3728767335
688.5842321777	0.4023435414
690.5130395508	0.3706313670
692.4418469238	0.3650780618
694.3706542969	0.3607736826
696.2994616699	0.3734194636
698.2282690430	0.3994368911
700.1570764160	0.3919853866
702.0858837891	0.3777318001
704.0146911621	0.3530431986
705.9434985352	0.3553790152
707.8723059082	0.4298600852
709.8011132813	0.4086151123
711.7299206543	0.3574040830
713.6587280273	0.5589732528
715.5875354004	0.5990955234
717.5163427734	0.2866056561
719.4451501465	0.6054318547
721.3739575195	0.5131999254
723.3027648926	0.3013956249
725.2315722656	1.4442664385
727.1603796387	0.8219033480
729.0891870117	0.7930864096
731.0179943848	-1.3393193483
732.9468017578	1.4567239285
734.8756091309	0.6037375331
736.8044165039	-1.8777111769
738.7332238770	0.3965869844
740.6620312500	0.7942818403
742.5908386230	-0.0781448707
744.5196459961	0.4364624023
746.4484533691	7.4523439407
748.3772607422	0.0591200218
750.3060681152	-0.3928528130
752.2348754883	-0.0902930424
754.1636828613	-0.0684282556
756.0924902344	1.9943099022
758.0212976074	2.1973545551
759.9501049805	0.4232505262
761.8789123535	1.4194474220
763.8077197266	0.1248544231
765.7365270996	0.1721183807
767.6653344727	1.2820098400
769.5941418457	-0.0701100230
771.5229492188	0.3784381151
773.4517565918	0.7829794884
775.3805639648	0.4156737030
777.3093713379	0.7063373923
779.2381787109	0.0566618703
781.1669860840	0.0441049114
783.0957934570	0.2949536741
785.0246008301	0.3079250753
786.9534082031	0.6592508554
788.8822155762	0.3906228542
790.8110229492	0.3570554554
792.7398303223	0.4390848279
794.6686376953	0.7543649077
796.5974450684	0.4906863570
798.5262524414	0.4679815769
800.4550598145	0.7305423617
802.3838671875	0.7579310536
804.3126745605	0.5447310209
806.2414819336	0.4265186191
808.1702893066	0.4976285994
810.0990966797	0.5194504261
812.0279040527	0.9776977301
813.9567114258	1.2850406170
815.8855187988	0.0987793654
817.8143261719	1.0843125582
819.7431335449	1.2103539705
821.6719409180	0.4962666929
823.6007482910	0.4820587039
825.5295556641	0.1805914342
827.4583630371	0.5607139468
829.3871704102	0.4957213700
831.3159777832	0.5473758578
833.2447851563	0.7233217359
835.1735925293	0.5600165129
837.1023999023	0.6565200090
839.0312072754	0.7881623507
840.9600146484	0.6583284736
842.8888220215	0.5806383491
844.8176293945	0.5887327194
846.7464367676	0.7695032358
848.6752441406	0.7500380278
850.6040515137	0.6364348531
852.5328588867	0.8587861061
854.4616662598	0.8878081441
856.3904736328	0.6258653402
858.3192810059	0.6717730165
860.2480883789	0.7063633204
862.1768957520	0.5772596002
864.1057031250	0.3597747982
866.0345104980	0.6650756598
867.9633178711	1.3620659113
869.8921252441	0.7207387686
871.8209326172	0.8262398839
873.7497399902	0.6441099048
875.6785473633	0.4863131940
877.6073547363	1.4529150724
879.5361621094	1.0960760117
881.4649694824	0.7153649330
883.3937768555	0.6496943235
885.3225842285	1.3540409803
887.2513916016	2.8305158615
889.1801989746	0.7907700539
891.1090063477	1.0216951370
893.0378137207	1.3199951649
894.9666210938	1.5867482424
896.8954284668	0.6588038206
898.8242358398	0.4778687954
900.7530432129	0.8080582023
902.6818505859	0.5234878063
904.6106579590	0.5306031108
906.5394653320	0.8669317365
908.4682727051	0.4616959393
910.3970800781	0.6269757748
912.3258874512	0.7284861803
914.2546948242	0.4554626644
916.1835021973	0.8102356195
918.1123095703	0.8498075008
920.0411169434	0.7461448312
921.9699243164	0.8334462047
923.8987316895	0.7563443780
925.8275390625	0.8081500530
927.7563464355	0.8215305209
929.6851538086	0.7068806887
931.6139611816	0.7515720725
933.5427685547	0.7768676281
935.4715759277	0.7336552143
937.4003833008	0.7327368855
939.3291906738	0.7235009074
941.2579980469	0.8132444024
943.1868054199	0.7416986823
945.1156127930	0.6860939860
947.0444201660	0.7965595126
948.9732275391	0.7602440715
950.9020349121	0.7807776928
952.8308422852	0.7155986428
954.7596496582	0.7647087574
956.6884570313	0.7858743072
958.6172644043	0.6363824010
960.5460717773	0.8315296173
962.4748791504	0.8515772820
964.4036865234	0.8042926788
966.3324938965	0.8012085557
968.2613012695	0.7738780379
970.1901086426	0.8031559587
972.1189160156	0.7803875804
974.0477233887	0.8267359138
975.9765307617	0.8291872740
977.9053381348	0.8547742367
979.8341455078	0.7990151644
981.7629528809	0.7563955188
983.6917602539	0.7704920173
985.6205676270	0.7962385416
987.5493750000	0.8265227675
989.4781823730	0.7406306863
991.4069897461	0.7598435879
993.3357971191	0.7941936851
995.2646044922	0.7993401885
997.1934118652	0.8303704262
999.1222192383	0.7970849872
1001.0510266113	0.7767203450
1002.9798339844	0.7601827383
1004.9086413574	0.7863389850
1006.8374487305	0.8065636754
1008.7662561035	0.7846820354
1010.6950634766	0.7859950662
1012.6238708496	0.7793449163
1014.5526782227	0.7850356698
1016.4814855957	0.7888885736
1018.4102929688	0.7836264372
1020.3391003418	0.7896706462
1022.2679077148	0.7887195945
1024.1967150879	0.7828893065
1026.1255224609	0.7941030860
1028.0543298340	0.8071779609
1029.9831372070	0.7969173789
1031.9119445801	0.7921484113
1033.8407519531	0.7946482897
1035.7695593262	0.7959485054
1037.6983666992	0.7975032926
1039.6271740723	0.7919173837
1041.5559814453	0.7872534990
1043.4847888184	0.7888785005
1045.4135961914	0.7888898253
1047.3424035645	0.7950329781
1049.2712109375	0.8000352383
1051.2000183105	0.7868575454
1053.1288256836	0.7886840701
1055.0576330566	0.7902150750
1056.9864404297	0.7856903672
1058.9152478027	0.7852308154
1060.8440551758	0.7861371636
1062.7728625488	0.7948523164
1064.7016699219	0.7837100625
1066.6304772949	0.7983280420
1068.5592846680	0.7959878445
1070.4880920410	0.7785762548
1072.4168994141	0.7960664630
1074.3457067871	0.7799997330
1076.2745141602	0.7859883308
1078.2033215332	0.7923631668
1080.1321289062	0.7879133821
1082.0609362793	0.7892562151
1083.9897436523	0.7843454480
1085.9185510254	0.8024855852
1087.8473583984	0.7872816920
1089.7761657715	0.7850083113
1091.7049731445	0.7792596221
1093.6337805176	0.7779564857
1095.5625878906	0.7794672251
1097.4913952637	0.7718833089
1099.4202026367	0.8081288934
1101.3490100098	0.7804819345
1103.2778173828	0.7659653425
1105.2066247559	0.7815597057
1107.1354321289	0.7662798166
1109.0642395019	0.7795981169
1110.9930468750	0.7768139243
1112.9218542480	0.7610266209
1114.8506616211	0.7929825187
1116.7794689941	0.8124645948
1118.7082763672	0.7651901245
1120.6370837402	0.7605138421
1122.5658911133	0.7705952525
1124.4946984863	0.7662607431
1126.4235058594	0.7828770280
1128.3523132324	0.7780962586
1130.2811206055	0.7738406658
1132.2099279785	0.7757678032
1134.1387353516	0.7896044850
1136.0675427246	0.7823001742
1137.9963500977	0.7726153135
1139.9251574707	0.7670413256
1141.8539648437	0.7548981905
1143.7827722168	0.7768495083
1145.7115795898	0.7768802047
1147.6403869629	0.7632260919
1149.5691943359	0.7565957308
1151.4980017090	0.7534492612
1153.4268090820	0.7675342560
1155.3556164551	0.7668311596
1157.2844238281	0.7602903843
1159.2132312012	0.7698931098
1161.1420385742	0.7777212262
1163.0708459473	0.7652329803
1164.9996533203	0.7649818063
1166.9284606934	0.7779843211
1168.8572680664	0.7681310177
1170.7860754394	0.7541908026
1172.7148828125	0.7567841411
1174.6436901855	0.7686256766
1176.5724975586	0.7647403479
1178.5013049316	0.7608188391
1180.4301123047	0.7701086402
1182.3589196777	0.7661123276
1184.2877270508	0.7668465376
1186.2165344238	0.7660733461
1188.1453417969	0.7584325075
1190.0741491699	0.7647501826
1192.0029565430	0.7625960112
1193.9317639160	0.7605634332
1195.8605712891	0.7652243376
1197.7893786621	0.7611553669
1199.7181860351	0.7583103776
1201.6469934082	0.7552713752
1203.5758007812	0.7541187406
1205.5046081543	0.7557768226
1207.4334155273	0.7566075921
1209.3622229004	0.7576104403
1211.2910302734	0.7562634349
1213.2198376465	0.7557062507
1215.1486450195	0.7566414475
1217.0774523926	0.7579364181
1219.0062597656	0.7575198412
1220.9350671387	0.7559428215
1222.8638745117	0.7525562644
1224.7926818848	0.7524058223
1226.7214892578	0.7559872270
1228.6502966308	0.7531737685
1230.5791040039	0.7524530292
1232.5079113769	0.7528153062
1234.4367187500	0.7530807853
1236.3655261230	0.7553511858
1238.2943334961	0.7530576587
1240.2231408691	0.7546976209
1242.1519482422	0.7573925257
1244.0807556152	0.7556453943
1246.0095629883	0.7532188892
1247.9383703613	0.7530022860
1249.8671777344	0.7549239397
1251.7959851074	0.7534272671
1253.7247924805	0.7508344650
1255.6535998535	0.7508211136
1257.5824072266	0.7510847449
1259.5112145996	0.7532759905
1261.4400219726	0.7554712296
1263.3688293457	0.7505831718
1265.2976367187	0.7521588206
1267.2264440918	0.7520823479
1269.1552514648	0.7453260422
1271.0840588379	0.7503141761
1273.0128662109	0.7509405613
1274.9416735840	0.7512407899
1276.8704809570	0.7486462593
1278.7992883301	0.7456513047
1280.7280957031	0.7533684969
1282.6569030762	0.7480553985
1284.5857104492	0.7491918206
1286.5145178223	0.7509812713
1288.4433251953	0.7462738156
1290.3721325683	0.7530949116
1292.3009399414	0.7492837906
1294.2297473144	0.7454352975
1296.1585546875	0.7500500679
1298.0873620605	0.7487099171
1300.0161694336	0.7458909154
1301.9449768066	0.7498971224
1303.8737841797	0.7526605129
1305.8025915527	0.7494807839
1307.7313989258	0.7478928566
1309.6602062988	0.7453011870
1311.5890136719	0.7467302680
1313.5178210449	0.7482242584
1315.4466284180	0.7449740171
1317.3754357910	0.7458445430
1319.3042431640	0.7462894320
1321.2330505371	0.7454689741
1323.1618579101	0.7489713430
1325.0906652832	0.7475293875
1327.0194726562	0.7431812882
1328.9482800293	0.7462643981
1330.8770874023	0.7463841438
1332.8058947754	0.7456120253
1334.7347021484	0.7460744977
1336.6635095215	0.7430070639
1338.5923168945	0.7445774078
1340.5211242676	0.7439470291
1342.4499316406	0.7425549030
1344.3787390137	0.7462482452
1346.3075463867	0.7449204922
1348.2363537597	0.7436679006
1350.1651611328	0.7450802922
1352.0939685058	0.7436084151
1354.0227758789	0.7436496019
1355.9515832519	0.7437551618
1357.8803906250	0.7425471544
1359.8091979980	0.7409985065
1361.7380053711	0.7391881943
1363.6668127441	0.7405891418
1365.5956201172	0.7423780560
1367.5244274902	0.7418239713
1369.4532348633	0.7410859466
1371.3820422363	0.7424368858
1373.3108496094	0.7395280004
1375.2396569824	0.7352558970
1377.1684643555	0.7375183105
1379.0972717285	0.7378727198
1381.0260791015	0.7361006737
1382.9548864746	0.7344390750
1384.8836938476	0.7384970784
1386.8125012207	0.7410161495
1388.7413085937	0.7361850739
1390.6701159668	0.7359909415
1392.5989233398	0.7354149222
1394.5277307129	0.7383521199
1396.4565380859	0.7367936373
1398.3853454590	0.7332835197
1400.3141528320	0.7339212894
1402.2429602051	0.7321694493
1404.1717675781	0.7386967540
1406.1005749512	0.7360641360
1408.0293823242	0.7326377630
1409.9581896972	0.7342525721
1411.8869970703	0.7280198932
1413.8158044433	0.7299087644
1415.7446118164	0.7284132838
1417.6734191894	0.7313189507
1419.6022265625	0.7371704578
1421.5310339355	0.7303386927
1423.4598413086	0.7308068871
1425.3886486816	0.7299104929
1427.3174560547	0.7285531163
1429.2462634277	0.7279526591
1431.1750708008	0.7285218239
1433.1038781738	0.7290054560
1435.0326855469	0.7282737494
1436.9614929199	0.7324004769
1438.8903002929	0.7278790474
1440.8191076660	0.7299929261
1442.7479150390	0.7299249768
1444.6767224121	0.7260542512
1446.6055297851	0.7315424681
1448.5343371582	0.7255018950
1450.4631445312	0.7232493758
1452.3919519043	0.7255074978
1454.3207592773	0.7266936302
1456.2495666504	0.7278915048
1458.1783740234	0.7242300510
1460.1071813965	0.7249044180
1462.0359887695	0.7218802571
1463.9647961426	0.7234019637
1465.8936035156	0.7223704457
1467.8224108886	0.7167644501
1469.7512182617	0.7186431289
1471.6800256347	0.7156727910
1473.6088330078	0.7167345285
1475.5376403808	0.7192881703
1477.4664477539	0.7154161930
1479.3952551269	0.7160897255
1481.3240625000	0.7161242366
1483.2528698730	0.7138893008
1485.1816772461	0.7118387818
1487.1104846191	0.7097555995
1489.0392919922	0.7101399302
1490.9680993652	0.7099393010
1492.8969067383	0.7079157233
1494.8257141113	0.7060107589
1496.7545214843	0.7062369585
1498.6833288574	0.7064138651
1500.6121362304	0.7029743791
1502.5409436035	0.7004514933
1504.4697509765	0.7017282844
1506.3985583496	0.7037189603
1508.3273657226	0.7005714178
1510.2561730957	0.6970766187
1512.1849804687	0.6952718496
1514.1137878418	0.6932922006
1516.0425952148	0.6920843124
1517.9714025879	0.6913615465
1519.9002099609	0.6913031936
1521.8290173340	0.6920979023
1523.7578247070	0.6880321503
1525.6866320801	0.6852186322
1527.6154394531	0.6843802929
1529.5442468261	0.6826875210
1531.4730541992	0.6812469959
1533.4018615722	0.6808789968
1535.3306689453	0.6791720390
1537.2594763183	0.6754865646
1539.1882836914	0.6787989736
1541.1170910644	0.6788904667
1543.0458984375	0.6718993783
1544.9747058105	0.6694958210
1546.9035131836	0.6665572524
1548.8323205566	0.6644449830
1550.7611279297	0.6626855135
1552.6899353027	0.6616054773
1554.6187426758	0.6589015722
1556.5475500488	0.6564868093
1558.4763574218	0.6595038772
1560.4051647949	0.6532268524
1562.3339721679	0.6481041312
1564.2627795410	0.6467030048
1566.1915869140	0.6420473456
1568.1203942871	0.6388213634
1570.0492016601	0.6366502047
1571.9780090332	0.6320288181
1573.9068164062	0.6288036108
1575.8356237793	0.6284271479
1577.7644311523	0.6238086820
1579.6932385254	0.6182281971
1581.6220458984	0.6123014688
1583.5508532715	0.6076691151
1585.4796606445	0.6045111418
1587.4084680175	0.6001248956
1589.3372753906	0.5947062373
1591.2660827636	0.5881968141
1593.1948901367	0.5847609639
1595.1236975097	0.5797750354
1597.0525048828	0.5744215846
1598.9813122558	0.5690916181
1600.9101196289	0.5623573065
1602.8389270019	0.5579418540
1604.7677343750	0.5527896285
1606.6965417480	0.5473115444
1608.6253491211	0.5402485132
1610.5541564941	0.5357594490
1612.4829638672	0.5312786698
1614.4117712402	0.5241444707
1616.3405786132	0.5222417116
1618.2693859863	0.5190397501
1620.1981933593	0.5129500628
1622.1270007324	0.5118179321
1624.0558081054	0.5099499226
1625.9846154785	0.5064100027
1627.9134228515	0.5067645907
1629.8422302246	0.5075804591
1631.7710375976	0.5076199174
1633.6998449707	0.5096893311
1635.6286523437	0.5151338577
1637.5574597168	0.5154863596
1639.4862670898	0.5183025599
1641.4150744629	0.5229223371
1643.3438818359	0.5256528854
1645.2726892090	0.5341238379
1647.2014965820	0.5414703488
1649.1303039550	0.5451998115
1651.0591113281	0.5511023402
1652.9879187011	0.5635161996
1654.9167260742	0.5676876307
1656.8455334472	0.5706325173
1658.7743408203	0.5785166025
1660.7031481933	0.5861639380
1662.6319555664	0.5952374339
1664.5607629394	0.6007911563
1666.4895703125	0.6096046567
1668.4183776855	0.6178671122
1670.3471850586	0.6255891919
1672.2759924316	0.6329571009
1674.2047998047	0.6404380798
1676.1336071777	0.6509146690
1678.0624145507	0.6537137032
1679.9912219238	0.6626324654
1681.9200292968	0.6701427102
1683.8488366699	0.6788855195
1685.7776440429	0.6895172596
1687.7064514160	0.6921231151
1689.6352587890	0.7028577924
1691.5640661621	0.7074537873
1693.4928735351	0.7137775421
1695.4216809082	0.7247179151
1697.3504882812	0.7286839485
1699.2792956543	0.7367559671
1701.2081030273	0.7442383766
1703.1369104004	0.7463193536
1705.0657177734	0.7515590191
1706.9945251464	0.7592802644
1708.9233325195	0.7610266209
1710.8521398925	0.7673971057
1712.7809472656	0.7731630802
1714.7097546386	0.7762699723
1716.6385620117	0.7847958207
1718.5673693847	0.7879960537
1720.4961767578	0.7897314429
1722.4249841308	0.7927595973
1724.3537915039	0.7972295284
1726.2825988769	0.7983916998
1728.2114062500	0.8010362983
1730.1402136230	0.8050783873
1732.0690209961	0.8071968555
1733.9978283691	0.8143967986
1735.9266357421	0.8115469813
1737.8554431152	0.8128656745
1739.7842504882	0.8179730177
1741.7130578613	0.8171451092
1743.6418652343	0.8189149499
1745.5706726074	0.8211172223
1747.4994799804	0.8228136897
1749.4282873535	0.8227495551
1751.3570947265	0.8259859085
1753.2859020996	0.8269618750
1755.2147094726	0.8259176612
1757.1435168457	0.8290745020
1759.0723242187	0.8296012282
1761.0011315918	0.8316428065
1762.9299389648	0.8335375190
1764.8587463379	0.8327978849
1766.7875537109	0.8338054419
1768.7163610839	0.8341333866
1770.6451684570	0.8365879655
1772.5739758300	0.8399957418
1774.5027832031	0.8375009298
1776.4315905761	0.8355296850
1778.3603979492	0.8370321989
1780.2892053222	0.8385807276
1782.2180126953	0.8387418389
1784.1468200683	0.8374590278
1786.0756274414	0.8372260332
1788.0044348144	0.8374940157
1789.9332421875	0.8389249444
1791.8620495605	0.8410220146
1793.7908569336	0.8398702741
1795.7196643066	0.8401639462
1797.6484716796	0.8403823972
1799.5772790527	0.8399325013
1801.5060864257	0.8403214216
1803.4348937988	0.8388788700
1805.3637011718	0.8393809199
1807.2925085449	0.8406597972
1809.2213159179	0.8396047950
1811.1501232910	0.8397386074
1813.0789306640	0.8401870728
1815.0077380371	0.8385852575
1816.9365454101	0.8375439644
1818.8653527832	0.8390106559
1820.7941601562	0.8393824100
1822.7229675293	0.8381910324
1824.6517749023	0.8397081494
1826.5805822753	0.8387560844
1828.5093896484	0.8371621966
1830.4381970214	0.8395942450
1832.3670043945	0.8383485675
1834.2958117675	0.8372939229
1836.2246191406	0.8376372457
1838.1534265136	0.8372726440
1840.0822338867	0.8371392488
1842.0110412597	0.8363218307
1843.9398486328	0.8384882212
1845.8686560058	0.8370376229
1847.7974633789	0.8349944353
1849.7262707519	0.8362954855
1851.6550781250	0.8352198601
1853.5838854980	0.8358715177
1855.5126928710	0.8350908160
1857.4415002441	0.8335469961
1859.3703076171	0.8351497054
1861.2991149902	0.8338298798
1863.2279223632	0.8325221539
1865.1567297363	0.8336868286
1867.0855371093	0.8334472179
1869.0143444824	0.8328479528
1870.9431518554	0.8328152299
1872.8719592285	0.8317524791
1874.8007666015	0.8311389685
1876.7295739746	0.8317063451
1878.6583813476	0.8313585520
1880.5871887207	0.8303357363
1882.5159960937	0.8296021223
1884.4448034667	0.8296725154
1886.3736108398	0.8300313950
1888.3024182128	0.8298113346
1890.2312255859	0.8296283484
1892.1600329589	0.8285063505
1894.0888403320	0.8278676271
1896.0176477050	0.8281241655
1897.9464550781	0.8269525170
1899.8752624511	0.8262158036
1901.8040698242	0.8264879584
1903.7328771972	0.8269302249
1905.6616845703	0.8253211379
1907.5904919433	0.8243732452
1909.5192993164	0.8266098499
1911.4481066894	0.8255841732
1913.3769140625	0.8246061802
1915.3057214355	0.8247396350
1917.2345288085	0.8234493136
1919.1633361816	0.8230504990
1921.0921435546	0.8221564889
1923.0209509277	0.8222748041
1924.9497583007	0.8214039803
1926.8785656738	0.8205464482
1928.8073730468	0.8205991387
1930.7361804199	0.8187259436
1932.6649877929	0.8184107542
1934.5937951660	0.8188290596
1936.5226025390	0.8191918731
1938.4514099121	0.8176041842
1940.3802172851	0.8153277636
1942.3090246582	0.8162136674
1944.2378320312	0.8158348203
1946.1666394042	0.8150087595
1948.0954467773	0.8142264485
1950.0242541503	0.8136596680
1951.9530615234	0.8143573999
1953.8818688964	0.8127319813
1955.8106762695	0.8112836480
1957.7394836425	0.8110156059
1959.6682910156	0.8118068576
1961.5970983886	0.8123964071
1963.5259057617	0.8102054000
1965.4547131347	0.8099446893
1967.3835205078	0.8099946976
1969.3123278808	0.8085345626
1971.2411352539	0.8082508445
1973.1699426269	0.8074768782
1975.0987499999	0.8062790036
1977.0275573730	0.8059486747
1978.9563647460	0.8060765266
1980.8851721191	0.8042049408
1982.8139794921	0.8033198118
1984.7427868652	0.8040556312
1986.6715942382	0.8029473424
1988.6004016113	0.8020281792
1990.5292089843	0.8013032675
1992.4580163574	0.8016823530
1994.3868237304	0.8004491925
1996.3156311035	0.7979504466
1998.2444384765	0.7985116243
2000.1732458496	0.7985768914
2002.1020532226	0.7972238064
2004.0308605956	0.7965442538
2005.9596679687	0.7964159250
2007.8884753417	0.7946811318
2009.8172827148	0.7948871851
2011.7460900878	0.7952304482
2013.6748974609	0.7932988405
2015.6037048339	0.7940772772
2017.5325122070	0.7927574515
2019.4613195800	0.7920683026
2021.3901269531	0.7917863727
2023.3189343261	0.7904996276
2025.2477416992	0.7923800945
2027.1765490722	0.7903790474
2029.1053564453	0.7889798880
2031.0341638183	0.7895203233
2032.9629711914	0.7875198722
2034.8917785644	0.7879157066
2036.8205859374	0.7879006267
2038.7493933105	0.7854886055
2040.6782006835	0.7857136726
2042.6070080566	0.7870775461
2044.5358154296	0.7853529453
2046.4646228027	0.7842246294
2048.3934301757	0.7841790915
2050.3222375488	0.7836849093
2052.2510449218	0.7841773629
2054.1798522949	0.7832676172
2056.1086596679	0.7815562487
2058.0374670410	0.7817848325
2059.9662744140	0.7812127471
2061.8950817871	0.7811154127
2063.8238891601	0.7824680805
2065.7526965331	0.7791570425
2067.6815039062	0.7789779902
2069.6103112792	0.7814829946
2071.5391186523	0.7785658836
2073.4679260253	0.7789270878
2075.3967333984	0.7794762850
2077.3255407714	0.7776264548
2079.2543481445	0.7776618004
2081.1831555175	0.7775555849
2083.1119628906	0.7772867680
2085.0407702636	0.7774019837
2086.9695776367	0.7776197791
2088.8983850097	0.7765275240
2090.8271923828	0.7758622169
2092.7559997558	0.7757520676
2094.6848071288	0.7760256529
2096.6136145019	0.7758255601
2098.5424218749	0.7758398652
2100.4712292480	0.7758899331
2102.4000366210	0.7740772963
2104.3288439941	0.7756078243
2106.2576513671	0.7756974697
2108.1864587402	0.7746812105
2110.1152661132	0.7761072516
2112.0440734863	0.7752184868
2113.9728808593	0.7744327784
2115.9016882324	0.7734325528
2117.8304956054	0.7733212113
2119.7593029785	0.7746735215
2121.6881103515	0.7750486732
2123.6169177245	0.7741461396
2125.5457250976	0.7755228281
2127.4745324706	0.7772245407
2129.4033398437	0.7743058205
2131.3321472167	0.7748232484
2133.2609545898	0.7757631540
2135.1897619628	0.7746075988
2137.1185693359	0.7759249806
2139.0473767089	0.7753472328
2140.9761840820	0.7749782205
2142.9049914550	0.7753484845
2144.8337988281	0.7746748328
2146.7626062011	0.7752144337
2148.6914135742	0.7758072019
2150.6202209472	0.7752743959
2152.5490283203	0.7761936188
2154.4778356933	0.7769958377
2156.4066430663	0.7759328485
2158.3354504394	0.7775323987
2160.2642578124	0.7795618176
2162.1930651855	0.7780685425
2164.1218725585	0.7770479918
2166.0506799316	0.7778525352
2167.9794873046	0.7790344954
2169.9082946777	0.7797024846
2171.8371020507	0.7785909772
2173.7659094238	0.7802274823
2175.6947167968	0.7807606459
2177.6235241699	0.7787485719
2179.5523315429	0.7808809876
2181.4811389160	0.7811309099
2183.4099462890	0.7814720869
2185.3387536620	0.7811047435
2187.2675610351	0.7806020975
2189.1963684081	0.7831028700
2191.1251757812	0.7818810940
2193.0539831542	0.7838100195
2194.9827905273	0.7847917080
2196.9115979003	0.7831166983
2198.8404052734	0.7846071124
2200.7692126464	0.7853116989
2202.6980200195	0.7854205966
2204.6268273925	0.7843825817
2206.5556347656	0.7847132087
2208.4844421386	0.7837533355
2210.4132495117	0.7851712704
2212.3420568847	0.7879461050
2214.2708642577	0.7862012982
2216.1996716308	0.7878640294
2218.1284790038	0.7882961035
2220.0572863769	0.7872461677
2221.9860937499	0.7888873816
2223.9149011230	0.7895816565
2225.8437084960	0.7892377973
2227.7725158691	0.7898639441
2229.7013232421	0.7909521461
2231.6301306152	0.7902461290
2233.5589379882	0.7904583216
2235.4877453613	0.7911379933
2237.4165527343	0.7913601995
2239.3453601074	0.7904369831
2241.2741674804	0.7906405926
2243.2029748534	0.7928230762
2245.1317822265	0.7919523120
2247.0605895995	0.7915744781
2248.9893969726	0.7939255834
2250.9182043456	0.7938698530
2252.8470117187	0.7922951579
2254.7758190917	0.7939330339
2256.7046264648	0.7933301330
2258.6334338378	0.7937796116
2260.5622412109	0.7970233560
2262.4910485839	0.7958807349
2264.4198559570	0.7964800000
2266.3486633300	0.7959081531
2268.2774707031	0.7957805991
2270.2062780761	0.7976100445
2272.1350854491	0.7964546680
2274.0638928222	0.7973610163
2275.9927001952	0.7975696921
2277.9215075683	0.7970090508
2279.8503149413	0.7963230014
2281.7791223144	0.7961741686
2283.7079296874	0.7982503176
2285.6367370605	0.7993073463
2287.5655444335	0.7994512916
2289.4943518066	0.7996423244
2291.4231591796	0.7993019819
2293.3519665527	0.7987866998
2295.2807739257	0.8010592461
2297.2095812988	0.8022369146
2299.1383886718	0.8017550707
2301.0671960449	0.8018762469
2302.9960034179	0.8024017215
2304.9248107909	0.8031297326
2306.8536181640	0.8027423620
2308.7824255370	0.8055516481
2310.7112329101	0.8067611456
2312.6400402831	0.8073880076
2314.5688476562	0.8095818162
2316.4976550292	0.8093775511
2318.4264624023	0.8121208549
2320.3552697753	0.8148215413
2322.2840771484	0.8171877861
2324.2128845214	0.8205119967
2326.1416918945	0.8218413591
2328.0704992675	0.8215633035
2329.9993066406	0.8241738677
2331.9281140136	0.8282252550
2333.8569213866	0.8273146152
2335.7857287597	0.8281705379
2337.7145361327	0.8286587000
2339.6433435058	0.8289116025
2341.5721508788	0.8288500905
2343.5009582519	0.8243457079
2345.4297656249	0.8240291476
2347.3585729980	0.8189217448
2349.2873803710	0.8112766147
2351.2161877441	0.8168818355
2353.1449951171	0.8259541988
2355.0738024902	0.8302615285
2357.0026098632	0.8352687359
2358.9314172363	0.8379178643
2360.8602246093	0.8396782875
2362.7890319823	0.8386315703
2364.7178393554	0.8354476690
2366.6466467284	0.8350954056
2368.5754541015	0.8326101303
2370.5042614745	0.8296167850
2372.4330688476	0.8246349692
2374.3618762206	0.8197199702
2376.2906835937	0.8174752593
2378.2194909667	0.8126150966
2380.1482983398	0.8093281388
2382.0771057128	0.8084101081
2384.0059130859	0.8080026507
2385.9347204589	0.8069824576
2387.8635278320	0.8058347702
2389.7923352050	0.8070794344
2391.7211425780	0.8066437840
2393.6499499511	0.8069013953
2395.5787573241	0.8081343174
2397.5075646972	0.8057706952
2399.4363720702	0.8068113327
2401.3651794433	0.8078214526
2403.2939868163	0.8042606711
2405.2227941894	0.8063807487
2407.1516015624	0.8079495430
2409.0804089355	0.8069627285
2411.0092163085	0.8077660203
2412.9380236816	0.8059306741
2414.8668310546	0.8062898517
2416.7956384277	0.8071467876
2418.7244458007	0.8073501587
2420.6532531738	0.8068668246
2422.5820605468	0.8065491915
2424.5108679198	0.8081566691
2426.4396752929	0.8077142835
2428.3684826659	0.8073571920
2430.2972900390	0.8061751723
2432.2260974120	0.8079866171
2434.1549047851	0.8089581132
2436.0837121581	0.8071260452
2438.0125195312	0.8078032136
2439.9413269042	0.8067635894
2441.8701342773	0.8077830076
2443.7989416503	0.8081471920
2445.7277490234	0.8070144057
2447.6565563964	0.8063151836
2449.5853637695	0.8081571460
2451.5141711425	0.8094655275
2453.4429785155	0.8058012128
2455.3717858886	0.8071666956
2457.3005932616	0.8064785600
2459.2294006347	0.8066603541
2461.1582080077	0.8080216050
2463.0870153808	0.8050936460
2465.0158227538	0.8075891733
2466.9446301269	0.8070681095
2468.8734374999	0.8072227836
2470.8022448730	0.8086076975
2472.7310522460	0.8057671189
2474.6598596191	0.8072186112
2476.5886669921	0.8079179525
2478.5174743652	0.8051640987
2480.4462817382	0.8052948713
2482.3750891112	0.8077907562
2484.3038964843	0.8070667386
2486.2327038573	0.8059452772
2488.1615112304	0.8054342270
2490.0903186034	0.8049485683
2492.0191259765	0.8055505753
2493.9479333495	0.8046867847
2495.8767407226	0.8066163063
2497.8055480956	0.8080189824
2499.7343554687	0.8055461049
2501.6631628417	0.8053832054
2503.5919702148	0.8061350584
2505.5207775878	0.8048650026
2507.4495849609	0.8052338362
2509.3783923339	0.8055758476
2511.3071997069	0.8042525053
2513.2360070800	0.8046111465
2515.1648144530	0.8042792678
2517.0936218261	0.8046880364
2519.0224291991	0.8046206832
2520.9512365722	0.8035191894
2522.8800439452	0.8046194911
2524.8088513183	0.8045126796
2526.7376586913	0.8035802841
2528.6664660644	0.8037746549
2530.5952734374	0.8048440814
2532.5240808105	0.8033294082
2534.4528881835	0.8024215102
2536.3816955566	0.8052393198
2538.3105029296	0.8051972985
2540.2393103027	0.8024690151
2542.1681176757	0.8023421764
2544.0969250487	0.8042995930
2546.0257324218	0.8036572933
2547.9545397948	0.8031147122
2549.8833471679	0.8034307957
2551.8121545409	0.8035978079
2553.7409619140	0.8036542535
2555.6697692870	0.8028781414
2557.5985766601	0.8026465178
2559.5273840331	0.8017644882
2561.4561914062	0.8024761677
2563.3849987792	0.8003103733
2565.3138061523	0.7999767661
2567.2426135253	0.8026242256
2569.1714208984	0.8004526496
2571.1002282714	0.8010635972
2573.0290356444	0.8005294800
2574.9578430175	0.8012797832
2576.8866503905	0.8021757007
2578.8154577636	0.7994669676
2580.7442651366	0.8007848263
2582.6730725097	0.8001240492
2584.6018798827	0.7997115254
2586.5306872558	0.7990778089
2588.4594946288	0.7977451086
2590.3883020019	0.7970348597
2592.3171093749	0.7968623042
2594.2459167480	0.8001394272
2596.1747241210	0.7972796559
2598.1035314941	0.7956689596
2600.0323388671	0.7986398339
2601.9611462401	0.7972504497
2603.8899536132	0.7972507477
2605.8187609862	0.7974762917
2607.7475683593	0.7956104875
2609.6763757323	0.7960706353
2611.6051831054	0.7960115671
2613.5339904784	0.7944736481
2615.4627978515	0.7964620590
2617.3916052245	0.7952814698
2619.3204125976	0.7921589017
2621.2492199706	0.7944048643
2623.1780273437	0.7946118712
2625.1068347167	0.7930912375
2627.0356420898	0.7927892804
2628.9644494628	0.7933651805
2630.8932568358	0.7942219377
2632.8220642089	0.7921831608
2634.7508715819	0.7903851867
2636.6796789550	0.7914972305
2638.6084863280	0.7918438911
2640.5372937011	0.7896299958
2642.4661010741	0.7899966240
2644.3949084472	0.7909687161
2646.3237158202	0.7885410786
2648.2525231933	0.7894431353
2650.1813305663	0.7905649543
2652.1101379394	0.7876182795
2654.0389453124	0.7872850895
2655.9677526855	0.7870391607
2657.8965600585	0.7865273952
2659.8253674315	0.7877088785
2661.7541748046	0.7861046195
2663.6829821776	0.7846875787
2665.6117895507	0.7847206593
2667.5405969237	0.7847362757
2669.4694042968	0.7853364944
2671.3982116698	0.7859462500
2673.3270190429	0.7839046717
2675.2558264159	0.7832002044
2677.1846337890	0.7847536206
2679.1134411620	0.7803689241
2681.0422485351	0.7808604836
2682.9710559081	0.7832043767
2684.8998632812	0.7800568938
2686.8286706542	0.7807408571
2688.7574780273	0.7787902355
2690.6862854003	0.7770733833
2692.6150927733	0.7776445746
2694.5439001464	0.7781212926
2696.4727075194	0.7775162458
2698.4015148925	0.7757852077
2700.3303222655	0.7772729993
2702.2591296386	0.7745523453
2704.1879370116	0.7746869326
2706.1167443847	0.7747940421
2708.0455517577	0.7718085051
2709.9743591308	0.7742170691
2711.9031665038	0.7730112076
2713.8319738769	0.7723869681
2715.7607812499	0.7714735866
2717.6895886230	0.7707220316
2719.6183959960	0.7728508115
2721.5472033690	0.7700481415
2723.4760107421	0.7693182826
2725.4048181151	0.7709778547
2727.3336254882	0.7695764303
2729.2624328612	0.7661260962
2731.1912402343	0.7662101388
2733.1200476073	0.7669292092
2735.0488549804	0.7654196620
2736.9776623534	0.7668671608
2738.9064697265	0.7643953562
2740.8352770995	0.7623364925
2742.7640844726	0.7635383010
2744.6928918456	0.7614309192
2746.6216992187	0.7606776357
2748.5505065917	0.7608472109
2750.4793139647	0.7600942850
2752.4081213378	0.7592396140
2754.3369287108	0.7579041719
2756.2657360839	0.7565684915
2758.1945434569	0.7558609247
2760.1233508300	0.7557328939
2762.0521582030	0.7553605437
2763.9809655761	0.7543097138
2765.9097729491	0.7532840371
2767.8385803222	0.7535135746
2769.7673876952	0.7519875169
2771.6961950683	0.7508361936
2773.6250024413	0.7521678805
2775.5538098144	0.7494064569
2777.4826171874	0.7470331788
2779.4114245604	0.7496120334
2781.3402319335	0.7480372787
2783.2690393065	0.7445054054
2785.1978466796	0.7451707721
2787.1266540526	0.7435446382
2789.0554614257	0.7419031262
2790.9842687987	0.7424011230
2792.9130761718	0.7399584055
2794.8418835448	0.7405035496
2796.7706909179	0.7411059141
2798.6994982909	0.7378942966
2800.6283056640	0.7382641435
2802.5571130370	0.7368173003
2804.4859204101	0.7346999049
2806.4147277831	0.7348664999
2808.3435351562	0.7322412729
2810.2723425292	0.7321923971
2812.2011499022	0.7313222885
2814.1299572753	0.7303289175
2816.0587646483	0.7310677171
2817.9875720214	0.7271372080
2819.9163793944	0.7258028388
2821.8451867675	0.7251198888
2823.7739941405	0.7239267826
2825.7028015136	0.7239811420
2827.6316088866	0.7210029364
2829.5604162597	0.7204318047
2831.4892236327	0.7190928459
2833.4180310058	0.7171350121
2835.3468383788	0.7176466584
2837.2756457519	0.7165681124
2839.2044531249	0.7153255343
2841.1332604979	0.7116908431
2843.0620678710	0.7082391977
2844.9908752440	0.7084161639
2846.9196826171	0.7063653469
2848.8484899901	0.7026740313
2850.7772973632	0.6997918487
2852.7061047362	0.6979596019
2854.6349121093	0.6999607682
2856.5637194823	0.6990017295
2858.4925268554	0.6969166398
2860.4213342284	0.6996804476
2862.3501416015	0.6955507994
2864.2789489745	0.6930577159
2866.2077563476	0.6955535412
2868.1365637206	0.6911794543
2870.0653710936	0.6909847856
2871.9941784667	0.6916046143
2873.9229858397	0.6871711016
2875.8517932128	0.6867918372
2877.7806005858	0.6857150197
2879.7094079589	0.6821699739
2881.6382153319	0.6823055744
2883.5670227050	0.6810008883
2885.4958300780	0.6762461066
2887.4246374511	0.6747110486
2889.3534448241	0.6738486886
2891.2822521972	0.6737474203
2893.2110595702	0.6717054844
2895.1398669433	0.6677212119
2897.0686743163	0.6674690843
2898.9974816893	0.6638779044
2900.9262890624	0.6624097228
2902.8550964354	0.6612209082
2904.7839038085	0.6578230262
2906.7127111815	0.6588546038
2908.6415185546	0.6548895836
2910.5703259276	0.6518037915
2912.4991333007	0.6497865319
2914.4279406737	0.6464875340
2916.3567480468	0.6449745297
2918.2855554198	0.6412868500
2920.2143627929	0.6415989399
2922.1431701659	0.6384347677
2924.0719775390	0.6343597770
2926.0007849120	0.6345590949
2927.9295922851	0.6339762211
2929.8583996581	0.6331214309
2931.7872070311	0.6292223930
2933.7160144042	0.6299796700
2935.6448217772	0.6280191541
2937.5736291503	0.6237506866
2939.5024365233	0.6230757236
2941.4312438964	0.6201411486
2943.3600512694	0.6213029623
2945.2888586425	0.6184918880
2947.2176660155	0.6159242392
2949.1464733886	0.6139491796
2951.0752807616	0.6084854603
2953.0040881347	0.6093536615
2954.9328955077	0.6058766842
2956.8617028808	0.6043259501
2958.7905102538	0.6046656966
2960.7193176268	0.5993830562
2962.6481249999	0.5987925529
2964.5769323729	0.5956962109
2966.5057397460	0.5921347141
2968.4345471190	0.5926335454
2970.3633544921	0.5891570449
2972.2921618651	0.5866305828
2974.2209692382	0.5866327286
2976.1497766112	0.5833830833
2978.0785839843	0.5790858269
2980.0073913573	0.5759201050
2981.9361987304	0.5750146508
2983.8650061034	0.5736877322
2985.7938134765	0.5701190829
2987.7226208495	0.5683651567
2989.6514282225	0.5654435754
2991.5802355956	0.5617033839
2993.5090429686	0.5593785644
2995.4378503417	0.5578069091
2997.3666577147	0.5548073053
2999.2954650878	0.5522339940
3001.2242724608	0.5511770844
3003.1530798339	0.5450876355
3005.0818872069	0.5421332717
3007.0106945800	0.5412118435
3008.9395019530	0.5380761623
3010.8683093261	0.5356848836
3012.7971166991	0.5324968696
3014.7259240722	0.5325816870
3016.6547314452	0.5281597376
3018.5835388182	0.5239142179
3020.5123461913	0.5229517817
3022.4411535643	0.5196550488
3024.3699609374	0.5181584358
3026.2987683104	0.5136958361
3028.2275756835	0.5113877654
3030.1563830565	0.5092349648
3032.0851904296	0.5044132471
3034.0139978026	0.5025012493
3035.9428051757	0.5004612207
3037.8716125487	0.4981629252
3039.8004199218	0.4934474826
3041.7292272948	0.4903598726
3043.6580346679	0.4890971184
3045.5868420409	0.4862689078
3047.5156494139	0.4832207859
3049.4444567870	0.4792400897
3051.3732641600	0.4780316353
3053.3020715331	0.4757325947
3055.2308789061	0.4712063074
3057.1596862792	0.4692346454
3059.0884936522	0.4667209983
3061.0173010253	0.4638970494
3062.9461083983	0.4593578279
3064.8749157714	0.4560423791
3066.8037231444	0.4578895271
3068.7325305175	0.4544920623
3070.6613378905	0.4498567879
3072.5901452636	0.4486736059
3074.5189526366	0.4451753795
3076.4477600097	0.4407338798
3078.3765673827	0.4374605417
3080.3053747557	0.4373571575
3082.2341821288	0.4322375059
3084.1629895018	0.4296478629
3086.0917968749	0.4314173460
3088.0206042479	0.4269178212
3089.9494116210	0.4260385334
3091.8782189940	0.4222797751
3093.8070263671	0.4178414047
3095.7358337401	0.4157821536
3097.6646411132	0.4111009538
3099.5934484862	0.4114968181
3101.5222558593	0.4101159275
3103.4510632323	0.4071073234
3105.3798706054	0.4047272801
3107.3086779784	0.4006494284
3109.2374853514	0.3978191912
3111.1662927245	0.3963135481
3113.0951000975	0.3923912346
3115.0239074706	0.3893544376
3116.9527148436	0.3901696801
3118.8815222167	0.3868702650
3120.8103295897	0.3837731779
3122.7391369628	0.3808944523
3124.6679443358	0.3801513314
3126.5967517089	0.3810199797
3128.5255590819	0.3765142858
3130.4543664550	0.3733710945
3132.3831738280	0.3713092804
3134.3119812011	0.3722905219
3136.2407885741	0.3701005280
3138.1695959471	0.3642043173
3140.0984033202	0.3638287485
3142.0272106932	0.3615170717
3143.9560180663	0.3583557606
3145.8848254393	0.3580859601
3147.8136328124	0.3575740755
3149.7424401854	0.3565103710
3151.6712475585	0.3550634682
3153.6000549315	0.3529832959
3155.5288623046	0.3518358767
3157.4576696776	0.3483757675
3159.3864770507	0.3470503986
3161.3152844237	0.3465717733
3163.2440917968	0.3407036364
3165.1728991698	0.3422236145
3167.1017065428	0.3433865607
3169.0305139159	0.3404326439
3170.9593212889	0.3390731215
3172.8881286620	0.3382441103
3174.8169360350	0.3394181430
3176.7457434081	0.3352166414
3178.6745507811	0.3345587850
3180.6033581542	0.3358219862
3182.5321655272	0.3317869604
3184.4609729003	0.3299139142
3186.3897802733	0.3323897421
3188.3185876464	0.3325721920
3190.2473950194	0.3276233375
3192.1762023925	0.3291407824
3194.1050097655	0.3311912417
3196.0338171386	0.3287709355
3197.9626245116	0.3271127343
3199.8914318846	0.3279944062
3201.8202392577	0.3289344311
3203.7490466307	0.3267775178
3205.6778540038	0.3268833756
3207.6066613768	0.3270767331
3209.5354687499	0.3264893889
3211.4642761229	0.3246420622
3213.3930834960	0.3264308274
3215.3218908690	0.3270082176
3217.2506982421	0.3242506981
3219.1795056151	0.3273254931
3221.1083129882	0.3264530599
3223.0371203612	0.3277271390
3224.9659277343	0.3286183476
3226.8947351073	0.3251606226
3228.8235424803	0.3279650807
3230.7523498534	0.3297146261
3232.6811572264	0.3295979202
3234.6099645995	0.3293116093
3236.5387719725	0.3286402524
3238.4675793456	0.3296352029
3240.3963867186	0.3303108215
3242.3251940917	0.3310773969
3244.2540014647	0.3340418339
3246.1828088378	0.3321036100
3248.1116162108	0.3299652338
3250.0404235839	0.3314747512
3251.9692309569	0.3306976259
3253.8980383300	0.3347837925
3255.8268457030	0.3337350190
3257.7556530760	0.3322728276
3259.6844604491	0.3359997869
3261.6132678221	0.3348279297
3263.5420751952	0.3353993893
3265.4708825682	0.3370938301
3267.3996899413	0.3392851651
3269.3284973143	0.3388546407
3271.2573046874	0.3400759399
3273.1861120604	0.3412504196
3275.1149194335	0.3400146365
3277.0437268065	0.3425293267
3278.9725341796	0.3439010382
3280.9013415526	0.3448714912
3282.8301489257	0.3427193463
3284.7589562987	0.3445906341
3286.6877636717	0.3460775912
3288.6165710448	0.3453787565
3290.5453784178	0.3473729789
3292.4741857909	0.3460346162
3294.4029931639	0.3491131365
3296.3318005370	0.3486302495
3298.2606079100	0.3497064114
3300.1894152831	0.3531402946
3302.1182226561	0.3522652090
3304.0470300292	0.3513737917
3305.9758374022	0.3489221036
3307.9046447753	0.3527713716
3309.8334521483	0.3544242978
3311.7622595214	0.3560801148
3313.6910668944	0.3576035202
3315.6198742675	0.3546615541
3317.5486816405	0.3546181321
3319.4774890135	0.3557069600
3321.4062963866	0.3589809537
3323.3351037596	0.3590528071
3325.2639111327	0.3600857258
3327.1927185057	0.3617171347
3329.1215258788	0.3632099926
3331.0503332518	0.3632241786
3332.9791406249	0.3624467254
3334.9079479979	0.3667194843
3336.8367553710	0.3662704825
3338.7655627440	0.3688135743
3340.6943701171	0.3699880540
3342.6231774901	0.3698348999
3344.5519848632	0.3710359335
3346.4807922362	0.3683878779
3348.4095996092	0.3725625873
3350.3384069823	0.3724871278
3352.2672143553	0.3717733026
3354.1960217284	0.3746458888
3356.1248291014	0.3768121302
3358.0536364745	0.3785371780
3359.9824438475	0.3778392076
3361.9112512206	0.3812931478
3363.8400585936	0.3817241490
3365.7688659667	0.3838987648
3367.6976733397	0.3847462237
3369.6264807128	0.3827178776
3371.5552880858	0.3879616559
3373.4840954589	0.3892751634
3375.4129028319	0.3896282017
3377.3417102049	0.3919586837
3379.2705175780	0.3938673139
3381.1993249510	0.3965708911
3383.1281323241	0.3990948200
3385.0569396971	0.4000318050
3386.9857470702	0.3990913630
3388.9145544432	0.4043581486
3390.8433618163	0.4077787399
3392.7721691893	0.4073125422
3394.7009765624	0.4096275866
3396.6297839354	0.4107545316
3398.5585913085	0.4158468246
3400.4873986815	0.4183728397
3402.4162060546	0.4170698225
3404.3450134276	0.4216164052
3406.2738208006	0.4256104231
3408.2026281737	0.4273444712
3410.1314355467	0.4277657270
3412.0602429198	0.4301932454
3413.9890502928	0.4335413873
3415.9178576659	0.4346580803
3417.8466650389	0.4381454587
3419.7754724120	0.4411108494
3421.7042797850	0.4471533597
3423.6330871581	0.4510348737
3425.5618945311	0.4502379596
3427.4907019042	0.4513514638
3429.4195092772	0.4520540237
3431.3483166503	0.4581059515
3433.2771240233	0.4610282779
3435.2059313963	0.4631184638
3437.1347387694	0.4691495001
3439.0635461424	0.4707112610
3440.9923535155	0.4767432213
3442.9211608885	0.4797071815
3444.8499682616	0.4799189270
3446.7787756346	0.4841319919
3448.7075830077	0.4855085313
3450.6363903807	0.4874423444
3452.5651977538	0.4913596213
3454.4940051268	0.4971673787
3456.4228124999	0.4991532862
3458.3516198729	0.5025342107
3460.2804272460	0.5079242587
3462.2092346190	0.5087874532
3464.1380419921	0.5139989853
3466.0668493651	0.5136481524
3467.9956567381	0.5146817565
3469.9244641112	0.5231413245
3471.8532714842	0.5213747025
3473.7820788573	0.5237799883
3475.7108862303	0.5311992168
3477.6396936034	0.5328195691
3479.5685009764	0.5359219909
3481.4973083495	0.5388286114
3483.4261157225	0.5406661630
3485.3549230956	0.5434599519
3487.2837304686	0.5462815166
3489.2125378417	0.5468144417
3491.1413452147	0.5522125959
3493.0701525878	0.5592663884
3494.9989599608	0.5579872727
3496.9277673338	0.5614216924
3498.8565747069	0.5683685541
3500.7853820799	0.5713571310
3502.7141894530	0.5765473843
3504.6429968260	0.5817322731
3506.5718041991	0.5837307572
3508.5006115721	0.5845897198
3510.4294189452	0.5855146050
3512.3582263182	0.5882984996
3514.2870336913	0.5936318040
3516.2158410643	0.5971443057
3518.1446484374	0.5982408524
3520.0734558104	0.6028189659
3522.0022631835	0.6106626391
3523.9310705565	0.6117182374
3525.8598779295	0.6121582985
3527.7886853026	0.6167303324
3529.7174926756	0.6171731353
3531.6463000487	0.6218560338
3533.5751074217	0.6265554428
3535.5039147948	0.6308082342
3537.4327221678	0.6337023973
3539.3615295409	0.6333982944
3541.2903369139	0.6405572295
3543.2191442870	0.6423125863
3545.1479516600	0.6452341080
3547.0767590331	0.6528626084
3549.0055664061	0.6547679901
3550.9343737792	0.6569916606
3552.8631811522	0.6605185866
3554.7919885252	0.6629769802
3556.7207958983	0.6652441025
3558.6496032713	0.6745423675
3560.5784106444	0.6730522513
3562.5072180174	0.6727768183
3564.4360253905	0.6823106408
3566.3648327635	0.6808048487
3568.2936401366	0.6872677803
3570.2224475096	0.6910201907
3572.1512548827	0.6915419698
3574.0800622557	0.6958302259
3576.0088696288	0.6984722018
3577.9376770018	0.7068665028
3579.8664843749	0.7078928351
3581.7952917479	0.7103510499
3583.7240991210	0.7153389454
3585.6529064940	0.7180076838
3587.5817138670	0.7221069932
3589.5105212401	0.7221675515
3591.4393286131	0.7261510491
3593.3681359862	0.7325083017
3595.2969433592	0.7354551554
3597.2257507323	0.7364587784
3599.1545581053	0.7404448390
3601.0833654784	0.7425544858
3603.0121728514	0.7451206446
3604.9409802245	0.7489119768
3606.8697875975	0.7502194643
3608.7985949706	0.7545914054
3610.7274023436	0.7579048276
3612.6562097167	0.7640635967
3614.5850170897	0.7676571608
3616.5138244627	0.7675627470
3618.4426318358	0.7724375725
3620.3714392088	0.7783663273
3622.3002465819	0.7807281017
3624.2290539549	0.7817806005
3626.1578613280	0.7881988287
3628.0866687010	0.7918222547
3630.0154760741	0.7946982980
3631.9442834471	0.7970530987
3633.8730908202	0.7983759046
3635.8018981932	0.8031888008
3637.7307055663	0.8042273521
3639.6595129393	0.8123276234
3641.5883203124	0.8155673742
3643.5171276854	0.8138659000
3645.4459350584	0.8237108588
3647.3747424315	0.8306495547
3649.3035498045	0.8368515372
3651.2323571776	0.8394506574
3653.1611645506	0.8384738564
3655.0899719237	0.8457017541
3657.0187792967	0.8529864550
3658.9475866698	0.8574712276
3660.8763940428	0.8612871170
3662.8052014159	0.8638198972
3664.7340087889	0.8723851442
3666.6628161620	0.8759126663
3668.5916235350	0.8776170611
3670.5204309081	0.8869833946
3672.4492382811	0.8897320628
3674.3780456541	0.8969510198
3676.3068530272	0.9063221216
3678.2356604002	0.9050238132
3680.1644677733	0.9051691890
3682.0932751463	0.9108145833
3684.0220825194	0.9159060717
3685.9508898924	0.9146471024
3687.8796972655	0.9210041165
3689.8085046385	0.9270521402
3691.7373120116	0.9286039472
3693.6661193846	0.9287382960
3695.5949267577	0.9279286861
3697.5237341307	0.9331550002
3699.4525415038	0.9348162413
3701.3813488768	0.9382168055
3703.3101562499	0.9371890426
3705.2389636229	0.9385979772
3707.1677709959	0.9431335926
3709.0965783690	0.9400730729
3711.0253857420	0.9446402192
3712.9541931151	0.9461299181
3714.8830004881	0.9459417462
3716.8118078612	0.9471926689
3718.7406152342	0.9463055134
3720.6694226073	0.9486485124
3722.5982299803	0.9470447898
3724.5270373534	0.9501139522
3726.4558447264	0.9508315325
3728.3846520995	0.9450144768
3730.3134594725	0.9490808249
3732.2422668456	0.9518656135
3734.1710742186	0.9505627155
3736.0998815916	0.9547361732
3738.0286889647	0.9507452250
3739.9574963377	0.9506065845
3741.8863037108	0.9534564614
3743.8151110838	0.9503651261
3745.7439184569	0.9552468061
3747.6727258299	0.9516117573
3749.6015332030	0.9523787498
3751.5303405760	0.9566578269
3753.4591479491	0.9502786994
3755.3879553221	0.9543586969
3757.3167626952	0.9537798166
3759.2455700682	0.9521638751
3761.1743774413	0.9545365572
3763.1031848143	0.9527670145
3765.0319921873	0.9520782828
3766.9607995604	0.9536147118
3768.8896069334	0.9516885281
3770.8184143065	0.9474116564
3772.7472216795	0.9538249969
3774.6760290526	0.9531164169
3776.6048364256	0.9510587454
3778.5336437987	0.9510239959
3780.4624511717	0.9468067288
3782.3912585448	0.9532655478
3784.3200659178	0.9524376392
3786.2488732909	0.9509550333
3788.1776806639	0.9503200650
3790.1064880370	0.9488535523
3792.0352954100	0.9550868273
3793.9641027830	0.9535561204
3795.8929101561	0.9531587958
3797.8217175291	0.9524179697
3799.7505249022	0.9521257877
3801.6793322752	0.9550037384
3803.6081396483	0.9492878318
3805.5369470213	0.9502413869
3807.4657543944	0.9552513957
3809.3945617674	0.9509441257
3811.3233691405	0.9486235380
3813.2521765135	0.9512642026
3815.1809838866	0.9481676817
3817.1097912596	0.9479745030
3819.0385986327	0.9533803463
3820.9674060057	0.9515464306
3822.8962133787	0.9479721189
3824.8250207518	0.9497039318
3826.7538281248	0.9492615461
3828.6826354979	0.9475358129
3830.6114428709	0.9506984353
3832.5402502440	0.9496334791
3834.4690576170	0.9508637786
3836.3978649901	0.9554612637
3838.3266723631	0.9487170577
3840.2554797362	0.9448952675
3842.1842871092	0.9453696012
3844.1130944823	0.9449325800
3846.0419018553	0.9479925632
3847.9707092284	0.9501999021
3849.8995166014	0.9473942518
3851.8283239745	0.9464694262
3853.7571313475	0.9528756738
3855.6859387205	0.9511883259
3857.6147460936	0.9463508129
3859.5435534666	0.9427592158
3861.4723608397	0.9451624751
3863.4011682127	0.9484409690
3865.3299755858	0.9432545304
3867.2587829588	0.9449455738
3869.1875903319	0.9493003488
3871.1163977049	0.9499222636
3873.0452050780	0.9493873119
3874.9740124510	0.9470396042
3876.9028198241	0.9465371966
3878.8316271971	0.9485247135
3880.7604345702	0.9447097778
3882.6892419432	0.9407926202
3884.6180493162	0.9450736046
3886.5468566893	0.9456624389
3888.4756640623	0.9419610500
3890.4044714354	0.9448639750
3892.3332788084	0.9505390525
3894.2620861815	0.9453126192
3896.1908935545	0.9404054880
3898.1197009276	0.9444128871
3900.0485083006	0.9414207935
3901.9773156737	0.9427409172
3903.9061230467	0.9486110210
3905.8349304198	0.9441902041
3907.7637377928	0.9410496950
3909.6925451659	0.9375268221
3911.6213525389	0.9379515052
3913.5501599119	0.9391378164
3915.4789672850	0.9360259771
3917.4077746580	0.9399454594
3919.3365820311	0.9395546317
3921.2653894041	0.9402796626
3923.1941967772	0.9445322156
3925.1230041502	0.9356623292
3927.0518115233	0.9339690208
3928.9806188963	0.9391153455
3930.9094262694	0.9387831092
3932.8382336424	0.9399341345
3934.7670410155	0.9370577931
3936.6958483885	0.9368216991
3938.6246557616	0.9380166531
3940.5534631346	0.9390024543
3942.4822705076	0.9404376149
3944.4110778807	0.9368121028
3946.3398852537	0.9384464025
3948.2686926268	0.9421527386
3950.1974999998	0.9421570301
3952.1263073729	0.9383467436
3954.0551147459	0.9355494380
3955.9839221190	0.9360680580
3957.9127294920	0.9390009642
3959.8415368651	0.9408824444
3961.7703442381	0.9355343580
3963.6991516112	0.9351555109
3965.6279589842	0.9313709736
3967.5567663573	0.9299747348
3969.4855737303	0.9374778271
3971.4143811034	0.9354090691
3973.3431884764	0.9327525496
3975.2719958494	0.9333807230
3977.2008032225	0.9374063015
3979.1296105955	0.9376310110
3981.0584179686	0.9372144938
3982.9872253416	0.9352489710
3984.9160327147	0.9318987727
3986.8448400877	0.9405270219
3988.7736474608	0.9376266599
3990.7024548338	0.9326706529
3992.6312622069	0.9322585464
3994.5600695799	0.9320521355
3996.4888769530	0.9351004362
3998.4176843260	0.9305385947
4000.3464916991	0.9345564246
4002.2752990721	0.9364742041
4004.2041064451	0.9331319928
4006.1329138182	0.9302437305
4008.0617211912	0.9334383011
4009.9905285643	0.9381167889
4011.9193359373	0.9280857444
4013.8481433104	0.9340893030
4015.7769506834	0.9383960962
4017.7057580565	0.9309072495
4019.6345654295	0.9334156513
4021.5633728026	0.9354853034
4023.4921801756	0.9329442978
4025.4209875487	0.9287827611
4027.3497949217	0.9340261221
4029.2786022948	0.9308416843
4031.2074096678	0.9300826192
4033.1362170408	0.9382755160
4035.0650244139	0.9295266271
4036.9938317869	0.9267416000
4038.9226391600	0.9319275618
4040.8514465330	0.9337309599
4042.7802539061	0.9352921247
4044.7090612791	0.9341588020
4046.6378686522	0.9320175648
4048.5666760252	0.9319714904
4050.4954833983	0.9298601747
4052.4242907713	0.9310697317
4054.3530981444	0.9359601140
4056.2819055174	0.9324935675
4058.2107128905	0.9367462397
4060.1395202635	0.9379192591
4062.0683276365	0.9344215989
4063.9971350096	0.9367300272
4065.9259423826	0.9349018931
4067.8547497557	0.9345401525
4069.7835571287	0.9268093705
4071.7123645018	0.9264866114
4073.6411718748	0.9298081398
4075.5699792479	0.9295194745
4077.4987866209	0.9307782650
4079.4275939940	0.9243907928
4081.3564013670	0.9314587116
4083.2852087401	0.9347159863
4085.2140161131	0.9277008772
4087.1428234862	0.9271165133
4089.0716308592	0.9314162731
4091.0004382323	0.9332631826
4092.9292456053	0.9283075333
4094.8580529783	0.9300289750
4096.7868603514	0.9235352278
4098.7156677244	0.9291911125
4100.6444750975	0.9427366257
4102.5732824705	0.9272482991
4104.5020898436	0.9201450348
4106.4308972166	0.9305363297
4108.3597045897	0.9339269400
4110.2885119627	0.9323391318
4112.2173193358	0.9312600493
4114.1461267088	0.9279332757
4116.0749340819	0.9290051460
4118.0037414549	0.9262192249
4119.9325488280	0.9228874445
4121.8613562010	0.9291711450
4123.7901635740	0.9243739247
4125.7189709471	0.9266154170
4127.6477783201	0.9336720705
4129.5765856932	0.9319325686
4131.5053930662	0.9344133139
4133.4342004393	0.9281757474
4135.3630078123	0.9225641489
4137.2918151854	0.9282608032
4139.2206225584	0.9275818467
4141.1494299315	0.9243404269
4143.0782373045	0.9305950999
4145.0070446776	0.9306787848
4146.9358520506	0.9324082732
4148.8646594237	0.9308768511
4150.7934667967	0.9240579009
4152.7222741697	0.9318172932
4154.6510815428	0.9288154244
4156.5798889158	0.9296736717
4158.5086962889	0.9309649467
4160.4375036619	0.9270677567
4162.3663110350	0.9316490293
4164.2951184080	0.9249545932
4166.2239257811	0.9312350750
4168.1527331541	0.9346625209
4170.0815405272	0.9294483066
4172.0103479002	0.9274472594
4173.9391552733	0.9211349487
4175.8679626463	0.9326650500
4177.7967700194	0.9349300265
4179.7255773924	0.9269089103
4181.6543847654	0.9324167371
4183.5831921385	0.9309636354
4185.5119995115	0.9284297228
4187.4408068846	0.9336247444
4189.3696142576	0.9252924919
4191.2984216307	0.9249363542
4193.2272290037	0.9303311706
4195.1560363768	0.9204784632
4197.0848437498	0.9292476177
4199.0136511229	0.9280672669
4200.9424584959	0.9225504994
4202.8712658690	0.9306616187
4204.8000732420	0.9225871563
4206.7288806151	0.9253030419
4208.6576879881	0.9344958663
4210.5864953611	0.9380596876
4212.5153027342	0.9322764874
4214.4441101072	0.9261078238
4216.3729174803	0.9268660545
4218.3017248533	0.9234809875
4220.2305322264	0.9281059504
4222.1593395994	0.9289215803
4224.0881469725	0.9303050637
4226.0169543455	0.9259949923
4227.9457617186	0.9193871617
4229.8745690916	0.9273321629
4231.8033764647	0.9263395667
4233.7321838377	0.9233748913
4235.6609912108	0.9274705052
4237.5897985838	0.9256095290
4239.5186059569	0.9227761030
4241.4474133299	0.9287578464
4243.3762207029	0.9232479930
4245.3050280760	0.9185888171
4247.2338354490	0.9261622429
4249.1626428221	0.9233301282
4251.0914501951	0.9246647358
4253.0202575682	0.9273508191
4254.9490649412	0.9267811775
4256.8778723143	0.9255989790
4258.8066796873	0.9288334250
4260.7354870604	0.9333312511
4262.6642944334	0.9287926555
4264.5931018065	0.9297940731
4266.5219091795	0.9279558063
4268.4507165526	0.9243225455
4270.3795239256	0.9242118597
4272.3083312986	0.9291556478
4274.2371386717	0.9274190664
4276.1659460447	0.9278606772
4278.0947534178	0.9375842214
4280.0235607908	0.9285482764
4281.9523681639	0.9333791733
4283.8811755369	0.9357089400
4285.8099829100	0.9276804328
4287.7387902830	0.9292599559
4289.6675976561	0.9203597903
4291.5964050291	0.9238454103
4293.5252124022	0.9286354184
4295.4540197752	0.9278423786
4297.3828271483	0.9278612733
4299.3116345213	0.9312370420
4301.2404418943	0.9337087870
4303.1692492674	0.9238583446
4305.0980566404	0.9263348579
4307.0268640135	0.9260910153
4308.9556713865	0.9233884811
4310.8844787596	0.9266315699
4312.8132861326	0.9250001311
4314.7420935057	0.9218999147
4316.6709008787	0.9235054255
4318.5997082518	0.9345360398
4320.5285156248	0.9274380803
4322.4573229979	0.9204053283
4324.3861303709	0.9297657013
4326.3149377440	0.9268954396
4328.2437451170	0.9239493608
4330.1725524900	0.9287630320
4332.1013598631	0.9245564342
4334.0301672361	0.9232946634
4335.9589746092	0.9300475717
4337.8877819822	0.9268316627
4339.8165893553	0.9259513021
4341.7453967283	0.9254441261
4343.6742041014	0.9240407348
4345.6030114744	0.9248235226
4347.5318188475	0.9184859991
4349.4606262205	0.9229791760
4351.3894335936	0.9257350564
4353.3182409666	0.9226478934
4355.2470483397	0.9284957647
4357.1758557127	0.9286237359
4359.1046630858	0.9254114032
4361.0334704588	0.9270916581
4362.9622778318	0.9221146703
4364.8910852049	0.9220673442
4366.8198925779	0.9258664846
4368.7486999510	0.9107443094
4370.6775073240	0.9152211547
4372.6063146971	0.9255892634
4374.5351220701	0.9186795354
4376.4639294432	0.9251050353
4378.3927368162	0.9229502082
4380.3215441893	0.9232345819
4382.2503515623	0.9209163189
4384.1791589354	0.9113299251
4386.1079663084	0.9227774739
4388.0367736815	0.9315677285
4389.9655810545	0.9261934161
4391.8943884275	0.9156091213
4393.8231958006	0.9215031862
4395.7520031736	0.9233925343
4397.6808105467	0.9148263931
4399.6096179197	0.9264993668
4401.5384252928	0.9294559360
4403.4672326658	0.9230682850
4405.3960400389	0.9229426384
4407.3248474119	0.9296061993
4409.2536547850	0.9268586040
4411.1824621580	0.9169298410
4413.1112695311	0.9220762253
4415.0400769041	0.9209879041
4416.9688842772	0.9245921969
4418.8976916502	0.9220341444
4420.8264990232	0.9189151525
4422.7553063963	0.9319669604
4424.6841137693	0.9218312502
4426.6129211424	0.9237888455
4428.5417285154	0.9294695854
4430.4705358885	0.9202336669
4432.3993432615	0.9239642024
4434.3281506346	0.9164496660
4436.2569580076	0.9179704189
4438.1857653807	0.9245854020
4440.1145727537	0.9239493012
4442.0433801268	0.9261246324
4443.9721874998	0.9176751375
4445.9009948729	0.9159783125
4447.8298022459	0.9167987704
4449.7586096189	0.9225149155
4451.6874169920	0.9218752384
4453.6162243650	0.9156925678
4455.5450317381	0.9253357053
4457.4738391111	0.9199488163
4459.4026464842	0.9211741090
4461.3314538572	0.9254216552
4463.2602612303	0.9219009280
4465.1890686033	0.9284288287
4467.1178759764	0.9196469188
4469.0466833494	0.9194700718
4470.9754907225	0.9229983091
4472.9042980955	0.9212533832
4474.8331054686	0.9184972048
4476.7619128416	0.9088591933
4478.6907202147	0.9241231680
4480.6195275877	0.9336577058
4482.5483349607	0.9227915406
4484.4771423338	0.9169166684
4486.4059497068	0.9184410572
4488.3347570799	0.9208580852
4490.2635644529	0.9196199179
4492.1923718260	0.9231966138
4494.1211791990	0.9177281857
4496.0499865721	0.9193708301
4497.9787939451	0.9220172763
4499.9076013182	0.9225633144
4501.8364086912	0.9259454608
4503.7652160643	0.9140350819
4505.6940234373	0.9181725979
4507.6228308104	0.9169902205
4509.5516381834	0.9178404808
4511.4804455564	0.9270437956
4513.4092529295	0.9190058112
4515.3380603025	0.9219281673
4517.2668676756	0.9155860543
4519.1956750486	0.9154791832
4521.1244824217	0.9218233824
4523.0532897947	0.9171491265
4524.9820971678	0.9200134277
4526.9109045408	0.9240597486
4528.8397119139	0.9296158552
4530.7685192869	0.9189254642
4532.6973266600	0.9157828093
4534.6261340330	0.9220790267
4536.5549414061	0.9163423181
4538.4837487791	0.9185223579
4540.4125561521	0.9237306118
4542.3413635252	0.9227384329
4544.2701708982	0.9179071188
4546.1989782713	0.9217310548
4548.1277856443	0.9217186570
4550.0565930174	0.9224023819
4551.9854003904	0.9260134697
4553.9142077635	0.9283884764
4555.8430151365	0.9282126427
4557.7718225096	0.9173563123
4559.7006298826	0.9229747653
4561.6294372557	0.9110820889
4563.5582446287	0.9089035988
4565.4870520018	0.9299998283
4567.4158593748	0.9187129736
4569.3446667478	0.9196411967
4571.2734741209	0.9242195487
4573.2022814939	0.9242788553
4575.1310888670	0.9291438460
4577.0598962400	0.9270748496
4578.9887036131	0.9206565022
4580.9175109861	0.9109553695
4582.8463183592	0.9203134775
4584.7751257322	0.9262458086
4586.7039331053	0.9260116220
4588.6327404783	0.9212176800
4590.5615478514	0.9140073061
4592.4903552244	0.9224233627
4594.4191625975	0.9267227054
4596.3479699705	0.9228341579
4598.2767773435	0.9094864726
4600.2055847166	0.9059135914
4602.1343920896	0.9166810513
4604.0631994627	0.9166029692
4605.9920068357	0.9131928682
4607.9208142088	0.9230224490
4609.8496215818	0.9268577099
4611.7784289549	0.9179338217
4613.7072363279	0.9160038829
4615.6360437010	0.9122181535
4617.5648510740	0.9242883921
4619.4936584471	0.9295235872
4621.4224658201	0.9138514996
4623.3512731932	0.9188770056
4625.2800805662	0.9161462188
4627.2088879393	0.9042493105
4629.1376953123	0.9074130654
4631.0665026853	0.9201847315
4632.9953100584	0.9279020429
4634.9241174314	0.9180202484
4636.8529248045	0.9129116535
4638.7817321775	0.9145975709
4640.7105395506	0.9174878597
4642.6393469236	0.9230898023
4644.5681542967	0.9147507548
4646.4969616697	0.9139549732
4648.4257690428	0.9218646288
4650.3545764158	0.9124209881
4652.2833837889	0.9172958136
4654.2121911619	0.9287008643
4656.1409985350	0.9236562848
4658.0698059080	0.9139708281
4659.9986132810	0.9173718095
4661.9274206541	0.9254637957
4663.8562280271	0.9185101986
4665.7850354002	0.9262288213
4667.7138427732	0.9174057245
4669.6426501463	0.9183699489
4671.5714575193	0.9350923896
4673.5002648924	0.9225273132
4675.4290722654	0.9251339436
4677.3578796385	0.9055221677
4679.2866870115	0.9062713385
4681.2154943846	0.9193554521
4683.1443017576	0.9035941362
4685.0731091307	0.9186593294
4687.0019165037	0.9173366427
4688.9307238767	0.9264372587
4690.8595312498	0.9297093749
4692.7883386228	0.9152045846
4694.7171459959	0.9201047421
4696.6459533689	0.9092218280
4698.5747607420	0.9164426327
4700.5035681150	0.9272566438
4702.4323754881	0.9199470282
4704.3611828611	0.9134574533
4706.2899902342	0.9186559916
4708.2187976072	0.9133828878
4710.1476049803	0.9063199759
4712.0764123533	0.9242211580
4714.0052197264	0.9220172763
4715.9340270994	0.9208083153
4717.8628344724	0.9196403027
4719.7916418455	0.9190683365
4721.7204492185	0.9201993942
4723.6492565916	0.9082171917
4725.5780639646	0.9159681797
4727.5068713377	0.9211516976
4729.4356787107	0.9207734466
4731.3644860838	0.9129979014
4733.2932934568	0.9131259918
4735.2221008299	0.9137809277
4737.1509082029	0.9056551456
4739.0797155760	0.9216663241
4741.0085229490	0.9200709462
4742.9373303221	0.9171270132
4744.8661376951	0.9185418487
4746.7949450682	0.9126627445
4748.7237524412	0.9219177961
4750.6525598142	0.9219121337
4752.5813671873	0.9162825942
4754.5101745603	0.9146780968
4756.4389819334	0.9142158628
4758.3677893064	0.9137724638
4760.2965966795	0.9256329536
4762.2254040525	0.9184051156
4764.1542114256	0.8989273310
4766.0830187986	0.9140499830
4768.0118261717	0.9196594357
4769.9406335447	0.9252067208
4771.8694409178	0.9259979129
4773.7982482908	0.9126442075
4775.7270556639	0.9109078646
4777.6558630369	0.9069413543
4779.5846704099	0.9163016677
4781.5134777830	0.9112363458
4783.4422851560	0.9089471698
4785.3710925291	0.9195504785
4787.2998999021	0.9146996140
4789.2287072752	0.9229744673
4791.1575146482	0.9048395157
4793.0863220213	0.9000366330
4795.0151293943	0.9236767292
4796.9439367674	0.9098924398
4798.8727441404	0.9073988199
4800.8015515135	0.9226911664
4802.7303588865	0.9274397492
4804.6591662596	0.9191920757
4806.5879736326	0.9132533073
4808.5167810056	0.9219580889
4810.4455883787	0.9190245867
4812.3743957517	0.9016251564
4814.3032031248	0.9030725360
4816.2320104978	0.9222306609
4818.1608178709	0.9116126299
4820.0896252439	0.9147152901
4822.0184326170	0.9233718514
4823.9472399900	0.9046791792
4825.8760473631	0.9037224054
4827.8048547361	0.9084213972
4829.7336621092	0.9238910675
4831.6624694822	0.9163942337
4833.5912768553	0.9088057876
4835.5200842283	0.9196609259
4837.4488916013	0.9094958305
4839.3776989744	0.9174581766
4841.3065063474	0.9128776193
4843.2353137205	0.9123973846
4845.1641210935	0.9201826453
4847.0929284666	0.9155460596
4849.0217358396	0.9167335629
4850.9505432127	0.9131117463
4852.8793505857	0.9193251729
4854.8081579588	0.9055376053
4856.7369653318	0.8972390890
4858.6657727049	0.9001433849
4860.5945800779	0.9137444496
4862.5233874510	0.9285305738
4864.4521948240	0.9129592776
4866.3810021971	0.9181064963
4868.3098095701	0.9080696702
4870.2386169431	0.9084354639
4872.1674243162	0.9176126719
4874.0962316892	0.9006510973
4876.0250390623	0.9002728462
4877.9538464353	0.9072900414
4879.8826538084	0.9233896136
4881.8114611814	0.9067687392
4883.7402685545	0.9063064456
4885.6690759275	0.9204422235
4887.5978833006	0.9072935581
4889.5266906736	0.9266088605
4891.4554980467	0.9199903011
4893.3843054197	0.9049607515
4895.3131127928	0.9149898291
4897.2419201658	0.9181159139
4899.1707275388	0.9110773802
4901.0995349119	0.9000071883
4903.0283422849	0.9154961109
4904.9571496580	0.9215000272
4906.8859570310	0.9102452993
4908.8147644041	0.9131938219
4910.7435717771	0.9104969501
4912.6723791502	0.9063915014
4914.6011865232	0.9174930453
4916.5299938963	0.9074855447
4918.4588012693	0.8972014189
4920.3876086424	0.9101060629
4922.3164160154	0.9035251141
4924.2452233885	0.9149025083
4926.1740307615	0.9186891317
4928.1028381345	0.9046559334
4930.0316455076	0.9135063291
4931.9604528806	0.9053470492
4933.8892602537	0.9161055684
4935.8180676267	0.9215936065
4937.7468749998	0.9047114253
4939.6756823728	0.9061952233
4941.6044897459	0.8979575038
4943.5332971189	0.9104073644
4945.4621044920	0.9150208235
4947.3909118650	0.9039404392
4949.3197192381	0.9127268791
4951.2485266111	0.9017560482
4953.1773339842	0.9036710262
4955.1061413572	0.9149052501
4957.0349487302	0.9131326675
4958.9637561033	0.9151746631
4960.8925634763	0.9062294960
4962.8213708494	0.9021193981
4964.7501782224	0.9145750403
4966.6789855955	0.9163991213
4968.6077929685	0.8994430900
4970.5366003416	0.9101568460
4972.4654077146	0.9138986468
4974.3942150877	0.8981476426
4976.3230224607	0.9035733938
4978.2518298338	0.8996832371
4980.1806372068	0.9109233022
4982.1094445799	0.9070053101
4984.0382519529	0.8994790316
4985.9670593259	0.9118399024
4987.8958666990	0.9098044634
4989.8246740720	0.9161682129
4991.7534814451	0.9063916802
4993.6822888181	0.9190186858
4995.6110961912	0.9149265289
4997.5399035642	0.9008017182
4999.4687109373	0.9256914258
5001.3975183103	0.9003087878
5003.3263256834	0.9050025344
5005.2551330564	0.9201366901
5007.1839404295	0.8941577673
5009.1127478025	0.9027639031
5011.0415551756	0.9146972895
5012.9703625486	0.9083412290
5014.8991699217	0.9000710845
5016.8279772947	0.9125486612
5018.7567846677	0.9193027616
5020.6855920408	0.9070596695
5022.6143994138	0.8949338198
5024.5432067869	0.8928791285
5026.4720141599	0.9100194573
5028.4008215330	0.9169201851
5030.3296289060	0.9153892994
5032.2584362791	0.9110046625
5034.1872436521	0.9124765396
5036.1160510252	0.9065357447
5038.0448583982	0.8991123438
5039.9736657713	0.9104768038
5041.9024731443	0.8999506831
5043.8312805174	0.8953301907
5045.7600878904	0.9118482471
5047.6888952634	0.9066560268
5049.6177026365	0.9032970071
5051.5465100095	0.9113249779
5053.4753173826	0.9126634002
5055.4041247556	0.9067035317
5057.3329321287	0.8950495720
5059.2617395017	0.9028622508
5061.1905468748	0.9054663777
5063.1193542478	0.8984510303
5065.0481616209	0.9056181908
5066.9769689939	0.9090914726
5068.9057763670	0.9065330029
5070.8345837400	0.8851180077
5072.7633911131	0.9036732316
5074.6921984861	0.9154108167
5076.6210058591	0.9019805789
5078.5498132322	0.9272114038
5080.4786206052	0.9012617469
5082.4074279783	0.8896847963
5084.3362353513	0.8940980434
5086.2650427244	0.8926504254
5088.1938500974	0.9254274368
5090.1226574705	0.9006037116
5092.0514648435	0.8824853897
5093.9802722166	0.9032744169
5095.9090795896	0.9100987315
5097.8378869627	0.9148512483
5099.7666943357	0.9021801949
5101.6955017088	0.8817399740
5103.6243090818	0.9123014212
5105.5531164548	0.9105464816
5107.4819238279	0.8863352537
5109.4107312009	0.9233851433
5111.3395385740	0.9122458100
5113.2683459470	0.9289113283
5115.1971533201	0.9199664593
5117.1259606931	0.9021263719
5119.0547680662	0.9418290257
5120.9835754392	0.8851457238
5122.9123828123	0.9003446698
5124.8411901853	0.9189417958
5126.7699975584	0.9033115506
5128.6988049314	0.9232466817
5130.6276123045	0.8960680366
5132.5564196775	0.9162621498
5134.4852270506	0.9074239135
5136.4140344236	0.9070193768
5138.3428417966	0.9043807387
5140.2716491697	0.8790906072
5142.2004565427	0.9009866118
5144.1292639158	0.8911557198
5146.0580712888	0.8931246400
5147.9868786619	0.8954733610
5149.9156860349	0.9136875272
5151.8444934080	0.9022670984
5153.7733007810	0.8667598963
5155.7021081541	0.8977137804
5157.6309155271	0.9034230709
5159.5597229002	0.9103575349
5161.4885302732	0.9180163145
5163.4173376463	0.8928635120
5165.3461450193	0.8973643780
5167.2749523923	0.9096238017
5169.2037597654	0.8986989260
5171.1325671384	0.8978548050
5173.0613745115	0.8935427666
5174.9901818845	0.8866494298
5176.9189892576	0.9211492538
5178.8477966306	0.9094928503
5180.7766040037	0.8839800358
5182.7054113767	0.8972822428
5184.6342187498	0.8813594580
5186.5630261228	0.8876748085
5188.4918334959	0.9186344147
5190.4206408689	0.9103207588
5192.3494482420	0.8988352418
5194.2782556150	0.9080023170
5196.2070629880	0.8999459743
5198.1358703611	0.8879376054
5200.0646777341	0.8869469762
5201.9934851072	0.8842017651
5203.9222924802	0.8863843083
5205.8510998533	0.9017882943
5207.7799072263	0.8884662390
5209.7087145994	0.8681571484
5211.6375219724	0.9089699984
5213.5663293455	0.9204117060
5215.4951367185	0.9075066447
5217.4239440916	0.9203917980
5219.3527514646	0.9128854871
5221.2815588377	0.9136767387
5223.2103662107	0.9122101068
5225.1391735837	0.8933709264
5227.0679809568	0.8972777128
5228.9967883298	0.9155780077
5230.9255957029	0.9040986300
5232.8544030759	0.9017721415
5234.7832104490	0.9129888415
5236.7120178220	0.9244545698
5238.6408251951	0.9297695160
5240.5696325681	0.9020394087
5242.4984399412	0.9070161581
5244.4272473142	0.8955093622
5246.3560546873	0.8993157744
5248.2848620603	0.9261136055
5250.2136694334	0.8840698600
5252.1424768064	0.8868786693
5254.0712841795	0.9254004955
5256.0000915525	0.9150642753
5257.9288989255	0.8915223479
5259.8577062986	0.9225925803
5261.7865136716	0.9155800343
5263.7153210447	0.8690967560
5265.6441284177	0.9003246427
5267.5729357908	0.9144968987
5269.5017431638	0.9053488970
5271.4305505369	0.8940123916
5273.3593579099	0.8923002481
5275.2881652830	0.8966199756
5277.2169726560	0.8938451409
5279.1457800291	0.9229583740
5281.0745874021	0.9089002609
5283.0033947752	0.9166131616
5284.9322021482	0.9307872653
5286.8610095212	0.9016061425
5288.7898168943	0.8976980448
5290.7186242673	0.8901296854
5292.6474316404	0.9123432040
5294.5762390134	0.9088311195
5296.5050463865	0.9001696110
5298.4338537595	0.9309119582
5300.3626611326	0.9075729847
5302.2914685056	0.9130683541
5304.2202758787	0.9240736961
5306.1490832517	0.8992233276
5308.0778906248	0.9178227186
5310.0066979978	0.9173172116
5311.9355053709	0.9046298862
5313.8643127439	0.8965743780
5315.7931201169	0.8927287459
5317.7219274900	0.9142891169
5319.6507348630	0.9236947298
5321.5795422361	0.9181414843
5323.5083496091	0.9014537930
5325.4371569822	0.9140318632
5327.3659643552	0.9196695685
5329.2947717283	0.9272089601
5331.2235791013	0.9326964021
5333.1523864744	0.8963823318
5335.0811938474	0.9291888475
5337.0100012205	0.9280924797
5338.9388085935	0.9044736624
5340.8676159666	0.9127947092
5342.7964233396	0.9025337696
5344.7252307126	0.9227933884
5346.6540380857	0.8998657465
5348.5828454587	0.9095658064
5350.5116528318	0.9314175248
5352.4404602048	0.9113385677
5354.3692675779	0.9208054543
5356.2980749509	0.9218285084
5358.2268823240	0.9232529402
5360.1556896970	0.9136642218
5362.0844970701	0.9153437018
5364.0133044431	0.9183611274
5365.9421118162	0.9203865528
5367.8709191892	0.9082942009
5369.7997265623	0.9126822948
5371.7285339353	0.9391601682
5373.6573413083	0.9157368541
5375.5861486814	0.9142125249
5377.5149560544	0.8823242188
5379.4437634275	0.8805238605
5381.3725708005	0.9207047224
5383.3013781736	0.9116105437
5385.2301855466	0.9196984172
5387.1589929197	0.9202044010
5389.0878002927	0.9200621843
5391.0166076658	0.9068684578
5392.9454150388	0.9113724828
5394.8742224119	0.9101299644
5396.8030297849	0.9072580934
5398.7318371580	0.9277819395
5400.6606445310	0.9077645540
5402.5894519041	0.9198328257
5404.5182592771	0.9046955109
5406.4470666501	0.8940489888
5408.3758740232	0.9077791572
5410.3046813962	0.9095704556
5412.2334887693	0.9217587709
5414.1622961423	0.9064111710
5416.0911035154	0.9119527340
5418.0199108884	0.8958612680
5419.9487182615	0.9205391407
5421.8775256345	0.9493498802
5423.8063330076	0.9133773446
5425.7351403806	0.8888545632
5427.6639477537	0.8761123419
5429.5927551267	0.9220479727
5431.5215624998	0.9043687582
5433.4503698728	0.8752294779
5435.3791772458	0.9208813310
5437.3079846189	0.9112526178
5439.2367919919	0.9008588791
5441.1655993650	0.9371480942
5443.0944067380	0.9363881946
5445.0232141111	0.9034807682
5446.9520214841	0.9009585977
5448.8808288572	0.8836189508
5450.8096362302	0.8877664208
5452.7384436033	0.9077083468
5454.6672509763	0.8874723315
5456.5960583494	0.8941822648
5458.5248657224	0.9099884033
5460.4536730955	0.9240213633
5462.3824804685	0.9126068354
5464.3112878415	0.9065975547
5466.2400952146	0.9161089659
5468.1689025876	0.8823838234
5470.0977099607	0.8729190230
5472.0265173337	0.9156827331
5473.9553247068	0.9456756115
5475.8841320798	0.9269579053
5477.8129394529	0.9098812342
5479.7417468259	0.8856806159
5481.6705541990	0.8870032430
5483.5993615720	0.9197813869
5485.5281689451	0.8774077296
5487.4569763181	0.8995261788
5489.3857836912	0.9384487271
5491.3145910642	0.8876698613
5493.2433984372	0.8957439065
5495.1722058103	0.9057977796
5497.1010131833	0.9258491397
5499.0298205564	0.9144065380
5500.9586279294	0.8571774364
5502.8874353025	0.8727176785
5504.8162426755	0.8578704000
5506.7450500486	0.8883731365
5508.6738574216	0.9196260571
5510.6026647947	0.9078889489
5512.5314721677	0.9513376355
5514.4602795408	0.9243240952
5516.3890869138	0.9327480793
5518.3178942869	0.9160411358
5520.2467016599	0.8898656368
5522.1755090330	0.9228991270
5524.1043164060	0.8955228329
5526.0331237790	0.9161223769
5527.9619311521	0.9140514731
5529.8907385251	0.9171248078
5531.8195458982	0.9284484386
5533.7483532712	0.8972450495
5535.6771606443	0.9097360969
5537.6059680173	0.9235149026
5539.5347753904	0.9144074917
5541.4635827634	0.8708775043
5543.3923901365	0.9225600362
5545.3211975095	0.9506129622
5547.2500048826	0.8840090632
5549.1788122556	0.8705966473
5551.1076196287	0.8997237682
5553.0364270017	0.9529266357
5554.9652343747	0.9162102938
5556.8940417478	0.9128655195
5558.8228491208	0.8925091028
5560.7516564939	0.8975151181
5562.6804638669	0.9524949789
5564.6092712400	0.8892096877
5566.5380786130	0.9138032794
5568.4668859861	0.9167707562
5570.3956933591	0.8984985352
5572.3245007322	0.9276987910
5574.2533081052	0.9300853014
5576.1821154783	0.9533821940
5578.1109228513	0.9060429335
5580.0397302244	0.8858114481
5581.9685375974	0.9043052793
5583.8973449704	0.9188169241
5585.8261523435	0.9123607278
5587.7549597165	0.9206593037
5589.6837670896	0.9507502913
5591.6125744626	0.9263788462
5593.5413818357	0.9194993377
5595.4701892087	0.8839703798
5597.3989965818	0.8744284511
5599.3278039548	0.8938074708
5601.2566113279	0.8889689445
5603.1854187009	0.9201577902
5605.1142260740	0.9054990411
5607.0430334470	0.8751614094
5608.9718408201	0.8988127112
5610.9006481931	0.8821016550
5612.8294555661	0.8766402602
5614.7582629392	0.9246367812
5616.6870703122	0.9142497778
5618.6158776853	0.9059349895
5620.5446850583	0.8671345115
5622.4734924314	0.8819705248
5624.4022998044	0.9333696961
5626.3311071775	0.8871929646
5628.2599145505	0.9230856895
5630.1887219236	0.8816000819
5632.1175292966	0.8827595115
5634.0463366697	0.9342142344
5635.9751440427	0.8916552663
5637.9039514158	0.9349176288
5639.8327587888	0.9100831151
5641.7615661619	0.9078239799
5643.6903735349	0.8781878352
5645.6191809079	0.8526799083
5647.5479882810	0.8956024647
5649.4767956540	0.8623294830
5651.4056030271	0.9074023366
5653.3344104001	0.8874822855
5655.2632177732	0.8932107091
5657.1920251462	0.9432091117
5659.1208325193	0.8868011832
5661.0496398923	0.9082574248
5662.9784472654	0.9325488806
5664.9072546384	0.8946787715
5666.8360620115	0.8980945945
5668.7648693845	0.9613289833
5670.6936767576	0.8878139257
5672.6224841306	0.8758366704
5674.5512915036	0.9608964324
5676.4800988767	0.8822189569
5678.4089062497	0.8900220394
5680.3377136228	0.9039599895
5682.2665209958	0.8910293579
5684.1953283689	0.9203035831
5686.1241357419	0.8849278092
5688.0529431150	0.8971160650
5689.9817504880	0.8987222314
5691.9105578611	0.9191727638
5693.8393652341	0.9185423255
5695.7681726072	0.8667594790
5697.6969799802	0.9116808176
5699.6257873533	0.9329256415
5701.5545947263	0.9108369350
5703.4834020993	0.8709230423
5705.4122094724	0.8814756274
5707.3410168454	0.9238229394
5709.2698242185	0.8970823884
5711.1986315915	0.9336174130
5713.1274389646	0.9206303954
5715.0562463376	0.8909460306
5716.9850537107	0.8993791938
5718.9138610837	0.8568778038
5720.8426684568	0.9178941846
5722.7714758298	0.9443073869
5724.7002832029	0.9003599882
5726.6290905759	0.8948761225
5728.5578979490	0.8948018551
5730.4867053220	0.9048363566
5732.4155126950	0.9052514434
5734.3443200681	0.9207345843
5736.2731274411	0.9050828815
5738.2019348142	0.9508712888
5740.1307421872	0.9834740162
5742.0595495603	0.9341727495
5743.9883569333	0.9113502502
5745.9171643064	0.8774824739
5747.8459716794	0.8936784863
5749.7747790525	0.8687387705
5751.7035864255	0.9032935500
5753.6323937986	0.9588044286
5755.5612011716	0.9169045687
5757.4900085447	0.9211227894
5759.4188159177	0.9222658873
5761.3476232907	0.9124835730
5763.2764306638	0.8459737897
5765.2052380368	0.8913934827
5767.1340454099	0.9457467794
5769.0628527829	0.8964822888
5770.9916601560	0.9181203842
5772.9204675290	0.8378434181
5774.8492749021	0.8387578130
5776.7780822751	0.9132830501
5778.7068896482	0.9497329593
5780.6356970212	0.9701294303
5782.5645043943	0.8971131444
5784.4933117673	0.8842350841
5786.4221191404	0.9291332960
5788.3509265134	0.9776208401
5790.2797338865	0.9011532664
5792.2085412595	0.8698329926
5794.1373486325	0.9235717654
5796.0661560056	0.8748944402
5797.9949633786	0.9086077213
5799.9237707517	0.9122730494
5801.8525781247	0.8776812553
5803.7813854978	0.8968347311
5805.7101928708	0.8585945368
5807.6390002439	0.8831230402
5809.5678076169	0.9238048792
5811.4966149900	0.8921758533
5813.4254223630	0.8961103559
5815.3542297361	0.9003123641
5817.2830371091	0.8690273762
5819.2118444822	0.8789995313
5821.1406518552	0.8846778870
5823.0694592282	0.8696708679
5824.9982666013	0.8628219962
5826.9270739743	0.8692725897
5828.8558813474	0.9053745270
5830.7846887204	0.9148390293
5832.7134960935	0.9228170514
5834.6423034665	0.8966435194
5836.5711108396	0.8738867640
5838.4999182126	0.9157043099
5840.4287255857	0.8739531040
5842.3575329587	0.8688836098
5844.2863403318	0.9322930574
5846.2151477048	0.8797085285
5848.1439550779	0.9252389669
5850.0727624509	0.9290806651
5852.0015698239	0.8252560496
5853.9303771970	0.9489383698
5855.8591845700	0.9511427283
5857.7879919431	0.8204485774
5859.7167993161	0.8713166714
5861.6456066892	0.8904733062
5863.5744140622	0.8626921773
5865.5032214353	0.8747450113
5867.4320288083	0.9056297541
5869.3608361814	0.9256268144
5871.2896435544	0.9541690946
5873.2184509275	0.9244760275
5875.1472583005	0.8742219806
5877.0760656736	0.9462182522
5879.0048730466	0.9667441249
5880.9336804196	0.9012661576
5882.8624877927	0.8755218983
5884.7912951657	0.8982188106
5886.7201025388	0.9107412696
5888.6489099118	0.9400679469
5890.5777172849	0.9534320235
5892.5065246579	0.8755103350
5894.4353320310	0.9304752946
5896.3641394040	0.9538370967
5898.2929467771	0.8805667162
5900.2217541501	0.8799625039
5902.1505615232	0.9078705907
5904.0793688962	0.9513867497
5906.0081762693	0.8897144794
5907.9369836423	0.8815466762
5909.8657910154	0.8733254671
5911.7945983884	0.8434259892
5913.7234057614	0.9208909273
5915.6522131345	0.9052979946
5917.5810205075	0.8742432594
5919.5098278806	0.8640265465
5921.4386352536	0.9258291125
5923.3674426267	0.9363045692
5925.2962499997	0.8496016264
5927.2250573728	0.8851643205
5929.1538647458	0.8795881271
5931.0826721189	0.9088109136
5933.0114794919	0.9465473294
5934.9402868650	0.9216063023
5936.8690942380	0.9428309202
5938.7979016111	0.9205648899
5940.7267089841	0.9021476507
5942.6555163571	0.8607462049
5944.5843237302	0.9369578362
5946.5131311032	0.9317576289
5948.4419384763	0.8409234881
5950.3707458493	0.9207782149
5952.2995532224	0.8685371280
5954.2283605954	0.8933643699
5956.1571679685	0.9248743653
5958.0859753415	0.8666973114
5960.0147827146	0.9417086840
5961.9435900876	0.9156644344
5963.8723974607	0.9559062719
5965.8012048337	0.9214732647
5967.7300122068	0.8446758389
5969.6588195798	0.8850812316
5971.5876269528	0.8636872172
5973.5164343259	0.9382155538
5975.4452416989	0.8973197341
5977.3740490720	0.8409990072
5979.3028564450	0.9569897652
5981.2316638181	0.9058771133
5983.1604711911	0.8816439509
5985.0892785642	0.9404942989
5987.0180859372	0.8846471906
5988.9468933103	0.8456217647
5990.8757006833	0.8330870867
5992.8045080564	0.8409945369
5994.7333154294	0.8742110729
5996.6621228025	0.8971187472
5998.5909301755	0.9176891446
6000.5197375485	0.8854916692
