399.2631262207	0.4547607005
401.1919335938	0.2526127994
403.1207409668	0.4600123167
405.0495483398	0.4891167879
406.9783557129	0.2755911946
408.9071630859	0.4878422916
410.8359704590	0.3635599911
412.7647778320	0.5127551556
414.6935852051	0.7020800710
416.6223925781	0.3478227556
418.5511999512	0.4235206842
420.4800073242	0.4608929753
422.4088146973	0.3799816072
424.3376220703	0.4996902049
426.2664294434	0.4897519350
428.1952368164	0.3584578335
430.1240441895	0.3790890574
432.0528515625	0.3596190512
433.9816589355	0.3948129117
435.9104663086	0.4525810778
437.8392736816	0.2483775169
439.7680810547	0.2769882977
441.6968884277	0.3421439826
443.6256958008	0.3221350312
445.5545031738	0.4101103544
447.4833105469	0.3934891224
449.4121179199	0.4585801363
451.3409252930	0.4924060106
453.2697326660	0.3977653980
455.1985400391	0.3745675087
457.1273474121	0.5388936996
459.0561547852	0.5624899864
460.9849621582	0.6896910071
462.9137695313	0.7604015470
464.8425769043	0.5993628502
466.7713842773	0.5749236941
468.7001916504	0.5314546227
470.6289990234	0.8519495130
472.5578063965	0.4839855731
474.4866137695	0.3607244194
476.4154211426	0.9163556099
478.3442285156	0.7042914033
480.2730358887	1.5758615732
482.2018432617	1.0492168665
484.1306506348	0.4739878476
486.0594580078	0.8923277855
487.9882653809	1.0806682110
489.9170727539	1.7471731901
491.8458801270	1.7412490845
493.7746875000	1.2578312159
495.7034948730	0.7731807232
497.6323022461	1.1468796730
499.5611096191	0.9168605804
501.4899169922	1.3550209999
503.4187243652	2.9508662224
505.3475317383	1.2895232439
507.2763391113	1.2910218239
509.2051464844	0.3308994770
511.1339538574	0.9929817915
513.0627612305	1.7904943228
514.9915686035	0.5548013449
516.9203759766	2.5832412243
518.8491833496	1.3047933578
520.7779907227	1.7024976015
522.7067980957	1.2675007582
524.6356054688	0.9948665500
526.5644128418	20.9929714203
528.4932202148	2.4176452160
530.4220275879	1.5168156624
532.3508349609	0.9701905251
534.2796423340	1.2904856205
536.2084497070	1.1343444586
538.1372570801	2.2520911694
540.0660644531	2.2733471394
541.9948718262	0.4517411292
543.9236791992	0.7634298801
545.8524865723	1.0418704748
547.7812939453	2.3154647350
549.7101013184	1.7621483803
551.6389086914	1.1119551659
553.5677160645	2.2522699833
555.4965234375	1.2817327976
557.4253308105	1.1181451082
559.3541381836	0.8919530511
561.2829455566	1.4554595947
563.2117529297	1.9548292160
565.1405603027	2.2770292759
567.0693676758	1.2340321541
568.9981750488	0.9341065884
570.9269824219	3.0119717121
572.8557897949	2.9764218330
574.7845971680	1.8829638958
576.7134045410	1.4367262125
578.6422119141	2.8603401184
580.5710192871	1.6752645969
582.4998266602	1.7573819160
584.4286340332	3.7940587997
586.3574414063	2.5224947929
588.2862487793	2.5053427219
590.2150561523	1.4019895792
592.1438635254	1.1054034233
594.0726708984	0.5691207647
596.0014782715	2.4482424259
597.9302856445	3.9566540718
599.8590930176	1.0734566450
601.7879003906	4.5904717445
603.7167077637	2.2435171604
605.6455151367	2.3592250347
607.5743225098	6.0154271126
609.5031298828	5.1164879799
611.4319372559	1.6935790777
613.3607446289	1.7886171341
615.2895520020	1.4500633478
617.2183593750	61.4926834106
619.1471667480	5.2006564140
621.0759741211	2.0095753670
623.0047814941	1.6408553123
624.9335888672	1.4729243517
626.8623962402	3.3965377808
628.7912036133	2.4762997627
630.7200109863	1.0091396570
632.6488183594	0.4726983309
634.5776257324	0.5888967514
636.5064331055	0.9126474857
638.4352404785	0.6966900229
640.3640478516	0.4206439555
642.2928552246	0.6115337610
644.2216625977	0.7014334798
646.1504699707	0.4246271551
648.0792773438	0.4964240491
650.0080847168	0.5405327082
651.9368920898	0.5496913791
653.8656994629	0.6171655059
655.7945068359	0.5374130011
657.7233142090	0.5150300264
659.6521215820	0.5074761510
661.5809289551	0.5276291966
663.5097363281	0.4980493486
665.4385437012	0.5007115602
667.3673510742	0.5556151867
669.2961584473	0.4924960434
671.2249658203	0.5314605832
673.1537731934	0.5219213963
675.0825805664	0.4945134521
677.0113879395	0.5390410423
678.9401953125	0.5589609742
680.8690026855	0.6168289781
682.7978100586	0.5655192137
684.7266174316	0.5412672162
686.6554248047	0.6100555062
688.5842321777	0.5614711046
690.5130395508	0.5635862947
692.4418469238	0.6022753119
694.3706542969	0.5703955889
696.2994616699	0.5387978554
698.2282690430	0.5625865459
700.1570764160	0.6010454297
702.0858837891	0.5734572411
704.0146911621	0.5774552226
705.9434985352	0.6213991642
707.8723059082	0.5936701894
709.8011132813	0.5538036227
711.7299206543	0.6592965722
713.6587280273	0.8396044970
715.5875354004	0.6163914204
717.5163427734	0.8506615162
719.4451501465	0.8851615787
721.3739575195	0.9516678452
723.3027648926	1.2424190044
725.2315722656	0.7701474428
727.1603796387	4.1812176704
729.0891870117	1.1283683777
731.0179943848	3.0882632732
732.9468017578	0.7126958370
734.8756091309	0.4431980848
736.8044165039	-2.7965180874
738.7332238770	1.1448642015
740.6620312500	-8.8511619568
742.5908386230	-3.4870085716
744.5196459961	2.6985569000
746.4484533691	-21.4557895660
748.3772607422	2.3947207928
750.3060681152	2.7027144432
752.2348754883	7.9846377373
754.1636828613	1.4814770222
756.0924902344	1.6053514481
758.0212976074	1.2169926167
759.9501049805	0.7384859920
761.8789123535	2.7451751232
763.8077197266	3.2805461884
765.7365270996	0.6907629371
767.6653344727	1.6639232635
769.5941418457	1.5649682283
771.5229492188	0.9049356580
773.4517565918	1.1309025288
775.3805639648	1.5183959007
777.3093713379	1.4213000536
779.2381787109	1.2283104658
781.1669860840	1.9304710627
783.0957934570	1.1779283285
785.0246008301	1.5960980654
786.9534082031	1.1393969059
788.8822155762	0.7883309126
790.8110229492	1.0199593306
792.7398303223	0.7870715857
794.6686376953	1.1123265028
796.5974450684	0.9252254963
798.5262524414	0.8636812568
800.4550598145	0.8088402748
802.3838671875	0.7913323641
804.3126745605	1.1769926548
806.2414819336	0.7313229442
808.1702893066	1.0735733509
810.0990966797	1.0258407593
812.0279040527	0.5708269477
813.9567114258	1.1939198971
815.8855187988	0.3629800379
817.8143261719	0.8142968416
819.7431335449	1.2158246040
821.6719409180	1.0076396465
823.6007482910	0.8377565145
825.5295556641	0.4806545377
827.4583630371	0.8351876736
829.3871704102	0.9559656382
831.3159777832	0.5900473595
833.2447851563	0.5791629553
835.1735925293	0.8061170578
837.1023999023	1.0271252394
839.0312072754	0.8127173781
840.9600146484	0.7328747511
842.8888220215	0.9975745678
844.8176293945	0.8528266549
846.7464367676	0.7818560004
848.6752441406	0.8296217918
850.6040515137	0.7634934187
852.5328588867	0.7994776368
854.4616662598	0.7335437536
856.3904736328	0.9697877765
858.3192810059	0.8749417067
860.2480883789	1.2329478264
862.1768957520	1.8822616339
864.1057031250	0.8052884340
866.0345104980	1.1081211567
867.9633178711	1.3078454733
869.8921252441	0.9144354463
871.8209326172	1.5578572750
873.7497399902	1.7862179279
875.6785473633	1.2206158638
877.6073547363	1.0659157038
879.5361621094	1.4324703217
881.4649694824	0.5690420270
883.3937768555	1.0668385029
885.3225842285	1.4604449272
887.2513916016	0.5588137507
889.1801989746	1.1170966625
891.1090063477	1.2809242010
893.0378137207	1.0395565033
894.9666210938	1.8841865063
896.8954284668	1.7287302017
898.8242358398	0.9734513164
900.7530432129	0.4336956441
902.6818505859	0.3695443571
904.6106579590	0.9761571288
906.5394653320	0.9168386459
908.4682727051	0.9966727495
910.3970800781	1.4295216799
912.3258874512	0.5873889327
914.2546948242	0.9413778782
916.1835021973	0.8711262345
918.1123095703	0.7149919271
920.0411169434	1.0050758123
921.9699243164	0.8842198849
923.8987316895	0.8374668360
925.8275390625	0.8368892670
927.7563464355	1.0512108803
929.6851538086	0.8416624665
931.6139611816	0.6741976142
933.5427685547	0.9054229856
935.4715759277	0.8108764291
937.4003833008	0.8329106569
939.3291906738	0.8665775061
941.2579980469	0.8795298934
943.1868054199	0.9641156197
945.1156127930	0.8807438612
947.0444201660	0.8794888854
948.9732275391	0.9282341599
950.9020349121	0.9185916781
952.8308422852	0.8460246921
954.7596496582	0.8492492437
956.6884570313	0.9262320399
958.6172644043	1.0487390757
960.5460717773	0.9036223292
962.4748791504	0.8368625641
964.4036865234	0.9916423559
966.3324938965	0.8444007635
968.2613012695	0.8809601665
970.1901086426	1.0126304626
972.1189160156	0.9579122066
974.0477233887	0.8681502938
975.9765307617	0.8209944963
977.9053381348	0.9994043112
979.8341455078	1.0024970770
981.7629528809	0.9262537360
983.6917602539	0.9539686441
985.6205676270	0.9183460474
987.5493750000	0.9523251653
989.4781823730	0.9456605315
991.4069897461	0.9073943496
993.3357971191	0.9434776306
995.2646044922	0.9662917256
997.1934118652	0.9572629333
999.1222192383	0.9721931219
1001.0510266113	0.9570255876
1002.9798339844	0.9213743806
1004.9086413574	0.9440234303
1006.8374487305	0.9529510736
1008.7662561035	0.9422190189
1010.6950634766	0.9531355500
1012.6238708496	0.9459118247
1014.5526782227	0.9537802339
1016.4814855957	0.9755434394
1018.4102929688	0.9577037096
1020.3391003418	0.9489391446
1022.2679077148	0.9625225663
1024.1967150879	0.9561678171
1026.1255224609	0.9569919705
1028.0543298340	0.9545642734
1029.9831372070	0.9513087273
1031.9119445801	0.9645801783
1033.8407519531	0.9539909363
1035.7695593262	0.9480870366
1037.6983666992	0.9584428072
1039.6271740723	0.9591993093
1041.5559814453	0.9635853767
1043.4847888184	0.9626083970
1045.4135961914	0.9538951516
1047.3424035645	0.9534050226
1049.2712109375	0.9574491978
1051.2000183105	0.9599278569
1053.1288256836	0.9630603790
1055.0576330566	0.9579206705
1056.9864404297	0.9538010359
1058.9152478027	0.9588773251
1060.8440551758	0.9621832967
1062.7728625488	0.9627751708
1064.7016699219	0.9664865136
1066.6304772949	0.9696001410
1068.5592846680	0.9479200244
1070.4880920410	0.9572729468
1072.4168994141	0.9805526137
1074.3457067871	0.9500551820
1076.2745141602	0.9557118416
1078.2033215332	0.9678887725
1080.1321289062	0.9539778829
1082.0609362793	0.9628972411
1083.9897436523	0.9668582678
1085.9185510254	0.9616739154
1087.8473583984	0.9561320543
1089.7761657715	0.9536573291
1091.7049731445	0.9371148944
1093.6337805176	0.9735189080
1095.5625878906	0.9922784567
1097.4913952637	0.9346404076
1099.4202026367	0.9608147740
1101.3490100098	0.9491536617
1103.2778173828	0.9233968854
1105.2066247559	0.9667822123
1107.1354321289	0.9556843638
1109.0642395019	0.9574245214
1110.9930468750	0.9505630732
1112.9218542480	0.9397122264
1114.8506616211	0.9610192776
1116.7794689941	0.9445554614
1118.7082763672	0.9596940875
1120.6370837402	0.9781975746
1122.5658911133	0.9635555744
1124.4946984863	0.9615386128
1126.4235058594	0.9548859000
1128.3523132324	0.9616392851
1130.2811206055	0.9619520903
1132.2099279785	0.9532941580
1134.1387353516	0.9621722102
1136.0675427246	0.9736628532
1137.9963500977	0.9656344652
1139.9251574707	0.9405863285
1141.8539648437	0.9602612853
1143.7827722168	0.9631616473
1145.7115795898	0.9339249134
1147.6403869629	0.9590595961
1149.5691943359	0.9636631608
1151.4980017090	0.9515191317
1153.4268090820	0.9613424540
1155.3556164551	0.9579870701
1157.2844238281	0.9586732984
1159.2132312012	0.9526799321
1161.1420385742	0.9583914280
1163.0708459473	0.9683694839
1164.9996533203	0.9664739370
1166.9284606934	0.9737806916
1168.8572680664	0.9662449956
1170.7860754394	0.9627276659
1172.7148828125	0.9648929238
1174.6436901855	0.9623644948
1176.5724975586	0.9667039514
1178.5013049316	0.9665677547
1180.4301123047	0.9648639560
1182.3589196777	0.9603884220
1184.2877270508	0.9662855864
1186.2165344238	0.9677084684
1188.1453417969	0.9604868293
1190.0741491699	0.9674096704
1192.0029565430	0.9692084789
1193.9317639160	0.9702214599
1195.8605712891	0.9658000469
1197.7893786621	0.9625533223
1199.7181860351	0.9694055915
1201.6469934082	0.9671357870
1203.5758007812	0.9704288244
1205.5046081543	0.9686889052
1207.4334155273	0.9634248018
1209.3622229004	0.9677439332
1211.2910302734	0.9646186233
1213.2198376465	0.9625439644
1215.1486450195	0.9657316208
1217.0774523926	0.9667266607
1219.0062597656	0.9649635553
1220.9350671387	0.9672025442
1222.8638745117	0.9698364139
1224.7926818848	0.9666237235
1226.7214892578	0.9644296169
1228.6502966308	0.9609911442
1230.5791040039	0.9619066119
1232.5079113769	0.9668217897
1234.4367187500	0.9660865664
1236.3655261230	0.9610632062
1238.2943334961	0.9639357328
1240.2231408691	0.9711057544
1242.1519482422	0.9681869149
1244.0807556152	0.9678532481
1246.0095629883	0.9678794742
1247.9383703613	0.9663206935
1249.8671777344	0.9660707712
1251.7959851074	0.9640195370
1253.7247924805	0.9662272930
1255.6535998535	0.9647238851
1257.5824072266	0.9646768570
1259.5112145996	0.9642752409
1261.4400219726	0.9622312784
1263.3688293457	0.9659697413
1265.2976367187	0.9680298567
1267.2264440918	0.9696953893
1269.1552514648	0.9697858691
1271.0840588379	0.9709044695
1273.0128662109	0.9676801562
1274.9416735840	0.9658897519
1276.8704809570	0.9691568613
1278.7992883301	0.9663378000
1280.7280957031	0.9668955803
1282.6569030762	0.9640119672
1284.5857104492	0.9637146592
1286.5145178223	0.9699325562
1288.4433251953	0.9689705968
1290.3721325683	0.9680293202
1292.3009399414	0.9705947042
1294.2297473144	0.9713948965
1296.1585546875	0.9686679244
1298.0873620605	0.9705197811
1300.0161694336	0.9649932981
1301.9449768066	0.9629975557
1303.8737841797	0.9737818837
1305.8025915527	0.9678705335
1307.7313989258	0.9637648463
1309.6602062988	0.9672099948
1311.5890136719	0.9654434323
1313.5178210449	0.9701086879
1315.4466284180	0.9732527733
1317.3754357910	0.9700387716
1319.3042431640	0.9669840336
1321.2330505371	0.9696156979
1323.1618579101	0.9712707400
1325.0906652832	0.9667694569
1327.0194726562	0.9667977691
1328.9482800293	0.9676044583
1330.8770874023	0.9660955071
1332.8058947754	0.9664207697
1334.7347021484	0.9659619331
1336.6635095215	0.9658185244
1338.5923168945	0.9664011002
1340.5211242676	0.9680555463
1342.4499316406	0.9684860110
1344.3787390137	0.9673984051
1346.3075463867	0.9685488343
1348.2363537597	0.9698309898
1350.1651611328	0.9702484608
1352.0939685058	0.9688469172
1354.0227758789	0.9684742093
1355.9515832519	0.9682778716
1357.8803906250	0.9675824046
1359.8091979980	0.9681974053
1361.7380053711	0.9646873474
1363.6668127441	0.9654874206
1365.5956201172	0.9659324288
1367.5244274902	0.9632148743
1369.4532348633	0.9693122506
1371.3820422363	0.9704267383
1373.3108496094	0.9658554792
1375.2396569824	0.9655414224
1377.1684643555	0.9678230286
1379.0972717285	0.9677380323
1381.0260791015	0.9648083448
1382.9548864746	0.9653323293
1384.8836938476	0.9653508067
1386.8125012207	0.9654423594
1388.7413085937	0.9681420326
1390.6701159668	0.9718356729
1392.5989233398	0.9690505862
1394.5277307129	0.9629601836
1396.4565380859	0.9669520259
1398.3853454590	0.9625263810
1400.3141528320	0.9623708129
1402.2429602051	0.9707965851
1404.1717675781	0.9644269943
1406.1005749512	0.9648115635
1408.0293823242	0.9688073397
1409.9581896972	0.9692184925
1411.8869970703	0.9707970619
1413.8158044433	0.9645110369
1415.7446118164	0.9654476643
1417.6734191894	0.9673768878
1419.6022265625	0.9620364308
1421.5310339355	0.9628147483
1423.4598413086	0.9663714170
1425.3886486816	0.9681138396
1427.3174560547	0.9689127207
1429.2462634277	0.9692589641
1431.1750708008	0.9625978470
1433.1038781738	0.9665105939
1435.0326855469	0.9681992531
1436.9614929199	0.9587432742
1438.8903002929	0.9666996002
1440.8191076660	0.9709599614
1442.7479150390	0.9701646566
1444.6767224121	0.9644235373
1446.6055297851	0.9645908475
1448.5343371582	0.9686705470
1450.4631445312	0.9595555067
1452.3919519043	0.9657760262
1454.3207592773	0.9655868411
1456.2495666504	0.9498986006
1458.1783740234	0.9503393173
1460.1071813965	0.9611912370
1462.0359887695	0.9656861424
1463.9647961426	0.9575888515
1465.8936035156	0.9560456276
1467.8224108886	0.9669283628
1469.7512182617	0.9633345604
1471.6800256347	0.9499344826
1473.6088330078	0.9536244273
1475.5376403808	0.9606233835
1477.4664477539	0.9612904191
1479.3952551269	0.9619196057
1481.3240625000	0.9614657164
1483.2528698730	0.9638258815
1485.1816772461	0.9615212679
1487.1104846191	0.9568777084
1489.0392919922	0.9537133574
1490.9680993652	0.9531703591
1492.8969067383	0.9619618058
1494.8257141113	0.9596337080
1496.7545214843	0.9511739016
1498.6833288574	0.9553519487
1500.6121362304	0.9547488689
1502.5409436035	0.9571936727
1504.4697509765	0.9521111250
1506.3985583496	0.9304350019
1508.3273657226	0.9454681873
1510.2561730957	0.9545367956
1512.1849804687	0.9512363076
1514.1137878418	0.9556637406
1516.0425952148	0.9494144917
1517.9714025879	0.9501766562
1519.9002099609	0.9464631677
1521.8290173340	0.9390293956
1523.7578247070	0.9497126341
1525.6866320801	0.9465318918
1527.6154394531	0.9467974901
1529.5442468261	0.9514874816
1531.4730541992	0.9480882883
1533.4018615722	0.9435839057
1535.3306689453	0.9469051957
1537.2594763183	0.9474430680
1539.1882836914	0.9274991155
1541.1170910644	0.9276313782
1543.0458984375	0.9368490577
1544.9747058105	0.9394510984
1546.9035131836	0.9456042051
1548.8323205566	0.9406537414
1550.7611279297	0.9429391623
1552.6899353027	0.9406956434
1554.6187426758	0.9332777858
1556.5475500488	0.9318742156
1558.4763574218	0.9104801416
1560.4051647949	0.9156302810
1562.3339721679	0.9364211559
1564.2627795410	0.9332714677
1566.1915869140	0.9312724471
1568.1203942871	0.9301852584
1570.0492016601	0.9213005304
1571.9780090332	0.9266991615
1573.9068164062	0.9252183437
1575.8356237793	0.9100168943
1577.7644311523	0.9151984453
1579.6932385254	0.9204424620
1581.6220458984	0.9161232114
1583.5508532715	0.9135450125
1585.4796606445	0.9108529687
1587.4084680175	0.9085348845
1589.3372753906	0.9051386118
1591.2660827636	0.9009954333
1593.1948901367	0.8976953626
1595.1236975097	0.8950540423
1597.0525048828	0.8908929229
1598.9813122558	0.8850527406
1600.9101196289	0.8810777068
1602.8389270019	0.8752233982
1604.7677343750	0.8713442087
1606.6965417480	0.8668596745
1608.6253491211	0.8598968387
1610.5541564941	0.8548853397
1612.4829638672	0.8504545093
1614.4117712402	0.8446936011
1616.3405786132	0.8270929456
1618.2693859863	0.8260934949
1620.1981933593	0.8299465775
1622.1270007324	0.8159998059
1624.0558081054	0.8136861920
1625.9846154785	0.8128430843
1627.9134228515	0.8060876131
1629.8422302246	0.8031393290
1631.7710375976	0.8048645258
1633.6998449707	0.7993606925
1635.6286523437	0.7858666778
1637.5574597168	0.7950680256
1639.4862670898	0.8012068868
1641.4150744629	0.7994990945
1643.3438818359	0.8025866747
1645.2726892090	0.7999858260
1647.2014965820	0.7950177193
1649.1303039550	0.8096593618
1651.0591113281	0.8112906218
1652.9879187011	0.7892112136
1654.9167260742	0.8092415929
1656.8455334472	0.8247417808
1658.7743408203	0.8286091685
1660.7031481933	0.8357923627
1662.6319555664	0.8350381851
1664.5607629394	0.8401032686
1666.4895703125	0.8499550819
1668.4183776855	0.8490444422
1670.3471850586	0.8504174948
1672.2759924316	0.8635633588
1674.2047998047	0.8651880622
1676.1336071777	0.8659390211
1678.0624145507	0.8809646368
1679.9912219238	0.8856832981
1681.9200292968	0.8858634830
1683.8488366699	0.8791593313
1685.7776440429	0.8847394586
1687.7064514160	0.9070658088
1689.6352587890	0.9042685628
1691.5640661621	0.9132751822
1693.4928735351	0.9193109274
1695.4216809082	0.9032339454
1697.3504882812	0.9214758873
1699.2792956543	0.9183896184
1701.2081030273	0.9150906801
1703.1369104004	0.9388771653
1705.0657177734	0.9380437732
1706.9945251464	0.9420629740
1708.9233325195	0.9492378235
1710.8521398925	0.9524183869
1712.7809472656	0.9541321397
1714.7097546386	0.9526451826
1716.6385620117	0.9527101517
1718.5673693847	0.9514969587
1720.4961767578	0.9654934406
1722.4249841308	0.9704083800
1724.3537915039	0.9669006467
1726.2825988769	0.9753216505
1728.2114062500	0.9734617472
1730.1402136230	0.9753108025
1732.0690209961	0.9763572216
1733.9978283691	0.9589315653
1735.9266357421	0.9765516520
1737.8554431152	0.9865662456
1739.7842504882	0.9757956266
1741.7130578613	0.9840691090
1743.6418652343	0.9872123599
1745.5706726074	0.9850814939
1747.4994799804	0.9867804050
1749.4282873535	0.9853085876
1751.3570947265	0.9846168160
1753.2859020996	0.9901402593
1755.2147094726	0.9956980348
1757.1435168457	0.9901478291
1759.0723242187	0.9958292246
1761.0011315918	0.9958596230
1762.9299389648	0.9896108508
1764.8587463379	1.0002954006
1766.7875537109	0.9963815212
1768.7163610839	0.9941060543
1770.6451684570	0.9958344102
1772.5739758300	0.9894985557
1774.5027832031	0.9970310330
1776.4315905761	1.0024623871
1778.3603979492	1.0023648739
1780.2892053222	1.0008800030
1782.2180126953	1.0014362335
1784.1468200683	1.0032640696
1786.0756274414	1.0021934509
1788.0044348144	1.0049895048
1789.9332421875	1.0050622225
1791.8620495605	0.9969737530
1793.7908569336	0.9994680882
1795.7196643066	1.0065416098
1797.6484716796	1.0039482117
1799.5772790527	1.0037003756
1801.5060864257	1.0044139624
1803.4348937988	1.0066835880
1805.3637011718	1.0082032681
1807.2925085449	1.0058914423
1809.2213159179	1.0063229799
1811.1501232910	1.0057780743
1813.0789306640	1.0088495016
1815.0077380371	1.0086386204
1816.9365454101	1.0082538128
1818.8653527832	1.0085828304
1820.7941601562	1.0080900192
1822.7229675293	1.0113513470
1824.6517749023	1.0056214333
1826.5805822753	1.0083466768
1828.5093896484	1.0082675219
1830.4381970214	1.0022270679
1832.3670043945	1.0109336376
1834.2958117675	1.0101240873
1836.2246191406	1.0091464520
1838.1534265136	1.0099240541
1840.0822338867	1.0100750923
1842.0110412597	1.0098031759
1843.9398486328	1.0004144907
1845.8686560058	1.0068492889
1847.7974633789	1.0118688345
1849.7262707519	1.0086785555
1851.6550781250	1.0103065968
1853.5838854980	1.0091781616
1855.5126928710	1.0115714073
1857.4415002441	1.0113319159
1859.3703076171	1.0098253489
1861.2991149902	1.0120536089
1863.2279223632	1.0103579760
1865.1567297363	1.0102829933
1867.0855371093	1.0093215704
1869.0143444824	1.0060621500
1870.9431518554	1.0090801716
1872.8719592285	1.0128303766
1874.8007666015	1.0117235184
1876.7295739746	1.0109373331
1878.6583813476	1.0110751390
1880.5871887207	1.0105537176
1882.5159960937	1.0111998320
1884.4448034667	1.0109236240
1886.3736108398	1.0109300613
1888.3024182128	1.0100394487
1890.2312255859	1.0094221830
1892.1600329589	1.0106295347
1894.0888403320	1.0096029043
1896.0176477050	1.0105241537
1897.9464550781	1.0098515749
1899.8752624511	1.0095520020
1901.8040698242	1.0120730400
1903.7328771972	1.0109695196
1905.6616845703	1.0125502348
1907.5904919433	1.0118432045
1909.5192993164	1.0099956989
1911.4481066894	1.0106420517
1913.3769140625	1.0091097355
1915.3057214355	1.0103877783
1917.2345288085	1.0081229210
1919.1633361816	1.0091758966
1921.0921435546	1.0124423504
1923.0209509277	1.0090385675
1924.9497583007	1.0110552311
1926.8785656738	1.0118045807
1928.8073730468	1.0104568005
1930.7361804199	1.0109800100
1932.6649877929	1.0099489689
1934.5937951660	1.0099130869
1936.5226025390	1.0089755058
1938.4514099121	1.0105938911
1940.3802172851	1.0093677044
1942.3090246582	1.0064910650
1944.2378320312	1.0094224215
1946.1666394042	1.0095601082
1948.0954467773	1.0096958876
1950.0242541503	1.0101600885
1951.9530615234	1.0081591606
1953.8818688964	1.0088200569
1955.8106762695	1.0084426403
1957.7394836425	1.0069544315
1959.6682910156	1.0081127882
1961.5970983886	1.0089844465
1963.5259057617	1.0089840889
1965.4547131347	1.0075800419
1967.3835205078	1.0057251453
1969.3123278808	1.0073819160
1971.2411352539	1.0089648962
1973.1699426269	1.0083327293
1975.0987499999	1.0068213940
1977.0275573730	1.0061037540
1978.9563647460	1.0068395138
1980.8851721191	1.0063484907
1982.8139794921	1.0066988468
1984.7427868652	1.0067983866
1986.6715942382	1.0058720112
1988.6004016113	1.0060043335
1990.5292089843	1.0069109201
1992.4580163574	1.0072937012
1994.3868237304	1.0051538944
1996.3156311035	1.0052525997
1998.2444384765	1.0052670240
2000.1732458496	1.0046836138
2002.1020532226	1.0056666136
2004.0308605956	1.0039616823
2005.9596679687	1.0041836500
2007.8884753417	1.0043765306
2009.8172827148	1.0034134388
2011.7460900878	1.0034135580
2013.6748974609	1.0035486221
2015.6037048339	1.0044217110
2017.5325122070	1.0025228262
2019.4613195800	1.0024338961
2021.3901269531	1.0034573078
2023.3189343261	1.0035603046
2025.2477416992	1.0039598942
2027.1765490722	1.0031130314
2029.1053564453	1.0037699938
2031.0341638183	1.0018572807
2032.9629711914	1.0004259348
2034.8917785644	1.0022380352
2036.8205859374	1.0019390583
2038.7493933105	1.0009589195
2040.6782006835	1.0008386374
2042.6070080566	1.0002095699
2044.5358154296	0.9983167052
2046.4646228027	0.9991853833
2048.3934301757	1.0001111031
2050.3222375488	1.0000969172
2052.2510449218	1.0016189814
2054.1798522949	0.9996659160
2056.1086596679	0.9989086390
2058.0374670410	1.0007385015
2059.9662744140	0.9994713664
2061.8950817871	0.9983939528
2063.8238891601	0.9985790849
2065.7526965331	0.9973765016
2067.6815039062	0.9974027872
2069.6103112792	0.9985433221
2071.5391186523	0.9997584820
2073.4679260253	1.0009063482
2075.3967333984	0.9985015988
2077.3255407714	0.9984499812
2079.2543481445	0.9992219806
2081.1831555175	0.9956576824
2083.1119628906	0.9967305064
2085.0407702636	0.9988610744
2086.9695776367	0.9967179298
2088.8983850097	0.9965407848
2090.8271923828	0.9975581169
2092.7559997558	0.9968252182
2094.6848071288	0.9963042736
2096.6136145019	0.9956819415
2098.5424218749	0.9953055382
2100.4712292480	0.9961224794
2102.4000366210	0.9964029789
2104.3288439941	0.9965553284
2106.2576513671	0.9964084625
2108.1864587402	0.9966754317
2110.1152661132	0.9963049889
2112.0440734863	0.9959656596
2113.9728808593	0.9967508316
2115.9016882324	0.9960463643
2117.8304956054	0.9972097874
2119.7593029785	0.9969816208
2121.6881103515	0.9955880642
2123.6169177245	0.9971031547
2125.5457250976	0.9958603382
2127.4745324706	0.9957215786
2129.4033398437	0.9972791672
2131.3321472167	0.9954529405
2133.2609545898	0.9953612685
2135.1897619628	0.9970729351
2137.1185693359	0.9966008067
2139.0473767089	0.9968703389
2140.9761840820	0.9975440502
2142.9049914550	0.9975011349
2144.8337988281	0.9983108640
2146.7626062011	0.9976710081
2148.6914135742	0.9965493679
2150.6202209472	0.9961651564
2152.5490283203	0.9971733093
2154.4778356933	0.9990164042
2156.4066430663	0.9982017279
2158.3354504394	0.9960936308
2160.2642578124	0.9957224131
2162.1930651855	0.9976253510
2164.1218725585	0.9979507923
2166.0506799316	0.9977151752
2167.9794873046	0.9994463325
2169.9082946777	0.9989809990
2171.8371020507	0.9973450899
2173.7659094238	0.9979140759
2175.6947167968	0.9986289740
2177.6235241699	0.9981629848
2179.5523315429	0.9986639023
2181.4811389160	0.9986937046
2183.4099462890	0.9984123707
2185.3387536620	0.9989695549
2187.2675610351	0.9998560548
2189.1963684081	1.0003939867
2191.1251757812	0.9989720583
2193.0539831542	1.0001538992
2194.9827905273	1.0013674498
2196.9115979003	1.0000692606
2198.8404052734	1.0008178949
2200.7692126464	1.0020295382
2202.6980200195	1.0013424158
2204.6268273925	1.0005508661
2206.5556347656	1.0025078058
2208.4844421386	1.0028268099
2210.4132495117	1.0030487776
2212.3420568847	1.0025099516
2214.2708642577	1.0010799170
2216.1996716308	1.0041019917
2218.1284790038	1.0032333136
2220.0572863769	1.0029156208
2221.9860937499	1.0041533709
2223.9149011230	1.0032241344
2225.8437084960	1.0038381815
2227.7725158691	1.0027270317
2229.7013232421	1.0040206909
2231.6301306152	1.0044432878
2233.5589379882	1.0044351816
2235.4877453613	1.0045614243
2237.4165527343	1.0036356449
2239.3453601074	1.0060129166
2241.2741674804	1.0043209791
2243.2029748534	1.0030047894
2245.1317822265	1.0031450987
2247.0605895995	1.0045677423
2248.9893969726	1.0074590445
2250.9182043456	1.0055580139
2252.8470117187	1.0060955286
2254.7758190917	1.0058043003
2256.7046264648	1.0062093735
2258.6334338378	1.0075238943
2260.5622412109	1.0043634176
2262.4910485839	1.0058606863
2264.4198559570	1.0078407526
2266.3486633300	1.0067504644
2268.2774707031	1.0064486265
2270.2062780761	1.0067856312
2272.1350854491	1.0068415403
2274.0638928222	1.0072793961
2275.9927001952	1.0080820322
2277.9215075683	1.0070599318
2279.8503149413	1.0085299015
2281.7791223144	1.0089429617
2283.7079296874	1.0082875490
2285.6367370605	1.0085318089
2287.5655444335	1.0060280561
2289.4943518066	1.0068604946
2291.4231591796	1.0084007978
2293.3519665527	1.0090324879
2295.2807739257	1.0090715885
2297.2095812988	1.0090487003
2299.1383886718	1.0105776787
2301.0671960449	1.0085161924
2302.9960034179	1.0099844933
2304.9248107909	1.0108799934
2306.8536181640	1.0102552176
2308.7824255370	1.0130445957
2310.7112329101	1.0100117922
2312.6400402831	1.0106476545
2314.5688476562	1.0121761560
2316.4976550292	1.0087859631
2318.4264624023	1.0107409954
2320.3552697753	1.0126270056
2322.2840771484	1.0114649534
2324.2128845214	1.0093790293
2326.1416918945	1.0082085133
2328.0704992675	1.0085777044
2329.9993066406	1.0091537237
2331.9281140136	1.0081301928
2333.8569213866	1.0087271929
2335.7857287597	1.0130568743
2337.7145361327	1.0107679367
2339.6433435058	1.0089237690
2341.5721508788	1.0106930733
2343.5009582519	1.0082404613
2345.4297656249	1.0094196796
2347.3585729980	1.0130535364
2349.2873803710	1.0136995316
2351.2161877441	1.0128535032
2353.1449951171	1.0115252733
2355.0738024902	1.0109478235
2357.0026098632	1.0104205608
2358.9314172363	1.0098491907
2360.8602246093	1.0112191439
2362.7890319823	1.0101391077
2364.7178393554	1.0080900192
2366.6466467284	1.0102295876
2368.5754541015	1.0100136995
2370.5042614745	1.0113053322
2372.4330688476	1.0126653910
2374.3618762206	1.0128046274
2376.2906835937	1.0151853561
2378.2194909667	1.0135241747
2380.1482983398	1.0145771503
2382.0771057128	1.0151759386
2384.0059130859	1.0139622688
2385.9347204589	1.0152313709
2387.8635278320	1.0138641596
2389.7923352050	1.0157101154
2391.7211425780	1.0158072710
2393.6499499511	1.0142238140
2395.5787573241	1.0154500008
2397.5075646972	1.0155301094
2399.4363720702	1.0173792839
2401.3651794433	1.0166188478
2403.2939868163	1.0158309937
2405.2227941894	1.0169626474
2407.1516015624	1.0149705410
2409.0804089355	1.0140609741
2411.0092163085	1.0148409605
2412.9380236816	1.0153524876
2414.8668310546	1.0165159702
2416.7956384277	1.0166484118
2418.7244458007	1.0157815218
2420.6532531738	1.0163663626
2422.5820605468	1.0161703825
2424.5108679198	1.0169428587
2426.4396752929	1.0183860064
2428.3684826659	1.0177147388
2430.2972900390	1.0175071955
2432.2260974120	1.0172349215
2434.1549047851	1.0168129206
2436.0837121581	1.0156270266
2438.0125195312	1.0174010992
2439.9413269042	1.0187848806
2441.8701342773	1.0180218220
2443.7989416503	1.0199609995
2445.7277490234	1.0168883801
2447.6565563964	1.0170844793
2449.5853637695	1.0192067623
2451.5141711425	1.0159568787
2453.4429785155	1.0177817345
2455.3717858886	1.0181961060
2457.3005932616	1.0178248882
2459.2294006347	1.0187801123
2461.1582080077	1.0168514252
2463.0870153808	1.0168610811
2465.0158227538	1.0176967382
2466.9446301269	1.0182580948
2468.8734374999	1.0182896852
2470.8022448730	1.0174992085
2472.7310522460	1.0180314779
2474.6598596191	1.0207260847
2476.5886669921	1.0200861692
2478.5174743652	1.0179243088
2480.4462817382	1.0189093351
2482.3750891112	1.0190405846
2484.3038964843	1.0205688477
2486.2327038573	1.0209281445
2488.1615112304	1.0204528570
2490.0903186034	1.0202305317
2492.0191259765	1.0185680389
2493.9479333495	1.0190871954
2495.8767407226	1.0188280344
2497.8055480956	1.0213319063
2499.7343554687	1.0218436718
2501.6631628417	1.0181729794
2503.5919702148	1.0202214718
2505.5207775878	1.0213789940
2507.4495849609	1.0187796354
2509.3783923339	1.0189901590
2511.3071997069	1.0213346481
2513.2360070800	1.0188876390
2515.1648144530	1.0181807280
2517.0936218261	1.0218442678
2519.0224291991	1.0203751326
2520.9512365722	1.0199178457
2522.8800439452	1.0204973221
2524.8088513183	1.0205125809
2526.7376586913	1.0210461617
2528.6664660644	1.0196545124
2530.5952734374	1.0202689171
2532.5240808105	1.0202984810
2534.4528881835	1.0202529430
2536.3816955566	1.0212314129
2538.3105029296	1.0214139223
2540.2393103027	1.0219705105
2542.1681176757	1.0211625099
2544.0969250487	1.0218815804
2546.0257324218	1.0230158567
2547.9545397948	1.0204753876
2549.8833471679	1.0211906433
2551.8121545409	1.0225372314
2553.7409619140	1.0200382471
2555.6697692870	1.0210813284
2557.5985766601	1.0201126337
2559.5273840331	1.0200779438
2561.4561914062	1.0221049786
2563.3849987792	1.0192223787
2565.3138061523	1.0215803385
2567.2426135253	1.0208958387
2569.1714208984	1.0193719864
2571.1002282714	1.0220166445
2573.0290356444	1.0197131634
2574.9578430175	1.0228759050
2576.8866503905	1.0232348442
2578.8154577636	1.0209351778
2580.7442651366	1.0227183104
2582.6730725097	1.0222389698
2584.6018798827	1.0244518518
2586.5306872558	1.0216956139
2588.4594946288	1.0203293562
2590.3883020019	1.0235146284
2592.3171093749	1.0208349228
2594.2459167480	1.0210644007
2596.1747241210	1.0217419863
2598.1035314941	1.0222276449
2600.0323388671	1.0230733156
2601.9611462401	1.0204292536
2603.8899536132	1.0218907595
2605.8187609862	1.0222964287
2607.7475683593	1.0210671425
2609.6763757323	1.0226346254
2611.6051831054	1.0217399597
2613.5339904784	1.0211385489
2615.4627978515	1.0212885141
2617.3916052245	1.0216429234
2619.3204125976	1.0217039585
2621.2492199706	1.0211809874
2623.1780273437	1.0218696594
2625.1068347167	1.0212314129
2627.0356420898	1.0202872753
2628.9644494628	1.0200541019
2630.8932568358	1.0220386982
2632.8220642089	1.0213545561
2634.7508715819	1.0205049515
2636.6796789550	1.0225861073
2638.6084863280	1.0194056034
2640.5372937011	1.0202485323
2642.4661010741	1.0210797787
2644.3949084472	1.0197317600
2646.3237158202	1.0208947659
2648.2525231933	1.0187628269
2650.1813305663	1.0197854042
2652.1101379394	1.0185884237
2654.0389453124	1.0185604095
2655.9677526855	1.0202685595
2657.8965600585	1.0198892355
2659.8253674315	1.0226584673
2661.7541748046	1.0198755264
2663.6829821776	1.0193791389
2665.6117895507	1.0217502117
2667.5405969237	1.0214263201
2669.4694042968	1.0206184387
2671.3982116698	1.0188040733
2673.3270190429	1.0193837881
2675.2558264159	1.0195819139
2677.1846337890	1.0210262537
2679.1134411620	1.0205444098
2681.0422485351	1.0206509829
2682.9710559081	1.0218801498
2684.8998632812	1.0200430155
2686.8286706542	1.0202662945
2688.7574780273	1.0195925236
2690.6862854003	1.0202741623
2692.6150927733	1.0202529430
2694.5439001464	1.0196393728
2696.4727075194	1.0202957392
2698.4015148925	1.0205194950
2700.3303222655	1.0219551325
2702.2591296386	1.0192792416
2704.1879370116	1.0165715218
2706.1167443847	1.0172183514
2708.0455517577	1.0190254450
2709.9743591308	1.0180214643
2711.9031665038	1.0188829899
2713.8319738769	1.0220057964
2715.7607812499	1.0184564590
2717.6895886230	1.0186256170
2719.6183959960	1.0206595659
2721.5472033690	1.0189789534
2723.4760107421	1.0179346800
2725.4048181151	1.0181686878
2727.3336254882	1.0177111626
2729.2624328612	1.0177598000
2731.1912402343	1.0199917555
2733.1200476073	1.0173262358
2735.0488549804	1.0180691481
2736.9776623534	1.0193395615
2738.9064697265	1.0176223516
2740.8352770995	1.0187675953
2742.7640844726	1.0174059868
2744.6928918456	1.0181680918
2746.6216992187	1.0174901485
2748.5505065917	1.0182113647
2750.4793139647	1.0182116032
2752.4081213378	1.0152294636
2754.3369287108	1.0178798437
2756.2657360839	1.0173358917
2758.1945434569	1.0171095133
2760.1233508300	1.0169734955
2762.0521582030	1.0158896446
2763.9809655761	1.0165343285
2765.9097729491	1.0155594349
2767.8385803222	1.0164968967
2769.7673876952	1.0151470900
2771.6961950683	1.0155661106
2773.6250024413	1.0168823004
2775.5538098144	1.0147593021
2777.4826171874	1.0154933929
2779.4114245604	1.0150524378
2781.3402319335	1.0130172968
2783.2690393065	1.0128713846
2785.1978466796	1.0124261379
2787.1266540526	1.0139038563
2789.0554614257	1.0159240961
2790.9842687987	1.0139367580
2792.9130761718	1.0133216381
2794.8418835448	1.0115567446
2796.7706909179	1.0088621378
2798.6994982909	1.0119596720
2800.6283056640	1.0135395527
2802.5571130370	1.0115433931
2804.4859204101	1.0111167431
2806.4147277831	1.0127347708
2808.3435351562	1.0101333857
2810.2723425292	1.0084197521
2812.2011499022	1.0118994713
2814.1299572753	1.0113544464
2816.0587646483	1.0105121136
2817.9875720214	1.0099049807
2819.9163793944	1.0102243423
2821.8451867675	1.0115133524
2823.7739941405	1.0091977119
2825.7028015136	1.0085494518
2827.6316088866	1.0098494291
2829.5604162597	1.0102766752
2831.4892236327	1.0069415569
2833.4180310058	1.0059797764
2835.3468383788	1.0089726448
2837.2756457519	1.0063512325
2839.2044531249	1.0040993690
2841.1332604979	1.0051493645
2843.0620678710	1.0052549839
2844.9908752440	1.0055364370
2846.9196826171	1.0025013685
2848.8484899901	0.9978055954
2850.7772973632	0.9992757440
2852.7061047362	1.0017209053
2854.6349121093	1.0013512373
2856.5637194823	1.0020401478
2858.4925268554	1.0019236803
2860.4213342284	1.0011712313
2862.3501416015	1.0012310743
2864.2789489745	1.0015093088
2866.2077563476	1.0011020899
2868.1365637206	1.0013129711
2870.0653710936	1.0004280806
2871.9941784667	0.9977976680
2873.9229858397	0.9983194470
2875.8517932128	0.9986273050
2877.7806005858	0.9971568584
2879.7094079589	0.9966061711
2881.6382153319	0.9962773323
2883.5670227050	0.9945275187
2885.4958300780	0.9946714044
2887.4246374511	0.9969162345
2889.3534448241	0.9946684241
2891.2822521972	0.9918948412
2893.2110595702	0.9899612665
2895.1398669433	0.9911154509
2897.0686743163	0.9940412641
2898.9974816893	0.9910970330
2900.9262890624	0.9900273681
2902.8550964354	0.9894801378
2904.7839038085	0.9874541163
2906.7127111815	0.9870413542
2908.6415185546	0.9847174883
2910.5703259276	0.9856206179
2912.4991333007	0.9870901704
2914.4279406737	0.9826023579
2916.3567480468	0.9798246622
2918.2855554198	0.9815149307
2920.2143627929	0.9791481495
2922.1431701659	0.9770516157
2924.0719775390	0.9796119928
2926.0007849120	0.9769315720
2927.9295922851	0.9752863646
2929.8583996581	0.9779855609
2931.7872070311	0.9768680930
2933.7160144042	0.9777715802
2935.6448217772	0.9787291288
2937.5736291503	0.9761267900
2939.5024365233	0.9746439457
2941.4312438964	0.9739316702
2943.3600512694	0.9750224352
2945.2888586425	0.9727898836
2947.2176660155	0.9691063762
2949.1464733886	0.9711883068
2951.0752807616	0.9703949094
2953.0040881347	0.9675658941
2954.9328955077	0.9682665467
2956.8617028808	0.9691703320
2958.7905102538	0.9676542878
2960.7193176268	0.9639412165
2962.6481249999	0.9636192322
2964.5769323729	0.9622819424
2966.5057397460	0.9600716233
2968.4345471190	0.9614219666
2970.3633544921	0.9591441154
2972.2921618651	0.9594511986
2974.2209692382	0.9602703452
2976.1497766112	0.9569130540
2978.0785839843	0.9580542445
2980.0073913573	0.9564385414
2981.9361987304	0.9538093209
2983.8650061034	0.9535631537
2985.7938134765	0.9517362714
2987.7226208495	0.9514568448
2989.6514282225	0.9486219287
2991.5802355956	0.9474052191
2993.5090429686	0.9469003677
2995.4378503417	0.9449576139
2997.3666577147	0.9466252923
2999.2954650878	0.9440513849
3001.2242724608	0.9411600232
3003.1530798339	0.9396163821
3005.0818872069	0.9351624250
3007.0106945800	0.9352067709
3008.9395019530	0.9345760942
3010.8683093261	0.9307453632
3012.7971166991	0.9306734204
3014.7259240722	0.9291008711
3016.6547314452	0.9261743426
3018.5835388182	0.9252077341
3020.5123461913	0.9226570129
3022.4411535643	0.9222780466
3024.3699609374	0.9209530950
3026.2987683104	0.9176108837
3028.2275756835	0.9156150222
3030.1563830565	0.9114417434
3032.0851904296	0.9113307595
3034.0139978026	0.9121093750
3035.9428051757	0.9082617164
3037.8716125487	0.9059686661
3039.8004199218	0.9048202038
3041.7292272948	0.9020112753
3043.6580346679	0.8989517093
3045.5868420409	0.8973791003
3047.5156494139	0.8941516280
3049.4444567870	0.8918192387
3051.3732641600	0.8914497495
3053.3020715331	0.8879185319
3055.2308789061	0.8837608099
3057.1596862792	0.8839977980
3059.0884936522	0.8851771355
3061.0173010253	0.8807283044
3062.9461083983	0.8773470521
3064.8749157714	0.8763562441
3066.8037231444	0.8723756671
3068.7325305175	0.8686333299
3070.6613378905	0.8667718768
3072.5901452636	0.8669838905
3074.5189526366	0.8652250171
3076.4477600097	0.8607640862
3078.3765673827	0.8575471640
3080.3053747557	0.8517761230
3082.2341821288	0.8478580117
3084.1629895018	0.8496361375
3086.0917968749	0.8459131122
3088.0206042479	0.8428324461
3089.9494116210	0.8406415582
3091.8782189940	0.8341012001
3093.8070263671	0.8340831399
3095.7358337401	0.8296236396
3097.6646411132	0.8242795467
3099.5934484862	0.8231125474
3101.5222558593	0.8181025386
3103.4510632323	0.8172479868
3105.3798706054	0.8156381249
3107.3086779784	0.8135601878
3109.2374853514	0.8089944124
3111.1662927245	0.8036606908
3113.0951000975	0.8013323545
3115.0239074706	0.7957230210
3116.9527148436	0.7933292389
3118.8815222167	0.7916063070
3120.8103295897	0.7892796993
3122.7391369628	0.7858824134
3124.6679443358	0.7828229070
3126.5967517089	0.7791041136
3128.5255590819	0.7732544541
3130.4543664550	0.7717763782
3132.3831738280	0.7685806751
3134.3119812011	0.7665234804
3136.2407885741	0.7607619166
3138.1695959471	0.7542657256
3140.0984033202	0.7558050156
3142.0272106932	0.7527186871
3143.9560180663	0.7480395436
3145.8848254393	0.7451518774
3147.8136328124	0.7407882214
3149.7424401854	0.7351618409
3151.6712475585	0.7328411341
3153.6000549315	0.7332283854
3155.5288623046	0.7290213704
3157.4576696776	0.7236974835
3159.3864770507	0.7201480865
3161.3152844237	0.7154619694
3163.2440917968	0.7115475535
3165.1728991698	0.7115085125
3167.1017065428	0.7067925334
3169.0305139159	0.7017487288
3170.9593212889	0.7010717988
3172.8881286620	0.6986503005
3174.8169360350	0.6948392391
3176.7457434081	0.6889528632
3178.6745507811	0.6869179010
3180.6033581542	0.6853662133
3182.5321655272	0.6818357110
3184.4609729003	0.6779142022
3186.3897802733	0.6751610041
3188.3185876464	0.6742032766
3190.2473950194	0.6702938676
3192.1762023925	0.6681737304
3194.1050097655	0.6648444533
3196.0338171386	0.6631200314
3197.9626245116	0.6595128775
3199.8914318846	0.6538532376
3201.8202392577	0.6542216539
3203.7490466307	0.6521884799
3205.6778540038	0.6498164535
3207.6066613768	0.6463542581
3209.5354687499	0.6449811459
3211.4642761229	0.6433680654
3213.3930834960	0.6406409740
3215.3218908690	0.6420904994
3217.2506982421	0.6381976604
3219.1795056151	0.6356136799
3221.1083129882	0.6354462504
3223.0371203612	0.6344538927
3224.9659277343	0.6331316233
3226.8947351073	0.6307274103
3228.8235424803	0.6289820671
3230.7523498534	0.6261909604
3232.6811572264	0.6251441240
3234.6099645995	0.6257517338
3236.5387719725	0.6264379621
3238.4675793456	0.6222124100
3240.3963867186	0.6205461621
3242.3251940917	0.6233142614
3244.2540014647	0.6219303012
3246.1828088378	0.6213223934
3248.1116162108	0.6189309359
3250.0404235839	0.6174322367
3251.9692309569	0.6176343560
3253.8980383300	0.6156064272
3255.8268457030	0.6150968671
3257.7556530760	0.6136012077
3259.6844604491	0.6136559844
3261.6132678221	0.6168350577
3263.5420751952	0.6160740852
3265.4708825682	0.6162582636
3267.3996899413	0.6158094406
3269.3284973143	0.6126086712
3271.2573046874	0.6155974269
3273.1861120604	0.6136931777
3275.1149194335	0.6105383039
3277.0437268065	0.6116707921
3278.9725341796	0.6123076081
3280.9013415526	0.6124197841
3282.8301489257	0.6090309024
3284.7589562987	0.6125794053
3286.6877636717	0.6118294597
3288.6165710448	0.6100770235
3290.5453784178	0.6109660864
3292.4741857909	0.6076398492
3294.4029931639	0.6117683649
3296.3318005370	0.6093552709
3298.2606079100	0.6090118885
3300.1894152831	0.6109793186
3302.1182226561	0.6091911197
3304.0470300292	0.6131125093
3305.9758374022	0.6119982004
3307.9046447753	0.6116636992
3309.8334521483	0.6109327674
3311.7622595214	0.6085622311
3313.6910668944	0.6075105667
3315.6198742675	0.6071568131
3317.5486816405	0.6083571911
3319.4774890135	0.6097486615
3321.4062963866	0.6093266606
3323.3351037596	0.6064567566
3325.2639111327	0.6093858480
3327.1927185057	0.6077265143
3329.1215258788	0.6068810225
3331.0503332518	0.6103153229
3332.9791406249	0.6091392636
3334.9079479979	0.6086291075
3336.8367553710	0.6059206128
3338.7655627440	0.6069644094
3340.6943701171	0.6083998680
3342.6231774901	0.6094756126
3344.5519848632	0.6079795957
3346.4807922362	0.6047482491
3348.4095996092	0.6075352430
3350.3384069823	0.6073620319
3352.2672143553	0.6079146862
3354.1960217284	0.6079818010
3356.1248291014	0.6090301275
3358.0536364745	0.6088948846
3359.9824438475	0.6071941853
3361.9112512206	0.6116904020
3363.8400585936	0.6127141118
3365.7688659667	0.6131974459
3367.6976733397	0.6155470014
3369.6264807128	0.6162248850
3371.5552880858	0.6150766015
3373.4840954589	0.6153805256
3375.4129028319	0.6164788008
3377.3417102049	0.6160275340
3379.2705175780	0.6170868278
3381.1993249510	0.6184134483
3383.1281323241	0.6206041574
3385.0569396971	0.6189298630
3386.9857470702	0.6200441718
3388.9145544432	0.6248397827
3390.8433618163	0.6270313263
3392.7721691893	0.6274434924
3394.7009765624	0.6258581281
3396.6297839354	0.6291593909
3398.5585913085	0.6302651167
3400.4873986815	0.6303645372
3402.4162060546	0.6330310702
3404.3450134276	0.6364193559
3406.2738208006	0.6401252747
3408.2026281737	0.6396183372
3410.1314355467	0.6404836774
3412.0602429198	0.6420067549
3413.9890502928	0.6475975513
3415.9178576659	0.6504985094
3417.8466650389	0.6494486332
3419.7754724120	0.6525908113
3421.7042797850	0.6525728703
3423.6330871581	0.6574431062
3425.5618945311	0.6620905995
3427.4907019042	0.6613061428
3429.4195092772	0.6636592746
3431.3483166503	0.6660566926
3433.2771240233	0.6678659916
3435.2059313963	0.6678629518
3437.1347387694	0.6705855131
3439.0635461424	0.6765267253
3440.9923535155	0.6767880917
3442.9211608885	0.6779140234
3444.8499682616	0.6834772229
3446.7787756346	0.6852238774
3448.7075830077	0.6899917722
3450.6363903807	0.6952686906
3452.5651977538	0.6930646300
3454.4940051268	0.6940331459
3456.4228124999	0.6986483335
3458.3516198729	0.7024203539
3460.2804272460	0.7035210133
3462.2092346190	0.7047150135
3464.1380419921	0.7098156810
3466.0668493651	0.7120099664
3467.9956567381	0.7111381292
3469.9244641112	0.7135375142
3471.8532714842	0.7211471200
3473.7820788573	0.7244625688
3475.7108862303	0.7226848602
3477.6396936034	0.7257732749
3479.5685009764	0.7275179029
3481.4973083495	0.7301594019
3483.4261157225	0.7368102074
3485.3549230956	0.7378886342
3487.2837304686	0.7406707406
3489.2125378417	0.7433212996
3491.1413452147	0.7423356771
3493.0701525878	0.7481263876
3494.9989599608	0.7519302368
3496.9277673338	0.7521333694
3498.8565747069	0.7558367848
3500.7853820799	0.7593829632
3502.7141894530	0.7606933713
3504.6429968260	0.7618926764
3506.5718041991	0.7659502029
3508.5006115721	0.7660805583
3510.4294189452	0.7672972679
3512.3582263182	0.7750424743
3514.2870336913	0.7790058255
3516.2158410643	0.7797927856
3518.1446484374	0.7822145820
3520.0734558104	0.7867841125
3522.0022631835	0.7886466384
3523.9310705565	0.7874776721
3525.8598779295	0.7924283147
3527.7886853026	0.7978770137
3529.7174926756	0.7982608080
3531.6463000487	0.8018623590
3533.5751074217	0.8040037155
3535.5039147948	0.8057356477
3537.4327221678	0.8087573647
3539.3615295409	0.8086090088
3541.2903369139	0.8165185452
3543.2191442870	0.8194640875
3545.1479516600	0.8162344694
3547.0767590331	0.8211195469
3549.0055664061	0.8239154220
3550.9343737792	0.8272956014
3552.8631811522	0.8300728202
3554.7919885252	0.8342420459
3556.7207958983	0.8382536173
3558.6496032713	0.8387621641
3560.5784106444	0.8428359628
3562.5072180174	0.8445010781
3564.4360253905	0.8473845124
3566.3648327635	0.8446540236
3568.2936401366	0.8417457342
3570.2224475096	0.8528552055
3572.1512548827	0.8584924936
3574.0800622557	0.8593689799
3576.0088696288	0.8591663837
3577.9376770018	0.8606333733
3579.8664843749	0.8659481406
3581.7952917479	0.8656916022
3583.7240991210	0.8691977859
3585.6529064940	0.8729006052
3587.5817138670	0.8705357909
3589.5105212401	0.8760854006
3591.4393286131	0.8793739676
3593.3681359862	0.8765380383
3595.2969433592	0.8789575100
3597.2257507323	0.8847360611
3599.1545581053	0.8896197081
3601.0833654784	0.8911356330
3603.0121728514	0.8916606307
3604.9409802245	0.8964903355
3606.8697875975	0.8968798518
3608.7985949706	0.8909879327
3610.7274023436	0.8984488845
3612.6562097167	0.9010316133
3614.5850170897	0.8976084590
3616.5138244627	0.9088644981
3618.4426318358	0.9056066871
3620.3714392088	0.9090987444
3622.3002465819	0.9225416183
3624.2290539549	0.9191452861
3626.1578613280	0.9213426113
3628.0866687010	0.9153438210
3630.0154760741	0.9140023589
3631.9442834471	0.9268845916
3633.8730908202	0.9270403385
3635.8018981932	0.9297479391
3637.7307055663	0.9315787554
3639.6595129393	0.9336839318
3641.5883203124	0.9379814863
3643.5171276854	0.9423885942
3645.4459350584	0.9442492127
3647.3747424315	0.9420462251
3649.3035498045	0.9365574121
3651.2323571776	0.9341220260
3653.1611645506	0.9530942440
3655.0899719237	0.9589633942
3657.0187792967	0.9516241550
3658.9475866698	0.9579637051
3660.8763940428	0.9620561600
3662.8052014159	0.9687604904
3664.7340087889	0.9704036117
3666.6628161620	0.9718046784
3668.5916235350	0.9735434055
3670.5204309081	0.9662433267
3672.4492382811	0.9763246179
3674.3780456541	0.9760004878
3676.3068530272	0.9698280096
3678.2356604002	0.9850283265
3680.1644677733	0.9886943102
3682.0932751463	0.9905446768
3684.0220825194	0.9937337041
3685.9508898924	0.9964005351
3687.8796972655	0.9934405684
3689.8085046385	0.9847453237
3691.7373120116	0.9956018329
3693.6661193846	1.0005348921
3695.5949267577	0.9991956353
3697.5237341307	1.0013601780
3699.4525415038	1.0030595064
3701.3813488768	1.0013689995
3703.3101562499	0.9987283349
3705.2389636229	1.0084062815
3707.1677709959	1.0064728260
3709.0965783690	1.0036474466
3711.0253857420	1.0039545298
3712.9541931151	1.0012969971
3714.8830004881	1.0129190683
3716.8118078612	1.0127626657
3718.7406152342	1.0112609863
3720.6694226073	1.0094354153
3722.5982299803	1.0055370331
3724.5270373534	1.0062121153
3726.4558447264	1.0049067736
3728.3846520995	1.0122985840
3730.3134594725	1.0076422691
3732.2422668456	1.0023761988
3734.1710742186	1.0055243969
3736.0998815916	1.0059608221
3738.0286889647	1.0073105097
3739.9574963377	1.0125749111
3741.8863037108	1.0173569918
3743.8151110838	0.9984647632
3745.7439184569	0.9956885576
3747.6727258299	1.0125725269
3749.6015332030	1.0025026798
3751.5303405760	0.9935203791
3753.4591479491	1.0069335699
3755.3879553221	1.0184521675
3757.3167626952	1.0179203749
3759.2455700682	1.0134977102
3761.1743774413	1.0115712881
3763.1031848143	1.0166546106
3765.0319921873	1.0122008324
3766.9607995604	1.0118341446
3768.8896069334	1.0187082291
3770.8184143065	1.0108546019
3772.7472216795	1.0158852339
3774.6760290526	1.0169575214
3776.6048364256	1.0146403313
3778.5336437987	1.0160547495
3780.4624511717	1.0116580725
3782.3912585448	1.0147200823
3784.3200659178	1.0146367550
3786.2488732909	1.0188260078
3788.1776806639	1.0188982487
3790.1064880370	1.0158962011
3792.0352954100	1.0152330399
3793.9641027830	1.0171960592
3795.8929101561	1.0197334290
3797.8217175291	1.0178704262
3799.7505249022	1.0182983875
3801.6793322752	1.0015077591
3803.6081396483	1.0128509998
3805.5369470213	1.0204793215
3807.4657543944	1.0055214167
3809.3945617674	1.0168988705
3811.3233691405	1.0182015896
3813.2521765135	1.0205764771
3815.1809838866	1.0122940540
3817.1097912596	1.0069108009
3819.0385986327	1.0169043541
3820.9674060057	1.0015497208
3822.8962133787	1.0098805428
3824.8250207518	1.0180624723
3826.7538281248	1.0179613829
3828.6826354979	1.0198557377
3830.6114428709	1.0153325796
3832.5402502440	1.0181320906
3834.4690576170	1.0180243254
3836.3978649901	1.0144387484
3838.3266723631	1.0072216988
3840.2554797362	1.0155547857
3842.1842871092	1.0173597336
3844.1130944823	1.0145291090
3846.0419018553	1.0214229822
3847.9707092284	1.0167953968
3849.8995166014	1.0174099207
3851.8283239745	1.0056898594
3853.7571313475	0.9918926954
3855.6859387205	1.0057997704
3857.6147460936	1.0125714540
3859.5435534666	1.0230586529
3861.4723608397	1.0207839012
3863.4011682127	1.0098786354
3865.3299755858	1.0088239908
3867.2587829588	1.0183749199
3869.1875903319	1.0151437521
3871.1163977049	1.0037214756
3873.0452050780	1.0168724060
3874.9740124510	1.0191024542
3876.9028198241	1.0184533596
3878.8316271971	1.0194333792
3880.7604345702	1.0096904039
3882.6892419432	1.0183244944
3884.6180493162	1.0156050920
3886.5468566893	1.0064300299
3888.4756640623	1.0177171230
3890.4044714354	1.0141667128
3892.3332788084	1.0115946531
3894.2620861815	1.0215758085
3896.1908935545	1.0235785246
3898.1197009276	1.0201464891
3900.0485083006	1.0142034292
3901.9773156737	1.0144158602
3903.9061230467	1.0085391998
3905.8349304198	1.0069249868
3907.7637377928	1.0222734213
3909.6925451659	1.0232330561
3911.6213525389	1.0208251476
3913.5501599119	1.0216953754
3915.4789672850	1.0165759325
3917.4077746580	1.0162439346
3919.3365820311	1.0155761242
3921.2653894041	1.0171320438
3923.1941967772	1.0176864862
3925.1230041502	1.0154126883
3927.0518115233	1.0172888041
3928.9806188963	1.0185784101
3930.9094262694	1.0145676136
3932.8382336424	1.0120574236
3934.7670410155	1.0192610025
3936.6958483885	1.0183616877
3938.6246557616	1.0195814371
3940.5534631346	1.0242373943
3942.4822705076	1.0150767565
3944.4110778807	1.0164924860
3946.3398852537	1.0197942257
3948.2686926268	1.0181443691
3950.1974999998	1.0182275772
3952.1263073729	1.0134775639
3954.0551147459	1.0185477734
3955.9839221190	1.0207524300
3957.9127294920	1.0178539753
3959.8415368651	1.0187047720
3961.7703442381	1.0175212622
3963.6991516112	1.0207628012
3965.6279589842	1.0201441050
3967.5567663573	1.0198539495
3969.4855737303	1.0205826759
3971.4143811034	1.0167565346
3973.3431884764	1.0185604095
3975.2719958494	1.0184909105
3977.2008032225	1.0216401815
3979.1296105955	1.0230418444
3981.0584179686	1.0132110119
3982.9872253416	1.0149552822
3984.9160327147	1.0163637400
3986.8448400877	1.0139154196
3988.7736474608	1.0210680962
3990.7024548338	1.0180166960
3992.6312622069	1.0190409422
3994.5600695799	1.0248291492
3996.4888769530	1.0146201849
3998.4176843260	1.0119416714
4000.3464916991	1.0166119337
4002.2752990721	1.0173412561
4004.2041064451	1.0212337971
4006.1329138182	1.0235884190
4008.0617211912	1.0231406689
4009.9905285643	1.0217361450
4011.9193359373	1.0186126232
4013.8481433104	1.0165222883
4015.7769506834	1.0191512108
4017.7057580565	1.0216169357
4019.6345654295	1.0139764547
4021.5633728026	1.0102819204
4023.4921801756	1.0190440416
4025.4209875487	1.0178724527
4027.3497949217	1.0176912546
4029.2786022948	1.0242061615
4031.2074096678	1.0200064182
4033.1362170408	1.0207186937
4035.0650244139	1.0215729475
4036.9938317869	1.0176426172
4038.9226391600	1.0162588358
4040.8514465330	1.0170174837
4042.7802539061	1.0199940205
4044.7090612791	1.0178136826
4046.6378686522	1.0216170549
4048.5666760252	1.0221014023
4050.4954833983	1.0196443796
4052.4242907713	1.0192619562
4054.3530981444	1.0127526522
4056.2819055174	1.0197830200
4058.2107128905	1.0228269100
4060.1395202635	1.0171331167
4062.0683276365	1.0171877146
4063.9971350096	1.0152008533
4065.9259423826	1.0170224905
4067.8547497557	1.0238007307
4069.7835571287	1.0238949060
4071.7123645018	1.0158981085
4073.6411718748	1.0217322111
4075.5699792479	1.0212640762
4077.4987866209	1.0146536827
4079.4275939940	1.0201921463
4081.3564013670	1.0130972862
4083.2852087401	1.0154187679
4085.2140161131	1.0195925236
4087.1428234862	1.0157487392
4089.0716308592	1.0222058296
4091.0004382323	1.0187957287
4092.9292456053	1.0177657604
4094.8580529783	1.0236392021
4096.7868603514	1.0216976404
4098.7156677244	1.0193157196
4100.6444750975	1.0212571621
4102.5732824705	1.0178055763
4104.5020898436	1.0149308443
4106.4308972166	1.0202356577
4108.3597045897	1.0179870129
4110.2885119627	1.0175466537
4112.2173193358	1.0165166855
4114.1461267088	1.0161048174
4116.0749340819	1.0206657648
4118.0037414549	1.0139541626
4119.9325488280	1.0145292282
4121.8613562010	1.0194325447
4123.7901635740	1.0199878216
4125.7189709471	1.0202085972
4127.6477783201	1.0169416666
4129.5765856932	1.0212999582
4131.5053930662	1.0196304321
4133.4342004393	1.0169296265
4135.3630078123	1.0221402645
4137.2918151854	1.0174994469
4139.2206225584	1.0155863762
4141.1494299315	1.0171633959
4143.0782373045	1.0157766342
4145.0070446776	1.0176736116
4146.9358520506	1.0170465708
4148.8646594237	1.0163471699
4150.7934667967	1.0147405863
4152.7222741697	1.0162885189
4154.6510815428	1.0211654902
4156.5798889158	1.0170047283
4158.5086962889	1.0155029297
4160.4375036619	1.0189648867
4162.3663110350	1.0196669102
4164.2951184080	1.0197987556
4166.2239257811	1.0197274685
4168.1527331541	1.0202962160
4170.0815405272	1.0190677643
4172.0103479002	1.0183788538
4173.9391552733	1.0145852566
4175.8679626463	1.0144721270
4177.7967700194	1.0224105120
4179.7255773924	1.0174530745
4181.6543847654	1.0116147995
4183.5831921385	1.0152763128
4185.5119995115	1.0168448687
4187.4408068846	1.0193065405
4189.3696142576	1.0205752850
4191.2984216307	1.0206209421
4193.2272290037	1.0165044069
4195.1560363768	1.0141122341
4197.0848437498	1.0179246664
4199.0136511229	1.0151166916
4200.9424584959	1.0174052715
4202.8712658690	1.0192925930
4204.8000732420	1.0156812668
4206.7288806151	1.0224845409
4208.6576879881	1.0197424889
4210.5864953611	1.0131237507
4212.5153027342	1.0203895569
4214.4441101072	1.0231704712
4216.3729174803	1.0212075710
4218.3017248533	1.0189421177
4220.2305322264	1.0147517920
4222.1593395994	1.0184472799
4224.0881469725	1.0199300051
4226.0169543455	1.0187487602
4227.9457617186	1.0265940428
4229.8745690916	1.0199146271
4231.8033764647	1.0155277252
4233.7321838377	1.0217272043
4235.6609912108	1.0138658285
4237.5897985838	1.0210440159
4239.5186059569	1.0253534317
4241.4474133299	1.0155125856
4243.3762207029	1.0173819065
4245.3050280760	1.0166006088
4247.2338354490	1.0196601152
4249.1626428221	1.0194807053
4251.0914501951	1.0199224949
4253.0202575682	1.0230956078
4254.9490649412	1.0138212442
4256.8778723143	1.0157110691
4258.8066796873	1.0162491798
4260.7354870604	1.0161511898
4262.6642944334	1.0254267454
4264.5931018065	1.0199091434
4266.5219091795	1.0205745697
4268.4507165526	1.0250812769
4270.3795239256	1.0163544416
4272.3083312986	1.0161579847
4274.2371386717	1.0122014284
4276.1659460447	1.0091784000
4278.0947534178	1.0258433819
4280.0235607908	1.0266842842
4281.9523681639	1.0147033930
4283.8811755369	1.0202112198
4285.8099829100	1.0244945288
4287.7387902830	1.0209133625
4289.6675976561	1.0209544897
4291.5964050291	1.0204879045
4293.5252124022	1.0191166401
4295.4540197752	1.0171316862
4297.3828271483	1.0150692463
4299.3116345213	1.0200774670
4301.2404418943	1.0206257105
4303.1692492674	1.0214382410
4305.0980566404	1.0267738104
4307.0268640135	1.0147830248
4308.9556713865	1.0120472908
4310.8844787596	1.0192909241
4312.8132861326	1.0143263340
4314.7420935057	1.0201696157
4316.6709008787	1.0228278637
4318.5997082518	1.0147515535
4320.5285156248	1.0139684677
4322.4573229979	1.0170243979
4324.3861303709	1.0188364983
4326.3149377440	1.0152928829
4328.2437451170	1.0194885731
4330.1725524900	1.0229355097
4332.1013598631	1.0153216124
4334.0301672361	1.0212165117
4335.9589746092	1.0223169327
4337.8877819822	1.0110143423
4339.8165893553	1.0163664818
4341.7453967283	1.0244188309
4343.6742041014	1.0212454796
4345.6030114744	1.0155169964
4347.5318188475	1.0155783892
4349.4606262205	1.0181932449
4351.3894335936	1.0180472136
4353.3182409666	1.0169304609
4355.2470483397	1.0096855164
4357.1758557127	1.0106953382
4359.1046630858	1.0178408623
4361.0334704588	1.0198088884
4362.9622778318	1.0191046000
4364.8910852049	1.0125576258
4366.8198925779	1.0224589109
4368.7486999510	1.0297133923
4370.6775073240	1.0188553333
4372.6063146971	1.0199333429
4374.5351220701	1.0189610720
4376.4639294432	1.0175700188
4378.3927368162	1.0230127573
4380.3215441893	1.0218149424
4382.2503515623	1.0197869539
4384.1791589354	1.0192786455
4386.1079663084	1.0165277719
4388.0367736815	1.0135998726
4389.9655810545	1.0198796988
4391.8943884275	1.0221005678
4393.8231958006	1.0170366764
4395.7520031736	1.0172946453
4397.6808105467	1.0133243799
4399.6096179197	1.0153867006
4401.5384252928	1.0222218037
4403.4672326658	1.0227583647
4405.3960400389	1.0201294422
4407.3248474119	1.0157667398
4409.2536547850	1.0148003101
4411.1824621580	1.0089951754
4413.1112695311	1.0118579865
4415.0400769041	1.0134762526
4416.9688842772	1.0053626299
4418.8976916502	1.0167207718
4420.8264990232	1.0174682140
4422.7553063963	1.0129780769
4424.6841137693	1.0222975016
4426.6129211424	1.0174109936
4428.5417285154	1.0139338970
4430.4705358885	1.0190627575
4432.3993432615	1.0186601877
4434.3281506346	1.0131011009
4436.2569580076	1.0201903582
4438.1857653807	1.0235550404
4440.1145727537	1.0114769936
4442.0433801268	1.0175412893
4443.9721874998	1.0179300308
4445.9009948729	1.0156880617
4447.8298022459	1.0293111801
4449.7586096189	1.0228464603
4451.6874169920	1.0147522688
4453.6162243650	1.0201220512
4455.5450317381	1.0150861740
4457.4738391111	1.0121108294
4459.4026464842	1.0168889761
4461.3314538572	1.0200499296
4463.2602612303	1.0238201618
4465.1890686033	1.0190962553
4467.1178759764	1.0174280405
4469.0466833494	1.0167624950
4470.9754907225	1.0125045776
4472.9042980955	1.0151675940
4474.8331054686	1.0114063025
4476.7619128416	1.0175284147
4478.6907202147	1.0204459429
4480.6195275877	1.0202254057
4482.5483349607	1.0229854584
4484.4771423338	1.0108046532
4486.4059497068	1.0181210041
4488.3347570799	1.0152070522
4490.2635644529	1.0095539093
4492.1923718260	1.0213242769
4494.1211791990	1.0164755583
4496.0499865721	1.0179086924
4497.9787939451	1.0154039860
4499.9076013182	1.0156736374
4501.8364086912	1.0213820934
4503.7652160643	1.0153191090
4505.6940234373	1.0166658163
4507.6228308104	1.0192608833
4509.5516381834	1.0150170326
4511.4804455564	1.0132642984
4513.4092529295	1.0190548897
4515.3380603025	1.0163325071
4517.2668676756	1.0170379877
4519.1956750486	1.0211553574
4521.1244824217	1.0213075876
4523.0532897947	1.0187064409
4524.9820971678	1.0117793083
4526.9109045408	1.0224756002
4528.8397119139	1.0148329735
4530.7685192869	1.0135511160
4532.6973266600	1.0241097212
4534.6261340330	1.0077216625
4536.5549414061	1.0167151690
4538.4837487791	1.0204168558
4540.4125561521	1.0147795677
4542.3413635252	1.0245615244
4544.2701708982	1.0171625614
4546.1989782713	1.0122781992
4548.1277856443	1.0184876919
4550.0565930174	1.0216804743
4551.9854003904	1.0194829702
4553.9142077635	1.0258730650
4555.8430151365	1.0261132717
4557.7718225096	1.0138611794
4559.7006298826	1.0158652067
4561.6294372557	1.0149952173
4563.5582446287	1.0097883940
4565.4870520018	1.0211906433
4567.4158593748	1.0241026878
4569.3446667478	1.0121502876
4571.2734741209	1.0181223154
4573.2022814939	1.0191732645
4575.1310888670	1.0126438141
4577.0598962400	1.0216808319
4578.9887036131	1.0167148113
4580.9175109861	1.0102403164
4582.8463183592	1.0202119350
4584.7751257322	1.0253212452
4586.7039331053	1.0287758112
4588.6327404783	1.0258440971
4590.5615478514	1.0123380423
4592.4903552244	1.0175062418
4594.4191625975	1.0175460577
4596.3479699705	1.0044666529
4598.2767773435	1.0174823999
4600.2055847166	1.0286498070
4602.1343920896	1.0210208893
4604.0631994627	1.0071917772
4605.9920068357	1.0067654848
4607.9208142088	1.0166358948
4609.8496215818	1.0185797215
4611.7784289549	1.0119671822
4613.7072363279	1.0059686899
4615.6360437010	1.0228404999
4617.5648510740	1.0155866146
4619.4936584471	1.0095045567
4621.4224658201	1.0185580254
4623.3512731932	1.0082662106
4625.2800805662	1.0182555914
4627.2088879393	1.0104706287
4629.1376953123	1.0077494383
4631.0665026853	1.0156859159
4632.9953100584	1.0087472200
4634.9241174314	1.0193940401
4636.8529248045	1.0167548656
4638.7817321775	1.0152751207
4640.7105395506	1.0154125690
4642.6393469236	1.0065809488
4644.5681542967	1.0034692287
4646.4969616697	1.0120419264
4648.4257690428	1.0153919458
4650.3545764158	1.0144640207
4652.2833837889	1.0223200321
4654.2121911619	1.0085073709
4656.1409985350	1.0101759434
4658.0698059080	1.0100601912
4659.9986132810	1.0079842806
4661.9274206541	1.0143615007
4663.8562280271	1.0092102289
4665.7850354002	1.0232124329
4667.7138427732	1.0105525255
4669.6426501463	1.0098812580
4671.5714575193	1.0117340088
4673.5002648924	1.0042610168
4675.4290722654	1.0276591778
4677.3578796385	1.0189671516
4679.2866870115	1.0112348795
4681.2154943846	1.0123232603
4683.1443017576	1.0149637461
4685.0731091307	1.0075056553
4687.0019165037	1.0036242008
4688.9307238767	1.0258911848
4690.8595312498	1.0136899948
4692.7883386228	1.0090707541
4694.7171459959	1.0105513334
4696.6459533689	1.0118299723
4698.5747607420	1.0194274187
4700.5035681150	1.0169337988
4702.4323754881	1.0223898888
4704.3611828611	1.0174511671
4706.2899902342	1.0230900049
4708.2187976072	1.0243026018
4710.1476049803	1.0188020468
4712.0764123533	1.0159611702
4714.0052197264	1.0102977753
4715.9340270994	1.0071430206
4717.8628344724	1.0092493296
4719.7916418455	1.0216964483
4721.7204492185	1.0101102591
4723.6492565916	1.0144920349
4725.5780639646	1.0115536451
4727.5068713377	1.0004384518
4729.4356787107	1.0161472559
4731.3644860838	1.0091055632
4733.2932934568	1.0216115713
4735.2221008299	1.0234014988
4737.1509082029	1.0121749640
4739.0797155760	1.0145226717
4741.0085229490	1.0115889311
4742.9373303221	1.0185751915
4744.8661376951	1.0067483187
4746.7949450682	1.0183973312
4748.7237524412	1.0207765102
4750.6525598142	1.0056616068
4752.5813671873	1.0297855139
4754.5101745603	1.0271770954
4756.4389819334	1.0106418133
4758.3677893064	1.0092116594
4760.2965966795	1.0131016970
4762.2254040525	1.0175309181
4764.1542114256	1.0172512531
4766.0830187986	1.0254367590
4768.0118261717	1.0231553316
4769.9406335447	1.0204144716
4771.8694409178	1.0191357136
4773.7982482908	1.0062695742
4775.7270556639	1.0094048977
4777.6558630369	1.0212197304
4779.5846704099	1.0216040611
4781.5134777830	1.0173360109
4783.4422851560	1.0089696646
4785.3710925291	1.0070322752
4787.2998999021	1.0112637281
4789.2287072752	1.0117567778
4791.1575146482	1.0139567852
4793.0863220213	1.0157343149
4795.0151293943	1.0173506737
4796.9439367674	1.0052682161
4798.8727441404	0.9967541695
4800.8015515135	1.0105448961
4802.7303588865	1.0107789040
4804.6591662596	1.0097774267
4806.5879736326	1.0139600039
4808.5167810056	1.0061329603
4810.4455883787	1.0015957355
4812.3743957517	1.0059179068
4814.3032031248	1.0146631002
4816.2320104978	1.0065393448
4818.1608178709	1.0010639429
4820.0896252439	1.0129108429
4822.0184326170	1.0140247345
4823.9472399900	1.0167571306
4825.8760473631	1.0131007433
4827.8048547361	1.0060781240
4829.7336621092	1.0121904612
4831.6624694822	1.0193468332
4833.5912768553	1.0184341669
4835.5200842283	1.0032855272
4837.4488916013	1.0131158829
4839.3776989744	1.0212680101
4841.3065063474	1.0086857080
4843.2353137205	1.0177012682
4845.1641210935	1.0087250471
4847.0929284666	1.0106234550
4849.0217358396	1.0264005661
4850.9505432127	1.0141489506
4852.8793505857	1.0064029694
4854.8081579588	1.0062962770
4856.7369653318	1.0258549452
4858.6657727049	1.0283312798
4860.5945800779	1.0182311535
4862.5233874510	1.0277870893
4864.4521948240	1.0086777210
4866.3810021971	1.0073204041
4868.3098095701	1.0199799538
4870.2386169431	1.0075850487
4872.1674243162	1.0211234093
4874.0962316892	1.0208084583
4876.0250390623	1.0055780411
4877.9538464353	1.0220972300
4879.8826538084	1.0213999748
4881.8114611814	1.0202095509
4883.7402685545	1.0223780870
4885.6690759275	0.9997604489
4887.5978833006	0.9990547299
4889.5266906736	1.0089205503
4891.4554980467	1.0147730112
4893.3843054197	1.0200353861
4895.3131127928	1.0186519623
4897.2419201658	1.0162639618
4899.1707275388	1.0121971369
4901.0995349119	1.0170083046
4903.0283422849	1.0241909027
4904.9571496580	1.0195389986
4906.8859570310	0.9969419837
4908.8147644041	1.0047329664
4910.7435717771	1.0194458961
4912.6723791502	1.0072242022
4914.6011865232	1.0178691149
4916.5299938963	1.0072978735
4918.4588012693	1.0016363859
4920.3876086424	1.0101451874
4922.3164160154	0.9998525977
4924.2452233885	1.0072838068
4926.1740307615	1.0086241961
4928.1028381345	1.0123295784
4930.0316455076	1.0123239756
4931.9604528806	1.0111416578
4933.8892602537	1.0074616671
4935.8180676267	0.9904251695
4937.7468749998	0.9998828173
4939.6756823728	0.9958477616
4941.6044897459	0.9921017289
4943.5332971189	1.0129418373
4945.4621044920	1.0026544333
4947.3909118650	0.9942950010
4949.3197192381	1.0133569241
4951.2485266111	1.0111200809
4953.1773339842	1.0180265903
4955.1061413572	1.0189275742
4957.0349487302	0.9929638505
4958.9637561033	1.0252454281
4960.8925634763	1.0330528021
4962.8213708494	1.0074039698
4964.7501782224	1.0154331923
4966.6789855955	1.0083981752
4968.6077929685	1.0097897053
4970.5366003416	0.9934743643
4972.4654077146	0.9980648160
4974.3942150877	1.0216772556
4976.3230224607	1.0030870438
4978.2518298338	1.0098626614
4980.1806372068	1.0136380196
4982.1094445799	0.9977477789
4984.0382519529	1.0004743338
4985.9670593259	1.0150730610
4987.8958666990	1.0052669048
4989.8246740720	0.9930281639
4991.7534814451	1.0112820864
4993.6822888181	1.0059350729
4995.6110961912	1.0009657145
4997.5399035642	0.9976297021
4999.4687109373	0.9900432229
5001.3975183103	1.0077362061
5003.3263256834	1.0033179522
5005.2551330564	0.9968731999
5007.1839404295	1.0063790083
5009.1127478025	1.0043436289
5011.0415551756	1.0098491907
5012.9703625486	1.0069836378
5014.8991699217	0.9896696806
5016.8279772947	0.9970790148
5018.7567846677	1.0068395138
5020.6855920408	1.0033402443
5022.6143994138	1.0177489519
5024.5432067869	1.0251253843
5026.4720141599	1.0082336664
5028.4008215330	1.0038399696
5030.3296289060	1.0165587664
5032.2584362791	1.0216698647
5034.1872436521	1.0150314569
5036.1160510252	1.0039689541
5038.0448583982	1.0150585175
5039.9736657713	1.0195330381
5041.9024731443	1.0063734055
5043.8312805174	1.0178952217
5045.7600878904	1.0034387112
5047.6888952634	0.9985752702
5049.6177026365	1.0140230656
5051.5465100095	1.0054782629
5053.4753173826	1.0234127045
5055.4041247556	1.0234165192
5057.3329321287	1.0092132092
5059.2617395017	1.0059900284
5061.1905468748	1.0010455847
5063.1193542478	1.0194023848
5065.0481616209	1.0139907598
5066.9769689939	1.0019159317
5068.9057763670	1.0066710711
5070.8345837400	0.9981862903
5072.7633911131	0.9982063174
5074.6921984861	1.0054099560
5076.6210058591	0.9958892465
5078.5498132322	1.0024305582
5080.4786206052	1.0193325281
5082.4074279783	1.0151551962
5084.3362353513	1.0196861029
5086.2650427244	1.0081242323
5088.1938500974	1.0043104887
5090.1226574705	1.0090165138
5092.0514648435	0.9977194667
5093.9802722166	1.0161924362
5095.9090795896	1.0059652328
5097.8378869627	0.9883981347
5099.7666943357	1.0010120869
5101.6955017088	1.0108046532
5103.6243090818	1.0126641989
5105.5531164548	0.9927482009
5107.4819238279	1.0032062531
5109.4107312009	1.0174702406
5111.3395385740	1.0063272715
5113.2683459470	1.0066088438
5115.1971533201	1.0071145296
5117.1259606931	1.0013637543
5119.0547680662	0.9983871579
5120.9835754392	1.0033918619
5122.9123828123	0.9916942716
5124.8411901853	0.9961807132
5126.7699975584	1.0026854277
5128.6988049314	0.9988948107
5130.6276123045	1.0219432116
5132.5564196775	1.0150228739
5134.4852270506	1.0021994114
5136.4140344236	1.0054702759
5138.3428417966	1.0015301704
5140.2716491697	0.9970016479
5142.2004565427	1.0118877888
5144.1292639158	1.0308282375
5146.0580712888	0.9960765839
5147.9868786619	0.9874814749
5149.9156860349	1.0129640102
5151.8444934080	1.0093005896
5153.7733007810	1.0056957006
5155.7021081541	1.0060857534
5157.6309155271	1.0005615950
5159.5597229002	1.0022705793
5161.4885302732	1.0205798149
5163.4173376463	1.0213800669
5165.3461450193	1.0161014795
5167.2749523923	1.0017908812
5169.2037597654	1.0011616945
5171.1325671384	1.0176786184
5173.0613745115	0.9944109917
5174.9901818845	1.0030504465
5176.9189892576	1.0034940243
5178.8477966306	0.9965042472
5180.7766040037	1.0160950422
5182.7054113767	0.9989743233
5184.6342187498	0.9986451864
5186.5630261228	1.0075066090
5188.4918334959	1.0198061466
5190.4206408689	1.0143468380
5192.3494482420	0.9969554543
5194.2782556150	1.0041149855
5196.2070629880	1.0107189417
5198.1358703611	1.0239790678
5200.0646777341	1.0098485947
5201.9934851072	1.0022128820
5203.9222924802	1.0028820038
5205.8510998533	1.0093570948
5207.7799072263	1.0114458799
5209.7087145994	0.9869095087
5211.6375219724	0.9949868321
5213.5663293455	0.9995046854
5215.4951367185	1.0116724968
5217.4239440916	0.9940382838
5219.3527514646	0.9734362364
5221.2815588377	1.0034015179
5223.2103662107	0.9954100251
5225.1391735837	0.9976288080
5227.0679809568	1.0071450472
5228.9967883298	1.0061787367
5230.9255957029	0.9936319590
5232.8544030759	0.9812762141
5234.7832104490	1.0060296059
5236.7120178220	1.0248539448
5238.6408251951	1.0171073675
5240.5696325681	1.0001077652
5242.4984399412	1.0323017836
5244.4272473142	1.0160322189
5246.3560546873	0.9914452434
5248.2848620603	1.0183995962
5250.2136694334	0.9929995537
5252.1424768064	1.0044851303
5254.0712841795	1.0084546804
5256.0000915525	1.0033924580
5257.9288989255	1.0179473162
5259.8577062986	1.0067248344
5261.7865136716	1.0073555708
5263.7153210447	0.9811420441
5265.6441284177	0.9756683707
5267.5729357908	0.9847017527
5269.5017431638	0.9911763072
5271.4305505369	1.0057716370
5273.3593579099	1.0054140091
5275.2881652830	1.0198243856
5277.2169726560	1.0072450638
5279.1457800291	0.9805615544
5281.0745874021	0.9930258393
5283.0033947752	1.0221199989
5284.9322021482	1.0103703737
5286.8610095212	1.0140956640
5288.7898168943	1.0196553469
5290.7186242673	0.9962555170
5292.6474316404	1.0110071898
5294.5762390134	0.9848774672
5296.5050463865	0.9796634912
5298.4338537595	1.0007539988
5300.3626611326	0.9873423576
5302.2914685056	1.0144606829
5304.2202758787	1.0070651770
5306.1490832517	0.9995372891
5308.0778906248	1.0175995827
5310.0066979978	0.9830405116
5311.9355053709	0.9797850251
5313.8643127439	1.0144975185
5315.7931201169	0.9948046207
5317.7219274900	0.9885058999
5319.6507348630	1.0136076212
5321.5795422361	0.9936881661
5323.5083496091	1.0029685497
5325.4371569822	1.0102901459
5327.3659643552	0.9947476983
5329.2947717283	1.0149306059
5331.2235791013	1.0018217564
5333.1523864744	0.9946528673
5335.0811938474	1.0187047720
5337.0100012205	1.0033679008
5338.9388085935	0.9992378354
5340.8676159666	1.0194472075
5342.7964233396	1.0092234612
5344.7252307126	1.0189356804
5346.6540380857	1.0231517553
5348.5828454587	1.0002880096
5350.5116528318	1.0147428513
5352.4404602048	1.0241128206
5354.3692675779	1.0028564930
5356.2980749509	0.9854643941
5358.2268823240	0.9899314642
5360.1556896970	1.0018966198
5362.0844970701	1.0058879852
5364.0133044431	0.9843442440
5365.9421118162	0.9723276496
5367.8709191892	0.9967153668
5369.7997265623	0.9890088439
5371.7285339353	0.9999800920
5373.6573413083	1.0099847317
5375.5861486814	1.0122590065
5377.5149560544	1.0176881552
5379.4437634275	0.9715378284
5381.3725708005	0.9944047332
5383.3013781736	1.0105162859
5385.2301855466	0.9947546124
5387.1589929197	1.0262618065
5389.0878002927	1.0040314198
5391.0166076658	0.9738947749
5392.9454150388	0.9902129769
5394.8742224119	1.0159312487
5396.8030297849	1.0017651320
5398.7318371580	0.9956146479
5400.6606445310	0.9903602004
5402.5894519041	0.9626607299
5404.5182592771	0.9812198877
5406.4470666501	0.9989897609
5408.3758740232	1.0047760010
5410.3046813962	1.0107859373
5412.2334887693	1.0156019926
5414.1622961423	0.9994079471
5416.0911035154	0.9808583856
5418.0199108884	1.0181381702
5419.9487182615	1.0233038664
5421.8775256345	0.9979076982
5423.8063330076	0.9944032431
5425.7351403806	0.9955549240
5427.6639477537	0.9987097979
5429.5927551267	1.0167498589
5431.5215624998	1.0206782818
5433.4503698728	1.0051984787
5435.3791772458	1.0132082701
5437.3079846189	0.9850047231
5439.2367919919	0.9876335859
5441.1655993650	1.0243704319
5443.0944067380	0.9974172711
5445.0232141111	0.9931681156
5446.9520214841	1.0078854561
5448.8808288572	0.9993339777
5450.8096362302	0.9845155478
5452.7384436033	0.9847142100
5454.6672509763	1.0081064701
5456.5960583494	1.0159749985
5458.5248657224	1.0029220581
5460.4536730955	1.0080460310
5462.3824804685	1.0039198399
5464.3112878415	0.9853733182
5466.2400952146	1.0033246279
5468.1689025876	0.9807550311
5470.0977099607	0.9828966856
5472.0265173337	1.0231992006
5473.9553247068	0.9834958911
5475.8841320798	0.9915188551
5477.8129394529	1.0100978613
5479.7417468259	0.9966651201
5481.6705541990	1.0184860229
5483.5993615720	0.9987776875
5485.5281689451	0.9821082354
5487.4569763181	1.0115810633
5489.3857836912	1.0268331766
5491.3145910642	1.0019375086
5493.2433984372	1.0006924868
5495.1722058103	1.0124492645
5497.1010131833	0.9916610718
5499.0298205564	1.0005260706
5500.9586279294	1.0057971478
5502.8874353025	1.0000189543
5504.8162426755	0.9983306527
5506.7450500486	0.9970396161
5508.6738574216	1.0084607601
5510.6026647947	0.9798073769
5512.5314721677	0.9841905832
5514.4602795408	1.0137814283
5516.3890869138	1.0023148060
5518.3178942869	1.0062975883
5520.2467016599	0.9975215793
5522.1755090330	0.9869606495
5524.1043164060	0.9841715693
5526.0331237790	0.9842579961
5527.9619311521	1.0119074583
5529.8907385251	1.0075029135
5531.8195458982	1.0055167675
5533.7483532712	1.0204638243
5535.6771606443	0.9890905619
5537.6059680173	0.9907938242
5539.5347753904	1.0419940948
5541.4635827634	1.0320217609
5543.3923901365	1.0144064426
5545.3211975095	1.0212889910
5547.2500048826	0.9807887673
5549.1788122556	0.9722223878
5551.1076196287	0.9946456552
5553.0364270017	0.9774572849
5554.9652343747	0.9612703323
5556.8940417478	0.9807541370
5558.8228491208	1.0150088072
5560.7516564939	1.0044379234
5562.6804638669	1.0011808872
5564.6092712400	1.0107339621
5566.5380786130	0.9982956052
5568.4668859861	0.9837580323
5570.3956933591	0.9750072956
5572.3245007322	1.0052212477
5574.2533081052	1.0247787237
5576.1821154783	1.0230433941
5578.1109228513	1.0087040663
5580.0397302244	1.0081902742
5581.9685375974	1.0137600899
5583.8973449704	0.9895641804
5585.8261523435	1.0102761984
5587.7549597165	0.9963098168
5589.6837670896	0.9904331565
5591.6125744626	0.9968491793
5593.5413818357	0.9805648327
5595.4701892087	1.0347108841
5597.3989965818	0.9997298121
5599.3278039548	0.9861186743
5601.2566113279	1.0247741938
5603.1854187009	0.9776750803
5605.1142260740	0.9824198484
5607.0430334470	0.9964929223
5608.9718408201	1.0219010115
5610.9006481931	1.0304547548
5612.8294555661	0.9946666956
5614.7582629392	0.9824327230
5616.6870703122	0.9695439935
5618.6158776853	0.9931985140
5620.5446850583	1.0070517063
5622.4734924314	0.9981340766
5624.4022998044	1.0029853582
5626.3311071775	1.0161541700
5628.2599145505	1.0087480545
5630.1887219236	0.9836191535
5632.1175292966	1.0157886744
5634.0463366697	1.0306566954
5635.9751440427	1.0183720589
5637.9039514158	1.0082353354
5639.8327587888	0.9889154434
5641.7615661619	0.9913675189
5643.6903735349	0.9786599874
5645.6191809079	0.9708588123
5647.5479882810	0.9902619123
5649.4767956540	1.0147693157
5651.4056030271	1.0148708820
5653.3344104001	1.0152069330
5655.2632177732	1.0090913773
5657.1920251462	0.9707352519
5659.1208325193	1.0074751377
5661.0496398923	1.0365271568
5662.9784472654	0.9896190763
5664.9072546384	0.9848331809
5666.8360620115	0.9924752712
5668.7648693845	0.9811877608
5670.6936767576	0.9932625294
5672.6224841306	0.9995146990
5674.5512915036	0.9724804759
5676.4800988767	0.9889687896
5678.4089062497	1.0148086548
5680.3377136228	0.9994453192
5682.2665209958	1.0005081892
5684.1953283689	1.0091240406
5686.1241357419	1.0134863853
5688.0529431150	0.9993947148
5689.9817504880	0.9915102720
5691.9105578611	0.9810665846
5693.8393652341	0.9921457767
5695.7681726072	1.0366390944
5697.6969799802	1.0184273720
5699.6257873533	1.0016033649
5701.5545947263	0.9847234488
5703.4834020993	1.0113182068
5705.4122094724	1.0512365103
5707.3410168454	0.9839802384
5709.2698242185	0.9874355793
5711.1986315915	0.9731413126
5713.1274389646	0.9550481439
5715.0562463376	1.0422997475
5716.9850537107	1.0087586641
5718.9138610837	0.9703829885
5720.8426684568	1.0037630796
5722.7714758298	1.0097237825
5724.7002832029	1.0350418091
5726.6290905759	1.0209758282
5728.5578979490	0.9683869481
5730.4867053220	0.9576052427
5732.4155126950	0.9914655685
5734.3443200681	0.9721453786
5736.2731274411	0.9568481445
5738.2019348142	1.0214574337
5740.1307421872	1.0266259909
5742.0595495603	1.0430191755
5743.9883569333	1.0253632069
5745.9171643064	0.9497275949
5747.8459716794	1.0155346394
5749.7747790525	0.9964647293
5751.7035864255	0.9424284101
5753.6323937986	0.9884139895
5755.5612011716	0.9619218707
5757.4900085447	0.9707401991
5759.4188159177	0.9861198068
5761.3476232907	1.0086644888
5763.2764306638	1.0429153442
5765.2052380368	1.0291830301
5767.1340454099	1.0643203259
5769.0628527829	1.0280681849
5770.9916601560	1.0052788258
5772.9204675290	1.0273575783
5774.8492749021	1.0283293724
5776.7780822751	1.0172413588
5778.7068896482	0.9698832631
5780.6356970212	1.0128431320
5782.5645043943	1.0329368114
5784.4933117673	1.0028165579
5786.4221191404	1.0215554237
5788.3509265134	1.0311859846
5790.2797338865	1.0225853920
5792.2085412595	1.0124192238
5794.1373486325	1.0480221510
5796.0661560056	0.9956300855
5797.9949633786	0.9490147233
5799.9237707517	0.9839145541
5801.8525781247	0.9639265537
5803.7813854978	0.9784417152
5805.7101928708	1.0012686253
5807.6390002439	0.9982564449
5809.5678076169	0.9990425706
5811.4966149900	0.9906806350
5813.4254223630	1.0005614758
5815.3542297361	1.0218590498
5817.2830371091	1.0085538626
5819.2118444822	0.9643242359
5821.1406518552	0.9841451049
5823.0694592282	1.0053292513
5824.9982666013	0.9994332790
5826.9270739743	0.9838223457
5828.8558813474	0.9768605232
5830.7846887204	0.9837899804
5832.7134960935	0.9726913571
5834.6423034665	1.0156399012
5836.5711108396	0.9924339056
5838.4999182126	0.9909894466
5840.4287255857	1.0458158255
5842.3575329587	0.9887381196
5844.2863403318	1.0045646429
5846.2151477048	0.9995131493
5848.1439550779	0.9547802806
5850.0727624509	0.9809309244
5852.0015698239	0.9680289030
5853.9303771970	0.9787048101
5855.8591845700	0.9923182726
5857.7879919431	1.0070724487
5859.7167993161	1.0155211687
5861.6456066892	0.9441105127
5863.5744140622	0.9631516337
5865.5032214353	0.9826245904
5867.4320288083	0.9275147319
5869.3608361814	0.9985268712
5871.2896435544	1.0032746792
5873.2184509275	0.9658445120
5875.1472583005	1.0197165012
5877.0760656736	0.9897654653
5879.0048730466	1.0051559210
5880.9336804196	0.9981209040
5882.8624877927	0.9910439849
5884.7912951657	1.0317869186
5886.7201025388	0.9560142159
5888.6489099118	0.9761484265
5890.5777172849	0.9819609523
5892.5065246579	0.9992108941
5894.4353320310	1.0632016659
5896.3641394040	0.9661681056
5898.2929467771	0.9761104584
5900.2217541501	1.0033303499
5902.1505615232	0.9698436260
5904.0793688962	1.0051944256
5906.0081762693	1.0191438198
5907.9369836423	1.0407572985
5909.8657910154	1.0076214075
5911.7945983884	0.9792967439
5913.7234057614	1.0061323643
5915.6522131345	0.9957895279
5917.5810205075	0.9773710370
5919.5098278806	0.9903283119
5921.4386352536	1.0163252354
5923.3674426267	0.9989648461
5925.2962499997	0.9836274385
5927.2250573728	1.0160775185
5929.1538647458	1.0029201508
5931.0826721189	0.9639319777
5933.0114794919	1.0311151743
5934.9402868650	1.0332814455
5936.8690942380	0.9545100927
5938.7979016111	1.0055392981
5940.7267089841	1.0362443924
5942.6555163571	1.0082530975
5944.5843237302	0.9885079265
5946.5131311032	0.9709174633
5948.4419384763	1.0148127079
5950.3707458493	1.0475305319
5952.2995532224	0.9852322936
5954.2283605954	0.9507652521
5956.1571679685	0.9769284725
5958.0859753415	0.9389299154
5960.0147827146	0.9919062853
5961.9435900876	1.0786132813
5963.8723974607	1.0179829597
5965.8012048337	0.9828945398
5967.7300122068	0.9471096396
5969.6588195798	0.9463257194
5971.5876269528	0.9127355218
5973.5164343259	0.9427587986
5975.4452416989	1.0100170374
5977.3740490720	0.9207346439
5979.3028564450	0.9703005552
5981.2316638181	0.9866467118
5983.1604711911	0.9459281564
5985.0892785642	1.0358544588
5987.0180859372	1.0198136568
5988.9468933103	0.9642702341
5990.8757006833	0.9409826398
5992.8045080564	1.0090897083
5994.7333154294	1.0519068241
5996.6621228025	0.9848574400
5998.5909301755	1.0032036304
6000.5197375485	1.0685503483
