399.2631262207	1.3241087198
401.1919335938	0.5524826050
403.1207409668	1.1274061203
405.0495483398	0.4013998806
406.9783557129	0.4883114696
408.9071630859	0.8901603222
410.8359704590	0.7212324739
412.7647778320	0.4941998422
414.6935852051	0.0938372687
416.6223925781	1.9052950144
418.5511999512	0.6528850794
420.4800073242	0.6479961276
422.4088146973	1.6673771143
424.3376220703	0.4226069450
426.2664294434	1.2015893459
428.1952368164	0.9847375154
430.1240441895	0.4420793056
432.0528515625	0.4524902999
433.9816589355	0.4702005386
435.9104663086	0.6369475722
437.8392736816	0.3381320834
439.7680810547	0.7148175836
441.6968884277	0.4650224149
443.6256958008	0.4565936923
445.5545031738	0.6209406257
447.4833105469	0.4050710201
449.4121179199	0.8656138182
451.3409252930	0.7235839963
453.2697326660	0.4796853065
455.1985400391	0.4256369770
457.1273474121	-20.6372833252
459.0561547852	90.3432693481
460.9849621582	-0.0453179441
462.9137695313	0.4221813381
464.8425769043	0.3306931555
466.7713842773	2.0438046455
468.7001916504	1.1893863678
470.6289990234	0.2791285515
472.5578063965	25.4487018585
474.4866137695	-12.0607032776
476.4154211426	0.8558733463
478.3442285156	0.2448424399
480.2730358887	0.2448424399
482.2018432617	0.5717792511
484.1306506348	1.7097353935
486.0594580078	2.8683505058
487.9882653809	0.5815116167
489.9170727539	0.5275823474
491.8458801270	-4.0476503372
493.7746875000	1.3998916149
495.7034948730	1.0579181910
497.6323022461	0.7775402665
499.5611096191	1.2830322981
501.4899169922	-4.6135005951
503.4187243652	0.8595437407
505.3475317383	0.8166463971
507.2763391113	14.9901542664
509.2051464844	-0.3740878999
511.1339538574	1.2069314718
513.0627612305	0.5548090935
514.9915686035	0.7131579518
516.9203759766	1.1119356155
518.8491833496	-11.7151165009
520.7779907227	1.1406233311
522.7067980957	-0.3660833240
524.6356054688	0.9820666909
526.5644128418	0.5634321570
528.4932202148	0.5595057011
530.4220275879	0.3463612497
532.3508349609	-0.0094047990
534.2796423340	0.7095411420
536.2084497070	0.5540895462
538.1372570801	22.8490333557
540.0660644531	-2.0757780075
541.9948718262	0.2423093170
543.9236791992	0.5972469449
545.8524865723	-14.9644746780
547.7812939453	16.2484779358
549.7101013184	0.7586135268
551.6389086914	0.3215470612
553.5677160645	0.1594799012
555.4965234375	-3.3488101959
557.4253308105	8.5449123383
559.3541381836	0.8102481365
561.2829455566	0.7664638758
563.2117529297	1.3099223375
565.1405603027	8.4930124283
567.0693676758	0.4829298854
568.9981750488	0.8641415238
570.9269824219	1.7970899343
572.8557897949	1.7383332253
574.7845971680	0.3192333877
576.7134045410	0.3217207789
578.6422119141	1.6403908730
580.5710192871	2.1419358253
582.4998266602	-6.2561473846
584.4286340332	8.2076148987
586.3574414063	5.7020492554
588.2862487793	4.1876592636
590.2150561523	-0.3105773926
592.1438635254	0.6700966954
594.0726708984	1.1037712097
596.0014782715	-1.1517425776
597.9302856445	20.2874946594
599.8590930176	-0.1024743319
601.7879003906	3.0122704506
603.7167077637	1.3568315506
605.6455151367	1.2324286699
607.5743225098	0.5206301212
609.5031298828	0.3020472229
611.4319372559	3.3105390072
613.3607446289	1.8878914118
615.2895520020	1.6076127291
617.2183593750	21.8183269501
619.1471667480	-1.1726791859
621.0759741211	-5.1656908989
623.0047814941	-0.4819236398
624.9335888672	-0.0580844209
626.8623962402	-2.5215549469
628.7912036133	1.4394901991
630.7200109863	2.4045767784
632.6488183594	1.7983813286
634.5776257324	1.1713856459
636.5064331055	1.3996627331
638.4352404785	0.9270956516
640.3640478516	0.8230065107
642.2928552246	0.6513692737
644.2216625977	1.3435950279
646.1504699707	0.9837180972
648.0792773438	0.6288300753
650.0080847168	0.6851055622
651.9368920898	0.9764741063
653.8656994629	1.5752720833
655.7945068359	0.5544795394
657.7233142090	0.7437516451
659.6521215820	0.9809359312
661.5809289551	0.4648050666
663.5097363281	0.8776867986
665.4385437012	0.8666982651
667.3673510742	0.5794367194
669.2961584473	0.8383596539
671.2249658203	0.7031646967
673.1537731934	0.7741358876
675.0825805664	0.8103275895
677.0113879395	0.9726888537
678.9401953125	1.0018934011
680.8690026855	0.6487859488
682.7978100586	1.0102511644
684.7266174316	0.9106130600
686.6554248047	0.5443704724
688.5842321777	0.7585942149
690.5130395508	0.6693709493
692.4418469238	0.9118818045
694.3706542969	0.8640657663
696.2994616699	0.6219832897
698.2282690430	0.7914493680
700.1570764160	0.7042964697
702.0858837891	0.8237214684
704.0146911621	0.8139316440
705.9434985352	0.6750900149
707.8723059082	0.9699082375
709.8011132813	0.8658195138
711.7299206543	0.7878723145
713.6587280273	0.9149083495
715.5875354004	0.7692086101
717.5163427734	0.4999311566
719.4451501465	0.3891184330
721.3739575195	-3.9169497490
723.3027648926	1.8873784542
725.2315722656	0.8824999928
727.1603796387	3.9779353142
729.0891870117	1.2314094305
731.0179943848	-2.1534571648
732.9468017578	1.7692762613
734.8756091309	0.9836634994
736.8044165039	23.6646537781
738.7332238770	2.2965254784
740.6620312500	1.5924826860
742.5908386230	1.7326481342
744.5196459961	0.4303058386
746.4484533691	0.8245159388
748.3772607422	1.6216224432
750.3060681152	0.5963652730
752.2348754883	-289.3508605957
754.1636828613	-23.9767627716
756.0924902344	1.3442240953
758.0212976074	-1.3755172491
759.9501049805	1.9824839830
761.8789123535	0.9411955476
763.8077197266	0.2458231300
765.7365270996	5.3992948532
767.6653344727	10.6391830444
769.5941418457	0.8302739859
771.5229492188	8.4880399704
773.4517565918	1.3278017044
775.3805639648	5.0547804832
777.3093713379	0.8737739325
779.2381787109	0.5761266351
781.1669860840	2.3494029045
783.0957934570	0.6164950132
785.0246008301	2.0423204899
786.9534082031	1.6290273666
788.8822155762	1.0836290121
790.8110229492	1.4052845240
792.7398303223	0.8308699131
794.6686376953	1.7051751614
796.5974450684	1.9032715559
798.5262524414	1.4129127264
800.4550598145	1.9362490177
802.3838671875	1.7748849392
804.3126745605	0.5341984034
806.2414819336	1.0973896980
808.1702893066	0.7985050082
810.0990966797	0.9903094172
812.0279040527	1.5776151419
813.9567114258	1.3732863665
815.8855187988	1.5396856070
817.8143261719	0.6049430966
819.7431335449	0.8909236193
821.6719409180	4.1107740402
823.6007482910	0.9077144265
825.5295556641	2.5379719734
827.4583630371	0.7917104959
829.3871704102	0.8077830076
831.3159777832	1.3215444088
833.2447851563	0.5426232815
835.1735925293	0.5194339156
837.1023999023	0.9480513334
839.0312072754	0.7675431371
840.9600146484	0.7286169529
842.8888220215	1.1000833511
844.8176293945	0.8320538402
846.7464367676	0.6321411729
848.6752441406	0.8301626444
850.6040515137	0.9316112995
852.5328588867	1.1810462475
854.4616662598	1.4685207605
856.3904736328	0.7503561974
858.3192810059	1.0667235851
860.2480883789	2.0580756664
862.1768957520	1.0736811161
864.1057031250	1.0662316084
866.0345104980	1.3384257555
867.9633178711	1.0617407560
869.8921252441	1.3693040609
871.8209326172	1.9879120588
873.7497399902	1.1576285362
875.6785473633	0.7716560960
877.6073547363	0.4300248623
879.5361621094	0.5863707066
881.4649694824	4.0967531204
883.3937768555	1.2693713903
885.3225842285	1.1375881433
887.2513916016	0.5880413651
889.1801989746	0.7234525681
891.1090063477	3.9558682442
893.0378137207	1.6658928394
894.9666210938	2.1584482193
896.8954284668	0.7288823724
898.8242358398	0.7242653370
900.7530432129	1.9022883177
902.6818505859	0.4691958427
904.6106579590	0.8845900297
906.5394653320	1.7924813032
908.4682727051	1.8977915049
910.3970800781	0.6521997452
912.3258874512	0.5102667212
914.2546948242	1.9158258438
916.1835021973	1.2569715977
918.1123095703	1.5207525492
920.0411169434	1.1154441833
921.9699243164	0.8996787667
923.8987316895	1.3033273220
925.8275390625	0.4356327653
927.7563464355	0.8001609445
929.6851538086	0.8096471429
931.6139611816	1.0520532131
933.5427685547	2.4601294994
935.4715759277	1.1287931204
937.4003833008	0.9706598520
939.3291906738	0.9831444025
941.2579980469	1.2198127508
943.1868054199	1.0337829590
945.1156127930	0.9047272205
947.0444201660	1.1015949249
948.9732275391	1.1209299564
950.9020349121	1.2197140455
952.8308422852	0.9549442530
954.7596496582	1.0057129860
956.6884570313	1.0522669554
958.6172644043	1.2085919380
960.5460717773	1.0609623194
962.4748791504	0.5677336454
964.4036865234	0.8916832805
966.3324938965	0.9645304680
968.2613012695	0.9778411388
970.1901086426	0.9916286469
972.1189160156	0.9321442842
974.0477233887	1.0225706100
975.9765307617	0.7349735498
977.9053381348	0.7542903423
979.8341455078	0.8982244134
981.7629528809	0.9612371922
983.6917602539	0.6669474840
985.6205676270	0.6736094952
987.5493750000	0.8713928461
989.4781823730	0.8108913302
991.4069897461	0.9428570867
993.3357971191	0.8518257737
995.2646044922	0.7965903282
997.1934118652	0.8575456738
999.1222192383	0.8116871715
1001.0510266113	0.8048254251
1002.9798339844	0.7633095384
1004.9086413574	0.7925436497
1006.8374487305	0.8102496862
1008.7662561035	0.7676737309
1010.6950634766	0.7585365772
1012.6238708496	0.7563593388
1014.5526782227	0.7724403143
1016.4814855957	0.7995942235
1018.4102929688	0.7670866251
1020.3391003418	0.7282131314
1022.2679077148	0.7549254894
1024.1967150879	0.7019538879
1026.1255224609	0.6861680150
1028.0543298340	0.7379460335
1029.9831372070	0.7279619575
1031.9119445801	0.7455758452
1033.8407519531	0.7421699166
1035.7695593262	0.7375503778
1037.6983666992	0.7277769446
1039.6271740723	0.7078610063
1041.5559814453	0.7444294691
1043.4847888184	0.7454982996
1045.4135961914	0.7647784948
1047.3424035645	0.7531449199
1049.2712109375	0.7124281526
1051.2000183105	0.7360558510
1053.1288256836	0.7293004990
1055.0576330566	0.7506605387
1056.9864404297	0.7196002007
1058.9152478027	0.6923161149
1060.8440551758	0.7591632605
1062.7728625488	0.7508146167
1064.7016699219	0.7940291762
1066.6304772949	0.7490539551
1068.5592846680	0.6912261844
1070.4880920410	0.7801996469
1072.4168994141	0.6975235939
1074.3457067871	0.7217695713
1076.2745141602	0.7563967705
1078.2033215332	0.6998316646
1080.1321289062	0.8151766658
1082.0609362793	0.7288932800
1083.9897436523	0.7247448564
1085.9185510254	0.8118854761
1087.8473583984	0.7340195179
1089.7761657715	0.7979391217
1091.7049731445	0.7782149911
1093.6337805176	0.7476011515
1095.5625878906	0.7848709226
1097.4913952637	0.7443886399
1099.4202026367	0.7443900704
1101.3490100098	0.7721441984
1103.2778173828	0.8475174904
1105.2066247559	0.7904397845
1107.1354321289	0.7644536495
1109.0642395019	0.8230276108
1110.9930468750	0.7228679657
1112.9218542480	0.7942662835
1114.8506616211	0.8745067120
1116.7794689941	0.8072849512
1118.7082763672	0.8126639724
1120.6370837402	0.7275978327
1122.5658911133	0.8015682101
1124.4946984863	0.8847658038
1126.4235058594	0.7842615247
1128.3523132324	0.7971900702
1130.2811206055	0.7594316602
1132.2099279785	0.7976640463
1134.1387353516	0.7909949422
1136.0675427246	0.7446030378
1137.9963500977	0.7554297447
1139.9251574707	0.6825045943
1141.8539648437	0.7492165565
1143.7827722168	0.7936404943
1145.7115795898	0.7658728361
1147.6403869629	0.7559440136
1149.5691943359	0.7711000443
1151.4980017090	0.7793126106
1153.4268090820	0.7080834508
1155.3556164551	0.6983844638
1157.2844238281	0.6802628636
1159.2132312012	0.7055888772
1161.1420385742	0.7202981710
1163.0708459473	0.7065712810
1164.9996533203	0.7449905872
1166.9284606934	0.7105628252
1168.8572680664	0.7141309381
1170.7860754394	0.7142269015
1172.7148828125	0.6941716075
1174.6436901855	0.7116441727
1176.5724975586	0.7195451260
1178.5013049316	0.7288081646
1180.4301123047	0.6978897452
1182.3589196777	0.7036425471
1184.2877270508	0.7264889479
1186.2165344238	0.7054840922
1188.1453417969	0.6992571950
1190.0741491699	0.7111766934
1192.0029565430	0.7016979456
1193.9317639160	0.6930555105
1195.8605712891	0.7219319940
1197.7893786621	0.6987214088
1199.7181860351	0.6728195548
1201.6469934082	0.6978296041
1203.5758007812	0.6885037422
1205.5046081543	0.6854094863
1207.4334155273	0.6864931583
1209.3622229004	0.6681421399
1211.2910302734	0.6905982494
1213.2198376465	0.7040296197
1215.1486450195	0.6898468137
1217.0774523926	0.6941006780
1219.0062597656	0.6862699986
1220.9350671387	0.6912511587
1222.8638745117	0.6985968351
1224.7926818848	0.6812639832
1226.7214892578	0.6899482012
1228.6502966308	0.6882724762
1230.5791040039	0.6789557338
1232.5079113769	0.6905254722
1234.4367187500	0.6871082187
1236.3655261230	0.6872188449
1238.2943334961	0.6850821972
1240.2231408691	0.6787447333
1242.1519482422	0.6919904351
1244.0807556152	0.6828898191
1246.0095629883	0.6706093550
1247.9383703613	0.6910160780
1249.8671777344	0.6895778775
1251.7959851074	0.6811071634
1253.7247924805	0.6857473254
1255.6535998535	0.6782032251
1257.5824072266	0.6817272902
1259.5112145996	0.6827330589
1261.4400219726	0.6866015196
1263.3688293457	0.6925777197
1265.2976367187	0.6823992729
1267.2264440918	0.6937397122
1269.1552514648	0.6885221004
1271.0840588379	0.6677552462
1273.0128662109	0.6854257584
1274.9416735840	0.6993785501
1276.8704809570	0.6927493215
1278.7992883301	0.6902762651
1280.7280957031	0.6978542209
1282.6569030762	0.6913748384
1284.5857104492	0.6768989563
1286.5145178223	0.6907265782
1288.4433251953	0.6858943701
1290.3721325683	0.6781591773
1292.3009399414	0.6893814206
1294.2297473144	0.6733817458
1296.1585546875	0.6696419120
1298.0873620605	0.6742958426
1300.0161694336	0.6864279509
1301.9449768066	0.6981044412
1303.8737841797	0.6773395538
1305.8025915527	0.6737276912
1307.7313989258	0.6817014813
1309.6602062988	0.6888225079
1311.5890136719	0.6915146708
1313.5178210449	0.6811255217
1315.4466284180	0.6757471561
1317.3754357910	0.6795254350
1319.3042431640	0.6764783263
1321.2330505371	0.6660464406
1323.1618579101	0.6797744036
1325.0906652832	0.6852829456
1327.0194726562	0.6820250154
1328.9482800293	0.6833952069
1330.8770874023	0.6725522280
1332.8058947754	0.6823056340
1334.7347021484	0.6831606030
1336.6635095215	0.6708104610
1338.5923168945	0.6690583825
1340.5211242676	0.6687276363
1342.4499316406	0.6852074265
1344.3787390137	0.6871765256
1346.3075463867	0.6731206775
1348.2363537597	0.6709678173
1350.1651611328	0.6747398376
1352.0939685058	0.6830425262
1354.0227758789	0.6770423651
1355.9515832519	0.6733563542
1357.8803906250	0.6817020178
1359.8091979980	0.6769326925
1361.7380053711	0.6721598506
1363.6668127441	0.6730780602
1365.5956201172	0.6724892855
1367.5244274902	0.6706669331
1369.4532348633	0.6791318059
1371.3820422363	0.6799668670
1373.3108496094	0.6666810513
1375.2396569824	0.6768015027
1377.1684643555	0.6716274023
1379.0972717285	0.6665358543
1381.0260791015	0.6812387705
1382.9548864746	0.6633679271
1384.8836938476	0.6653924584
1386.8125012207	0.6829123497
1388.7413085937	0.6618971229
1390.6701159668	0.6598300338
1392.5989233398	0.6782460809
1394.5277307129	0.6726605296
1396.4565380859	0.6700921655
1398.3853454590	0.6746068597
1400.3141528320	0.6693693995
1402.2429602051	0.6759995818
1404.1717675781	0.6689180136
1406.1005749512	0.6645396352
1408.0293823242	0.6721192598
1409.9581896972	0.6682873964
1411.8869970703	0.6670573354
1413.8158044433	0.6651586294
1415.7446118164	0.6682844162
1417.6734191894	0.6600272655
1419.6022265625	0.6664214134
1421.5310339355	0.6837916374
1423.4598413086	0.6817031503
1425.3886486816	0.6772912741
1427.3174560547	0.6701757312
1429.2462634277	0.6781036854
1431.1750708008	0.6633784175
1433.1038781738	0.6750373244
1435.0326855469	0.6964452863
1436.9614929199	0.6692931652
1438.8903002929	0.6929018497
1440.8191076660	0.6799568534
1442.7479150390	0.6556050777
1444.6767224121	0.6792401671
1446.6055297851	0.6826677322
1448.5343371582	0.6823754907
1450.4631445312	0.6790825129
1452.3919519043	0.6794494390
1454.3207592773	0.6752442718
1456.2495666504	0.6655847430
1458.1783740234	0.6578954458
1460.1071813965	0.6773268580
1462.0359887695	0.6769353747
1463.9647961426	0.6626794338
1465.8936035156	0.6759235263
1467.8224108886	0.6559275985
1469.7512182617	0.6571190357
1471.6800256347	0.6672042012
1473.6088330078	0.6555609107
1475.5376403808	0.6555578113
1477.4664477539	0.6519113183
1479.3952551269	0.6606931090
1481.3240625000	0.6505630612
1483.2528698730	0.6418218613
1485.1816772461	0.6524326801
1487.1104846191	0.6555956602
1489.0392919922	0.6575856805
1490.9680993652	0.6495227814
1492.8969067383	0.6493453979
1494.8257141113	0.6503716707
1496.7545214843	0.6482446194
1498.6833288574	0.6514511704
1500.6121362304	0.6481773257
1502.5409436035	0.6481755376
1504.4697509765	0.6445752978
1506.3985583496	0.6382777095
1508.3273657226	0.6442034841
1510.2561730957	0.6454336047
1512.1849804687	0.6450501680
1514.1137878418	0.6445522308
1516.0425952148	0.6407250762
1517.9714025879	0.6443480849
1519.9002099609	0.6455216408
1521.8290173340	0.6419661045
1523.7578247070	0.6471337676
1525.6866320801	0.6403905153
1527.6154394531	0.6345671415
1529.5442468261	0.6423716545
1531.4730541992	0.6406726241
1533.4018615722	0.6387565732
1535.3306689453	0.6416280866
1537.2594763183	0.6390587687
1539.1882836914	0.6320760846
1541.1170910644	0.6340317726
1543.0458984375	0.6381726861
1544.9747058105	0.6363360882
1546.9035131836	0.6401283145
1548.8323205566	0.6418981552
1550.7611279297	0.6358852386
1552.6899353027	0.6329573989
1554.6187426758	0.6316001415
1556.5475500488	0.6288034320
1558.4763574218	0.6241416931
1560.4051647949	0.6262909174
1562.3339721679	0.6311942339
1564.2627795410	0.6342795491
1566.1915869140	0.6333315969
1568.1203942871	0.6297811866
1570.0492016601	0.6292127967
1571.9780090332	0.6298524737
1573.9068164062	0.6292247176
1575.8356237793	0.6282131076
1577.7644311523	0.6251176000
1579.6932385254	0.6279940009
1581.6220458984	0.6313896775
1583.5508532715	0.6251362562
1585.4796606445	0.6290920377
1587.4084680175	0.6305501461
1589.3372753906	0.6209338307
1591.2660827636	0.6231177449
1593.1948901367	0.6205334663
1595.1236975097	0.6210799217
1597.0525048828	0.6286565661
1598.9813122558	0.6221144199
1600.9101196289	0.6202908158
1602.8389270019	0.6233062148
1604.7677343750	0.6238255501
1606.6965417480	0.6261348128
1608.6253491211	0.6258602142
1610.5541564941	0.6240925193
1612.4829638672	0.6256632805
1614.4117712402	0.6266650558
1616.3405786132	0.6193315983
1618.2693859863	0.6226412654
1620.1981933593	0.6313493848
1622.1270007324	0.6281669736
1624.0558081054	0.6284343004
1625.9846154785	0.6379529238
1627.9134228515	0.6395602226
1629.8422302246	0.6403233409
1631.7710375976	0.6468963027
1633.6998449707	0.6466152668
1635.6286523437	0.6478290558
1637.5574597168	0.6503427029
1639.4862670898	0.6562299132
1641.4150744629	0.6671981812
1643.3438818359	0.6684270501
1645.2726892090	0.6696148515
1647.2014965820	0.6749787331
1649.1303039550	0.6845292449
1651.0591113281	0.6839317083
1652.9879187011	0.6776139140
1654.9167260742	0.6901570559
1656.8455334472	0.6935774684
1658.7743408203	0.6990191340
1660.7031481933	0.7021908760
1662.6319555664	0.7054356933
1664.5607629394	0.7123341560
1666.4895703125	0.7097128034
1668.4183776855	0.7146661282
1670.3471850586	0.7146024108
1672.2759924316	0.7133725286
1674.2047998047	0.7164995074
1676.1336071777	0.7141768932
1678.0624145507	0.7221699953
1679.9912219238	0.7238940597
1681.9200292968	0.7218662500
1683.8488366699	0.7201174498
1685.7776440429	0.7203248143
1687.7064514160	0.7273613811
1689.6352587890	0.7231314778
1691.5640661621	0.7234780192
1693.4928735351	0.7200997472
1695.4216809082	0.7156112194
1697.3504882812	0.7264537811
1699.2792956543	0.7171471119
1701.2081030273	0.7166861296
1703.1369104004	0.7249605060
1705.0657177734	0.7186737061
1706.9945251464	0.7183160782
1708.9233325195	0.7179149389
1710.8521398925	0.7155926228
1712.7809472656	0.7154160142
1714.7097546386	0.7151280046
1716.6385620117	0.7146224380
1718.5673693847	0.7148200870
1720.4961767578	0.7149780393
1722.4249841308	0.7089506388
1724.3537915039	0.7106788158
1726.2825988769	0.7141374350
1728.2114062500	0.7101633549
1730.1402136230	0.7131166458
1732.0690209961	0.7045890093
1733.9978283691	0.6963651180
1735.9266357421	0.7081461549
1737.8554431152	0.7054192424
1739.7842504882	0.7035490870
1741.7130578613	0.7001259923
1743.6418652343	0.6960274577
1745.5706726074	0.7019507289
1747.4994799804	0.6976457238
1749.4282873535	0.6942797303
1751.3570947265	0.6954898834
1753.2859020996	0.6925684810
1755.2147094726	0.6926605105
1757.1435168457	0.6934957504
1759.0723242187	0.6928374767
1761.0011315918	0.6910039783
1762.9299389648	0.6932737231
1764.8587463379	0.6923717856
1766.7875537109	0.6910140514
1768.7163610839	0.6935142279
1770.6451684570	0.6901400685
1772.5739758300	0.6893929839
1774.5027832031	0.6884461641
1776.4315905761	0.6873704195
1778.3603979492	0.6906471252
1780.2892053222	0.6868562102
1782.2180126953	0.6851680875
1784.1468200683	0.6888078451
1786.0756274414	0.6872620583
1788.0044348144	0.6856794953
1789.9332421875	0.6827115417
1791.8620495605	0.6764324307
1793.7908569336	0.6811288595
1795.7196643066	0.6833888292
1797.6484716796	0.6797083616
1799.5772790527	0.6869606972
1801.5060864257	0.6844915152
1803.4348937988	0.6771960258
1805.3637011718	0.6815270782
1807.2925085449	0.6799728870
1809.2213159179	0.6761974096
1811.1501232910	0.6787703633
1813.0789306640	0.6841646433
1815.0077380371	0.6803798676
1816.9365454101	0.6765305400
1818.8653527832	0.6785793900
1820.7941601562	0.6763589978
1822.7229675293	0.6802045703
1824.6517749023	0.6802545786
1826.5805822753	0.6759694219
1828.5093896484	0.6717195511
1830.4381970214	0.6701152325
1832.3670043945	0.6766373515
1834.2958117675	0.6722122431
1836.2246191406	0.6719778180
1838.1534265136	0.6752899289
1840.0822338867	0.6709013581
1842.0110412597	0.6694461703
1843.9398486328	0.6703444719
1845.8686560058	0.6678529978
1847.7974633789	0.6641601324
1849.7262707519	0.6718604565
1851.6550781250	0.6691271663
1853.5838854980	0.6641990542
1855.5126928710	0.6720842123
1857.4415002441	0.6691291928
1859.3703076171	0.6664369106
1861.2991149902	0.6678236127
1863.2279223632	0.6687567234
1865.1567297363	0.6686200500
1867.0855371093	0.6698876023
1869.0143444824	0.6677867770
1870.9431518554	0.6637948751
1872.8719592285	0.6695783734
1874.8007666015	0.6652559042
1876.7295739746	0.6617559791
1878.6583813476	0.6661487222
1880.5871887207	0.6701130867
1882.5159960937	0.6717190742
1884.4448034667	0.6639307737
1886.3736108398	0.6646995544
1888.3024182128	0.6657577753
1890.2312255859	0.6648651958
1892.1600329589	0.6677344441
1894.0888403320	0.6620593667
1896.0176477050	0.6596970558
1897.9464550781	0.6624107957
1899.8752624511	0.6620472670
1901.8040698242	0.6635079980
1903.7328771972	0.6672467589
1905.6616845703	0.6652765274
1907.5904919433	0.6617152095
1909.5192993164	0.6595121026
1911.4481066894	0.6569889784
1913.3769140625	0.6583532691
1915.3057214355	0.6602598429
1917.2345288085	0.6610665321
1919.1633361816	0.6606018543
1921.0921435546	0.6628012061
1923.0209509277	0.6613430381
1924.9497583007	0.6540173292
1926.8785656738	0.6589921117
1928.8073730468	0.6652295589
1930.7361804199	0.6585894823
1932.6649877929	0.6561803222
1934.5937951660	0.6565169692
1936.5226025390	0.6531138420
1938.4514099121	0.6579387188
1940.3802172851	0.6566380262
1942.3090246582	0.6529967785
1944.2378320312	0.6593942046
1946.1666394042	0.6564354300
1948.0954467773	0.6560132504
1950.0242541503	0.6581339836
1951.9530615234	0.6551457644
1953.8818688964	0.6591917276
1955.8106762695	0.6617698669
1957.7394836425	0.6585168839
1959.6682910156	0.6527578235
1961.5970983886	0.6531590819
1963.5259057617	0.6588353515
1965.4547131347	0.6576552987
1967.3835205078	0.6556913853
1969.3123278808	0.6561464071
1971.2411352539	0.6579860449
1973.1699426269	0.6590653062
1975.0987499999	0.6544856429
1977.0275573730	0.6535575390
1978.9563647460	0.6532050967
1980.8851721191	0.6497883797
1982.8139794921	0.6519191265
1984.7427868652	0.6517192125
1986.6715942382	0.6550775170
1988.6004016113	0.6579055190
1990.5292089843	0.6502833962
1992.4580163574	0.6501820087
1994.3868237304	0.6531948447
1996.3156311035	0.6516168118
1998.2444384765	0.6507132649
2000.1732458496	0.6528913975
2002.1020532226	0.6530042887
2004.0308605956	0.6539494991
2005.9596679687	0.6573108435
2007.8884753417	0.6514678001
2009.8172827148	0.6525609493
2011.7460900878	0.6540982723
2013.6748974609	0.6507295370
2015.6037048339	0.6544153690
2017.5325122070	0.6511623859
2019.4613195800	0.6487104297
2021.3901269531	0.6487636566
2023.3189343261	0.6512896419
2025.2477416992	0.6536227465
2027.1765490722	0.6489159465
2029.1053564453	0.6519349813
2031.0341638183	0.6521643400
2032.9629711914	0.6478011012
2034.8917785644	0.6468300223
2036.8205859374	0.6442139745
2038.7493933105	0.6482391357
2040.6782006835	0.6539431214
2042.6070080566	0.6486939788
2044.5358154296	0.6452712417
2046.4646228027	0.6481294036
2048.3934301757	0.6464140415
2050.3222375488	0.6502470374
2052.2510449218	0.6523956060
2054.1798522949	0.6496218443
2056.1086596679	0.6542721391
2058.0374670410	0.6484757066
2059.9662744140	0.6442289352
2061.8950817871	0.6510676742
2063.8238891601	0.6496670842
2065.7526965331	0.6493135691
2067.6815039062	0.6496143937
2069.6103112792	0.6454631686
2071.5391186523	0.6477512121
2073.4679260253	0.6528927088
2075.3967333984	0.6514558792
2077.3255407714	0.6478260756
2079.2543481445	0.6471844316
2081.1831555175	0.6487435102
2083.1119628906	0.6540793777
2085.0407702636	0.6545170546
2086.9695776367	0.6499937773
2088.8983850097	0.6507351398
2090.8271923828	0.6486658454
2092.7559997558	0.6473861337
2094.6848071288	0.6521996260
2096.6136145019	0.6496880054
2098.5424218749	0.6480267644
2100.4712292480	0.6491766572
2102.4000366210	0.6444332600
2104.3288439941	0.6521554589
2106.2576513671	0.6555750370
2108.1864587402	0.6463276148
2110.1152661132	0.6513832211
2112.0440734863	0.6499134898
2113.9728808593	0.6472315788
2115.9016882324	0.6498274803
2117.8304956054	0.6438332796
2119.7593029785	0.6488373876
2121.6881103515	0.6494053602
2123.6169177245	0.6467379332
2125.5457250976	0.6510258913
2127.4745324706	0.6525139213
2129.4033398437	0.6550869346
2131.3321472167	0.6522079110
2133.2609545898	0.6522250175
2135.1897619628	0.6463066936
2137.1185693359	0.6426950097
2139.0473767089	0.6537865400
2140.9761840820	0.6501488686
2142.9049914550	0.6472031474
2144.8337988281	0.6518312097
2146.7626062011	0.6489495039
2148.6914135742	0.6504145265
2150.6202209472	0.6510961652
2152.5490283203	0.6452075243
2154.4778356933	0.6451926827
2156.4066430663	0.6489125490
2158.3354504394	0.6502944231
2160.2642578124	0.6517779231
2162.1930651855	0.6489395499
2164.1218725585	0.6490467191
2166.0506799316	0.6499875784
2167.9794873046	0.6453026533
2169.9082946777	0.6463510990
2171.8371020507	0.6479825974
2173.7659094238	0.6479138732
2175.6947167968	0.6494333744
2177.6235241699	0.6495224833
2179.5523315429	0.6514033079
2181.4811389160	0.6501187086
2183.4099462890	0.6446903348
2185.3387536620	0.6480004191
2187.2675610351	0.6511042714
2189.1963684081	0.6480085254
2191.1251757812	0.6503202319
2193.0539831542	0.6479452252
2194.9827905273	0.6445778608
2196.9115979003	0.6451190114
2198.8404052734	0.6412560940
2200.7692126464	0.6418299675
2202.6980200195	0.6471526623
2204.6268273925	0.6517231464
2206.5556347656	0.6538200974
2208.4844421386	0.6535951495
2210.4132495117	0.6500344276
2212.3420568847	0.6476083994
2214.2708642577	0.6508898139
2216.1996716308	0.6495416164
2218.1284790038	0.6464720964
2220.0572863769	0.6502497196
2221.9860937499	0.6489251852
2223.9149011230	0.6439563036
2225.8437084960	0.6487346292
2227.7725158691	0.6465620995
2229.7013232421	0.6427431703
2231.6301306152	0.6483024955
2233.5589379882	0.6502901316
2235.4877453613	0.6535346508
2237.4165527343	0.6501902342
2239.3453601074	0.6474548578
2241.2741674804	0.6457514763
2243.2029748534	0.6421802640
2245.1317822265	0.6513029933
2247.0605895995	0.6490081549
2248.9893969726	0.6430549026
2250.9182043456	0.6442542076
2252.8470117187	0.6406643987
2254.7758190917	0.6424183249
2256.7046264648	0.6462500095
2258.6334338378	0.6478828192
2260.5622412109	0.6467599273
2262.4910485839	0.6431037188
2264.4198559570	0.6409804821
2266.3486633300	0.6451535821
2268.2774707031	0.6460877061
2270.2062780761	0.6435852051
2272.1350854491	0.6467443705
2274.0638928222	0.6462642550
2275.9927001952	0.6478721499
2277.9215075683	0.6465467811
2279.8503149413	0.6405830383
2281.7791223144	0.6407431364
2283.7079296874	0.6435790062
2285.6367370605	0.6434471011
2287.5655444335	0.6402614713
2289.4943518066	0.6450927258
2291.4231591796	0.6447606087
2293.3519665527	0.6421245337
2295.2807739257	0.6437796950
2297.2095812988	0.6399837732
2299.1383886718	0.6431410313
2301.0671960449	0.6459667087
2302.9960034179	0.6486352086
2304.9248107909	0.6446878314
2306.8536181640	0.6399312019
2308.7824255370	0.6485831738
2310.7112329101	0.6422685385
2312.6400402831	0.6390135884
2314.5688476562	0.6430915594
2316.4976550292	0.6384730339
2318.4264624023	0.6363828182
2320.3552697753	0.6301096082
2322.2840771484	0.6333716512
2324.2128845214	0.6361178756
2326.1416918945	0.6334999800
2328.0704992675	0.6361929178
2329.9993066406	0.6301193237
2331.9281140136	0.6334890127
2333.8569213866	0.6360934377
2335.7857287597	0.6282196045
2337.7145361327	0.6300681233
2339.6433435058	0.6282725930
2341.5721508788	0.6250968575
2343.5009582519	0.6309170723
2345.4297656249	0.6327021718
2347.3585729980	0.6341578364
2349.2873803710	0.6396656632
2351.2161877441	0.6348252296
2353.1449951171	0.6297068000
2355.0738024902	0.6306732297
2357.0026098632	0.6274279356
2358.9314172363	0.6273726821
2360.8602246093	0.6250262260
2362.7890319823	0.6240764260
2364.7178393554	0.6268246770
2366.6466467284	0.6310197711
2368.5754541015	0.6305966973
2370.5042614745	0.6238095164
2372.4330688476	0.6286101341
2374.3618762206	0.6358047724
2376.2906835937	0.6352506280
2378.2194909667	0.6297855973
2380.1482983398	0.6341131926
2382.0771057128	0.6390799284
2384.0059130859	0.6356677413
2385.9347204589	0.6405288577
2387.8635278320	0.6385738850
2389.7923352050	0.6382036209
2391.7211425780	0.6393372416
2393.6499499511	0.6384472847
2395.5787573241	0.6398445964
2397.5075646972	0.6321566105
2399.4363720702	0.6362785697
2401.3651794433	0.6381670237
2403.2939868163	0.6357515454
2405.2227941894	0.6374862790
2407.1516015624	0.6336101890
2409.0804089355	0.6352866292
2411.0092163085	0.6347169876
2412.9380236816	0.6337318420
2414.8668310546	0.6335414052
2416.7956384277	0.6377893090
2418.7244458007	0.6392567158
2420.6532531738	0.6372177005
2422.5820605468	0.6367529035
2424.5108679198	0.6300479770
2426.4396752929	0.6378405094
2428.3684826659	0.6380052567
2430.2972900390	0.6331864595
2432.2260974120	0.6339778900
2434.1549047851	0.6283921599
2436.0837121581	0.6392245889
2438.0125195312	0.6394608617
2439.9413269042	0.6315959096
2441.8701342773	0.6346645355
2443.7989416503	0.6398810148
2445.7277490234	0.6419785619
2447.6565563964	0.6324542761
2449.5853637695	0.6344026327
2451.5141711425	0.6358856559
2453.4429785155	0.6293726563
2455.3717858886	0.6294672489
2457.3005932616	0.6303785443
2459.2294006347	0.6335271001
2461.1582080077	0.6328440309
2463.0870153808	0.6325114965
2465.0158227538	0.6321673989
2466.9446301269	0.6336439252
2468.8734374999	0.6349433661
2470.8022448730	0.6270011067
2472.7310522460	0.6289806962
2474.6598596191	0.6307132244
2476.5886669921	0.6246879697
2478.5174743652	0.6296586394
2480.4462817382	0.6339467764
2482.3750891112	0.6344448924
2484.3038964843	0.6350911260
2486.2327038573	0.6324934959
2488.1615112304	0.6302903295
2490.0903186034	0.6262554526
2492.0191259765	0.6302655935
2493.9479333495	0.6356042027
2495.8767407226	0.6304969192
2497.8055480956	0.6299780607
2499.7343554687	0.6271885633
2501.6631628417	0.6245895624
2503.5919702148	0.6322897077
2505.5207775878	0.6358536482
2507.4495849609	0.6308069825
2509.3783923339	0.6263836026
2511.3071997069	0.6272297502
2513.2360070800	0.6257256866
2515.1648144530	0.6276952028
2517.0936218261	0.6296427250
2519.0224291991	0.6235493422
2520.9512365722	0.6276756525
2522.8800439452	0.6313056350
2524.8088513183	0.6294570565
2526.7376586913	0.6289072037
2528.6664660644	0.6215018630
2530.5952734374	0.6240860224
2532.5240808105	0.6287165880
2534.4528881835	0.6237068772
2536.3816955566	0.6236209273
2538.3105029296	0.6220667958
2540.2393103027	0.6233859658
2542.1681176757	0.6271586418
2544.0969250487	0.6241469979
2546.0257324218	0.6249607205
2547.9545397948	0.6258078218
2549.8833471679	0.6248093843
2551.8121545409	0.6289743185
2553.7409619140	0.6289262176
2555.6697692870	0.6205168962
2557.5985766601	0.6225396395
2559.5273840331	0.6322198510
2561.4561914062	0.6240475178
2563.3849987792	0.6184259057
2565.3138061523	0.6262598038
2567.2426135253	0.6251462698
2569.1714208984	0.6206015348
2571.1002282714	0.6214782000
2573.0290356444	0.6236154437
2574.9578430175	0.6177352071
2576.8866503905	0.6205780506
2578.8154577636	0.6295569539
2580.7442651366	0.6214300394
2582.6730725097	0.6241261363
2584.6018798827	0.6270776391
2586.5306872558	0.6250752807
2588.4594946288	0.6298261285
2590.3883020019	0.6225554943
2592.3171093749	0.6234744787
2594.2459167480	0.6221747994
2596.1747241210	0.6202369928
2598.1035314941	0.6240088940
2600.0323388671	0.6185558438
2601.9611462401	0.6212522388
2603.8899536132	0.6171036363
2605.8187609862	0.6196294427
2607.7475683593	0.6267448664
2609.6763757323	0.6211858988
2611.6051831054	0.6229233742
2613.5339904784	0.6229948997
2615.4627978515	0.6222430468
2617.3916052245	0.6182304025
2619.3204125976	0.6222913265
2621.2492199706	0.6229645610
2623.1780273437	0.6168590784
2625.1068347167	0.6223715544
2627.0356420898	0.6160488129
2628.9644494628	0.6231625080
2630.8932568358	0.6226518750
2632.8220642089	0.6076132059
2634.7508715819	0.6149055362
2636.6796789550	0.6115989089
2638.6084863280	0.6093936563
2640.5372937011	0.6137227416
2642.4661010741	0.6157673001
2644.3949084472	0.6190454960
2646.3237158202	0.6155146956
2648.2525231933	0.6130126715
2650.1813305663	0.6087797284
2652.1101379394	0.6131027341
2654.0389453124	0.6181110144
2655.9677526855	0.6139224768
2657.8965600585	0.6129536629
2659.8253674315	0.6130263805
2661.7541748046	0.6155251861
2663.6829821776	0.6159115434
2665.6117895507	0.6115132570
2667.5405969237	0.6078830361
2669.4694042968	0.6080932617
2671.3982116698	0.6140488982
2673.3270190429	0.6134102345
2675.2558264159	0.6117626429
2677.1846337890	0.6210888028
2679.1134411620	0.6145070195
2681.0422485351	0.6100100875
2682.9710559081	0.6224367023
2684.8998632812	0.6175889969
2686.8286706542	0.6113060117
2688.7574780273	0.6096644998
2690.6862854003	0.6107676029
2692.6150927733	0.6144053340
2694.5439001464	0.6096596122
2696.4727075194	0.6109105945
2698.4015148925	0.6094357967
2700.3303222655	0.6057426333
2702.2591296386	0.6103512049
2704.1879370116	0.6131030321
2706.1167443847	0.6079169512
2708.0455517577	0.6094689965
2709.9743591308	0.6158038378
2711.9031665038	0.6086479425
2713.8319738769	0.6093020439
2715.7607812499	0.6131566167
2717.6895886230	0.6048023105
2719.6183959960	0.6006010175
2721.5472033690	0.6023864746
2723.4760107421	0.6028698087
2725.4048181151	0.6098832488
2727.3336254882	0.6130095124
2729.2624328612	0.5984003544
2731.1912402343	0.6023758650
2733.1200476073	0.6116640568
2735.0488549804	0.6038542390
2736.9776623534	0.6025055647
2738.9064697265	0.6076295972
2740.8352770995	0.6111200452
2742.7640844726	0.6020562649
2744.6928918456	0.6019977331
2746.6216992187	0.6090818048
2748.5505065917	0.6090994477
2750.4793139647	0.6046126485
2752.4081213378	0.5948618054
2754.3369287108	0.6033601165
2756.2657360839	0.6027875543
2758.1945434569	0.5988574624
2760.1233508300	0.6086000800
2762.0521582030	0.5996454358
2763.9809655761	0.6002380848
2765.9097729491	0.6062698364
2767.8385803222	0.6028857231
2769.7673876952	0.6069343686
2771.6961950683	0.6035676003
2773.6250024413	0.5997761488
2775.5538098144	0.5992823243
2777.4826171874	0.5997078419
2779.4114245604	0.6027370691
2781.3402319335	0.5949705839
2783.2690393065	0.5953339338
2785.1978466796	0.5995729566
2787.1266540526	0.5955985785
2789.0554614257	0.5988743305
2790.9842687987	0.6002581120
2792.9130761718	0.6006667614
2794.8418835448	0.5939883590
2796.7706909179	0.5922229290
2798.6994982909	0.5989146233
2800.6283056640	0.5967618227
2802.5571130370	0.6047509313
2804.4859204101	0.5962827206
2806.4147277831	0.5846849680
2808.3435351562	0.5956747532
2810.2723425292	0.5978248119
2812.2011499022	0.5998828411
2814.1299572753	0.5971052051
2816.0587646483	0.5920941234
2817.9875720214	0.5937989950
2819.9163793944	0.5897679925
2821.8451867675	0.5906691551
2823.7739941405	0.5976607203
2825.7028015136	0.5953137875
2827.6316088866	0.5865063071
2829.5604162597	0.5869159102
2831.4892236327	0.5896607041
2833.4180310058	0.5885180235
2835.3468383788	0.5860733390
2837.2756457519	0.5830471516
2839.2044531249	0.5844396353
2841.1332604979	0.5877535939
2843.0620678710	0.5843518376
2844.9908752440	0.5817899108
2846.9196826171	0.5888553858
2848.8484899901	0.5860344172
2850.7772973632	0.5830221772
2852.7061047362	0.5913882852
2854.6349121093	0.5904554129
2856.5637194823	0.5838751793
2858.4925268554	0.5856601000
2860.4213342284	0.5877168775
2862.3501416015	0.5844953060
2864.2789489745	0.5892871022
2866.2077563476	0.5893335938
2868.1365637206	0.5854220390
2870.0653710936	0.5866991878
2871.9941784667	0.5870242715
2873.9229858397	0.5868865252
2875.8517932128	0.5781830549
2877.7806005858	0.5792983770
2879.7094079589	0.5818449855
2881.6382153319	0.5804224610
2883.5670227050	0.5839127898
2885.4958300780	0.5805103183
2887.4246374511	0.5803235173
2889.3534448241	0.5757932067
2891.2822521972	0.5821423531
2893.2110595702	0.5834939480
2895.1398669433	0.5660766363
2897.0686743163	0.5697949529
2898.9974816893	0.5778885484
2900.9262890624	0.5796700716
2902.8550964354	0.5756654143
2904.7839038085	0.5742563009
2906.7127111815	0.5778993964
2908.6415185546	0.5703934431
2910.5703259276	0.5691955686
2912.4991333007	0.5725487471
2914.4279406737	0.5786696672
2916.3567480468	0.5798816681
2918.2855554198	0.5706523061
2920.2143627929	0.5688280463
2922.1431701659	0.5682985187
2924.0719775390	0.5710074902
2926.0007849120	0.5734379292
2927.9295922851	0.5665721297
2929.8583996581	0.5674933195
2931.7872070311	0.5751852393
2933.7160144042	0.5753312111
2935.6448217772	0.5720031261
2937.5736291503	0.5714021325
2939.5024365233	0.5730957389
2941.4312438964	0.5733668804
2943.3600512694	0.5709227920
2945.2888586425	0.5684911013
2947.2176660155	0.5685412288
2949.1464733886	0.5722865462
2951.0752807616	0.5725511909
2953.0040881347	0.5650914311
2954.9328955077	0.5625802279
2956.8617028808	0.5678848028
2958.7905102538	0.5650660992
2960.7193176268	0.5657423139
2962.6481249999	0.5695549250
2964.5769323729	0.5584242940
2966.5057397460	0.5599579215
2968.4345471190	0.5669198036
2970.3633544921	0.5625590086
2972.2921618651	0.5653460026
2974.2209692382	0.5680750012
2976.1497766112	0.5636310577
2978.0785839843	0.5559505224
2980.0073913573	0.5611201525
2981.9361987304	0.5678463578
2983.8650061034	0.5605638027
2985.7938134765	0.5588112473
2987.7226208495	0.5587214231
2989.6514282225	0.5613210201
2991.5802355956	0.5591364503
2993.5090429686	0.5530741811
2995.4378503417	0.5582704544
2997.3666577147	0.5523521304
2999.2954650878	0.5527372360
3001.2242724608	0.5631735921
3003.1530798339	0.5564290881
3005.0818872069	0.5509029031
3007.0106945800	0.5525187254
3008.9395019530	0.5588193536
3010.8683093261	0.5547182560
3012.7971166991	0.5446075797
3014.7259240722	0.5507114530
3016.6547314452	0.5485073328
3018.5835388182	0.5444929600
3020.5123461913	0.5528540611
3022.4411535643	0.5559433103
3024.3699609374	0.5467495322
3026.2987683104	0.5408564210
3028.2275756835	0.5489688516
3030.1563830565	0.5454265475
3032.0851904296	0.5392668843
3034.0139978026	0.5455527902
3035.9428051757	0.5424166322
3037.8716125487	0.5389249921
3039.8004199218	0.5436837673
3041.7292272948	0.5382046103
3043.6580346679	0.5375304222
3045.5868420409	0.5462979078
3047.5156494139	0.5393265486
3049.4444567870	0.5385403037
3051.3732641600	0.5427460670
3053.3020715331	0.5440918803
3055.2308789061	0.5444071293
3057.1596862792	0.5358382463
3059.0884936522	0.5433885455
3061.0173010253	0.5410613418
3062.9461083983	0.5329658389
3064.8749157714	0.5384960175
3066.8037231444	0.5323718786
3068.7325305175	0.5343993902
3070.6613378905	0.5407413840
3072.5901452636	0.5370524526
3074.5189526366	0.5324221849
3076.4477600097	0.5330621600
3078.3765673827	0.5359958410
3080.3053747557	0.5379531980
3082.2341821288	0.5337756872
3084.1629895018	0.5284992456
3086.0917968749	0.5330198407
3088.0206042479	0.5274536014
3089.9494116210	0.5301102996
3091.8782189940	0.5343872309
3093.8070263671	0.5287651420
3095.7358337401	0.5335928798
3097.6646411132	0.5346379280
3099.5934484862	0.5406896472
3101.5222558593	0.5335297585
3103.4510632323	0.5247731209
3105.3798706054	0.5308009386
3107.3086779784	0.5222094059
3109.2374853514	0.5236634612
3111.1662927245	0.5361860991
3113.0951000975	0.5377416611
3115.0239074706	0.5303696394
3116.9527148436	0.5264285803
3118.8815222167	0.5253697634
3120.8103295897	0.5197036862
3122.7391369628	0.5199313760
3124.6679443358	0.5182194710
3126.5967517089	0.5170125961
3128.5255590819	0.5249468088
3130.4543664550	0.5257202387
3132.3831738280	0.5262147188
3134.3119812011	0.5352843404
3136.2407885741	0.5306866169
3138.1695959471	0.5268378258
3140.0984033202	0.5256434679
3142.0272106932	0.5201441646
3143.9560180663	0.5247451067
3145.8848254393	0.5281123519
3147.8136328124	0.5297341347
3149.7424401854	0.5163266063
3151.6712475585	0.5142701268
3153.6000549315	0.5285025239
3155.5288623046	0.5305821896
3157.4576696776	0.5306019783
3159.3864770507	0.5152131915
3161.3152844237	0.5226600766
3163.2440917968	0.5310778618
3165.1728991698	0.5195119977
3167.1017065428	0.5222773552
3169.0305139159	0.5189837217
3170.9593212889	0.5284635425
3172.8881286620	0.5265738964
3174.8169360350	0.5174753070
3176.7457434081	0.5227463841
3178.6745507811	0.5242577791
3180.6033581542	0.5308553576
3182.5321655272	0.5314596891
3184.4609729003	0.5321525931
3186.3897802733	0.5276081562
3188.3185876464	0.5280016065
3190.2473950194	0.5286041498
3192.1762023925	0.5294432044
3194.1050097655	0.5396494269
3196.0338171386	0.5272648335
3197.9626245116	0.5290413499
3199.8914318846	0.5384068489
3201.8202392577	0.5349889994
3203.7490466307	0.5355170965
3205.6778540038	0.5313515067
3207.6066613768	0.5346539617
3209.5354687499	0.5373613834
3211.4642761229	0.5400324464
3213.3930834960	0.5429942012
3215.3218908690	0.5350447297
3217.2506982421	0.5351269245
3219.1795056151	0.5450710654
3221.1083129882	0.5442213416
3223.0371203612	0.5447416902
3224.9659277343	0.5500470996
3226.8947351073	0.5452060103
3228.8235424803	0.5455121398
3230.7523498534	0.5522907376
3232.6811572264	0.5542754531
3234.6099645995	0.5434947610
3236.5387719725	0.5471670032
3238.4675793456	0.5543322563
3240.3963867186	0.5475518107
3242.3251940917	0.5595675707
3244.2540014647	0.5574778318
3246.1828088378	0.5575685501
3248.1116162108	0.5632266402
3250.0404235839	0.5623937845
3251.9692309569	0.5720354915
3253.8980383300	0.5628199577
3255.8268457030	0.5703197718
3257.7556530760	0.5765270591
3259.6844604491	0.5687404871
3261.6132678221	0.5702039599
3263.5420751952	0.5749238729
3265.4708825682	0.5885279775
3267.3996899413	0.5770529509
3269.3284973143	0.5762673020
3271.2573046874	0.5780178905
3273.1861120604	0.5756974816
3275.1149194335	0.5854954123
3277.0437268065	0.5684850812
3278.9725341796	0.5808075070
3280.9013415526	0.5931694508
3282.8301489257	0.5834684372
3284.7589562987	0.5887194276
3286.6877636717	0.5822007060
3288.6165710448	0.5897500515
3290.5453784178	0.5904896259
3292.4741857909	0.5839275718
3294.4029931639	0.5908138752
3296.3318005370	0.5895321965
3298.2606079100	0.5970068574
3300.1894152831	0.6005492210
3302.1182226561	0.6054836512
3304.0470300292	0.6072005630
3305.9758374022	0.5907770395
3307.9046447753	0.5956525803
3309.8334521483	0.6047080159
3311.7622595214	0.6010928750
3313.6910668944	0.6025679708
3315.6198742675	0.6036100388
3317.5486816405	0.6109775901
3319.4774890135	0.6092421412
3321.4062963866	0.6081777215
3323.3351037596	0.6194278598
3325.2639111327	0.6084576845
3327.1927185057	0.6087046266
3329.1215258788	0.6277448535
3331.0503332518	0.6281687021
3332.9791406249	0.6272759438
3334.9079479979	0.6252541542
3336.8367553710	0.6288323402
3338.7655627440	0.6343674064
3340.6943701171	0.6302848458
3342.6231774901	0.6335785985
3344.5519848632	0.6315687299
3346.4807922362	0.6296468377
3348.4095996092	0.6342621446
3350.3384069823	0.6388726234
3352.2672143553	0.6445784569
3354.1960217284	0.6360926628
3356.1248291014	0.6446699500
3358.0536364745	0.6588221192
3359.9824438475	0.6491171122
3361.9112512206	0.6629599333
3363.8400585936	0.6680929661
3365.7688659667	0.6561452150
3367.6976733397	0.6732654572
3369.6264807128	0.6734893322
3371.5552880858	0.6665883660
3373.4840954589	0.6745030284
3375.4129028319	0.6666997075
3377.3417102049	0.6720688939
3379.2705175780	0.6903314590
3381.1993249510	0.6880022287
3383.1281323241	0.6834987998
3385.0569396971	0.6911932230
3386.9857470702	0.6965168118
3388.9145544432	0.6950179338
3390.8433618163	0.6987361908
3392.7721691893	0.7017909288
3394.7009765624	0.6919685006
3396.6297839354	0.6967827082
3398.5585913085	0.7167932987
3400.4873986815	0.7171702385
3402.4162060546	0.7139302492
3404.3450134276	0.7208904624
3406.2738208006	0.7210177183
3408.2026281737	0.7198470831
3410.1314355467	0.7291567326
3412.0602429198	0.7320525646
3413.9890502928	0.7260897160
3415.9178576659	0.7324448824
3417.8466650389	0.7362958789
3419.7754724120	0.7462111115
3421.7042797850	0.7602161765
3423.6330871581	0.7506817579
3425.5618945311	0.7578654885
3427.4907019042	0.7649365067
3429.4195092772	0.7538352013
3431.3483166503	0.7642941475
3433.2771240233	0.7709310651
3435.2059313963	0.7635256648
3437.1347387694	0.7589535117
3439.0635461424	0.7638446093
3440.9923535155	0.7725197077
3442.9211608885	0.7682522535
3444.8499682616	0.7793027163
3446.7787756346	0.7925272584
3448.7075830077	0.7840543389
3450.6363903807	0.7878732681
3452.5651977538	0.7878951430
3454.4940051268	0.7777010798
3456.4228124999	0.7897683382
3458.3516198729	0.8011900187
3460.2804272460	0.7902451754
3462.2092346190	0.7986090779
3464.1380419921	0.8169990182
3466.0668493651	0.8013154864
3467.9956567381	0.7980877757
3469.9244641112	0.8139633536
3471.8532714842	0.8104521036
3473.7820788573	0.8136258721
3475.7108862303	0.8195956945
3477.6396936034	0.8094428182
3479.5685009764	0.8138201237
3481.4973083495	0.8345433474
3483.4261157225	0.8310249448
3485.3549230956	0.8257713318
3487.2837304686	0.8275051713
3489.2125378417	0.8190014958
3491.1413452147	0.8350772262
3493.0701525878	0.8413746357
3494.9989599608	0.8322873712
3496.9277673338	0.8393389583
3498.8565747069	0.8299728036
3500.7853820799	0.8313648105
3502.7141894530	0.8475883007
3504.6429968260	0.8450332880
3506.5718041991	0.8379344344
3508.5006115721	0.8380253911
3510.4294189452	0.8449468017
3512.3582263182	0.8522926569
3514.2870336913	0.8488792777
3516.2158410643	0.8377283216
3518.1446484374	0.8476022482
3520.0734558104	0.8634817600
3522.0022631835	0.8459931016
3523.9310705565	0.8418678641
3525.8598779295	0.8664780855
3527.7886853026	0.8667643666
3529.7174926756	0.8722136021
3531.6463000487	0.8770852685
3533.5751074217	0.8611122966
3535.5039147948	0.8760213852
3537.4327221678	0.8764207959
3539.3615295409	0.8584796786
3541.2903369139	0.8607939482
3543.2191442870	0.8669386506
3545.1479516600	0.8701693416
3547.0767590331	0.8574185371
3549.0055664061	0.8585534692
3550.9343737792	0.8753922582
3552.8631811522	0.8869176507
3554.7919885252	0.8684254885
3556.7207958983	0.8685083985
3558.6496032713	0.8964166641
3560.5784106444	0.8676127195
3562.5072180174	0.8637909889
3564.4360253905	0.8749984503
3566.3648327635	0.8687766790
3568.2936401366	0.8732573986
3570.2224475096	0.8512223363
3572.1512548827	0.8620914817
3574.0800622557	0.8691538572
3576.0088696288	0.8603734970
3577.9376770018	0.8566539884
3579.8664843749	0.8493734002
3581.7952917479	0.8728286028
3583.7240991210	0.8719907403
3585.6529064940	0.8596414328
3587.5817138670	0.8524720073
3589.5105212401	0.8521008492
3591.4393286131	0.8692853451
3593.3681359862	0.8708353639
3595.2969433592	0.8676268458
3597.2257507323	0.8629960418
3599.1545581053	0.8569619060
3601.0833654784	0.8472021818
3603.0121728514	0.8480814099
3604.9409802245	0.8585526943
3606.8697875975	0.8625369072
3608.7985949706	0.8488209248
3610.7274023436	0.8448599577
3612.6562097167	0.8785032034
3614.5850170897	0.8722167015
3616.5138244627	0.8551479578
3618.4426318358	0.8554485440
3620.3714392088	0.8464294672
3622.3002465819	0.8520354033
3624.2290539549	0.8489229083
3626.1578613280	0.8605210185
3628.0866687010	0.8604648709
3630.0154760741	0.8464587927
3631.9442834471	0.8558083177
3633.8730908202	0.8509533405
3635.8018981932	0.8576239944
3637.7307055663	0.8663595915
3639.6595129393	0.8644036055
3641.5883203124	0.8533943295
3643.5171276854	0.8457282782
3645.4459350584	0.8542625904
3647.3747424315	0.8458945751
3649.3035498045	0.8500807285
3651.2323571776	0.8698166013
3653.1611645506	0.8608555198
3655.0899719237	0.8552491069
3657.0187792967	0.8566055894
3658.9475866698	0.8494893909
3660.8763940428	0.8441907167
3662.8052014159	0.8449552655
3664.7340087889	0.8460784554
3666.6628161620	0.8349149227
3668.5916235350	0.8290484548
3670.5204309081	0.8446989059
3672.4492382811	0.8406258225
3674.3780456541	0.8248168230
3676.3068530272	0.8324273825
3678.2356604002	0.8367393017
3680.1644677733	0.8212203979
3682.0932751463	0.8150579333
3684.0220825194	0.8194652200
3685.9508898924	0.8089140058
3687.8796972655	0.8021842241
3689.8085046385	0.8193761110
3691.7373120116	0.8153533340
3693.6661193846	0.8015539646
3695.5949267577	0.8035085201
3697.5237341307	0.8026793003
3699.4525415038	0.8108515143
3701.3813488768	0.8081473708
3703.3101562499	0.7969838977
3705.2389636229	0.8102478385
3707.1677709959	0.8098366261
3709.0965783690	0.7968236208
3711.0253857420	0.7914478779
3712.9541931151	0.7897191048
3714.8830004881	0.7863889933
3716.8118078612	0.7900208235
3718.7406152342	0.7977344394
3720.6694226073	0.7912712097
3722.5982299803	0.7985892296
3724.5270373534	0.7885448337
3726.4558447264	0.7707677484
3728.3846520995	0.7837466598
3730.3134594725	0.7802822590
3732.2422668456	0.7694001198
3734.1710742186	0.7782047987
3736.0998815916	0.7832766175
3738.0286889647	0.7761549354
3739.9574963377	0.7856774330
3741.8863037108	0.7905109525
3743.8151110838	0.7809433937
3745.7439184569	0.7569814324
3747.6727258299	0.7615106106
3749.6015332030	0.7841067910
3751.5303405760	0.7574928999
3753.4591479491	0.7675532699
3755.3879553221	0.7782179713
3757.3167626952	0.7631371617
3759.2455700682	0.7770523429
3761.1743774413	0.7681185007
3763.1031848143	0.7676475048
3765.0319921873	0.7554078698
3766.9607995604	0.7540907860
3768.8896069334	0.7647867203
3770.8184143065	0.7557327747
3772.7472216795	0.7691977620
3774.6760290526	0.7678699493
3776.6048364256	0.7757822275
3778.5336437987	0.7599521875
3780.4624511717	0.7533145547
3782.3912585448	0.7703456879
3784.3200659178	0.7500460744
3786.2488732909	0.7584508657
3788.1776806639	0.7606206536
3790.1064880370	0.7657153606
3792.0352954100	0.7629564404
3793.9641027830	0.7474399209
3795.8929101561	0.7525856495
3797.8217175291	0.7431875467
3799.7505249022	0.7500177622
3801.6793322752	0.7356497049
3803.6081396483	0.7407910824
3805.5369470213	0.7609211802
3807.4657543944	0.7400816083
3809.3945617674	0.7447885871
3811.3233691405	0.7605720758
3813.2521765135	0.7604709268
3815.1809838866	0.7511402369
3817.1097912596	0.7488385439
3819.0385986327	0.7492358685
3820.9674060057	0.7337306142
3822.8962133787	0.7391608953
3824.8250207518	0.7580990195
3826.7538281248	0.7455996275
3828.6826354979	0.7341336012
3830.6114428709	0.7515818477
3832.5402502440	0.7499691248
3834.4690576170	0.7415767908
3836.3978649901	0.7344712019
3838.3266723631	0.7369462848
3840.2554797362	0.7402307391
3842.1842871092	0.7327718139
3844.1130944823	0.7478064299
3846.0419018553	0.7424474955
3847.9707092284	0.7310187221
3849.8995166014	0.7401250005
3851.8283239745	0.7411292791
3853.7571313475	0.7240344882
3855.6859387205	0.7436410189
3857.6147460936	0.7564976215
3859.5435534666	0.7320787311
3861.4723608397	0.7402176857
3863.4011682127	0.7280364037
3865.3299755858	0.7302696705
3867.2587829588	0.7528863549
3869.1875903319	0.7258662581
3871.1163977049	0.7464566231
3873.0452050780	0.7508821487
3874.9740124510	0.7291261554
3876.9028198241	0.7314080596
3878.8316271971	0.7340362072
3880.7604345702	0.7255657911
3882.6892419432	0.7162763476
3884.6180493162	0.7344701886
3886.5468566893	0.7141247392
3888.4756640623	0.7174800634
3890.4044714354	0.7435860038
3892.3332788084	0.7229063511
3894.2620861815	0.7252278924
3896.1908935545	0.7285394669
3898.1197009276	0.7338606119
3900.0485083006	0.7201361060
3901.9773156737	0.7109831572
3903.9061230467	0.7446921468
3905.8349304198	0.7353876233
3907.7637377928	0.7237751484
3909.6925451659	0.7256302834
3911.6213525389	0.7323744893
3913.5501599119	0.7408943176
3915.4789672850	0.7250278592
3917.4077746580	0.7289192677
3919.3365820311	0.7410880327
3921.2653894041	0.7472771406
3923.1941967772	0.7326106429
3925.1230041502	0.7072162032
3927.0518115233	0.7239556909
3928.9806188963	0.7380005121
3930.9094262694	0.7266486883
3932.8382336424	0.7231311798
3934.7670410155	0.7368705273
3936.6958483885	0.7392638922
3938.6246557616	0.7307605743
3940.5534631346	0.7235839367
3942.4822705076	0.7211200595
3944.4110778807	0.7416212559
3946.3398852537	0.7272554636
3948.2686926268	0.7142274976
3950.1974999998	0.7234810591
3952.1263073729	0.7186754346
3954.0551147459	0.7405397892
3955.9839221190	0.7276611328
3957.9127294920	0.7193310857
3959.8415368651	0.7342501879
3961.7703442381	0.7164587379
3963.6991516112	0.7299463153
3965.6279589842	0.7254507542
3967.5567663573	0.7081164718
3969.4855737303	0.7192134261
3971.4143811034	0.7269911170
3973.3431884764	0.7266490459
3975.2719958494	0.7212181687
3977.2008032225	0.7259910107
3979.1296105955	0.7169644237
3981.0584179686	0.7160998583
3982.9872253416	0.7242839932
3984.9160327147	0.7277387381
3986.8448400877	0.7295996547
3988.7736474608	0.7153115273
3990.7024548338	0.7196117640
3992.6312622069	0.7152901292
3994.5600695799	0.7279342413
3996.4888769530	0.7447940707
3998.4176843260	0.7113568187
4000.3464916991	0.7154116631
4002.2752990721	0.7257769108
4004.2041064451	0.7237307429
4006.1329138182	0.7264482379
4008.0617211912	0.7070140243
4009.9905285643	0.7229295373
4011.9193359373	0.7206436992
4013.8481433104	0.6987594366
4015.7769506834	0.7209539413
4017.7057580565	0.7251185179
4019.6345654295	0.7259858847
4021.5633728026	0.7247027755
4023.4921801756	0.7194712758
4025.4209875487	0.7246847153
4027.3497949217	0.7097558975
4029.2786022948	0.7256466150
4031.2074096678	0.7246078849
4033.1362170408	0.7042983770
4035.0650244139	0.7211678624
4036.9938317869	0.7102770209
4038.9226391600	0.7150588036
4040.8514465330	0.7313436866
4042.7802539061	0.7214943767
4044.7090612791	0.7176738381
4046.6378686522	0.7067792416
4048.5666760252	0.7074186206
4050.4954833983	0.7046529055
4052.4242907713	0.7054654360
4054.3530981444	0.7185033560
4056.2819055174	0.7083188295
4058.2107128905	0.7155235410
4060.1395202635	0.7325739861
4062.0683276365	0.7169071436
4063.9971350096	0.7081983089
4065.9259423826	0.7109635472
4067.8547497557	0.7091654539
4069.7835571287	0.7090321779
4071.7123645018	0.6997759342
4073.6411718748	0.7120735049
4075.5699792479	0.7132372856
4077.4987866209	0.6971712112
4079.4275939940	0.7160199881
4081.3564013670	0.7026032805
4083.2852087401	0.6928427815
4085.2140161131	0.7126622200
4087.1428234862	0.7154853344
4089.0716308592	0.7184726596
4091.0004382323	0.6972588897
4092.9292456053	0.7031146884
4094.8580529783	0.7182377577
4096.7868603514	0.6959485412
4098.7156677244	0.7043288350
4100.6444750975	0.7200710177
4102.5732824705	0.7090884447
4104.5020898436	0.6951189637
4106.4308972166	0.7127587795
4108.3597045897	0.7121835351
4110.2885119627	0.6835502386
4112.2173193358	0.6963233352
4114.1461267088	0.6950510144
4116.0749340819	0.6940561533
4118.0037414549	0.7101092935
4119.9325488280	0.7054487467
4121.8613562010	0.7101199031
4123.7901635740	0.7135862708
4125.7189709471	0.7133010030
4127.6477783201	0.7028165460
4129.5765856932	0.7159527540
4131.5053930662	0.7310956717
4133.4342004393	0.7109500766
4135.3630078123	0.7149505019
4137.2918151854	0.7016856670
4139.2206225584	0.7106617689
4141.1494299315	0.7304761410
4143.0782373045	0.7070694566
4145.0070446776	0.7233122587
4146.9358520506	0.7160596251
4148.8646594237	0.7003741860
4150.7934667967	0.6996225119
4152.7222741697	0.6841421723
4154.6510815428	0.7167955041
4156.5798889158	0.7107945085
4158.5086962889	0.6933340430
4160.4375036619	0.7273672819
4162.3663110350	0.7249870896
4164.2951184080	0.7115157843
4166.2239257811	0.6898201704
4168.1527331541	0.6917985082
4170.0815405272	0.7309886217
4172.0103479002	0.7171992660
4173.9391552733	0.7067484856
4175.8679626463	0.7191432118
4177.7967700194	0.7112580538
4179.7255773924	0.7005318999
4181.6543847654	0.6877987981
4183.5831921385	0.7031128407
4185.5119995115	0.7030400038
4187.4408068846	0.6838868260
4189.3696142576	0.6997113228
4191.2984216307	0.7082009912
4193.2272290037	0.7120805383
4195.1560363768	0.7187778354
4197.0848437498	0.6965507269
4199.0136511229	0.6689984202
4200.9424584959	0.6827468276
4202.8712658690	0.6890650988
4204.8000732420	0.6829705238
4206.7288806151	0.7086096406
4208.6576879881	0.6945232153
4210.5864953611	0.6956489086
4212.5153027342	0.7146586776
4214.4441101072	0.6861993074
4216.3729174803	0.6902706027
4218.3017248533	0.7176383734
4220.2305322264	0.7206975222
4222.1593395994	0.6914649010
4224.0881469725	0.6960280538
4226.0169543455	0.7150157094
4227.9457617186	0.6946541667
4229.8745690916	0.6944666505
4231.8033764647	0.6854345798
4233.7321838377	0.7016976476
4235.6609912108	0.7191073895
4237.5897985838	0.6876525283
4239.5186059569	0.6956528425
4241.4474133299	0.6933973432
4243.3762207029	0.6728684306
4245.3050280760	0.6883859634
4247.2338354490	0.6857997775
4249.1626428221	0.6813638210
4251.0914501951	0.7070754170
4253.0202575682	0.6926172972
4254.9490649412	0.6957172751
4256.8778723143	0.7230616808
4258.8066796873	0.6974425316
4260.7354870604	0.7059454322
4262.6642944334	0.6958719492
4264.5931018065	0.6778906584
4266.5219091795	0.7076855302
4268.4507165526	0.7020995617
4270.3795239256	0.7096748948
4272.3083312986	0.7065363526
4274.2371386717	0.6870854497
4276.1659460447	0.6947454810
4278.0947534178	0.6967303753
4280.0235607908	0.6937103868
4281.9523681639	0.6933746338
4283.8811755369	0.7053890824
4285.8099829100	0.6834779978
4287.7387902830	0.6843330264
4289.6675976561	0.7100092173
4291.5964050291	0.6880450249
4293.5252124022	0.6970414519
4295.4540197752	0.6877884865
4297.3828271483	0.6800727844
4299.3116345213	0.7059496045
4301.2404418943	0.6784235239
4303.1692492674	0.6895053983
4305.0980566404	0.7003404498
4307.0268640135	0.6775748730
4308.9556713865	0.7179871798
4310.8844787596	0.7049332857
4312.8132861326	0.6729191542
4314.7420935057	0.6943128109
4316.6709008787	0.6966711879
4318.5997082518	0.7031013370
4320.5285156248	0.7029688358
4322.4573229979	0.7305443883
4324.3861303709	0.7280752659
4326.3149377440	0.6857854724
4328.2437451170	0.7151940465
4330.1725524900	0.7003012896
4332.1013598631	0.6924870610
4334.0301672361	0.7241035700
4335.9589746092	0.6959045529
4337.8877819822	0.7014343739
4339.8165893553	0.7115905285
4341.7453967283	0.6791116595
4343.6742041014	0.6677975655
4345.6030114744	0.6856468916
4347.5318188475	0.6867137551
4349.4606262205	0.6963997483
4351.3894335936	0.6979886889
4353.3182409666	0.6770290732
4355.2470483397	0.7162520289
4357.1758557127	0.7274462581
4359.1046630858	0.7130814791
4361.0334704588	0.6992483139
4362.9622778318	0.6839637756
4364.8910852049	0.6939610243
4366.8198925779	0.6797864437
4368.7486999510	0.7268557549
4370.6775073240	0.7205220461
4372.6063146971	0.6856601834
4374.5351220701	0.7323616743
4376.4639294432	0.6922127008
4378.3927368162	0.6559402347
4380.3215441893	0.6787515283
4382.2503515623	0.7061221600
4384.1791589354	0.6940161586
4386.1079663084	0.6678906679
4388.0367736815	0.6782881021
4389.9655810545	0.6860451698
4391.8943884275	0.7146860957
4393.8231958006	0.7074488997
4395.7520031736	0.6991381049
4397.6808105467	0.6856466532
4399.6096179197	0.6920290589
4401.5384252928	0.7395192385
4403.4672326658	0.6980977654
4405.3960400389	0.6809231043
4407.3248474119	0.6687432528
4409.2536547850	0.6733863950
4411.1824621580	0.7173982859
4413.1112695311	0.6938861012
4415.0400769041	0.6890419722
4416.9688842772	0.6851199865
4418.8976916502	0.6997485757
4420.8264990232	0.7024546862
4422.7553063963	0.6836960316
4424.6841137693	0.7032573819
4426.6129211424	0.6911234856
4428.5417285154	0.6828282475
4430.4705358885	0.6874654293
4432.3993432615	0.7087598443
4434.3281506346	0.6944538355
4436.2569580076	0.6706109047
4438.1857653807	0.6878389716
4440.1145727537	0.6786493063
4442.0433801268	0.6918133497
4443.9721874998	0.6891296506
4445.9009948729	0.6947329640
4447.8298022459	0.6977193356
4449.7586096189	0.6625708938
4451.6874169920	0.6925777793
4453.6162243650	0.6893790960
4455.5450317381	0.6715378761
4457.4738391111	0.6881564856
4459.4026464842	0.6763312817
4461.3314538572	0.6750246286
4463.2602612303	0.6591283679
4465.1890686033	0.6551558971
4467.1178759764	0.6923140287
4469.0466833494	0.7044635415
4470.9754907225	0.6823222637
4472.9042980955	0.6622493863
4474.8331054686	0.6716234088
4476.7619128416	0.7020599246
4478.6907202147	0.7218827605
4480.6195275877	0.7012072802
4482.5483349607	0.6999064088
4484.4771423338	0.7269010544
4486.4059497068	0.6754417419
4488.3347570799	0.6659226418
4490.2635644529	0.7113399506
4492.1923718260	0.6861414909
4494.1211791990	0.7310239077
4496.0499865721	0.7398673296
4497.9787939451	0.6495644450
4499.9076013182	0.6597296000
4501.8364086912	0.6773604155
4503.7652160643	0.6949536800
4505.6940234373	0.7121981382
4507.6228308104	0.6648925543
4509.5516381834	0.6885193586
4511.4804455564	0.7000566721
4513.4092529295	0.6674543619
4515.3380603025	0.7111042142
4517.2668676756	0.6926778555
4519.1956750486	0.6668745875
4521.1244824217	0.7094873190
4523.0532897947	0.6834425330
4524.9820971678	0.6823547482
4526.9109045408	0.6969328523
4528.8397119139	0.6675893664
4530.7685192869	0.6693972349
4532.6973266600	0.6834186316
4534.6261340330	0.7101010084
4536.5549414061	0.6946820021
4538.4837487791	0.6760659218
4540.4125561521	0.6892636418
4542.3413635252	0.6798171997
4544.2701708982	0.6688833237
4546.1989782713	0.6771330833
4548.1277856443	0.7003318071
4550.0565930174	0.6744291782
4551.9854003904	0.6807889938
4553.9142077635	0.6909776926
4555.8430151365	0.6804575920
4557.7718225096	0.7257205844
4559.7006298826	0.6774587035
4561.6294372557	0.6597819924
4563.5582446287	0.6934203506
4565.4870520018	0.6598571539
4567.4158593748	0.6887705326
4569.3446667478	0.7063747048
4571.2734741209	0.6849045753
4573.2022814939	0.6961255074
4575.1310888670	0.7045469284
4577.0598962400	0.7006455064
4578.9887036131	0.7045416832
4580.9175109861	0.7107632756
4582.8463183592	0.6972073317
4584.7751257322	0.6891149879
4586.7039331053	0.6940351129
4588.6327404783	0.6918370724
4590.5615478514	0.6804016232
4592.4903552244	0.7061703801
4594.4191625975	0.7041080594
4596.3479699705	0.6772838235
4598.2767773435	0.6988235116
4600.2055847166	0.6845315695
4602.1343920896	0.7020814419
4604.0631994627	0.7085065842
4605.9920068357	0.6685231924
4607.9208142088	0.7018164992
4609.8496215818	0.6968171000
4611.7784289549	0.6602113843
4613.7072363279	0.6888351440
4615.6360437010	0.7039428353
4617.5648510740	0.6771116257
4619.4936584471	0.7104583979
4621.4224658201	0.7285911441
4623.3512731932	0.6552770734
4625.2800805662	0.6628308296
4627.2088879393	0.7212255001
4629.1376953123	0.6942582726
4631.0665026853	0.6597742438
4632.9953100584	0.6813111901
4634.9241174314	0.6535829306
4636.8529248045	0.6431198716
4638.7817321775	0.6786894798
4640.7105395506	0.6385114193
4642.6393469236	0.6815393567
4644.5681542967	0.7176841497
4646.4969616697	0.6662597060
4648.4257690428	0.6817817688
4650.3545764158	0.6684345007
4652.2833837889	0.6517637968
4654.2121911619	0.6703075171
4656.1409985350	0.6957948208
4658.0698059080	0.7096061110
4659.9986132810	0.6990514994
4661.9274206541	0.6857731938
4663.8562280271	0.6760774255
4665.7850354002	0.7085625529
4667.7138427732	0.6877695918
4669.6426501463	0.6660999656
4671.5714575193	0.6897144318
4673.5002648924	0.6702945232
4675.4290722654	0.6877718568
4677.3578796385	0.6806268096
4679.2866870115	0.6667956114
4681.2154943846	0.7091055512
4683.1443017576	0.6984593868
4685.0731091307	0.6955817938
4687.0019165037	0.7105705738
4688.9307238767	0.6778739095
4690.8595312498	0.6786341667
4692.7883386228	0.6911628246
4694.7171459959	0.6933069825
4696.6459533689	0.7151008844
4698.5747607420	0.6771830916
4700.5035681150	0.6661460400
4702.4323754881	0.7007601857
4704.3611828611	0.6875110865
4706.2899902342	0.6862871647
4708.2187976072	0.6959266067
4710.1476049803	0.7154561281
4712.0764123533	0.7183668613
4714.0052197264	0.7038718462
4715.9340270994	0.7099620104
4717.8628344724	0.7003636956
4719.7916418455	0.6903919578
4721.7204492185	0.6940357089
4723.6492565916	0.6910927892
4725.5780639646	0.6696029902
4727.5068713377	0.6816048622
4729.4356787107	0.7061492801
4731.3644860838	0.6846843362
4733.2932934568	0.6748232245
4735.2221008299	0.6972783208
4737.1509082029	0.6957343221
4739.0797155760	0.6729819179
4741.0085229490	0.7043706179
4742.9373303221	0.6812850237
4744.8661376951	0.6401584148
4746.7949450682	0.6725314856
4748.7237524412	0.6883624792
4750.6525598142	0.7071946263
4752.5813671873	0.6796023250
4754.5101745603	0.6826367974
4756.4389819334	0.7098321915
4758.3677893064	0.6878420711
4760.2965966795	0.6907835603
4762.2254040525	0.6650078297
4764.1542114256	0.6918188334
4766.0830187986	0.6838385463
4768.0118261717	0.6577127576
4769.9406335447	0.6574389338
4771.8694409178	0.6383106112
4773.7982482908	0.7594023347
4775.7270556639	0.7381203771
4777.6558630369	0.6634394526
4779.5846704099	0.7134227753
4781.5134777830	0.6763366461
4783.4422851560	0.6873088479
4785.3710925291	0.6935921907
4787.2998999021	0.6902934313
4789.2287072752	0.7175444365
4791.1575146482	0.6929517388
4793.0863220213	0.6951277852
4795.0151293943	0.7062274814
4796.9439367674	0.7204318047
4798.8727441404	0.6583459377
4800.8015515135	0.6302531362
4802.7303588865	0.7046626210
4804.6591662596	0.6947775483
4806.5879736326	0.6849243641
4808.5167810056	0.6921675801
4810.4455883787	0.7008342147
4812.3743957517	0.7131919265
4814.3032031248	0.6930492520
4816.2320104978	0.7161361575
4818.1608178709	0.6693847179
4820.0896252439	0.6745588779
4822.0184326170	0.7071872354
4823.9472399900	0.6514980793
4825.8760473631	0.7066440582
4827.8048547361	0.6932725906
4829.7336621092	0.6784837842
4831.6624694822	0.7214613557
4833.5912768553	0.6672236323
4835.5200842283	0.6981413960
4837.4488916013	0.6984587908
4839.3776989744	0.6613410711
4841.3065063474	0.6467092633
4843.2353137205	0.6957160830
4845.1641210935	0.7383033037
4847.0929284666	0.6812104583
4849.0217358396	0.7196559906
4850.9505432127	0.6756915450
4852.8793505857	0.6735088229
4854.8081579588	0.6957650781
4856.7369653318	0.6253919005
4858.6657727049	0.7096960545
4860.5945800779	0.7254787087
4862.5233874510	0.7096438408
4864.4521948240	0.6802653670
4866.3810021971	0.6617040038
4868.3098095701	0.7412981987
4870.2386169431	0.7128935456
4872.1674243162	0.7144836783
4874.0962316892	0.6889996529
4876.0250390623	0.6599386334
4877.9538464353	0.6938504577
4879.8826538084	0.6940259933
4881.8114611814	0.6647685766
4883.7402685545	0.6704512835
4885.6690759275	0.7248861194
4887.5978833006	0.6546865106
4889.5266906736	0.6759169102
4891.4554980467	0.6966452599
4893.3843054197	0.6497638822
4895.3131127928	0.7093303204
4897.2419201658	0.6556243300
4899.1707275388	0.6966221929
4901.0995349119	0.7507939339
4903.0283422849	0.6348578930
4904.9571496580	0.6473479867
4906.8859570310	0.7250897884
4908.8147644041	0.6855530739
4910.7435717771	0.6539631486
4912.6723791502	0.7117546797
4914.6011865232	0.6930733919
4916.5299938963	0.6743912697
4918.4588012693	0.6727892160
4920.3876086424	0.6763255596
4922.3164160154	0.6974986792
4924.2452233885	0.6761375070
4926.1740307615	0.7100492120
4928.1028381345	0.7133888602
4930.0316455076	0.6783670187
4931.9604528806	0.6133706570
4933.8892602537	0.6640036702
4935.8180676267	0.7504766583
4937.7468749998	0.6662325263
4939.6756823728	0.7324451208
4941.6044897459	0.6954663396
4943.5332971189	0.6319735050
4945.4621044920	0.7436723113
4947.3909118650	0.7068591118
4949.3197192381	0.6569738388
4951.2485266111	0.6537958384
4953.1773339842	0.6914083958
4955.1061413572	0.6965293884
4957.0349487302	0.6742337346
4958.9637561033	0.6932874918
4960.8925634763	0.6480181217
4962.8213708494	0.6562388539
4964.7501782224	0.6754087210
4966.6789855955	0.6840564013
4968.6077929685	0.7032469511
4970.5366003416	0.6946265697
4972.4654077146	0.7310985327
4974.3942150877	0.7382691503
4976.3230224607	0.6821993589
4978.2518298338	0.6726925969
4980.1806372068	0.7024560571
4982.1094445799	0.6722191572
4984.0382519529	0.6772985458
4985.9670593259	0.7147107124
4987.8958666990	0.6728108525
4989.8246740720	0.6388224363
4991.7534814451	0.6846053600
4993.6822888181	0.7134657502
4995.6110961912	0.6623096466
4997.5399035642	0.6982247233
4999.4687109373	0.6819335222
5001.3975183103	0.6438038349
5003.3263256834	0.7024347186
5005.2551330564	0.6609483361
5007.1839404295	0.6767673492
5009.1127478025	0.7073233724
5011.0415551756	0.6759817004
5012.9703625486	0.7022578120
5014.8991699217	0.6772028208
5016.8279772947	0.6352985501
5018.7567846677	0.6852519512
5020.6855920408	0.7373225689
5022.6143994138	0.6489049196
5024.5432067869	0.7012135386
5026.4720141599	0.7569237947
5028.4008215330	0.6396838427
5030.3296289060	0.7173601389
5032.2584362791	0.7255355716
5034.1872436521	0.6658763885
5036.1160510252	0.6410532594
5038.0448583982	0.6475004554
5039.9736657713	0.7795532346
5041.9024731443	0.7044910789
5043.8312805174	0.6422725916
5045.7600878904	0.6929817796
5047.6888952634	0.6975569725
5049.6177026365	0.7370693684
5051.5465100095	0.6858236194
5053.4753173826	0.6411524415
5055.4041247556	0.6636000872
5057.3329321287	0.6419470906
5059.2617395017	0.6210668087
5061.1905468748	0.6712484360
5063.1193542478	0.6672083139
5065.0481616209	0.6690770984
5066.9769689939	0.7663778067
5068.9057763670	0.6864317060
5070.8345837400	0.6607502103
5072.7633911131	0.7127038240
5074.6921984861	0.6555401087
5076.6210058591	0.6777314544
5078.5498132322	0.6825335026
5080.4786206052	0.6703820229
5082.4074279783	0.6770154238
5084.3362353513	0.6814328432
5086.2650427244	0.7096608877
5088.1938500974	0.7112262845
5090.1226574705	0.6909985542
5092.0514648435	0.6438717842
5093.9802722166	0.6969150901
5095.9090795896	0.7076794505
5097.8378869627	0.6352040172
5099.7666943357	0.6815959811
5101.6955017088	0.6818252802
5103.6243090818	0.6505947113
5105.5531164548	0.6840717196
5107.4819238279	0.6777099967
5109.4107312009	0.6972362995
5111.3395385740	0.7671878338
5113.2683459470	0.6844061017
5115.1971533201	0.6203430295
5117.1259606931	0.7198125124
5119.0547680662	0.6926694512
5120.9835754392	0.6424477100
5122.9123828123	0.6831380129
5124.8411901853	0.6643354297
5126.7699975584	0.6355635524
5128.6988049314	0.6344022155
5130.6276123045	0.7014389634
5132.5564196775	0.7374308705
5134.4852270506	0.6588529944
5136.4140344236	0.6463455558
5138.3428417966	0.6543778181
5140.2716491697	0.6420890689
5142.2004565427	0.6667830944
5144.1292639158	0.6354761720
5146.0580712888	0.6808828115
5147.9868786619	0.7178847194
5149.9156860349	0.6231663227
5151.8444934080	0.6424384713
5153.7733007810	0.6667098999
5155.7021081541	0.7108120918
5157.6309155271	0.7394976616
5159.5597229002	0.6656803489
5161.4885302732	0.7072603703
5163.4173376463	0.6772745252
5165.3461450193	0.6827635169
5167.2749523923	0.7369814515
5169.2037597654	0.6592416763
5171.1325671384	0.6594116092
5173.0613745115	0.6609908342
5174.9901818845	0.6645836830
5176.9189892576	0.7239055037
5178.8477966306	0.7135671973
5180.7766040037	0.6980786324
5182.7054113767	0.7278482914
5184.6342187498	0.7236391902
5186.5630261228	0.6894491315
5188.4918334959	0.7425789833
5190.4206408689	0.7467496991
5192.3494482420	0.6977333426
5194.2782556150	0.7188007832
5196.2070629880	0.7079244852
5198.1358703611	0.6882522702
5200.0646777341	0.6856635213
5201.9934851072	0.6844463348
5203.9222924802	0.6809785962
5205.8510998533	0.6318673491
5207.7799072263	0.6373286843
5209.7087145994	0.7138691545
5211.6375219724	0.6975752115
5213.5663293455	0.6594272852
5215.4951367185	0.7268005013
5217.4239440916	0.7495713830
5219.3527514646	0.6608720422
5221.2815588377	0.6749541163
5223.2103662107	0.7312704921
5225.1391735837	0.7134746909
5227.0679809568	0.7089404464
5228.9967883298	0.6678928733
5230.9255957029	0.7012806535
5232.8544030759	0.7289124727
5234.7832104490	0.6444621682
5236.7120178220	0.6963129044
5238.6408251951	0.7060196996
5240.5696325681	0.6833441854
5242.4984399412	0.7145898938
5244.4272473142	0.6681635380
5246.3560546873	0.7177223563
5248.2848620603	0.7437068224
5250.2136694334	0.6276591420
5252.1424768064	0.6142467260
5254.0712841795	0.6864140630
5256.0000915525	0.6974572539
5257.9288989255	0.6808555126
5259.8577062986	0.7249935269
5261.7865136716	0.7549878955
5263.7153210447	0.6727345586
5265.6441284177	0.6123201847
5267.5729357908	0.6738736033
5269.5017431638	0.6856107712
5271.4305505369	0.6961153150
5273.3593579099	0.7467032075
5275.2881652830	0.7182948589
5277.2169726560	0.6613922119
5279.1457800291	0.6682168841
5281.0745874021	0.7497668862
5283.0033947752	0.6853951812
5284.9322021482	0.6739107370
5286.8610095212	0.6996811628
5288.7898168943	0.6922351122
5290.7186242673	0.7639338374
5292.6474316404	0.6454067826
5294.5762390134	0.6575983167
5296.5050463865	0.7082059383
5298.4338537595	0.6849759221
5300.3626611326	0.7616407275
5302.2914685056	0.6408940554
5304.2202758787	0.6904773712
5306.1490832517	0.7408502102
5308.0778906248	0.6328941584
5310.0066979978	0.6940502524
5311.9355053709	0.6749474406
5313.8643127439	0.7009480000
5315.7931201169	0.7518941760
5317.7219274900	0.6786401868
5319.6507348630	0.6973078251
5321.5795422361	0.6502999067
5323.5083496091	0.5702693462
5325.4371569822	0.6671740413
5327.3659643552	0.6954954863
5329.2947717283	0.6101638675
5331.2235791013	0.5942631960
5333.1523864744	0.7322360277
5335.0811938474	0.8091120124
5337.0100012205	0.5940459371
5338.9388085935	0.7460523248
5340.8676159666	0.8584426045
5342.7964233396	0.6263226867
5344.7252307126	0.7176982164
5346.6540380857	0.6289992929
5348.5828454587	0.6411494017
5350.5116528318	0.7585191131
5352.4404602048	0.6543830633
5354.3692675779	0.6638947129
5356.2980749509	0.6138347387
5358.2268823240	0.6493874192
5360.1556896970	0.6423268318
5362.0844970701	0.6620465517
5364.0133044431	0.7125201225
5365.9421118162	0.6186828017
5367.8709191892	0.6130050421
5369.7997265623	0.6654674411
5371.7285339353	0.7477895021
5373.6573413083	0.6955353618
5375.5861486814	0.7363848090
5377.5149560544	0.7123988867
5379.4437634275	0.6601750851
5381.3725708005	0.7627553344
5383.3013781736	0.6611546874
5385.2301855466	0.6663731337
5387.1589929197	0.6906346083
5389.0878002927	0.7165861130
5391.0166076658	0.7008412480
5392.9454150388	0.5966979861
5394.8742224119	0.6956368089
5396.8030297849	0.6608299017
5398.7318371580	0.6681675911
5400.6606445310	0.7778813243
5402.5894519041	0.7574284673
5404.5182592771	0.6439067721
5406.4470666501	0.6673476696
5408.3758740232	0.7466474771
5410.3046813962	0.5977312922
5412.2334887693	0.6442835331
5414.1622961423	0.6893173456
5416.0911035154	0.6762284040
5418.0199108884	0.7680824399
5419.9487182615	0.7109067440
5421.8775256345	0.6690915227
5423.8063330076	0.6964535713
5425.7351403806	0.7236440182
5427.6639477537	0.6286605597
5429.5927551267	0.6801166534
5431.5215624998	0.7421057820
5433.4503698728	0.6332567930
5435.3791772458	0.6599940658
5437.3079846189	0.6831382513
5439.2367919919	0.6721672416
5441.1655993650	0.5957759023
5443.0944067380	0.6162114143
5445.0232141111	0.6543773413
5446.9520214841	0.6042674780
5448.8808288572	0.6419037580
5450.8096362302	0.6480365396
5452.7384436033	0.7305610776
5454.6672509763	0.6840304732
5456.5960583494	0.5752546787
5458.5248657224	0.6993551254
5460.4536730955	0.7833752036
5462.3824804685	0.7357917428
5464.3112878415	0.6390005946
5466.2400952146	0.5713632107
5468.1689025876	0.5585266352
5470.0977099607	0.5858248472
5472.0265173337	0.5961266160
5473.9553247068	0.6651040912
5475.8841320798	0.7835298777
5477.8129394529	0.7836102247
5479.7417468259	0.6886013746
5481.6705541990	0.5808259249
5483.5993615720	0.6328512430
5485.5281689451	0.6859281063
5487.4569763181	0.6861869693
5489.3857836912	0.6630508304
5491.3145910642	0.6169927716
5493.2433984372	0.7457751036
5495.1722058103	0.7760193348
5497.1010131833	0.7257740498
5499.0298205564	0.6658161283
5500.9586279294	0.6294881105
5502.8874353025	0.7891964316
5504.8162426755	0.8754771948
5506.7450500486	0.7328242064
5508.6738574216	0.6402278543
5510.6026647947	0.7129383087
5512.5314721677	0.7120975256
5514.4602795408	0.7001798749
5516.3890869138	0.6920509338
5518.3178942869	0.5942122340
5520.2467016599	0.7234175801
5522.1755090330	0.7474843264
5524.1043164060	0.7129637003
5526.0331237790	0.8172087073
5527.9619311521	0.7079303861
5529.8907385251	0.6835867167
5531.8195458982	0.5878461599
5533.7483532712	0.5500341654
5535.6771606443	0.7247833014
5537.6059680173	0.6730779409
5539.5347753904	0.6871218085
5541.4635827634	0.6842007041
5543.3923901365	0.6971046925
5545.3211975095	0.7718780041
5547.2500048826	0.6252179146
5549.1788122556	0.6618319154
5551.1076196287	0.7711520791
5553.0364270017	0.7123463154
5554.9652343747	0.6004071832
5556.8940417478	0.7097860575
5558.8228491208	0.8148527145
5560.7516564939	0.5912694931
5562.6804638669	0.6326010823
5564.6092712400	0.6375132799
5566.5380786130	0.7448938489
5568.4668859861	0.8857060671
5570.3956933591	0.6373308301
5572.3245007322	0.5953354836
5574.2533081052	0.5741993785
5576.1821154783	0.6547583938
5578.1109228513	0.7197791338
5580.0397302244	0.6975902915
5581.9685375974	0.7389373183
5583.8973449704	0.6512506008
5585.8261523435	0.7813041806
5587.7549597165	0.7634701133
5589.6837670896	0.7027207017
5591.6125744626	0.7150678039
5593.5413818357	0.6714811921
5595.4701892087	0.7453621030
5597.3989965818	0.6933622360
5599.3278039548	0.6677123904
5601.2566113279	0.6981021762
5603.1854187009	0.7202240825
5605.1142260740	0.6547362804
5607.0430334470	0.6602328420
5608.9718408201	0.7781282663
5610.9006481931	0.7061309218
5612.8294555661	0.6366083622
5614.7582629392	0.6532044411
5616.6870703122	0.7247840762
5618.6158776853	0.6883006096
5620.5446850583	0.7605169415
5622.4734924314	0.6289305687
5624.4022998044	0.4756880105
5626.3311071775	0.7742946744
5628.2599145505	0.7003704309
5630.1887219236	0.6311364770
5632.1175292966	0.7482456565
5634.0463366697	0.7169235349
5635.9751440427	0.8244520426
5637.9039514158	0.6382132769
5639.8327587888	0.5239515901
5641.7615661619	0.6799522042
5643.6903735349	0.6214398742
5645.6191809079	0.6772084832
5647.5479882810	0.7162637115
5649.4767956540	0.5948505998
5651.4056030271	0.7971758842
5653.3344104001	0.7487594485
5655.2632177732	0.5766034126
5657.1920251462	0.7553224564
5659.1208325193	0.5847425461
5661.0496398923	0.5501015782
5662.9784472654	0.8437301517
5664.9072546384	0.6778922081
5666.8360620115	0.5046867728
5668.7648693845	0.6109257340
5670.6936767576	0.7557265759
5672.6224841306	0.7486872077
5674.5512915036	0.8070211411
5676.4800988767	0.7682800889
5678.4089062497	0.6095797420
5680.3377136228	0.6233819127
5682.2665209958	0.5852965117
5684.1953283689	0.6464582086
5686.1241357419	0.7237024307
5688.0529431150	0.6982412338
5689.9817504880	0.7524749041
5691.9105578611	0.7672880888
5693.8393652341	0.7903061509
5695.7681726072	0.8746308088
5697.6969799802	0.8872430921
5699.6257873533	0.8909465671
5701.5545947263	0.8280089498
5703.4834020993	0.6989680529
5705.4122094724	0.7480602264
5707.3410168454	0.7200059295
5709.2698242185	0.6736502051
5711.1986315915	0.6568661928
5713.1274389646	0.5652490854
5715.0562463376	0.5719205737
5716.9850537107	0.6592591405
5718.9138610837	0.9707745314
5720.8426684568	0.8149487376
5722.7714758298	0.6696658134
5724.7002832029	0.6563442349
5726.6290905759	0.4460179806
5728.5578979490	0.6659818292
5730.4867053220	0.8438320756
5732.4155126950	0.7267993689
5734.3443200681	0.6807698011
5736.2731274411	0.6504347920
5738.2019348142	0.8078752160
5740.1307421872	0.8266787529
5742.0595495603	0.7347580791
5743.9883569333	0.6360487342
5745.9171643064	0.5964771509
5747.8459716794	0.7040970922
5749.7747790525	0.7242189646
5751.7035864255	0.7530539036
5753.6323937986	0.8448080420
5755.5612011716	0.7669944167
5757.4900085447	0.7627784610
5759.4188159177	0.6792312264
5761.3476232907	0.5709283352
5763.2764306638	0.7376395464
5765.2052380368	0.6265623569
5767.1340454099	0.6115244627
5769.0628527829	0.8068649769
5770.9916601560	0.7098570466
5772.9204675290	0.6530967951
5774.8492749021	0.5743395090
5776.7780822751	0.5962763429
5778.7068896482	0.6011425853
5780.6356970212	0.6759467721
5782.5645043943	0.8226591945
5784.4933117673	0.6829928756
5786.4221191404	0.7597740889
5788.3509265134	0.7123957276
5790.2797338865	0.7169665694
5792.2085412595	0.8396741748
5794.1373486325	0.7700566053
5796.0661560056	0.7031636834
5797.9949633786	0.6615348458
5799.9237707517	0.8383232355
5801.8525781247	0.8212872148
5803.7813854978	0.7814052701
5805.7101928708	0.8586179018
5807.6390002439	0.8156815171
5809.5678076169	0.9463680387
5811.4966149900	0.8458479643
5813.4254223630	0.7388874292
5815.3542297361	0.7816364169
5817.2830371091	0.7517637610
5819.2118444822	0.7823215723
5821.1406518552	0.8078210950
5823.0694592282	0.7681271434
5824.9982666013	0.6992510557
5826.9270739743	0.6217013001
5828.8558813474	0.7334465981
5830.7846887204	0.6043384671
5832.7134960935	0.5108218789
5834.6423034665	0.8288880587
5836.5711108396	0.8126698136
5838.4999182126	0.6564708352
5840.4287255857	0.7860584855
5842.3575329587	0.6630381346
5844.2863403318	0.5875297785
5846.2151477048	0.5342386961
5848.1439550779	0.7077167034
5850.0727624509	0.6618257165
5852.0015698239	0.6031855345
5853.9303771970	0.8054138422
5855.8591845700	0.5678394437
5857.7879919431	0.7206150889
5859.7167993161	0.8182299733
5861.6456066892	0.5524451137
5863.5744140622	0.5303893685
5865.5032214353	0.5099419355
5867.4320288083	0.6866447926
5869.3608361814	0.9035506845
5871.2896435544	0.7506844401
5873.2184509275	0.7312634587
5875.1472583005	0.8233136535
5877.0760656736	0.6513092518
5879.0048730466	0.7484979033
5880.9336804196	0.7888517380
5882.8624877927	0.5824432373
5884.7912951657	0.8779525757
5886.7201025388	0.8227392435
5888.6489099118	0.6729723811
5890.5777172849	0.8200758100
5892.5065246579	0.8591817617
5894.4353320310	0.9288167953
5896.3641394040	0.7316076756
5898.2929467771	0.7662479281
5900.2217541501	0.6610189080
5902.1505615232	0.5055869818
5904.0793688962	0.7142956257
5906.0081762693	0.6322671175
5907.9369836423	0.6027563810
5909.8657910154	0.6923188567
5911.7945983884	0.6773921251
5913.7234057614	0.7936949730
5915.6522131345	0.7809752822
5917.5810205075	0.6399153471
5919.5098278806	0.6852509379
5921.4386352536	0.7794154286
5923.3674426267	0.7449929714
5925.2962499997	0.5972948670
5927.2250573728	0.4558250606
5929.1538647458	0.5748890638
5931.0826721189	0.7644445896
5933.0114794919	0.6323802471
5934.9402868650	0.7639642358
5936.8690942380	0.8396490812
5938.7979016111	0.7079936266
5940.7267089841	0.6859570742
5942.6555163571	0.5572449565
5944.5843237302	0.8185387850
5946.5131311032	0.9482730627
5948.4419384763	0.7341140509
5950.3707458493	0.8477235436
5952.2995532224	0.6498211026
5954.2283605954	0.6779187918
5956.1571679685	0.6870070696
5958.0859753415	0.4753783643
5960.0147827146	0.7235006094
5961.9435900876	0.8378590941
5963.8723974607	0.8596583009
5965.8012048337	1.0121915340
5967.7300122068	0.8046422005
5969.6588195798	0.6680685878
5971.5876269528	0.6471412778
5973.5164343259	0.6850669384
5975.4452416989	0.8827704191
5977.3740490720	0.9459043145
5979.3028564450	0.7912452817
5981.2316638181	0.7374613881
5983.1604711911	0.5856769681
5985.0892785642	0.5485854149
5987.0180859372	0.9167248607
5988.9468933103	0.9336061478
5990.8757006833	0.7654827237
5992.8045080564	0.4998288155
5994.7333154294	0.6859014630
5996.6621228025	0.9415076971
5998.5909301755	0.8077271581
6000.5197375485	0.7998031378
