399.2631262207	2.2865488529
401.1919335938	0.0881567672
403.1207409668	1.3230289221
405.0495483398	0.6901313066
406.9783557129	1.4619145393
408.9071630859	2.0432043076
410.8359704590	0.9522011876
412.7647778320	2.9812693596
414.6935852051	0.3544500470
416.6223925781	0.9882147312
418.5511999512	-0.2956049740
420.4800073242	0.3256417513
422.4088146973	1.7390528917
424.3376220703	0.4532406926
426.2664294434	1.0693767071
428.1952368164	24.7005023956
430.1240441895	11.5139722824
432.0528515625	3.2363798618
433.9816589355	2.5715880394
435.9104663086	3.4707965851
437.8392736816	0.5390375853
439.7680810547	0.1203408986
441.6968884277	0.3281348944
443.6256958008	-0.0460392125
445.5545031738	-0.0817340761
447.4833105469	1.3148047924
449.4121179199	0.4045914114
451.3409252930	0.1523111612
453.2697326660	2.3387496471
455.1985400391	-20.0992050171
457.1273474121	2.4609389305
459.0561547852	0.3819836676
460.9849621582	0.2469810396
462.9137695313	0.4550150037
464.8425769043	0.4379965961
466.7713842773	1.4618170261
468.7001916504	1.0627772808
470.6289990234	0.7803044319
472.5578063965	0.3481085896
474.4866137695	0.1789443344
476.4154211426	1.2959315777
478.3442285156	0.3084945977
480.2730358887	-1.4662195444
482.2018432617	7.8171648979
484.1306506348	1.2359797955
486.0594580078	4.4416284561
487.9882653809	1.1208866835
489.9170727539	0.9155555964
491.8458801270	1.6762679815
493.7746875000	-0.8863466382
495.7034948730	2.5452363491
497.6323022461	0.7027355433
499.5611096191	0.8935899734
501.4899169922	0.6455165744
503.4187243652	0.5616996288
505.3475317383	0.8501001000
507.2763391113	0.4948934913
509.2051464844	0.3564558029
511.1339538574	0.4474938512
513.0627612305	-0.7028959394
514.9915686035	0.5421571136
516.9203759766	1.9947137833
518.8491833496	0.9448999166
520.7779907227	0.8245359659
522.7067980957	3.9744663239
524.6356054688	0.8519119024
526.5644128418	1.0532691479
528.4932202148	1.3426960707
530.4220275879	0.8543894887
532.3508349609	2.6446712017
534.2796423340	1.2795956135
536.2084497070	1.7030918598
538.1372570801	2.9933443069
540.0660644531	0.3136004508
541.9948718262	4.3741550446
543.9236791992	2.9360198975
545.8524865723	1.2179129124
547.7812939453	1.7221146822
549.7101013184	0.7261772752
551.6389086914	0.5510795712
553.5677160645	0.2858153582
555.4965234375	0.0986331329
557.4253308105	0.3564985096
559.3541381836	0.4011219740
561.2829455566	0.8635935783
563.2117529297	0.8343029618
565.1405603027	1.0047678947
567.0693676758	1.3257392645
568.9981750488	1.0361436605
570.9269824219	1.1174262762
572.8557897949	0.5386827588
574.7845971680	0.8524173498
576.7134045410	1.2262454033
578.6422119141	0.7981321812
580.5710192871	0.4342841804
582.4998266602	0.8531050682
584.4286340332	0.6641508937
586.3574414063	0.8947892189
588.2862487793	2.1164247990
590.2150561523	-0.0909886360
592.1438635254	0.6009249091
594.0726708984	0.7317541838
596.0014782715	0.4021137059
597.9302856445	1.0341141224
599.8590930176	0.6769687533
601.7879003906	1.1557426453
603.7167077637	5.9142079353
605.6455151367	0.5143979788
607.5743225098	1.3276100159
609.5031298828	1.8014036417
611.4319372559	0.1906348765
613.3607446289	0.3683691025
615.2895520020	0.4571627080
617.2183593750	0.7598478198
619.1471667480	2.4530844688
621.0759741211	0.8962307572
623.0047814941	1.0235710144
624.9335888672	1.3431633711
626.8623962402	0.7312833071
628.7912036133	1.0207498074
630.7200109863	0.7272258401
632.6488183594	0.9760425687
634.5776257324	0.8929119706
636.5064331055	0.0639163926
638.4352404785	0.8610150218
640.3640478516	0.7194882035
642.2928552246	1.2123401165
644.2216625977	0.7664141655
646.1504699707	0.4351845980
648.0792773438	1.9178487062
650.0080847168	0.8926911354
651.9368920898	1.0822244883
653.8656994629	1.6254497766
655.7945068359	0.7513669133
657.7233142090	0.8305397630
659.6521215820	0.5398533940
661.5809289551	0.5103953481
663.5097363281	0.5553911328
665.4385437012	0.6789322495
667.3673510742	0.9167445898
669.2961584473	1.1366132498
671.2249658203	0.7709511518
673.1537731934	0.9146615863
675.0825805664	1.1796669960
677.0113879395	0.8146040440
678.9401953125	1.2695280313
680.8690026855	0.7402260303
682.7978100586	0.7864969373
684.7266174316	1.1471140385
686.6554248047	0.4603730142
688.5842321777	0.7795484662
690.5130395508	1.1352959871
692.4418469238	1.3618755341
694.3706542969	1.3368560076
696.2994616699	0.6743227243
698.2282690430	0.9846261740
700.1570764160	0.8380251527
702.0858837891	0.9212872982
704.0146911621	1.1958843470
705.9434985352	0.8550693989
707.8723059082	1.1650840044
709.8011132813	0.7417676449
711.7299206543	0.6022940874
713.6587280273	0.6067155600
715.5875354004	0.7349460721
717.5163427734	1.2951773405
719.4451501465	1.2043434381
721.3739575195	0.8910904527
723.3027648926	1.2170580626
725.2315722656	1.0395182371
727.1603796387	0.8388323188
729.0891870117	0.8501431346
731.0179943848	1.1104669571
732.9468017578	0.8700357676
734.8756091309	0.7290938497
736.8044165039	0.7899851799
738.7332238770	0.8646835089
740.6620312500	2.4517788887
742.5908386230	1.1572152376
744.5196459961	0.7023334503
746.4484533691	1.1683762074
748.3772607422	1.0600062609
750.3060681152	0.8608266115
752.2348754883	0.8531135917
754.1636828613	0.6250545979
756.0924902344	0.7252066135
758.0212976074	1.1830884218
759.9501049805	1.4750261307
761.8789123535	1.3397190571
763.8077197266	0.9443887472
765.7365270996	1.0698553324
767.6653344727	0.8689123392
769.5941418457	0.6959218383
771.5229492188	1.0570853949
773.4517565918	1.0374928713
775.3805639648	0.7294383645
777.3093713379	0.6802858114
779.2381787109	0.8519318104
781.1669860840	0.8467338085
783.0957934570	1.3789068460
785.0246008301	1.9281759262
786.9534082031	0.9646440744
788.8822155762	0.9273855686
790.8110229492	0.8599423766
792.7398303223	0.7561089993
794.6686376953	0.7536892891
796.5974450684	0.7067266107
798.5262524414	1.1481639147
800.4550598145	0.6886350513
802.3838671875	0.6410759091
804.3126745605	1.0226137638
806.2414819336	0.9911352396
808.1702893066	1.5502135754
810.0990966797	1.0814996958
812.0279040527	0.8597348332
813.9567114258	0.8053582907
815.8855187988	0.8629028201
817.8143261719	1.5913242102
819.7431335449	1.0755630732
821.6719409180	0.7692546248
823.6007482910	0.9381359816
825.5295556641	0.8314201236
827.4583630371	0.7389090657
829.3871704102	0.8645738959
831.3159777832	0.9574608207
833.2447851563	1.1362365484
835.1735925293	1.0337284803
837.1023999023	0.7680420280
839.0312072754	1.0850566626
840.9600146484	0.9458060265
842.8888220215	0.7748271227
844.8176293945	0.7673874497
846.7464367676	0.8073431253
848.6752441406	1.1867457628
850.6040515137	0.9326787591
852.5328588867	1.0476977825
854.4616662598	1.2113395929
856.3904736328	0.7137519121
858.3192810059	0.6623879075
860.2480883789	0.9119762778
862.1768957520	1.0570130348
864.1057031250	0.8447654843
866.0345104980	0.8608612418
867.9633178711	0.8360936642
869.8921252441	1.0334719419
871.8209326172	1.2716090679
873.7497399902	0.5258030295
875.6785473633	0.6248396039
877.6073547363	0.8463239670
879.5361621094	0.7464770675
881.4649694824	0.9354769588
883.3937768555	1.0537165403
885.3225842285	1.1339982748
887.2513916016	1.0403116941
889.1801989746	1.0422058105
891.1090063477	0.9671143889
893.0378137207	0.9198223948
894.9666210938	1.0450618267
896.8954284668	0.8637883663
898.8242358398	0.9506633282
900.7530432129	1.0430545807
902.6818505859	0.9950464964
904.6106579590	0.9287025332
906.5394653320	0.7287702560
908.4682727051	0.9379556179
910.3970800781	0.9919497371
912.3258874512	0.8180820346
914.2546948242	0.8945994973
916.1835021973	1.0294831991
918.1123095703	1.2859592438
920.0411169434	0.9469075799
921.9699243164	0.8532971144
923.8987316895	1.0751452446
925.8275390625	0.9097793102
927.7563464355	0.9083661437
929.6851538086	1.0473582745
931.6139611816	0.9966577291
933.5427685547	0.8712445498
935.4715759277	0.9422438145
937.4003833008	1.0114885569
939.3291906738	0.9675172567
941.2579980469	0.9226635695
943.1868054199	0.8054566383
945.1156127930	0.9387903214
947.0444201660	1.0037508011
948.9732275391	0.9107016325
950.9020349121	1.0635567904
952.8308422852	1.0001726151
954.7596496582	1.0081315041
956.6884570313	0.9526698589
958.6172644043	0.7980269194
960.5460717773	0.9049097300
962.4748791504	0.7938643098
964.4036865234	0.8766236305
966.3324938965	0.9620361328
968.2613012695	0.9487176538
970.1901086426	1.1010779142
972.1189160156	0.8227638602
974.0477233887	0.8938972950
975.9765307617	0.8292651772
977.9053381348	0.7385278940
979.8341455078	1.0674879551
981.7629528809	0.8353286386
983.6917602539	0.8605959415
985.6205676270	0.9083982706
987.5493750000	0.8568141460
989.4781823730	1.2446572781
991.4069897461	0.8895640969
993.3357971191	0.7515800595
995.2646044922	0.8129485250
997.1934118652	0.5989965200
999.1222192383	0.7540827990
1001.0510266113	0.8577172756
1002.9798339844	0.9282518029
1004.9086413574	0.9337262511
1006.8374487305	0.5758568048
1008.7662561035	0.6948377490
1010.6950634766	1.0195505619
1012.6238708496	0.8238266110
1014.5526782227	0.9202334881
1016.4814855957	0.9708064198
1018.4102929688	0.7313447595
1020.3391003418	0.7364338636
1022.2679077148	0.8335090876
1024.1967150879	0.7726404071
1026.1255224609	0.6922177076
1028.0543298340	0.7582362890
1029.9831372070	0.7221672535
1031.9119445801	0.6898245811
1033.8407519531	0.7379238009
1035.7695593262	0.7162572742
1037.6983666992	0.7235817313
1039.6271740723	0.7461246848
1041.5559814453	0.7180479765
1043.4847888184	0.7579799891
1045.4135961914	0.8053926826
1047.3424035645	0.7594286203
1049.2712109375	0.8073874712
1051.2000183105	0.7181128263
1053.1288256836	0.6483374834
1055.0576330566	0.7878485322
1056.9864404297	0.7597479224
1058.9152478027	0.7585120797
1060.8440551758	0.6894916892
1062.7728625488	0.6574718952
1064.7016699219	0.7700024247
1066.6304772949	0.7636524439
1068.5592846680	0.8424187303
1070.4880920410	0.8687316775
1072.4168994141	0.7630378604
1074.3457067871	0.7695457339
1076.2745141602	0.7715365291
1078.2033215332	0.7704048753
1080.1321289062	0.8484990597
1082.0609362793	0.7435731888
1083.9897436523	0.7449271083
1085.9185510254	0.8125998378
1087.8473583984	0.7275136113
1089.7761657715	0.8045700192
1091.7049731445	0.7924937010
1093.6337805176	0.8947167993
1095.5625878906	0.9817415476
1097.4913952637	0.8214951754
1099.4202026367	0.9008799195
1101.3490100098	0.9273750186
1103.2778173828	0.8638026118
1105.2066247559	0.7856709957
1107.1354321289	0.8319900036
1109.0642395019	0.8182961941
1110.9930468750	0.7235743999
1112.9218542480	0.8614948988
1114.8506616211	0.7330056429
1116.7794689941	0.7023977637
1118.7082763672	0.8202720881
1120.6370837402	0.7933012843
1122.5658911133	0.8269988894
1124.4946984863	0.6568489075
1126.4235058594	0.7308623791
1128.3523132324	0.8405566216
1130.2811206055	0.7884064317
1132.2099279785	1.0117455721
1134.1387353516	0.8371379375
1136.0675427246	0.7271691561
1137.9963500977	0.8952740431
1139.9251574707	0.7175512910
1141.8539648437	0.7957059741
1143.7827722168	0.8925119638
1145.7115795898	0.7165632248
1147.6403869629	0.8250833154
1149.5691943359	0.7760310173
1151.4980017090	0.7316080928
1153.4268090820	0.8083292246
1155.3556164551	0.7397505045
1157.2844238281	0.7218794227
1159.2132312012	0.7328843474
1161.1420385742	0.8132032156
1163.0708459473	0.7637004852
1164.9996533203	0.6967807412
1166.9284606934	0.6960588098
1168.8572680664	0.7409740686
1170.7860754394	0.7703342438
1172.7148828125	0.6321408749
1174.6436901855	0.6508436203
1176.5724975586	0.7331051230
1178.5013049316	0.7971865535
1180.4301123047	0.8218151927
1182.3589196777	0.7666037083
1184.2877270508	0.8352646828
1186.2165344238	0.7727901936
1188.1453417969	0.6909534931
1190.0741491699	0.6727495790
1192.0029565430	0.7153171897
1193.9317639160	0.7301563025
1195.8605712891	0.6601922512
1197.7893786621	0.7490335703
1199.7181860351	0.7164318562
1201.6469934082	0.6256744862
1203.5758007812	0.7018718719
1205.5046081543	0.7117720246
1207.4334155273	0.6984702349
1209.3622229004	0.7100139856
1211.2910302734	0.6940031052
1213.2198376465	0.7203907967
1215.1486450195	0.7583021522
1217.0774523926	0.7490884662
1219.0062597656	0.7136022449
1220.9350671387	0.7133542895
1222.8638745117	0.7047108412
1224.7926818848	0.7072731853
1226.7214892578	0.6924790144
1228.6502966308	0.6434784532
1230.5791040039	0.7029509544
1232.5079113769	0.7534493208
1234.4367187500	0.7317062020
1236.3655261230	0.6922525167
1238.2943334961	0.6482859254
1240.2231408691	0.6766303182
1242.1519482422	0.6892869473
1244.0807556152	0.6988587976
1246.0095629883	0.7200643420
1247.9383703613	0.7188130617
1249.8671777344	0.6997715831
1251.7959851074	0.7251310349
1253.7247924805	0.7488616705
1255.6535998535	0.6840927005
1257.5824072266	0.7089211941
1259.5112145996	0.6613797545
1261.4400219726	0.6265135407
1263.3688293457	0.7219135165
1265.2976367187	0.7115129232
1267.2264440918	0.7381592989
1269.1552514648	0.6914665699
1271.0840588379	0.6898792386
1273.0128662109	0.7658912539
1274.9416735840	0.7088979483
1276.8704809570	0.7141522169
1278.7992883301	0.6935372949
1280.7280957031	0.7307254672
1282.6569030762	0.7689897418
1284.5857104492	0.6947488785
1286.5145178223	0.7018023729
1288.4433251953	0.6983532310
1290.3721325683	0.6958216429
1292.3009399414	0.7230808139
1294.2297473144	0.7496706843
1296.1585546875	0.7271786332
1298.0873620605	0.6908707619
1300.0161694336	0.7391583323
1301.9449768066	0.6998385787
1303.8737841797	0.5924305916
1305.8025915527	0.6743748188
1307.7313989258	0.7236445546
1309.6602062988	0.6536493301
1311.5890136719	0.7258569598
1313.5178210449	0.7070491910
1315.4466284180	0.6339333057
1317.3754357910	0.6546956897
1319.3042431640	0.6610940099
1321.2330505371	0.7133318186
1323.1618579101	0.7182952166
1325.0906652832	0.6995486617
1327.0194726562	0.7017458081
1328.9482800293	0.7160775661
1330.8770874023	0.7217633724
1332.8058947754	0.6854648590
1334.7347021484	0.7148915529
1336.6635095215	0.7048668265
1338.5923168945	0.7103411555
1340.5211242676	0.7531367540
1342.4499316406	0.7029875517
1344.3787390137	0.7033718228
1346.3075463867	0.7226573229
1348.2363537597	0.7259290218
1350.1651611328	0.7285417914
1352.0939685058	0.7067923546
1354.0227758789	0.7009158134
1355.9515832519	0.6712315083
1357.8803906250	0.6894936562
1359.8091979980	0.7191956639
1361.7380053711	0.6868067384
1363.6668127441	0.6717699766
1365.5956201172	0.6842402220
1367.5244274902	0.7205778360
1369.4532348633	0.6921571493
1371.3820422363	0.6984895468
1373.3108496094	0.7012126446
1375.2396569824	0.6285042167
1377.1684643555	0.7012051344
1379.0972717285	0.6974371076
1381.0260791015	0.6805189252
1382.9548864746	0.7479276061
1384.8836938476	0.6676672697
1386.8125012207	0.6693603992
1388.7413085937	0.7323993444
1390.6701159668	0.6871455908
1392.5989233398	0.5905457139
1394.5277307129	0.6058396101
1396.4565380859	0.7270109057
1398.3853454590	0.6978693008
1400.3141528320	0.6494912505
1402.2429602051	0.6678650379
1404.1717675781	0.7148813009
1406.1005749512	0.6757016182
1408.0293823242	0.6784640551
1409.9581896972	0.7368537188
1411.8869970703	0.6984480619
1413.8158044433	0.7067457438
1415.7446118164	0.6843754649
1417.6734191894	0.6578432918
1419.6022265625	0.7084019184
1421.5310339355	0.7399489880
1423.4598413086	0.6763955951
1425.3886486816	0.6602600217
1427.3174560547	0.7276972532
1429.2462634277	0.6754844785
1431.1750708008	0.6900337934
1433.1038781738	0.7052367330
1435.0326855469	0.6762040854
1436.9614929199	0.6783517003
1438.8903002929	0.6922365427
1440.8191076660	0.7476453185
1442.7479150390	0.6227810383
1444.6767224121	0.6158637404
1446.6055297851	0.7086386085
1448.5343371582	0.6612744927
1450.4631445312	0.6879298687
1452.3919519043	0.7239977121
1454.3207592773	0.6758274436
1456.2495666504	0.6530643702
1458.1783740234	0.6621892452
1460.1071813965	0.6300142407
1462.0359887695	0.6712224483
1463.9647961426	0.7129992247
1465.8936035156	0.6769831181
1467.8224108886	0.6878009439
1469.7512182617	0.6983025074
1471.6800256347	0.6799737215
1473.6088330078	0.6573072076
1475.5376403808	0.6827209592
1477.4664477539	0.6849283576
1479.3952551269	0.6669369340
1481.3240625000	0.6686150432
1483.2528698730	0.6677792072
1485.1816772461	0.6721335649
1487.1104846191	0.6640719771
1489.0392919922	0.6752486825
1490.9680993652	0.6621707678
1492.8969067383	0.6719042063
1494.8257141113	0.6857144237
1496.7545214843	0.6496714950
1498.6833288574	0.6624633670
1500.6121362304	0.6796699166
1502.5409436035	0.6883324385
1504.4697509765	0.6736530662
1506.3985583496	0.6650090218
1508.3273657226	0.6803685427
1510.2561730957	0.6710220575
1512.1849804687	0.6710476875
1514.1137878418	0.6683581471
1516.0425952148	0.6914307475
1517.9714025879	0.6776307821
1519.9002099609	0.6703042984
1521.8290173340	0.6866026521
1523.7578247070	0.6513489485
1525.6866320801	0.6628500223
1527.6154394531	0.6621887684
1529.5442468261	0.6486209631
1531.4730541992	0.6634309888
1533.4018615722	0.6670257449
1535.3306689453	0.6658080220
1537.2594763183	0.6592583656
1539.1882836914	0.6651018262
1541.1170910644	0.6670641303
1543.0458984375	0.6565401554
1544.9747058105	0.6495653391
1546.9035131836	0.6473345160
1548.8323205566	0.6445898414
1550.7611279297	0.6494855881
1552.6899353027	0.6501718760
1554.6187426758	0.6499946117
1556.5475500488	0.6547482610
1558.4763574218	0.6465798020
1560.4051647949	0.6766822338
1562.3339721679	0.6659010053
1564.2627795410	0.6418818235
1566.1915869140	0.6617626548
1568.1203942871	0.6396625638
1570.0492016601	0.6297689080
1571.9780090332	0.6558693647
1573.9068164062	0.6502942443
1575.8356237793	0.6451968551
1577.7644311523	0.6269075274
1579.6932385254	0.6115528941
1581.6220458984	0.6450554729
1583.5508532715	0.6631577015
1585.4796606445	0.6376419067
1587.4084680175	0.6435894370
1589.3372753906	0.6512416601
1591.2660827636	0.6400263309
1593.1948901367	0.6331745982
1595.1236975097	0.6359794140
1597.0525048828	0.6503056884
1598.9813122558	0.6430910230
1600.9101196289	0.6323507428
1602.8389270019	0.6361838579
1604.7677343750	0.6492038965
1606.6965417480	0.6463514566
1608.6253491211	0.6164494157
1610.5541564941	0.6253610849
1612.4829638672	0.6443820596
1614.4117712402	0.6277499795
1616.3405786132	0.6336355209
1618.2693859863	0.6536275744
1620.1981933593	0.6439176798
1622.1270007324	0.6349345446
1624.0558081054	0.6435863972
1625.9846154785	0.6517441273
1627.9134228515	0.6447846889
1629.8422302246	0.6563650370
1631.7710375976	0.6639957428
1633.6998449707	0.6578801870
1635.6286523437	0.6877378225
1637.5574597168	0.6774793863
1639.4862670898	0.6642456651
1641.4150744629	0.6852359176
1643.3438818359	0.6764352918
1645.2726892090	0.6845746636
1647.2014965820	0.6869086623
1649.1303039550	0.6807724833
1651.0591113281	0.7016906142
1652.9879187011	0.6957592368
1654.9167260742	0.6989074945
1656.8455334472	0.7033525109
1658.7743408203	0.6885231733
1660.7031481933	0.6934645176
1662.6319555664	0.7056048512
1664.5607629394	0.7197907567
1666.4895703125	0.7218316197
1668.4183776855	0.7174969912
1670.3471850586	0.7211278081
1672.2759924316	0.7376416326
1674.2047998047	0.7430406213
1676.1336071777	0.7316911221
1678.0624145507	0.7466061711
1679.9912219238	0.7413987517
1681.9200292968	0.7334272861
1683.8488366699	0.7438060045
1685.7776440429	0.7243230939
1687.7064514160	0.7222146392
1689.6352587890	0.7305268049
1691.5640661621	0.7280066609
1693.4928735351	0.7154371738
1695.4216809082	0.7304204702
1697.3504882812	0.7439612746
1699.2792956543	0.7276846170
1701.2081030273	0.7240739465
1703.1369104004	0.7236800194
1705.0657177734	0.7388867736
1706.9945251464	0.7224361300
1708.9233325195	0.7118924856
1710.8521398925	0.7251311541
1712.7809472656	0.7169814110
1714.7097546386	0.7365476489
1716.6385620117	0.7300074100
1718.5673693847	0.7331885099
1720.4961767578	0.7510617375
1722.4249841308	0.7243751884
1724.3537915039	0.7179042101
1726.2825988769	0.7200168967
1728.2114062500	0.7075871825
1730.1402136230	0.7197898030
1732.0690209961	0.7338199615
1733.9978283691	0.6960269809
1735.9266357421	0.6934965253
1737.8554431152	0.7138302326
1739.7842504882	0.6968536377
1741.7130578613	0.7002264857
1743.6418652343	0.7166336179
1745.5706726074	0.7230724692
1747.4994799804	0.7186846733
1749.4282873535	0.7064903378
1751.3570947265	0.6843109131
1753.2859020996	0.7057288289
1755.2147094726	0.7149605155
1757.1435168457	0.6896878481
1759.0723242187	0.7151527405
1761.0011315918	0.6925600767
1762.9299389648	0.6835335493
1764.8587463379	0.6987807751
1766.7875537109	0.6645724177
1768.7163610839	0.6942878962
1770.6451684570	0.7165562510
1772.5739758300	0.7002773285
1774.5027832031	0.6882629991
1776.4315905761	0.6908984780
1778.3603979492	0.7018915415
1780.2892053222	0.6868823767
1782.2180126953	0.6791880131
1784.1468200683	0.6830782890
1786.0756274414	0.6757530570
1788.0044348144	0.6743252277
1789.9332421875	0.7114225030
1791.8620495605	0.7173673511
1793.7908569336	0.6834220290
1795.7196643066	0.6748148203
1797.6484716796	0.6776398420
1799.5772790527	0.7049528360
1801.5060864257	0.7178190351
1803.4348937988	0.7047342062
1805.3637011718	0.6825292706
1807.2925085449	0.7029788494
1809.2213159179	0.7257750034
1811.1501232910	0.6808298826
1813.0789306640	0.6897578835
1815.0077380371	0.7023338079
1816.9365454101	0.6757131815
1818.8653527832	0.6943914890
1820.7941601562	0.7063285708
1822.7229675293	0.6907907724
1824.6517749023	0.6872363091
1826.5805822753	0.6865935326
1828.5093896484	0.6973378658
1830.4381970214	0.7093409896
1832.3670043945	0.6916904449
1834.2958117675	0.6887171865
1836.2246191406	0.6959438920
1838.1534265136	0.7053250074
1840.0822338867	0.7009691596
1842.0110412597	0.6714566350
1843.9398486328	0.6782270670
1845.8686560058	0.7009689212
1847.7974633789	0.6953816414
1849.7262707519	0.6852985024
1851.6550781250	0.6861451268
1853.5838854980	0.6841115355
1855.5126928710	0.6854016781
1857.4415002441	0.6813099980
1859.3703076171	0.6774525642
1861.2991149902	0.7022518516
1863.2279223632	0.6909334064
1865.1567297363	0.6688504219
1867.0855371093	0.6706106067
1869.0143444824	0.6840111613
1870.9431518554	0.6904121041
1872.8719592285	0.6696968079
1874.8007666015	0.6711919904
1876.7295739746	0.6688492894
1878.6583813476	0.6683964729
1880.5871887207	0.6778322458
1882.5159960937	0.6792472601
1884.4448034667	0.6859402061
1886.3736108398	0.6813209653
1888.3024182128	0.6826828122
1890.2312255859	0.6789789200
1892.1600329589	0.6810880899
1894.0888403320	0.6850454807
1896.0176477050	0.6836355925
1897.9464550781	0.6741008759
1899.8752624511	0.6784799099
1901.8040698242	0.6930426955
1903.7328771972	0.6583957076
1905.6616845703	0.6660660505
1907.5904919433	0.6719256639
1909.5192993164	0.6626738906
1911.4481066894	0.6863608956
1913.3769140625	0.6656973958
1915.3057214355	0.6771642566
1917.2345288085	0.6936818957
1919.1633361816	0.6802064180
1921.0921435546	0.6698956490
1923.0209509277	0.6668244004
1924.9497583007	0.6880447865
1926.8785656738	0.6817067862
1928.8073730468	0.6837888360
1930.7361804199	0.6864097714
1932.6649877929	0.6762928367
1934.5937951660	0.6655533314
1936.5226025390	0.6531652808
1938.4514099121	0.6753813028
1940.3802172851	0.6969069242
1942.3090246582	0.6924642324
1944.2378320312	0.6682716012
1946.1666394042	0.6764765978
1948.0954467773	0.6937813759
1950.0242541503	0.6815689206
1951.9530615234	0.6783028245
1953.8818688964	0.6671767831
1955.8106762695	0.6659159064
1957.7394836425	0.6712299585
1959.6682910156	0.6696342230
1961.5970983886	0.6526545882
1963.5259057617	0.6436976790
1965.4547131347	0.6635586619
1967.3835205078	0.6665821671
1969.3123278808	0.6960152984
1971.2411352539	0.6924458742
1973.1699426269	0.6554256082
1975.0987499999	0.6711096764
1977.0275573730	0.6665214896
1978.9563647460	0.6669433117
1980.8851721191	0.6683458090
1982.8139794921	0.6638756990
1984.7427868652	0.6915101409
1986.6715942382	0.6730937362
1988.6004016113	0.6533145308
1990.5292089843	0.6582303643
1992.4580163574	0.6678048968
1994.3868237304	0.6887148023
1996.3156311035	0.6604778767
1998.2444384765	0.6577055454
2000.1732458496	0.6862221360
2002.1020532226	0.6542589068
2004.0308605956	0.6522514224
2005.9596679687	0.6749014854
2007.8884753417	0.6706289053
2009.8172827148	0.6846347451
2011.7460900878	0.6807748079
2013.6748974609	0.6710550189
2015.6037048339	0.6716657281
2017.5325122070	0.6729800105
2019.4613195800	0.6686203480
2021.3901269531	0.6453062296
2023.3189343261	0.6719120145
2025.2477416992	0.6650342941
2027.1765490722	0.6290647984
2029.1053564453	0.6628181338
2031.0341638183	0.6733199954
2032.9629711914	0.6764662266
2034.8917785644	0.6645940542
2036.8205859374	0.6553502679
2038.7493933105	0.6866077781
2040.6782006835	0.6821977496
2042.6070080566	0.6661846638
2044.5358154296	0.6452444792
2046.4646228027	0.6525128484
2048.3934301757	0.6589229107
2050.3222375488	0.6709399819
2052.2510449218	0.6982364058
2054.1798522949	0.6519409418
2056.1086596679	0.6476759911
2058.0374670410	0.6482195258
2059.9662744140	0.6293395758
2061.8950817871	0.6699620485
2063.8238891601	0.6767777205
2065.7526965331	0.6635826230
2067.6815039062	0.6538030505
2069.6103112792	0.6578470469
2071.5391186523	0.6641794443
2073.4679260253	0.6509209871
2075.3967333984	0.6593893170
2077.3255407714	0.6665245891
2079.2543481445	0.6669185162
2081.1831555175	0.6757529378
2083.1119628906	0.6733937263
2085.0407702636	0.6526988745
2086.9695776367	0.6587766409
2088.8983850097	0.6727580428
2090.8271923828	0.6613669395
2092.7559997558	0.6517311335
2094.6848071288	0.6516535282
2096.6136145019	0.6589323878
2098.5424218749	0.6435900927
2100.4712292480	0.6629877687
2102.4000366210	0.6705843806
2104.3288439941	0.6429637671
2106.2576513671	0.6799311638
2108.1864587402	0.6878709197
2110.1152661132	0.6846160293
2112.0440734863	0.6664078832
2113.9728808593	0.6288635135
2115.9016882324	0.6683819890
2117.8304956054	0.6820636392
2119.7593029785	0.6685708165
2121.6881103515	0.6602199674
2123.6169177245	0.6614478230
2125.5457250976	0.6844668984
2127.4745324706	0.6550417542
2129.4033398437	0.6549560428
2131.3321472167	0.6803811789
2133.2609545898	0.6706686616
2135.1897619628	0.6666980386
2137.1185693359	0.6524945498
2139.0473767089	0.6594581604
2140.9761840820	0.6701163054
2142.9049914550	0.6637399197
2144.8337988281	0.6722066402
2146.7626062011	0.6653917432
2148.6914135742	0.6678271890
2150.6202209472	0.6836344004
2152.5490283203	0.6849375963
2154.4778356933	0.6774423718
2156.4066430663	0.6716720462
2158.3354504394	0.6642743349
2160.2642578124	0.6456037164
2162.1930651855	0.6574980617
2164.1218725585	0.6740408540
2166.0506799316	0.6752563715
2167.9794873046	0.6694734097
2169.9082946777	0.6481618285
2171.8371020507	0.6561651826
2173.7659094238	0.6446883082
2175.6947167968	0.6517561078
2177.6235241699	0.6835220456
2179.5523315429	0.6498317719
2181.4811389160	0.6557949781
2183.4099462890	0.6652226448
2185.3387536620	0.6505931616
2187.2675610351	0.6746289134
2189.1963684081	0.6684694886
2191.1251757812	0.6717929840
2193.0539831542	0.6794354916
2194.9827905273	0.6678262949
2196.9115979003	0.6858789325
2198.8404052734	0.6683806777
2200.7692126464	0.6367508173
2202.6980200195	0.6611005664
2204.6268273925	0.6890796423
2206.5556347656	0.6737539172
2208.4844421386	0.6536205411
2210.4132495117	0.6731949449
2212.3420568847	0.6710495353
2214.2708642577	0.6540203094
2216.1996716308	0.6782743335
2218.1284790038	0.6710540056
2220.0572863769	0.6775828600
2221.9860937499	0.6892972589
2223.9149011230	0.6484649181
2225.8437084960	0.6523668766
2227.7725158691	0.6636049747
2229.7013232421	0.6629735231
2231.6301306152	0.6651901007
2233.5589379882	0.6490064263
2235.4877453613	0.6419185400
2237.4165527343	0.6441572905
2239.3453601074	0.6591028571
2241.2741674804	0.6654480696
2243.2029748534	0.6729329228
2245.1317822265	0.6613777280
2247.0605895995	0.6510770917
2248.9893969726	0.6697388291
2250.9182043456	0.6613888741
2252.8470117187	0.6645812988
2254.7758190917	0.6560382843
2256.7046264648	0.6560046673
2258.6334338378	0.6800042391
2260.5622412109	0.6683703661
2262.4910485839	0.6632435322
2264.4198559570	0.6492553353
2266.3486633300	0.6519958377
2268.2774707031	0.6663281918
2270.2062780761	0.6565679312
2272.1350854491	0.6539188623
2274.0638928222	0.6489447355
2275.9927001952	0.6545622349
2277.9215075683	0.6600122452
2279.8503149413	0.6552365422
2281.7791223144	0.6493125558
2283.7079296874	0.6364781857
2285.6367370605	0.6411464214
2287.5655444335	0.6629853845
2289.4943518066	0.6445866823
2291.4231591796	0.6428462863
2293.3519665527	0.6608993411
2295.2807739257	0.6278796196
2297.2095812988	0.6547390819
2299.1383886718	0.6752910614
2301.0671960449	0.6626377106
2302.9960034179	0.6707589030
2304.9248107909	0.6322979927
2306.8536181640	0.6435272098
2308.7824255370	0.6521296501
2310.7112329101	0.6458276510
2312.6400402831	0.6642994285
2314.5688476562	0.6447525620
2316.4976550292	0.6337434053
2318.4264624023	0.6323939562
2320.3552697753	0.6596586108
2322.2840771484	0.6704892516
2324.2128845214	0.6525464058
2326.1416918945	0.6530923247
2328.0704992675	0.6703351736
2329.9993066406	0.6696180105
2331.9281140136	0.6271476746
2333.8569213866	0.6402700543
2335.7857287597	0.6609660387
2337.7145361327	0.6590626240
2339.6433435058	0.6482901573
2341.5721508788	0.6525354385
2343.5009582519	0.6575269103
2345.4297656249	0.6220761538
2347.3585729980	0.6644276381
2349.2873803710	0.6687195301
2351.2161877441	0.6398974657
2353.1449951171	0.6702616811
2355.0738024902	0.6680632830
2357.0026098632	0.6546642184
2358.9314172363	0.6360722184
2360.8602246093	0.6563033462
2362.7890319823	0.6604093313
2364.7178393554	0.6515507698
2366.6466467284	0.6562283635
2368.5754541015	0.6359072328
2370.5042614745	0.6748711467
2372.4330688476	0.6839280725
2374.3618762206	0.6547582150
2376.2906835937	0.6430816650
2378.2194909667	0.6394234300
2380.1482983398	0.6485493779
2382.0771057128	0.6538454890
2384.0059130859	0.6607317328
2385.9347204589	0.6489657760
2387.8635278320	0.6529940367
2389.7923352050	0.6506124735
2391.7211425780	0.6414698958
2393.6499499511	0.6557288766
2395.5787573241	0.6515573263
2397.5075646972	0.6419128776
2399.4363720702	0.6433956623
2401.3651794433	0.6482211351
2403.2939868163	0.6379469633
2405.2227941894	0.6470618248
2407.1516015624	0.6489202976
2409.0804089355	0.6600339413
2411.0092163085	0.7050322890
2412.9380236816	0.6775137782
2414.8668310546	0.6671653986
2416.7956384277	0.6840018034
2418.7244458007	0.6601763368
2420.6532531738	0.6407244802
2422.5820605468	0.6309705377
2424.5108679198	0.6377303600
2426.4396752929	0.6409494877
2428.3684826659	0.6531245708
2430.2972900390	0.6485601664
2432.2260974120	0.6288728714
2434.1549047851	0.6379647851
2436.0837121581	0.6358563900
2438.0125195312	0.6324332356
2439.9413269042	0.6320220828
2441.8701342773	0.6396486759
2443.7989416503	0.6548889875
2445.7277490234	0.6405126452
2447.6565563964	0.6365205646
2449.5853637695	0.6449541450
2451.5141711425	0.6257017851
2453.4429785155	0.6366495490
2455.3717858886	0.6657661796
2457.3005932616	0.6363050938
2459.2294006347	0.6410611868
2461.1582080077	0.6809139848
2463.0870153808	0.6603825092
2465.0158227538	0.6491488814
2466.9446301269	0.6526324153
2468.8734374999	0.6439818740
2470.8022448730	0.6539573073
2472.7310522460	0.6427874565
2474.6598596191	0.6287476420
2476.5886669921	0.6550204754
2478.5174743652	0.6731975079
2480.4462817382	0.6606350541
2482.3750891112	0.6473464370
2484.3038964843	0.6342927217
2486.2327038573	0.6217424870
2488.1615112304	0.6356847882
2490.0903186034	0.6577065587
2492.0191259765	0.6541638374
2493.9479333495	0.6398663521
2495.8767407226	0.6482955217
2497.8055480956	0.6612181664
2499.7343554687	0.6488626003
2501.6631628417	0.6623955369
2503.5919702148	0.6626321077
2505.5207775878	0.6395214796
2507.4495849609	0.6527506709
2509.3783923339	0.6341455579
2511.3071997069	0.6226715446
2513.2360070800	0.6513046622
2515.1648144530	0.6633435488
2517.0936218261	0.6669880152
2519.0224291991	0.6452116966
2520.9512365722	0.6381605268
2522.8800439452	0.6358638406
2524.8088513183	0.6093229651
2526.7376586913	0.6253064275
2528.6664660644	0.6689487100
2530.5952734374	0.6582956314
2532.5240808105	0.6419520378
2534.4528881835	0.6566444039
2536.3816955566	0.6295021176
2538.3105029296	0.6389360428
2540.2393103027	0.6664991379
2542.1681176757	0.6093146205
2544.0969250487	0.5981615782
2546.0257324218	0.6391739845
2547.9545397948	0.6553046703
2549.8833471679	0.6566292644
2551.8121545409	0.6394214630
2553.7409619140	0.6316624284
2555.6697692870	0.6338769794
2557.5985766601	0.6248670220
2559.5273840331	0.6292808652
2561.4561914062	0.6399412155
2563.3849987792	0.6363480687
2565.3138061523	0.6419768333
2567.2426135253	0.6473606825
2569.1714208984	0.6434152722
2571.1002282714	0.6394729614
2573.0290356444	0.6364333034
2574.9578430175	0.6481910348
2576.8866503905	0.6551752090
2578.8154577636	0.6344333887
2580.7442651366	0.6107097268
2582.6730725097	0.6191358566
2584.6018798827	0.6375634074
2586.5306872558	0.6365755200
2588.4594946288	0.6377812028
2590.3883020019	0.6484984159
2592.3171093749	0.6284173727
2594.2459167480	0.6136667728
2596.1747241210	0.6560264230
2598.1035314941	0.6497846842
2600.0323388671	0.6133229136
2601.9611462401	0.6223844290
2603.8899536132	0.6418252587
2605.8187609862	0.6547688246
2607.7475683593	0.6354793906
2609.6763757323	0.6378230453
2611.6051831054	0.6385768652
2613.5339904784	0.6227537990
2615.4627978515	0.6121158600
2617.3916052245	0.6118091941
2619.3204125976	0.6543164849
2621.2492199706	0.6378654838
2623.1780273437	0.6222521663
2625.1068347167	0.6362609267
2627.0356420898	0.6325650215
2628.9644494628	0.6570873260
2630.8932568358	0.6348482370
2632.8220642089	0.6162219048
2634.7508715819	0.6217402816
2636.6796789550	0.6370263100
2638.6084863280	0.6507959366
2640.5372937011	0.6404801607
2642.4661010741	0.6615657806
2644.3949084472	0.6391349435
2646.3237158202	0.6414622068
2648.2525231933	0.6482557058
2650.1813305663	0.5958471298
2652.1101379394	0.6255322695
2654.0389453124	0.6375110149
2655.9677526855	0.6077587605
2657.8965600585	0.6293820143
2659.8253674315	0.6318318844
2661.7541748046	0.6255286336
2663.6829821776	0.6141003966
2665.6117895507	0.6012167931
2667.5405969237	0.6303279996
2669.4694042968	0.6415718198
2671.3982116698	0.6290885210
2673.3270190429	0.6333711743
2675.2558264159	0.6311935186
2677.1846337890	0.6333512664
2679.1134411620	0.6290758252
2681.0422485351	0.6233839989
2682.9710559081	0.6334798932
2684.8998632812	0.6342793107
2686.8286706542	0.6220035553
2688.7574780273	0.6376991272
2690.6862854003	0.6464092731
2692.6150927733	0.6149266958
2694.5439001464	0.6289570332
2696.4727075194	0.6265202761
2698.4015148925	0.6295693517
2700.3303222655	0.6338596940
2702.2591296386	0.5882013440
2704.1879370116	0.6445565224
2706.1167443847	0.6293389797
2708.0455517577	0.5887401700
2709.9743591308	0.6532771587
2711.9031665038	0.6082713604
2713.8319738769	0.5925101042
2715.7607812499	0.6276906729
2717.6895886230	0.6279464364
2719.6183959960	0.6485936046
2721.5472033690	0.6330972314
2723.4760107421	0.6216468215
2725.4048181151	0.6343469620
2727.3336254882	0.6258620620
2729.2624328612	0.5997750163
2731.1912402343	0.5991806984
2733.1200476073	0.6064059138
2735.0488549804	0.5906770825
2736.9776623534	0.6275095344
2738.9064697265	0.6717814207
2740.8352770995	0.6235734820
2742.7640844726	0.6224265099
2744.6928918456	0.6492684484
2746.6216992187	0.6070938706
2748.5505065917	0.6100963950
2750.4793139647	0.6299869418
2752.4081213378	0.6409265995
2754.3369287108	0.6246288419
2756.2657360839	0.5885825157
2758.1945434569	0.6183633208
2760.1233508300	0.6165671945
2762.0521582030	0.6284710765
2763.9809655761	0.6409981251
2765.9097729491	0.6045162678
2767.8385803222	0.6119191647
2769.7673876952	0.6105762124
2771.6961950683	0.5974227786
2773.6250024413	0.6189093590
2775.5538098144	0.6364076138
2777.4826171874	0.6129772067
2779.4114245604	0.6258605719
2781.3402319335	0.6320613027
2783.2690393065	0.6133127213
2785.1978466796	0.6246590018
2787.1266540526	0.5977926850
2789.0554614257	0.6071189046
2790.9842687987	0.6197162271
2792.9130761718	0.6114888191
2794.8418835448	0.6115110517
2796.7706909179	0.6129100919
2798.6994982909	0.6291654706
2800.6283056640	0.6134653091
2802.5571130370	0.6234300137
2804.4859204101	0.5944197774
2806.4147277831	0.5806974173
2808.3435351562	0.6105209589
2810.2723425292	0.6011862755
2812.2011499022	0.6215727329
2814.1299572753	0.6220450401
2816.0587646483	0.6283861995
2817.9875720214	0.6257107258
2819.9163793944	0.6217731237
2821.8451867675	0.6154897213
2823.7739941405	0.6016998887
2825.7028015136	0.6205218434
2827.6316088866	0.5922654867
2829.5604162597	0.6150308251
2831.4892236327	0.6110830307
2833.4180310058	0.5823085308
2835.3468383788	0.6120240688
2837.2756457519	0.6045356393
2839.2044531249	0.5906798840
2841.1332604979	0.5766761899
2843.0620678710	0.6235613823
2844.9908752440	0.6274732351
2846.9196826171	0.5734259486
2848.8484899901	0.5780319571
2850.7772973632	0.5944117904
2852.7061047362	0.6052907109
2854.6349121093	0.6006801724
2856.5637194823	0.6147251725
2858.4925268554	0.5959719419
2860.4213342284	0.6045345664
2862.3501416015	0.6203665137
2864.2789489745	0.5941246152
2866.2077563476	0.6177282929
2868.1365637206	0.6085560918
2870.0653710936	0.6211084723
2871.9941784667	0.6001716256
2873.9229858397	0.5674035549
2875.8517932128	0.6048408747
2877.7806005858	0.6046444178
2879.7094079589	0.6014198661
2881.6382153319	0.5839813948
2883.5670227050	0.5993437171
2885.4958300780	0.6147182584
2887.4246374511	0.5932914615
2889.3534448241	0.5978598595
2891.2822521972	0.5760369897
2893.2110595702	0.5847238302
2895.1398669433	0.6379517913
2897.0686743163	0.6144065261
2898.9974816893	0.5471084714
2900.9262890624	0.5714914203
2902.8550964354	0.5876312852
2904.7839038085	0.5595529079
2906.7127111815	0.5823156834
2908.6415185546	0.5746960044
2910.5703259276	0.5649685860
2912.4991333007	0.5765156150
2914.4279406737	0.5833743215
2916.3567480468	0.5598074198
2918.2855554198	0.5443512201
2920.2143627929	0.5992329717
2922.1431701659	0.5919701457
2924.0719775390	0.5527269840
2926.0007849120	0.6156275868
2927.9295922851	0.6399180889
2929.8583996581	0.5633707643
2931.7872070311	0.5966238976
2933.7160144042	0.6437234879
2935.6448217772	0.5846873522
2937.5736291503	0.5739535689
2939.5024365233	0.5981728435
2941.4312438964	0.5997725129
2943.3600512694	0.5773387551
2945.2888586425	0.6133930683
2947.2176660155	0.6105929017
2949.1464733886	0.5545266271
2951.0752807616	0.5810356140
2953.0040881347	0.5671681762
2954.9328955077	0.5485666990
2956.8617028808	0.5664519668
2958.7905102538	0.5977557898
2960.7193176268	0.5820378065
2962.6481249999	0.5391593575
2964.5769323729	0.5943735242
2966.5057397460	0.5784016252
2968.4345471190	0.5647788644
2970.3633544921	0.5994353294
2972.2921618651	0.5670815706
2974.2209692382	0.5629916191
2976.1497766112	0.5812867880
2978.0785839843	0.5891481042
2980.0073913573	0.5755850077
2981.9361987304	0.5796121359
2983.8650061034	0.5959376097
2985.7938134765	0.5966006517
2987.7226208495	0.5839146972
2989.6514282225	0.5869345665
2991.5802355956	0.5881793499
2993.5090429686	0.5711746216
2995.4378503417	0.6213081479
2997.3666577147	0.5901821256
2999.2954650878	0.5620757341
3001.2242724608	0.5930211544
3003.1530798339	0.5672648549
3005.0818872069	0.5911729932
3007.0106945800	0.5718054175
3008.9395019530	0.5568863153
3010.8683093261	0.5539990067
3012.7971166991	0.5392717719
3014.7259240722	0.5675801039
3016.6547314452	0.5646603107
3018.5835388182	0.5680590868
3020.5123461913	0.5576117635
3022.4411535643	0.5656943321
3024.3699609374	0.5337941051
3026.2987683104	0.5652685165
3028.2275756835	0.6277018189
3030.1563830565	0.5400974154
3032.0851904296	0.5864768028
3034.0139978026	0.5835265517
3035.9428051757	0.5626216531
3037.8716125487	0.6134769320
3039.8004199218	0.5257049203
3041.7292272948	0.5387086272
3043.6580346679	0.5796211958
3045.5868420409	0.5654026866
3047.5156494139	0.5474948287
3049.4444567870	0.5495086908
3051.3732641600	0.5877771378
3053.3020715331	0.5606971979
3055.2308789061	0.5491036773
3057.1596862792	0.5290643573
3059.0884936522	0.5123010874
3061.0173010253	0.5476628542
3062.9461083983	0.5774220228
3064.8749157714	0.5645652413
3066.8037231444	0.5460722446
3068.7325305175	0.5513371825
3070.6613378905	0.5321370959
3072.5901452636	0.5445905328
3074.5189526366	0.5519638062
3076.4477600097	0.5549780130
3078.3765673827	0.5687736869
3080.3053747557	0.5356639624
3082.2341821288	0.5266615748
3084.1629895018	0.5413400531
3086.0917968749	0.5562698245
3088.0206042479	0.5568404794
3089.9494116210	0.5325142741
3091.8782189940	0.5304746032
3093.8070263671	0.5568762422
3095.7358337401	0.5445669293
3097.6646411132	0.5429533720
3099.5934484862	0.5438024402
3101.5222558593	0.5193461180
3103.4510632323	0.5511794090
3105.3798706054	0.5296767354
3107.3086779784	0.5185753107
3109.2374853514	0.5349929929
3111.1662927245	0.5475567579
3113.0951000975	0.5762705207
3115.0239074706	0.5250233412
3116.9527148436	0.5602822900
3118.8815222167	0.5583344698
3120.8103295897	0.5174201727
3122.7391369628	0.5709794760
3124.6679443358	0.5270344019
3126.5967517089	0.5214366913
3128.5255590819	0.5714311600
3130.4543664550	0.5679601431
3132.3831738280	0.5575149059
3134.3119812011	0.5320372581
3136.2407885741	0.5291934013
3138.1695959471	0.5456432104
3140.0984033202	0.5269120336
3142.0272106932	0.5197282434
3143.9560180663	0.5368999839
3145.8848254393	0.5383565426
3147.8136328124	0.5561616421
3149.7424401854	0.5648822188
3151.6712475585	0.5807290077
3153.6000549315	0.5403726101
3155.5288623046	0.5266880989
3157.4576696776	0.5637753606
3159.3864770507	0.5293387175
3161.3152844237	0.5667974949
3163.2440917968	0.5379139185
3165.1728991698	0.5182242990
3167.1017065428	0.5692005157
3169.0305139159	0.5566757917
3170.9593212889	0.5603262782
3172.8881286620	0.5326577425
3174.8169360350	0.5893318653
3176.7457434081	0.5424858332
3178.6745507811	0.5072264075
3180.6033581542	0.5825229883
3182.5321655272	0.5187235475
3184.4609729003	0.5739206076
3186.3897802733	0.5707098842
3188.3185876464	0.5156829357
3190.2473950194	0.5546206236
3192.1762023925	0.5346227288
3194.1050097655	0.5654589534
3196.0338171386	0.5641409159
3197.9626245116	0.5200108290
3199.8914318846	0.5266032815
3201.8202392577	0.5806970596
3203.7490466307	0.5716448426
3205.6778540038	0.5547022820
3207.6066613768	0.5730294585
3209.5354687499	0.5507503152
3211.4642761229	0.5629528761
3213.3930834960	0.5266522169
3215.3218908690	0.5134333968
3217.2506982421	0.5459794402
3219.1795056151	0.5423436165
3221.1083129882	0.5687803626
3223.0371203612	0.5724526048
3224.9659277343	0.5650966763
3226.8947351073	0.5485973954
3228.8235424803	0.5735982060
3230.7523498534	0.5876143575
3232.6811572264	0.5478705168
3234.6099645995	0.5663799644
3236.5387719725	0.5559871197
3238.4675793456	0.5689275265
3240.3963867186	0.6116850376
3242.3251940917	0.5908325315
3244.2540014647	0.6009188294
3246.1828088378	0.5760682225
3248.1116162108	0.5685099363
3250.0404235839	0.5993267894
3251.9692309569	0.5793386698
3253.8980383300	0.6182300448
3255.8268457030	0.5818076134
3257.7556530760	0.5724968314
3259.6844604491	0.6429199576
3261.6132678221	0.5834224224
3263.5420751952	0.5802916884
3265.4708825682	0.5604947209
3267.3996899413	0.5596216321
3269.3284973143	0.6142325401
3271.2573046874	0.5905144215
3273.1861120604	0.6124955416
3275.1149194335	0.6227196455
3277.0437268065	0.5888029933
3278.9725341796	0.5690197945
3280.9013415526	0.5876581669
3282.8301489257	0.6083642840
3284.7589562987	0.6187856197
3286.6877636717	0.5949575901
3288.6165710448	0.5739048123
3290.5453784178	0.6098167896
3292.4741857909	0.5936571360
3294.4029931639	0.6429277658
3296.3318005370	0.6326329112
3298.2606079100	0.6173719764
3300.1894152831	0.6398681402
3302.1182226561	0.5769693851
3304.0470300292	0.6191534400
3305.9758374022	0.5943857431
3307.9046447753	0.6140413284
3309.8334521483	0.6485852003
3311.7622595214	0.6116399169
3313.6910668944	0.6486143470
3315.6198742675	0.6325870156
3317.5486816405	0.6482173800
3319.4774890135	0.6033189893
3321.4062963866	0.6410577297
3323.3351037596	0.6542143226
3325.2639111327	0.6147460341
3327.1927185057	0.6744967699
3329.1215258788	0.6034082770
3331.0503332518	0.6496878862
3332.9791406249	0.6365188360
3334.9079479979	0.6324591041
3336.8367553710	0.6711806059
3338.7655627440	0.6123633385
3340.6943701171	0.6973561645
3342.6231774901	0.6540723443
3344.5519848632	0.6804976463
3346.4807922362	0.6852725744
3348.4095996092	0.6081814170
3350.3384069823	0.7031439543
3352.2672143553	0.6690156460
3354.1960217284	0.6532816291
3356.1248291014	0.6638039947
3358.0536364745	0.6527565122
3359.9824438475	0.6398513913
3361.9112512206	0.6222026944
3363.8400585936	0.6652948856
3365.7688659667	0.6724213958
3367.6976733397	0.6611666083
3369.6264807128	0.6521247625
3371.5552880858	0.6787010431
3373.4840954589	0.6354081035
3375.4129028319	0.6682442427
3377.3417102049	0.7564365864
3379.2705175780	0.6730560064
3381.1993249510	0.6726251245
3383.1281323241	0.6693467498
3385.0569396971	0.6769578457
3386.9857470702	0.7181762457
3388.9145544432	0.7069225311
3390.8433618163	0.7093515992
3392.7721691893	0.6722190380
3394.7009765624	0.6809287667
3396.6297839354	0.6763053536
3398.5585913085	0.7038653493
3400.4873986815	0.7374848723
3402.4162060546	0.6841902137
3404.3450134276	0.7409076691
3406.2738208006	0.7514454722
3408.2026281737	0.7042833567
3410.1314355467	0.7422345877
3412.0602429198	0.7630510926
3413.9890502928	0.7678285241
3415.9178576659	0.7433395386
3417.8466650389	0.7289172411
3419.7754724120	0.7646670938
3421.7042797850	0.7723042369
3423.6330871581	0.7895032167
3425.5618945311	0.8051222563
3427.4907019042	0.7515681982
3429.4195092772	0.7351335883
3431.3483166503	0.7685205936
3433.2771240233	0.7836713195
3435.2059313963	0.7830425501
3437.1347387694	0.7879049778
3439.0635461424	0.8019992113
3440.9923535155	0.8058425188
3442.9211608885	0.8337875009
3444.8499682616	0.8227800131
3446.7787756346	0.7739568353
3448.7075830077	0.8152102232
3450.6363903807	0.8147957325
3452.5651977538	0.7545430064
3454.4940051268	0.8114184141
3456.4228124999	0.8487630486
3458.3516198729	0.8060373664
3460.2804272460	0.8223857880
3462.2092346190	0.8187676072
3464.1380419921	0.8180120587
3466.0668493651	0.8144990206
3467.9956567381	0.7662734389
3469.9244641112	0.8137254715
3471.8532714842	0.7968806028
3473.7820788573	0.7738351226
3475.7108862303	0.8730692863
3477.6396936034	0.8170848489
3479.5685009764	0.7836310863
3481.4973083495	0.8473382592
3483.4261157225	0.8387166858
3485.3549230956	0.8282139301
3487.2837304686	0.8383911848
3489.2125378417	0.8205156922
3491.1413452147	0.8060790896
3493.0701525878	0.8366424441
3494.9989599608	0.8317819834
3496.9277673338	0.8469625711
3498.8565747069	0.8664397597
3500.7853820799	0.8306729198
3502.7141894530	0.8556827307
3504.6429968260	0.8658786416
3506.5718041991	0.8337920904
3508.5006115721	0.8277591467
3510.4294189452	0.8567473888
3512.3582263182	0.8170273304
3514.2870336913	0.8039626479
3516.2158410643	0.8727992177
3518.1446484374	0.8537707329
3520.0734558104	0.8775200248
3522.0022631835	0.8965394497
3523.9310705565	0.9085915685
3525.8598779295	0.8679393530
3527.7886853026	0.7925089598
3529.7174926756	0.8497252464
3531.6463000487	0.8013547659
3533.5751074217	0.8662831783
3535.5039147948	0.9547061324
3537.4327221678	0.8313392401
3539.3615295409	0.8470110297
3541.2903369139	0.8380934596
3543.2191442870	0.8538567424
3545.1479516600	0.8803759217
3547.0767590331	0.8561592102
3549.0055664061	0.8642442226
3550.9343737792	0.8307812214
3552.8631811522	0.8599772453
3554.7919885252	0.8419997692
3556.7207958983	0.8377945423
3558.6496032713	0.8888769746
3560.5784106444	0.8490296006
3562.5072180174	0.8646994233
3564.4360253905	0.9083847404
3566.3648327635	0.8689000607
3568.2936401366	0.8472241163
3570.2224475096	0.8354784250
3572.1512548827	0.8270594478
3574.0800622557	0.8926565051
3576.0088696288	0.8750576973
3577.9376770018	0.8275293112
3579.8664843749	0.8581427336
3581.7952917479	0.8768840432
3583.7240991210	0.8887946606
3585.6529064940	0.8614920974
3587.5817138670	0.9092582464
3589.5105212401	0.9091218710
3591.4393286131	0.8196324110
3593.3681359862	0.8416389227
3595.2969433592	0.8401189446
3597.2257507323	0.8808830380
3599.1545581053	0.9370332956
3601.0833654784	0.8532717824
3603.0121728514	0.8655114770
3604.9409802245	0.9175651073
3606.8697875975	0.8501209021
3608.7985949706	0.8182166219
3610.7274023436	0.8436092734
3612.6562097167	0.8667487502
3614.5850170897	0.8604145050
3616.5138244627	0.8285793662
3618.4426318358	0.8619396091
3620.3714392088	0.9185384512
3622.3002465819	0.9122156501
3624.2290539549	0.8622895479
3626.1578613280	0.8668110967
3628.0866687010	0.9386318326
3630.0154760741	0.9146822095
3631.9442834471	0.8635284305
3633.8730908202	0.8362204432
3635.8018981932	0.8534200191
3637.7307055663	0.8683071733
3639.6595129393	0.8427473307
3641.5883203124	0.8523414731
3643.5171276854	0.8452354670
3645.4459350584	0.8453240991
3647.3747424315	0.8746777773
3649.3035498045	0.8983712196
3651.2323571776	0.8401992321
3653.1611645506	0.8652979136
3655.0899719237	0.8715463281
3657.0187792967	0.7569596171
3658.9475866698	0.8570966125
3660.8763940428	0.8888769746
3662.8052014159	0.7975639105
3664.7340087889	0.8465557098
3666.6628161620	0.8722835779
3668.5916235350	0.8617601395
3670.5204309081	0.8756177425
3672.4492382811	0.8957819343
3674.3780456541	0.8243207335
3676.3068530272	0.8184723258
3678.2356604002	0.9073705077
3680.1644677733	0.8642054200
3682.0932751463	0.8362895846
3684.0220825194	0.8240073323
3685.9508898924	0.8124098778
3687.8796972655	0.8075298667
3689.8085046385	0.7672290802
3691.7373120116	0.7433813214
3693.6661193846	0.8098827004
3695.5949267577	0.8280912638
3697.5237341307	0.7503737211
3699.4525415038	0.8030321002
3701.3813488768	0.8071115613
3703.3101562499	0.7732071877
3705.2389636229	0.7870776057
3707.1677709959	0.7809283733
3709.0965783690	0.8392953873
3711.0253857420	0.7937184572
3712.9541931151	0.7863804698
3714.8830004881	0.8278072476
3716.8118078612	0.8072800040
3718.7406152342	0.8417884111
3720.6694226073	0.8326216936
3722.5982299803	0.8124502897
3724.5270373534	0.7985948324
3726.4558447264	0.7937209010
3728.3846520995	0.8230855465
3730.3134594725	0.7760639191
3732.2422668456	0.7381651402
3734.1710742186	0.7412616014
3736.0998815916	0.7057129145
3738.0286889647	0.7469792366
3739.9574963377	0.8125604987
3741.8863037108	0.7986367345
3743.8151110838	0.7705010772
3745.7439184569	0.7953975797
3747.6727258299	0.8323271871
3749.6015332030	0.7658603787
3751.5303405760	0.7393777370
3753.4591479491	0.7468143702
3755.3879553221	0.7699424028
3757.3167626952	0.8781465292
3759.2455700682	0.8015179634
3761.1743774413	0.8157739043
3763.1031848143	0.8015065193
3765.0319921873	0.6887206435
3766.9607995604	0.7987943888
3768.8896069334	0.7951374650
3770.8184143065	0.7893787622
3772.7472216795	0.8341373801
3774.6760290526	0.7875201702
3776.6048364256	0.7812916040
3778.5336437987	0.7527108788
3780.4624511717	0.7518002987
3782.3912585448	0.7245365977
3784.3200659178	0.7554969788
3786.2488732909	0.7679487467
3788.1776806639	0.7691676617
3790.1064880370	0.8192225695
3792.0352954100	0.7570370436
3793.9641027830	0.7840992212
3795.8929101561	0.7829326987
3797.8217175291	0.7421523929
3799.7505249022	0.7459132075
3801.6793322752	0.7518219948
3803.6081396483	0.7743651867
3805.5369470213	0.7030479908
3807.4657543944	0.7783529162
3809.3945617674	0.8191461563
3811.3233691405	0.7131309509
3813.2521765135	0.7246600986
3815.1809838866	0.7608277202
3817.1097912596	0.7817156315
3819.0385986327	0.7728264332
3820.9674060057	0.7710589767
3822.8962133787	0.7516844273
3824.8250207518	0.7680876255
3826.7538281248	0.7787327766
3828.6826354979	0.7530922890
3830.6114428709	0.7771899700
3832.5402502440	0.7210958600
3834.4690576170	0.7561752200
3836.3978649901	0.7459077239
3838.3266723631	0.6803923249
3840.2554797362	0.7906498313
3842.1842871092	0.7429238558
3844.1130944823	0.7423803806
3846.0419018553	0.7696574330
3847.9707092284	0.7283792496
3849.8995166014	0.7991382480
3851.8283239745	0.7364959121
3853.7571313475	0.7216243148
3855.6859387205	0.7598698735
3857.6147460936	0.7271437049
3859.5435534666	0.7710172534
3861.4723608397	0.7497516870
3863.4011682127	0.7805497646
3865.3299755858	0.8101847768
3867.2587829588	0.7445556521
3869.1875903319	0.7399488688
3871.1163977049	0.7534180284
3873.0452050780	0.7329671383
3874.9740124510	0.7142333388
3876.9028198241	0.7922214866
3878.8316271971	0.7673469186
3880.7604345702	0.7547137737
3882.6892419432	0.8050607443
3884.6180493162	0.7303307056
3886.5468566893	0.7926267385
3888.4756640623	0.7574806213
3890.4044714354	0.6809867024
3892.3332788084	0.8219305873
3894.2620861815	0.7883210778
3896.1908935545	0.7433460355
3898.1197009276	0.7971417904
3900.0485083006	0.7501812577
3901.9773156737	0.7376139164
3903.9061230467	0.7514968514
3905.8349304198	0.6918419600
3907.7637377928	0.6773681641
3909.6925451659	0.7124069929
3911.6213525389	0.6729282141
3913.5501599119	0.6534976959
3915.4789672850	0.7604690194
3917.4077746580	0.7708899975
3919.3365820311	0.7455439568
3921.2653894041	0.8140956759
3923.1941967772	0.7974331379
3925.1230041502	0.7961658239
3927.0518115233	0.7787271738
3928.9806188963	0.7195743918
3930.9094262694	0.7275224924
3932.8382336424	0.7186384201
3934.7670410155	0.7545217276
3936.6958483885	0.7781121135
3938.6246557616	0.7624208927
3940.5534631346	0.7259647846
3942.4822705076	0.7056968808
3944.4110778807	0.7484068274
3946.3398852537	0.6897119880
3948.2686926268	0.7348877192
3950.1974999998	0.7986254096
3952.1263073729	0.7273577452
3954.0551147459	0.7844769955
3955.9839221190	0.7548141479
3957.9127294920	0.7030289173
3959.8415368651	0.7576700449
3961.7703442381	0.7325805426
3963.6991516112	0.6960660815
3965.6279589842	0.7001543045
3967.5567663573	0.7391621470
3969.4855737303	0.7237973809
3971.4143811034	0.6482085586
3973.3431884764	0.7153308392
3975.2719958494	0.7622786164
3977.2008032225	0.6921337843
3979.1296105955	0.7163593769
3981.0584179686	0.7017120123
3982.9872253416	0.6887226701
3984.9160327147	0.7174276114
3986.8448400877	0.6729857326
3988.7736474608	0.6611896157
3990.7024548338	0.7075035572
3992.6312622069	0.7231898308
3994.5600695799	0.6917355061
3996.4888769530	0.7385942340
3998.4176843260	0.7184596658
4000.3464916991	0.6635459661
4002.2752990721	0.7628180385
4004.2041064451	0.7468132973
4006.1329138182	0.6961562634
4008.0617211912	0.7722156048
4009.9905285643	0.7650824189
4011.9193359373	0.6674971581
4013.8481433104	0.6965472102
4015.7769506834	0.7354905009
4017.7057580565	0.6580648422
4019.6345654295	0.7240585089
4021.5633728026	0.7523542643
4023.4921801756	0.6700076461
4025.4209875487	0.7101843357
4027.3497949217	0.7826582193
4029.2786022948	0.7214036584
4031.2074096678	0.6912348866
4033.1362170408	0.8030034304
4035.0650244139	0.7601200938
4036.9938317869	0.7073343992
4038.9226391600	0.7583128214
4040.8514465330	0.7162761688
4042.7802539061	0.6582782865
4044.7090612791	0.7694116831
4046.6378686522	0.8443945646
4048.5666760252	0.7143873572
4050.4954833983	0.6916139126
4052.4242907713	0.6395909190
4054.3530981444	0.6897994876
4056.2819055174	0.7467364669
4058.2107128905	0.6879514456
4060.1395202635	0.7159732580
4062.0683276365	0.6821445227
4063.9971350096	0.7255411148
4065.9259423826	0.7018868923
4067.8547497557	0.7578258514
4069.7835571287	0.7986190319
4071.7123645018	0.6877427697
4073.6411718748	0.7808561921
4075.5699792479	0.7021281719
4077.4987866209	0.7423794270
4079.4275939940	0.7921280265
4081.3564013670	0.7562800050
4083.2852087401	0.7900931835
4085.2140161131	0.6499766111
4087.1428234862	0.6842513680
4089.0716308592	0.6420500278
4091.0004382323	0.6794772148
4092.9292456053	0.7829163074
4094.8580529783	0.6695263386
4096.7868603514	0.7108474970
4098.7156677244	0.6884215474
4100.6444750975	0.7333786488
4102.5732824705	0.7216852307
4104.5020898436	0.6478978992
4106.4308972166	0.6821560860
4108.3597045897	0.6338889599
4110.2885119627	0.7048530579
4112.2173193358	0.7345667481
4114.1461267088	0.6713477969
4116.0749340819	0.6754136682
4118.0037414549	0.7072765827
4119.9325488280	0.7637648582
4121.8613562010	0.7370994687
4123.7901635740	0.7062433958
4125.7189709471	0.7384073734
4127.6477783201	0.7225523591
4129.5765856932	0.7364199162
4131.5053930662	0.7264685631
4133.4342004393	0.6144187450
4135.3630078123	0.6510865092
4137.2918151854	0.6692224741
4139.2206225584	0.6819812059
4141.1494299315	0.7838153839
4143.0782373045	0.7306654453
4145.0070446776	0.6933782697
4146.9358520506	0.7134032249
4148.8646594237	0.7722882628
4150.7934667967	0.7311441302
4152.7222741697	0.6549723148
4154.6510815428	0.6904326677
4156.5798889158	0.7036637664
4158.5086962889	0.7074248195
4160.4375036619	0.6405830383
4162.3663110350	0.7130065560
4164.2951184080	0.7907820940
4166.2239257811	0.7039159536
4168.1527331541	0.7139143348
4170.0815405272	0.7051260471
4172.0103479002	0.7235230207
4173.9391552733	0.7203990817
4175.8679626463	0.7345290780
4177.7967700194	0.7992277741
4179.7255773924	0.7260432839
4181.6543847654	0.6856343150
4183.5831921385	0.7277412415
4185.5119995115	0.7747450471
4187.4408068846	0.7631083131
4189.3696142576	0.7236807942
4191.2984216307	0.7268594503
4193.2272290037	0.7228965163
4195.1560363768	0.7075899839
4197.0848437498	0.7428082228
4199.0136511229	0.7219947577
4200.9424584959	0.6959978938
4202.8712658690	0.6991204023
4204.8000732420	0.6743463874
4206.7288806151	0.7588701248
4208.6576879881	0.6951972246
4210.5864953611	0.6562895179
4212.5153027342	0.7161233425
4214.4441101072	0.6918739080
4216.3729174803	0.7672783732
4218.3017248533	0.6996986270
4220.2305322264	0.7355441451
4222.1593395994	0.7757678032
4224.0881469725	0.6687560678
4226.0169543455	0.7303708792
4227.9457617186	0.7100940943
4229.8745690916	0.7154637575
4231.8033764647	0.7185919285
4233.7321838377	0.6947227120
4235.6609912108	0.6749413610
4237.5897985838	0.6417025924
4239.5186059569	0.7785272002
4241.4474133299	0.8057694435
4243.3762207029	0.7146818638
4245.3050280760	0.6947740316
4247.2338354490	0.7483852506
4249.1626428221	0.7494681478
4251.0914501951	0.6969484687
4253.0202575682	0.6963273287
4254.9490649412	0.6474022865
4256.8778723143	0.7170384526
4258.8066796873	0.7239237428
4260.7354870604	0.6259633303
4262.6642944334	0.6942528486
4264.5931018065	0.7542926073
4266.5219091795	0.7417954206
4268.4507165526	0.7780386806
4270.3795239256	0.7648601532
4272.3083312986	0.7240538001
4274.2371386717	0.7938813567
4276.1659460447	0.7912371159
4278.0947534178	0.7429557443
4280.0235607908	0.7788079977
4281.9523681639	0.7512524724
4283.8811755369	0.7018383741
4285.8099829100	0.6858569384
4287.7387902830	0.7323026061
4289.6675976561	0.7214363813
4291.5964050291	0.7190472484
4293.5252124022	0.7907546163
4295.4540197752	0.7098426819
4297.3828271483	0.6719685793
4299.3116345213	0.6956996322
4301.2404418943	0.7246798873
4303.1692492674	0.8137982488
4305.0980566404	0.7710567713
4307.0268640135	0.6661779881
4308.9556713865	0.7042307854
4310.8844787596	0.7667793632
4312.8132861326	0.6642270684
4314.7420935057	0.6532413960
4316.6709008787	0.6702393293
4318.5997082518	0.6812183857
4320.5285156248	0.7972926497
4322.4573229979	0.6857814193
4324.3861303709	0.6796352863
4326.3149377440	0.8666154146
4328.2437451170	0.7745338082
4330.1725524900	0.7076240182
4332.1013598631	0.7283421755
4334.0301672361	0.6981760263
4335.9589746092	0.7026791573
4337.8877819822	0.7186281681
4339.8165893553	0.7130602598
4341.7453967283	0.6660718918
4343.6742041014	0.6894206405
4345.6030114744	0.7272111773
4347.5318188475	0.7133352160
4349.4606262205	0.6888953447
4351.3894335936	0.6070910096
4353.3182409666	0.6407645345
4355.2470483397	0.7063915133
4357.1758557127	0.6311097741
4359.1046630858	0.6683924198
4361.0334704588	0.7338977456
4362.9622778318	0.6698269248
4364.8910852049	0.6984288692
4366.8198925779	0.7374107838
4368.7486999510	0.6371411085
4370.6775073240	0.6639171243
4372.6063146971	0.7266494632
4374.5351220701	0.7186123729
4376.4639294432	0.7339494824
4378.3927368162	0.6899570227
4380.3215441893	0.6617599130
4382.2503515623	0.6642915606
4384.1791589354	0.6614578366
4386.1079663084	0.6580528617
4388.0367736815	0.6690160632
4389.9655810545	0.7094085217
4391.8943884275	0.6751424074
4393.8231958006	0.6899207234
4395.7520031736	0.6866692901
4397.6808105467	0.6278860569
4399.6096179197	0.6525816917
4401.5384252928	0.7148898244
4403.4672326658	0.7602351904
4405.3960400389	0.7475722432
4407.3248474119	0.7223705053
4409.2536547850	0.6504319310
4411.1824621580	0.6406592131
4413.1112695311	0.6872447133
4415.0400769041	0.6572060585
4416.9688842772	0.6792613268
4418.8976916502	0.7068534493
4420.8264990232	0.6753494740
4422.7553063963	0.6627925038
4424.6841137693	0.7401486039
4426.6129211424	0.7074429393
4428.5417285154	0.6713094711
4430.4705358885	0.7809041142
4432.3993432615	0.7449445128
4434.3281506346	0.6762830615
4436.2569580076	0.6419748068
4438.1857653807	0.7326015234
4440.1145727537	0.6893074512
4442.0433801268	0.5861316323
4443.9721874998	0.7245059609
4445.9009948729	0.6374402046
4447.8298022459	0.7458404303
4449.7586096189	0.8983909488
4451.6874169920	0.7174330354
4453.6162243650	0.7401484251
4455.5450317381	0.6505259871
4457.4738391111	0.6384521723
4459.4026464842	0.7112634778
4461.3314538572	0.6409239173
4463.2602612303	0.6705977917
4465.1890686033	0.7050839067
4467.1178759764	0.6067301035
4469.0466833494	0.5937470198
4470.9754907225	0.6762749553
4472.9042980955	0.6517063975
4474.8331054686	0.6980333924
4476.7619128416	0.7637706995
4478.6907202147	0.6883921623
4480.6195275877	0.6606834531
4482.5483349607	0.7043046951
4484.4771423338	0.7657131553
4486.4059497068	0.6841036081
4488.3347570799	0.6974605918
4490.2635644529	0.6481215358
4492.1923718260	0.5882844925
4494.1211791990	0.6784933209
4496.0499865721	0.6342691183
4497.9787939451	0.6499945521
4499.9076013182	0.6431180835
4501.8364086912	0.6245085597
4503.7652160643	0.6702730656
4505.6940234373	0.6688020229
4507.6228308104	0.6791906357
4509.5516381834	0.6537828445
4511.4804455564	0.7558761835
4513.4092529295	0.7500407100
4515.3380603025	0.6690402031
4517.2668676756	0.7612771392
4519.1956750486	0.7413480878
4521.1244824217	0.7129932046
4523.0532897947	0.7864131331
4524.9820971678	0.6760552526
4526.9109045408	0.5668544769
4528.8397119139	0.7116497755
4530.7685192869	0.6867126226
4532.6973266600	0.6513680220
4534.6261340330	0.7510533929
4536.5549414061	0.6003748178
4538.4837487791	0.6269595027
4540.4125561521	0.6996483207
4542.3413635252	0.6651113629
4544.2701708982	0.6861824393
4546.1989782713	0.6959336400
4548.1277856443	0.6732044816
4550.0565930174	0.6236704588
4551.9854003904	0.6954039335
4553.9142077635	0.6220731139
4555.8430151365	0.6043139100
4557.7718225096	0.7394558787
4559.7006298826	0.7712014914
4561.6294372557	0.7920550108
4563.5582446287	0.6850707531
4565.4870520018	0.7331080437
4567.4158593748	0.7500029206
4569.3446667478	0.6245195270
4571.2734741209	0.6844634414
4573.2022814939	0.6604330540
4575.1310888670	0.7361593246
4577.0598962400	0.7088135481
4578.9887036131	0.6176258922
4580.9175109861	0.7737627625
4582.8463183592	0.6853950024
4584.7751257322	0.6048775911
4586.7039331053	0.6475797296
4588.6327404783	0.6446373463
4590.5615478514	0.7257623076
4592.4903552244	0.6750316024
4594.4191625975	0.5913643837
4596.3479699705	0.6322401166
4598.2767773435	0.6997008920
4600.2055847166	0.6877605915
4602.1343920896	0.5762338042
4604.0631994627	0.5733400583
4605.9920068357	0.7307246923
4607.9208142088	0.7027238011
4609.8496215818	0.6653146744
4611.7784289549	0.7196951509
4613.7072363279	0.5964150429
4615.6360437010	0.6614268422
4617.5648510740	0.7522207499
4619.4936584471	0.6150923371
4621.4224658201	0.7680972219
4623.3512731932	0.7336654663
4625.2800805662	0.6721106172
4627.2088879393	0.7756072283
4629.1376953123	0.6005538106
4631.0665026853	0.6860265732
4632.9953100584	0.6740663648
4634.9241174314	0.5387332439
4636.8529248045	0.6126642227
4638.7817321775	0.5723000765
4640.7105395506	0.7616942525
4642.6393469236	0.7279988527
4644.5681542967	0.6057142615
4646.4969616697	0.7663759589
4648.4257690428	0.6585681438
4650.3545764158	0.6511445045
4652.2833837889	0.5811940432
4654.2121911619	0.6651706100
4656.1409985350	0.8661802411
4658.0698059080	0.6193345189
4659.9986132810	0.7413099408
4661.9274206541	0.7512873411
4663.8562280271	0.6453948021
4665.7850354002	0.7978525162
4667.7138427732	0.7357383966
4669.6426501463	0.7429438233
4671.5714575193	0.6423667669
4673.5002648924	0.6251785159
4675.4290722654	0.7406810522
4677.3578796385	0.6458075047
4679.2866870115	0.6410245895
4681.2154943846	0.7955904007
4683.1443017576	0.7653242350
4685.0731091307	0.6717678905
4687.0019165037	0.7823050618
4688.9307238767	0.8482192159
4690.8595312498	0.6849436760
4692.7883386228	0.6195778251
4694.7171459959	0.7046917081
4696.6459533689	0.7612900734
4698.5747607420	0.7872215509
4700.5035681150	0.8266794086
4702.4323754881	0.6836310625
4704.3611828611	0.7148566246
4706.2899902342	0.7693559527
4708.2187976072	0.6535680890
4710.1476049803	0.6917945743
4712.0764123533	0.6207742691
4714.0052197264	0.5962953568
4715.9340270994	0.6532173753
4717.8628344724	0.6338365078
4719.7916418455	0.6670920253
4721.7204492185	0.6925991774
4723.6492565916	0.7015798688
4725.5780639646	0.7484663129
4727.5068713377	0.7773168683
4729.4356787107	0.7003239989
4731.3644860838	0.7252175212
4733.2932934568	0.7391136289
4735.2221008299	0.6475301981
4737.1509082029	0.5953881741
4739.0797155760	0.6377453804
4741.0085229490	0.6832962036
4742.9373303221	0.5976037383
4744.8661376951	0.6788099408
4746.7949450682	0.6834871173
4748.7237524412	0.6956186891
4750.6525598142	0.7524505258
4752.5813671873	0.6103079915
4754.5101745603	0.6073073149
4756.4389819334	0.6451150775
4758.3677893064	0.7663748860
4760.2965966795	0.6560221910
4762.2254040525	0.5805559754
4764.1542114256	0.7520000339
4766.0830187986	0.6030545235
4768.0118261717	0.6646573544
4769.9406335447	0.7284612060
4771.8694409178	0.6879475117
4773.7982482908	0.6660132408
4775.7270556639	0.6270549297
4777.6558630369	0.7197831273
4779.5846704099	0.6318844557
4781.5134777830	0.8215196133
4783.4422851560	0.8159335256
4785.3710925291	0.6608817577
4787.2998999021	0.7729812264
4789.2287072752	0.5913563371
4791.1575146482	0.7169311047
4793.0863220213	0.6753994823
4795.0151293943	0.4858398736
4796.9439367674	0.6581137776
4798.8727441404	0.6350067854
4800.8015515135	0.6286633015
4802.7303588865	0.8037802577
4804.6591662596	0.7107563019
4806.5879736326	0.6258352995
4808.5167810056	0.8222491145
4810.4455883787	0.8035057187
4812.3743957517	0.5634680986
4814.3032031248	0.5659738183
4816.2320104978	0.6847828627
4818.1608178709	0.6570058465
4820.0896252439	0.6959602237
4822.0184326170	0.7577639818
4823.9472399900	0.6503267884
4825.8760473631	0.6541770697
4827.8048547361	0.7128304243
4829.7336621092	0.7119329572
4831.6624694822	0.6378214359
4833.5912768553	0.6769669652
4835.5200842283	0.8552740812
4837.4488916013	0.6467736959
4839.3776989744	0.7073912621
4841.3065063474	0.8427947164
4843.2353137205	0.6817792654
4845.1641210935	0.8277077675
4847.0929284666	0.6765791774
4849.0217358396	0.6262469888
4850.9505432127	0.7543614507
4852.8793505857	0.7166696787
4854.8081579588	0.7936683297
4856.7369653318	0.5907992125
4858.6657727049	0.6533260942
4860.5945800779	0.8495830297
4862.5233874510	0.7119464874
4864.4521948240	0.6351568699
4866.3810021971	0.6171816587
4868.3098095701	0.8172889352
4870.2386169431	0.7026139498
4872.1674243162	0.6405214667
4874.0962316892	0.7126106620
4876.0250390623	0.5307341218
4877.9538464353	0.6820805669
4879.8826538084	0.6769999266
4881.8114611814	0.6438994408
4883.7402685545	0.8106796145
4885.6690759275	0.8033091426
4887.5978833006	0.7292217612
4889.5266906736	0.6283038259
4891.4554980467	0.7829457521
4893.3843054197	0.6692551970
4895.3131127928	0.6515859962
4897.2419201658	0.8465086222
4899.1707275388	0.5867605805
4901.0995349119	0.7044458389
4903.0283422849	0.8164002299
4904.9571496580	0.6563233137
4906.8859570310	0.6541725397
4908.8147644041	0.7132838368
4910.7435717771	0.7797179222
4912.6723791502	0.7395932674
4914.6011865232	0.6687969565
4916.5299938963	0.6669535637
4918.4588012693	0.7230146527
4920.3876086424	0.6748661995
4922.3164160154	0.7361905575
4924.2452233885	0.8213684559
4926.1740307615	0.6612384915
4928.1028381345	0.7049590945
4930.0316455076	0.7181463838
4931.9604528806	0.5663396716
4933.8892602537	0.6176639795
4935.8180676267	0.6225403547
4937.7468749998	0.5825527310
4939.6756823728	0.7014932632
4941.6044897459	0.6302360892
4943.5332971189	0.6225023866
4945.4621044920	0.8495890498
4947.3909118650	0.7475305200
4949.3197192381	0.8358340263
4951.2485266111	0.7193912268
4953.1773339842	0.5370190144
4955.1061413572	0.8181871772
4957.0349487302	0.6774390340
4958.9637561033	0.5893608928
4960.8925634763	0.7454190850
4962.8213708494	0.6823918819
4964.7501782224	0.6548376083
4966.6789855955	0.7121434808
4968.6077929685	0.8654885888
4970.5366003416	0.7472037673
4972.4654077146	0.7979235649
4974.3942150877	0.9167845845
4976.3230224607	0.5964269042
4978.2518298338	0.5891855955
4980.1806372068	0.6385051012
4982.1094445799	0.6276478171
4984.0382519529	0.6950778961
4985.9670593259	0.6255404353
4987.8958666990	0.6648690701
4989.8246740720	0.5945124626
4991.7534814451	0.5937979817
4993.6822888181	0.9038527012
4995.6110961912	0.8735888600
4997.5399035642	0.7303812504
4999.4687109373	0.8333374858
5001.3975183103	0.6892195940
5003.3263256834	0.5347182155
5005.2551330564	0.7333716750
5007.1839404295	0.7610917091
5009.1127478025	0.6452590823
5011.0415551756	0.8469276428
5012.9703625486	0.7626521587
5014.8991699217	0.6350156665
5016.8279772947	0.6792389750
5018.7567846677	0.5603881478
5020.6855920408	0.6604323387
5022.6143994138	0.6829712987
5024.5432067869	0.6410837173
5026.4720141599	0.7120158672
5028.4008215330	0.5589651465
5030.3296289060	0.5653828979
5032.2584362791	0.5436092615
5034.1872436521	0.4925547838
5036.1160510252	0.6412918568
5038.0448583982	0.6867433190
5039.9736657713	0.6255397201
5041.9024731443	0.7348428369
5043.8312805174	0.7060335875
5045.7600878904	0.6506830454
5047.6888952634	0.7041090727
5049.6177026365	0.7213095427
5051.5465100095	0.7337681651
5053.4753173826	0.5978198647
5055.4041247556	0.6748768687
5057.3329321287	0.8181876540
5059.2617395017	0.6505862474
5061.1905468748	0.7135779262
5063.1193542478	0.7344607115
5065.0481616209	0.7025257945
5066.9769689939	0.7415550947
5068.9057763670	0.8445197940
5070.8345837400	0.7810600996
5072.7633911131	0.5459305048
5074.6921984861	0.6990756392
5076.6210058591	0.6450693011
5078.5498132322	0.6883823872
5080.4786206052	0.7990840077
5082.4074279783	0.6125183105
5084.3362353513	0.7037982941
5086.2650427244	0.5794684887
5088.1938500974	0.6725708246
5090.1226574705	0.7584730387
5092.0514648435	0.5694213510
5093.9802722166	0.9206958413
5095.9090795896	0.8457958102
5097.8378869627	0.7445321083
5099.7666943357	0.6971815825
5101.6955017088	0.5517612100
5103.6243090818	0.7305732965
5105.5531164548	0.6503084302
5107.4819238279	0.5989274383
5109.4107312009	0.7542583942
5111.3395385740	0.7615143061
5113.2683459470	0.7632019520
5115.1971533201	0.7720730901
5117.1259606931	0.7050873637
5119.0547680662	0.9385535121
5120.9835754392	1.1085910797
5122.9123828123	0.7493449450
5124.8411901853	0.7669663429
5126.7699975584	0.6273669004
5128.6988049314	0.7264197469
5130.6276123045	0.9496828914
5132.5564196775	0.6777097583
5134.4852270506	0.8613633513
5136.4140344236	0.7782407999
5138.3428417966	0.6729943752
5140.2716491697	0.6503107548
5142.2004565427	0.5022637248
5144.1292639158	0.6223286390
5146.0580712888	0.5962005258
5147.9868786619	0.7641448379
5149.9156860349	0.8647100925
5151.8444934080	0.5465442538
5153.7733007810	0.5434207916
5155.7021081541	0.6458133459
5157.6309155271	0.8258882761
5159.5597229002	0.6866391897
5161.4885302732	0.7129620314
5163.4173376463	0.8846988678
5165.3461450193	0.6303715706
5167.2749523923	0.6302412748
5169.2037597654	0.5354236960
5171.1325671384	0.6774773598
5173.0613745115	0.8032812476
5174.9901818845	0.5278145075
5176.9189892576	0.6241937280
5178.8477966306	0.6347754598
5180.7766040037	0.5824252367
5182.7054113767	0.7933517098
5184.6342187498	0.7497931719
5186.5630261228	0.6825860143
5188.4918334959	0.6651602983
5190.4206408689	0.5375074744
5192.3494482420	0.7606425881
5194.2782556150	0.7151140571
5196.2070629880	0.4663375020
5198.1358703611	0.6522056460
5200.0646777341	0.7829412818
5201.9934851072	0.7663970590
5203.9222924802	0.6232305169
5205.8510998533	0.5383304358
5207.7799072263	0.6344268322
5209.7087145994	0.7532876134
5211.6375219724	0.8482187390
5213.5663293455	0.5879331827
5215.4951367185	0.6091485620
5217.4239440916	0.6961025000
5219.3527514646	0.5738281608
5221.2815588377	0.6370328069
5223.2103662107	0.5994464755
5225.1391735837	0.5990453959
5227.0679809568	0.5069104433
5228.9967883298	0.6470989585
5230.9255957029	0.9102332592
5232.8544030759	0.6054962873
5234.7832104490	0.7384805083
5236.7120178220	0.6201467514
5238.6408251951	0.5591377020
5240.5696325681	0.8346115947
5242.4984399412	0.6533330679
5244.4272473142	0.7674450874
5246.3560546873	0.7540729046
5248.2848620603	0.5911093950
5250.2136694334	0.6903193593
5252.1424768064	0.5175947547
5254.0712841795	0.4918793738
5256.0000915525	0.6862342358
5257.9288989255	0.8003530502
5259.8577062986	0.7089959383
5261.7865136716	0.5284356475
5263.7153210447	0.6756287813
5265.6441284177	0.7829623222
5267.5729357908	0.7358822823
5269.5017431638	0.8909608722
5271.4305505369	0.7453487515
5273.3593579099	0.6084175110
5275.2881652830	0.7041541338
5277.2169726560	0.6975716949
5279.1457800291	0.6627024412
5281.0745874021	0.6297230124
5283.0033947752	0.5798436999
5284.9322021482	0.7045239210
5286.8610095212	0.6793614626
5288.7898168943	0.6193796992
5290.7186242673	0.5268238187
5292.6474316404	0.7006101608
5294.5762390134	0.9489337802
5296.5050463865	0.5124444962
5298.4338537595	0.3285664320
5300.3626611326	0.6786516309
5302.2914685056	0.7817728519
5304.2202758787	0.6456806064
5306.1490832517	0.5917107463
5308.0778906248	0.6783942580
5310.0066979978	0.6435222626
5311.9355053709	0.6533278227
5313.8643127439	0.8550411463
5315.7931201169	0.7976286411
5317.7219274900	0.5742068887
5319.6507348630	0.6245148778
5321.5795422361	0.7140920758
5323.5083496091	0.6354922056
5325.4371569822	0.7890964746
5327.3659643552	0.8410126567
5329.2947717283	0.6593865156
5331.2235791013	0.7352755666
5333.1523864744	0.8559642434
5335.0811938474	0.6886872053
5337.0100012205	0.7328479290
5338.9388085935	0.7562547326
5340.8676159666	0.5638895035
5342.7964233396	0.6221061349
5344.7252307126	0.8712655902
5346.6540380857	0.8852947950
5348.5828454587	0.5863510966
5350.5116528318	0.5537253022
5352.4404602048	0.8842060566
5354.3692675779	0.8960909247
5356.2980749509	0.5639173388
5358.2268823240	0.5943428874
5360.1556896970	0.6785212159
5362.0844970701	0.5262222290
5364.0133044431	0.7787437439
5365.9421118162	0.6990850568
5367.8709191892	0.6087045670
5369.7997265623	0.6013821959
5371.7285339353	0.5008153319
5373.6573413083	0.7392336130
5375.5861486814	0.5508847237
5377.5149560544	0.5795348287
5379.4437634275	0.6164303422
5381.3725708005	0.5035223961
5383.3013781736	0.7804452777
5385.2301855466	0.7546501160
5387.1589929197	0.8486130834
5389.0878002927	0.6977216005
5391.0166076658	0.5091258883
5392.9454150388	0.5820701122
5394.8742224119	0.6147975326
5396.8030297849	0.6581828594
5398.7318371580	0.6425150037
5400.6606445310	0.9170543551
5402.5894519041	0.7155160904
5404.5182592771	0.6224055290
5406.4470666501	0.7896150947
5408.3758740232	0.7279106975
5410.3046813962	0.8051908612
5412.2334887693	0.8476747274
5414.1622961423	0.7616251111
5416.0911035154	0.5093385577
5418.0199108884	0.4268319309
5419.9487182615	0.5646629930
5421.8775256345	0.7239134312
5423.8063330076	0.6892796755
5425.7351403806	0.9835268259
5427.6639477537	1.0239645243
5429.5927551267	0.5500887632
5431.5215624998	0.7819538116
5433.4503698728	0.8315829039
5435.3791772458	0.8480330706
5437.3079846189	0.9521110058
5439.2367919919	0.8173684478
5441.1655993650	0.8269937634
5443.0944067380	0.5654729605
5445.0232141111	0.7874065042
5446.9520214841	0.6181964874
5448.8808288572	0.6242774725
5450.8096362302	0.6774522066
5452.7384436033	0.5497445464
5454.6672509763	0.8734722137
5456.5960583494	0.5439636111
5458.5248657224	0.5834494829
5460.4536730955	0.8185748458
5462.3824804685	0.7073673010
5464.3112878415	0.7126824856
5466.2400952146	0.6349149346
5468.1689025876	0.7920777202
5470.0977099607	0.5637858510
5472.0265173337	0.6581112146
5473.9553247068	0.7051678300
5475.8841320798	0.4510666132
5477.8129394529	0.5253184438
5479.7417468259	0.6715751886
5481.6705541990	0.8766346574
5483.5993615720	0.3724914193
5485.5281689451	0.3800699115
5487.4569763181	0.4644286335
5489.3857836912	0.5274927020
5491.3145910642	0.7892344594
5493.2433984372	0.6986765265
5495.1722058103	0.7334704995
5497.1010131833	0.4675797224
5499.0298205564	0.5527402163
5500.9586279294	0.6631922126
5502.8874353025	0.4756582379
5504.8162426755	0.7968845963
5506.7450500486	0.5648375154
5508.6738574216	0.4272143543
5510.6026647947	0.7457555532
5512.5314721677	0.7566999197
5514.4602795408	0.8557822704
5516.3890869138	0.6079691052
5518.3178942869	0.5224111676
5520.2467016599	0.6012077928
5522.1755090330	0.5096828341
5524.1043164060	0.5085579157
5526.0331237790	0.6107835174
5527.9619311521	0.7814268470
5529.8907385251	0.7801592350
5531.8195458982	0.6342654228
5533.7483532712	0.5766186118
5535.6771606443	0.5654993057
5537.6059680173	0.7482637763
5539.5347753904	0.8003230095
5541.4635827634	0.4591521919
5543.3923901365	0.6237182617
5545.3211975095	0.7032428384
5547.2500048826	0.4966227114
5549.1788122556	0.7318331003
5551.1076196287	0.7009936571
5553.0364270017	0.7361654043
5554.9652343747	0.7562872767
5556.8940417478	0.5869418979
5558.8228491208	0.6488531828
5560.7516564939	0.4665482342
5562.6804638669	0.5483050942
5564.6092712400	0.7317909598
5566.5380786130	0.6017309427
5568.4668859861	0.8584809899
5570.3956933591	0.7987006903
5572.3245007322	0.5528706312
5574.2533081052	0.6036963463
5576.1821154783	0.7052077055
5578.1109228513	0.8075512648
5580.0397302244	0.6535156965
5581.9685375974	0.8005134463
5583.8973449704	0.7539585829
5585.8261523435	0.6516286731
5587.7549597165	0.6683193445
5589.6837670896	0.4662313461
5591.6125744626	0.7253862619
5593.5413818357	0.6260846257
5595.4701892087	0.4722242653
5597.3989965818	0.6524968743
5599.3278039548	0.6601693034
5601.2566113279	0.8255027533
5603.1854187009	0.5320934057
5605.1142260740	0.6679698229
5607.0430334470	0.8990083337
5608.9718408201	0.4151041806
5610.9006481931	0.6676353216
5612.8294555661	0.8201702237
5614.7582629392	0.4534799159
5616.6870703122	0.4679276943
5618.6158776853	0.6951560378
5620.5446850583	0.5042865872
5622.4734924314	0.4808291793
5624.4022998044	0.8143196106
5626.3311071775	0.7370022535
5628.2599145505	0.5279368758
5630.1887219236	0.5686808228
5632.1175292966	0.5334849358
5634.0463366697	0.5915299654
5635.9751440427	0.6309930682
5637.9039514158	0.6255259514
5639.8327587888	0.5058930516
5641.7615661619	0.5074870586
5643.6903735349	0.3828433752
5645.6191809079	0.3544681668
5647.5479882810	0.6223741770
5649.4767956540	0.3395651579
5651.4056030271	0.4636250436
5653.3344104001	0.8537306786
5655.2632177732	0.5619187951
5657.1920251462	0.8334638476
5659.1208325193	0.6263610721
5661.0496398923	0.5529732704
5662.9784472654	0.9274625778
5664.9072546384	0.6034386158
5666.8360620115	0.5353648663
5668.7648693845	0.9697154164
5670.6936767576	0.9452174306
5672.6224841306	0.6351655722
5674.5512915036	0.5911661386
5676.4800988767	0.3554602861
5678.4089062497	0.4514289796
5680.3377136228	0.8689129949
5682.2665209958	0.5451151133
5684.1953283689	0.7397760749
5686.1241357419	0.8715578318
5688.0529431150	0.6882883310
5689.9817504880	0.4367191195
5691.9105578611	0.5695402026
5693.8393652341	1.1945670843
5695.7681726072	0.6821459532
5697.6969799802	0.8350502849
5699.6257873533	0.7831889391
5701.5545947263	0.2152935416
5703.4834020993	0.4722292125
5705.4122094724	0.6549121737
5707.3410168454	0.6202993989
5709.2698242185	0.7419426441
5711.1986315915	0.7018420696
5713.1274389646	0.6106531024
5715.0562463376	0.8085938692
5716.9850537107	0.9254924059
5718.9138610837	0.9330857992
5720.8426684568	0.5890896320
5722.7714758298	0.7527242899
5724.7002832029	1.1599007845
5726.6290905759	0.5610108376
5728.5578979490	0.4625659883
5730.4867053220	0.7595536709
5732.4155126950	0.4332410991
5734.3443200681	0.3939287961
5736.2731274411	1.0975357294
5738.2019348142	1.3845154047
5740.1307421872	0.6475116611
5742.0595495603	0.9087767601
5743.9883569333	0.6275820136
5745.9171643064	0.6258618832
5747.8459716794	1.3615723848
5749.7747790525	0.7977609038
5751.7035864255	0.5530923605
5753.6323937986	0.9873007536
5755.5612011716	0.8860462308
5757.4900085447	0.6254010797
5759.4188159177	0.6604964137
5761.3476232907	0.5508921146
5763.2764306638	0.6987209320
5765.2052380368	0.6522677541
5767.1340454099	0.6404806376
5769.0628527829	0.9601856470
5770.9916601560	0.4391074181
5772.9204675290	0.5993270278
5774.8492749021	1.0995953083
5776.7780822751	0.7922071218
5778.7068896482	0.8300777078
5780.6356970212	0.4813111424
5782.5645043943	0.5253976583
5784.4933117673	0.6342753172
5786.4221191404	0.8956113458
5788.3509265134	0.6833204031
5790.2797338865	0.5178513527
5792.2085412595	0.7762808204
5794.1373486325	0.8020088077
5796.0661560056	0.8523750305
5797.9949633786	0.3438174725
5799.9237707517	0.6289721131
5801.8525781247	1.2255922556
5803.7813854978	0.7210102081
5805.7101928708	0.9959337711
5807.6390002439	0.7142300010
5809.5678076169	0.5601265430
5811.4966149900	0.7791050673
5813.4254223630	0.6498547792
5815.3542297361	0.8704056144
5817.2830371091	1.0724772215
5819.2118444822	0.6213117838
5821.1406518552	0.6574176550
5823.0694592282	0.7676733136
5824.9982666013	0.4789822102
5826.9270739743	0.6777534485
5828.8558813474	0.6151633263
5830.7846887204	0.4274636507
5832.7134960935	0.6077435613
5834.6423034665	0.4598386884
5836.5711108396	0.6604330540
5838.4999182126	0.8562330604
5840.4287255857	0.7656191587
5842.3575329587	0.8162595034
5844.2863403318	0.6528303027
5846.2151477048	1.2143237591
5848.1439550779	0.6443489194
5850.0727624509	0.4608535171
5852.0015698239	1.1583155394
5853.9303771970	0.7245490551
5855.8591845700	0.7139794230
5857.7879919431	0.7195603848
5859.7167993161	0.1348900199
5861.6456066892	0.7723827958
5863.5744140622	0.6397175789
5865.5032214353	0.4886450171
5867.4320288083	0.8582760096
5869.3608361814	0.6937749386
5871.2896435544	0.4903697371
5873.2184509275	0.4266938865
5875.1472583005	0.5451834798
5877.0760656736	0.3824233711
5879.0048730466	0.4132116437
5880.9336804196	0.6761898398
5882.8624877927	0.6878715754
5884.7912951657	0.9136275649
5886.7201025388	0.6193280220
5888.6489099118	0.6915250421
5890.5777172849	1.1371436119
5892.5065246579	0.8081202507
5894.4353320310	0.6513507962
5896.3641394040	0.5870125294
5898.2929467771	1.0975806713
5900.2217541501	0.7635054588
5902.1505615232	0.7136923075
5904.0793688962	0.7597171664
5906.0081762693	0.7686201930
5907.9369836423	1.0219097137
5909.8657910154	0.5911409855
5911.7945983884	0.7173102498
5913.7234057614	0.4275561571
5915.6522131345	0.2204355001
5917.5810205075	0.7222425938
5919.5098278806	0.8448299766
5921.4386352536	0.7778238058
5923.3674426267	0.4664307833
5925.2962499997	0.7546826005
5927.2250573728	1.0405637026
5929.1538647458	0.8818499446
5931.0826721189	0.7528813481
5933.0114794919	0.6552746296
5934.9402868650	0.9450631738
5936.8690942380	0.5476802588
5938.7979016111	0.6629589796
5940.7267089841	1.2961320877
5942.6555163571	0.4119999111
5944.5843237302	0.3112258315
5946.5131311032	0.7544376850
5948.4419384763	0.9656642675
5950.3707458493	0.4834658206
5952.2995532224	0.6767745614
5954.2283605954	0.8842542171
5956.1571679685	0.4270316660
5958.0859753415	0.5220753551
5960.0147827146	0.4740669131
5961.9435900876	0.6807097197
5963.8723974607	0.4105831981
5965.8012048337	0.6333760619
5967.7300122068	0.8307701349
5969.6588195798	0.2320144176
5971.5876269528	0.5272591114
5973.5164343259	0.5787521601
5975.4452416989	0.6149230599
5977.3740490720	1.2760655880
5979.3028564450	0.4921528697
5981.2316638181	0.6863838434
5983.1604711911	1.5249491930
5985.0892785642	1.1119345427
5987.0180859372	0.6031436324
5988.9468933103	0.7331169248
5990.8757006833	1.4552149773
5992.8045080564	0.6688096523
5994.7333154294	0.4732975662
5996.6621228025	0.9095330238
5998.5909301755	0.9727345705
6000.5197375485	0.5804985762
