399.2631262207	0.0013129315
401.1919335938	0.0010161295
403.1207409668	0.0008829567
405.0495483398	0.0017524840
406.9783557129	0.0011970178
408.9071630859	0.0011701917
410.8359704590	0.0015671062
412.7647778320	0.0013194153
414.6935852051	0.0015971301
416.6223925781	0.0011861695
418.5511999512	0.0012376057
420.4800073242	0.0015398924
422.4088146973	0.0013795381
424.3376220703	0.0015626781
426.2664294434	0.0015763192
428.1952368164	0.0019180209
430.1240441895	0.0017731281
432.0528515625	0.0016853357
433.9816589355	0.0018340832
435.9104663086	0.0014196308
437.8392736816	0.0016842165
439.7680810547	0.0019210909
441.6968884277	0.0017113411
443.6256958008	0.0015429673
445.5545031738	0.0014181340
447.4833105469	0.0015029171
449.4121179199	0.0014043238
451.3409252930	0.0011902987
453.2697326660	0.0012352101
455.1985400391	0.0013556569
457.1273474121	0.0013852031
459.0561547852	0.0012046209
460.9849621582	0.0010207843
462.9137695313	0.0008758605
464.8425769043	0.0005612504
466.7713842773	0.0008684042
468.7001916504	0.0009831247
470.6289990234	0.0004083897
472.5578063965	0.0002389865
474.4866137695	0.0006095032
476.4154211426	0.0008223106
478.3442285156	0.0003190800
480.2730358887	0.0007454085
482.2018432617	0.0007894367
484.1306506348	0.0003206327
486.0594580078	0.0008132732
487.9882653809	0.0000504781
489.9170727539	0.0003212620
491.8458801270	0.0008496799
493.7746875000	-0.0000223944
495.7034948730	0.0004048592
497.6323022461	0.0004464685
499.5611096191	0.0004888704
501.4899169922	0.0007020962
503.4187243652	-0.0001185214
505.3475317383	-0.0000536063
507.2763391113	0.0003818515
509.2051464844	0.0001542197
511.1339538574	-0.0001038843
513.0627612305	-0.0000516308
514.9915686035	0.0005029876
516.9203759766	0.0005901660
518.8491833496	-0.0000022893
520.7779907227	0.0003685345
522.7067980957	0.0003228792
524.6356054688	-0.0000335445
526.5644128418	0.0006673763
528.4932202148	0.0002542966
530.4220275879	0.0000146776
532.3508349609	0.0005528952
534.2796423340	0.0003860163
536.2084497070	0.0001542938
538.1372570801	0.0000942462
540.0660644531	0.0004009539
541.9948718262	0.0002588387
543.9236791992	0.0003290307
545.8524865723	0.0004963045
547.7812939453	0.0000611464
549.7101013184	0.0003061261
551.6389086914	0.0001937655
553.5677160645	0.0001175192
555.4965234375	0.0003806179
557.4253308105	0.0001110931
559.3541381836	0.0004504172
561.2829455566	0.0003941237
563.2117529297	-0.0000098838
565.1405603027	0.0003540065
567.0693676758	0.0002763539
568.9981750488	0.0003219277
570.9269824219	0.0005694033
572.8557897949	0.0003325783
574.7845971680	0.0003093483
576.7134045410	0.0000637189
578.6422119141	0.0001184021
580.5710192871	0.0002423674
582.4998266602	0.0001832983
584.4286340332	0.0004314435
586.3574414063	0.0004283788
588.2862487793	0.0003330826
590.2150561523	0.0001369787
592.1438635254	0.0001637800
594.0726708984	0.0003539383
596.0014782715	0.0001816260
597.9302856445	0.0003182348
599.8590930176	0.0004351509
601.7879003906	0.0001682821
603.7167077637	0.0003774368
605.6455151367	0.0004609486
607.5743225098	-0.0000399425
609.5031298828	0.0000531560
611.4319372559	0.0003399602
613.3607446289	0.0003035669
615.2895520020	0.0005441829
617.2183593750	-0.0000094016
619.1471667480	-0.0000063209
621.0759741211	0.0004229099
623.0047814941	0.0000244043
624.9335888672	0.0000661949
626.8623962402	-0.0000146414
628.7912036133	-0.0000014856
630.7200109863	0.0003031430
632.6488183594	0.0008866944
634.5776257324	0.0009729270
636.5064331055	0.0010143592
638.4352404785	0.0011226290
640.3640478516	0.0009579290
642.2928552246	0.0014137584
644.2216625977	0.0015731279
646.1504699707	0.0018845873
648.0792773438	0.0019613025
650.0080847168	0.0018459582
651.9368920898	0.0021818220
653.8656994629	0.0021257633
655.7945068359	0.0023398721
657.7233142090	0.0023617935
659.6521215820	0.0026910258
661.5809289551	0.0025382270
663.5097363281	0.0023097610
665.4385437012	0.0031486894
667.3673510742	0.0027703021
669.2961584473	0.0029816236
671.2249658203	0.0033471333
673.1537731934	0.0030442728
675.0825805664	0.0034139492
677.0113879395	0.0033450339
678.9401953125	0.0036848965
680.8690026855	0.0037128679
682.7978100586	0.0036498145
684.7266174316	0.0039521921
686.6554248047	0.0035268418
688.5842321777	0.0033425461
690.5130395508	0.0036486643
692.4418469238	0.0043312889
694.3706542969	0.0044347877
696.2994616699	0.0048443144
698.2282690430	0.0058218297
700.1570764160	0.0056938678
702.0858837891	0.0056195408
704.0146911621	0.0054717185
705.9434985352	0.0049615810
707.8723059082	0.0043118885
709.8011132813	0.0033156378
711.7299206543	0.0024352113
713.6587280273	0.0014936740
715.5875354004	0.0009336326
717.5163427734	0.0006144865
719.4451501465	0.0003104049
721.3739575195	0.0002786840
723.3027648926	0.0002103318
725.2315722656	0.0000182787
727.1603796387	-0.0000232152
729.0891870117	0.0002851662
731.0179943848	0.0000867229
732.9468017578	0.0000717259
734.8756091309	0.0004625624
736.8044165039	0.0000072101
738.7332238770	0.0000079097
740.6620312500	0.0002855259
742.5908386230	0.0000931443
744.5196459961	0.0002872723
746.4484533691	0.0001334521
748.3772607422	0.0000253793
750.3060681152	0.0002686529
752.2348754883	0.0000120914
754.1636828613	0.0003225449
756.0924902344	0.0006026110
758.0212976074	0.0002802113
759.9501049805	0.0003443861
761.8789123535	0.0000897404
763.8077197266	0.0002934813
765.7365270996	0.0004990173
767.6653344727	0.0001537835
769.5941418457	0.0000605671
771.5229492188	0.0002468267
773.4517565918	0.0002574115
775.3805639648	0.0003283182
777.3093713379	0.0005916810
779.2381787109	0.0002436413
781.1669860840	0.0001969970
783.0957934570	0.0002638922
785.0246008301	0.0000470433
786.9534082031	0.0002821697
788.8822155762	0.0007078256
790.8110229492	0.0007482219
792.7398303223	0.0004590421
794.6686376953	0.0004360692
796.5974450684	0.0004639740
798.5262524414	0.0008536688
800.4550598145	0.0008723533
802.3838671875	0.0005925687
804.3126745605	0.0007539253
806.2414819336	0.0004727975
808.1702893066	0.0005826630
810.0990966797	0.0004994390
812.0279040527	0.0002399477
813.9567114258	0.0005182388
815.8855187988	0.0004233589
817.8143261719	0.0003718447
819.7431335449	0.0003255712
821.6719409180	0.0003058264
823.6007482910	0.0003746614
825.5295556641	0.0005568784
827.4583630371	0.0008593440
829.3871704102	0.0009450769
831.3159777832	0.0010861817
833.2447851563	0.0015607749
835.1735925293	0.0016933981
837.1023999023	0.0013864851
839.0312072754	0.0017537579
840.9600146484	0.0015582467
842.8888220215	0.0011868649
844.8176293945	0.0015744836
846.7464367676	0.0013163718
848.6752441406	0.0012049772
850.6040515137	0.0012910721
852.5328588867	0.0009299620
854.4616662598	0.0006683923
856.3904736328	0.0009724359
858.3192810059	0.0011337334
860.2480883789	0.0007882830
862.1768957520	0.0006000415
864.1057031250	0.0004287128
866.0345104980	0.0005173823
867.9633178711	0.0004742098
869.8921252441	0.0004014220
871.8209326172	0.0004014651
873.7497399902	0.0003036857
875.6785473633	0.0004701744
877.6073547363	0.0004835356
879.5361621094	0.0007485135
881.4649694824	0.0006560209
883.3937768555	0.0003245016
885.3225842285	0.0003015855
887.2513916016	0.0002809837
889.1801989746	0.0006710598
891.1090063477	0.0005467799
893.0378137207	0.0002634552
894.9666210938	0.0003285758
896.8954284668	0.0002671995
898.8242358398	0.0003055072
900.7530432129	0.0002708539
902.6818505859	0.0003185841
904.6106579590	0.0004786058
906.5394653320	0.0006264695
908.4682727051	0.0007072409
910.3970800781	0.0007713439
912.3258874512	0.0007331517
914.2546948242	0.0007832559
916.1835021973	0.0010356358
918.1123095703	0.0010876853
920.0411169434	0.0012212077
921.9699243164	0.0012675421
923.8987316895	0.0014102531
925.8275390625	0.0016638841
927.7563464355	0.0017951712
929.6851538086	0.0021665422
931.6139611816	0.0022694871
933.5427685547	0.0024627387
935.4715759277	0.0024765388
937.4003833008	0.0022164728
939.3291906738	0.0026930326
941.2579980469	0.0028017487
943.1868054199	0.0027628578
945.1156127930	0.0028499020
947.0444201660	0.0025600661
948.9732275391	0.0027310788
950.9020349121	0.0026659211
952.8308422852	0.0026312033
954.7596496582	0.0028318730
956.6884570313	0.0025710729
958.6172644043	0.0025753244
960.5460717773	0.0025788411
962.4748791504	0.0024693669
964.4036865234	0.0024305810
966.3324938965	0.0025382820
968.2613012695	0.0029113388
970.1901086426	0.0030631837
972.1189160156	0.0031963750
974.0477233887	0.0035158210
975.9765307617	0.0037424101
977.9053381348	0.0040524499
979.8341455078	0.0044374065
981.7629528809	0.0045933453
983.6917602539	0.0051075704
985.6205676270	0.0057047699
987.5493750000	0.0062637441
989.4781823730	0.0071347700
991.4069897461	0.0077590989
993.3357971191	0.0085334387
995.2646044922	0.0093705878
997.1934118652	0.0104195774
999.1222192383	0.0112559386
1001.0510266113	0.0116577540
1002.9798339844	0.0125528509
1004.9086413574	0.0133965360
1006.8374487305	0.0144310426
1008.7662561035	0.0153511688
1010.6950634766	0.0161365829
1012.6238708496	0.0170050971
1014.5526782227	0.0179283284
1016.4814855957	0.0190937370
1018.4102929688	0.0197558030
1020.3391003418	0.0207304731
1022.2679077148	0.0215598792
1024.1967150879	0.0224672388
1026.1255224609	0.0235537030
1028.0543298340	0.0239204429
1029.9831372070	0.0247213207
1031.9119445801	0.0253330488
1033.8407519531	0.0259371959
1035.7695593262	0.0264364891
1037.6983666992	0.0265141241
1039.6271740723	0.0267412812
1041.5559814453	0.0265972055
1043.4847888184	0.0265422091
1045.4135961914	0.0262681022
1047.3424035645	0.0258280411
1049.2712109375	0.0254693292
1051.2000183105	0.0250360742
1053.1288256836	0.0245321803
1055.0576330566	0.0239172000
1056.9864404297	0.0235845838
1058.9152478027	0.0229764041
1060.8440551758	0.0223686248
1062.7728625488	0.0219127648
1064.7016699219	0.0210216790
1066.6304772949	0.0201764442
1068.5592846680	0.0194040239
1070.4880920410	0.0183197632
1072.4168994141	0.0176032316
1074.3457067871	0.0170267485
1076.2745141602	0.0159590710
1078.2033215332	0.0152984792
1080.1321289062	0.0146405669
1082.0609362793	0.0139689166
1083.9897436523	0.0135495290
1085.9185510254	0.0127594676
1087.8473583984	0.0120891947
1089.7761657715	0.0115065156
1091.7049731445	0.0110714771
1093.6337805176	0.0107876463
1095.5625878906	0.0102576809
1097.4913952637	0.0097752176
1099.4202026367	0.0095818229
1101.3490100098	0.0094454978
1103.2778173828	0.0092014186
1105.2066247559	0.0089638261
1107.1354321289	0.0087821288
1109.0642395019	0.0087706484
1110.9930468750	0.0086804517
1112.9218542480	0.0083998889
1114.8506616211	0.0082462467
1116.7794689941	0.0083337985
1118.7082763672	0.0082593150
1120.6370837402	0.0082686078
1122.5658911133	0.0086584967
1124.4946984863	0.0087643079
1126.4235058594	0.0086660944
1128.3523132324	0.0087488201
1130.2811206055	0.0090971459
1132.2099279785	0.0091442727
1134.1387353516	0.0094337286
1136.0675427246	0.0101140132
1137.9963500977	0.0104351714
1139.9251574707	0.0111112334
1141.8539648437	0.0116954222
1143.7827722168	0.0126057696
1145.7115795898	0.0136338165
1147.6403869629	0.0141483173
1149.5691943359	0.0149258673
1151.4980017090	0.0156958289
1153.4268090820	0.0166520495
1155.3556164551	0.0173024628
1157.2844238281	0.0179949999
1159.2132312012	0.0187851489
1161.1420385742	0.0192660689
1163.0708459473	0.0201223083
1164.9996533203	0.0208723303
1166.9284606934	0.0215543360
1168.8572680664	0.0222245865
1170.7860754394	0.0231381506
1172.7148828125	0.0241746940
1174.6436901855	0.0250244215
1176.5724975586	0.0259015076
1178.5013049316	0.0268261824
1180.4301123047	0.0279592946
1182.3589196777	0.0291017704
1184.2877270508	0.0303921886
1186.2165344238	0.0315862298
1188.1453417969	0.0330371298
1190.0741491699	0.0346591286
1192.0029565430	0.0361679792
1193.9317639160	0.0379672460
1195.8605712891	0.0397155732
1197.7893786621	0.0413741171
1199.7181860351	0.0430520996
1201.6469934082	0.0453089215
1203.5758007812	0.0472963974
1205.5046081543	0.0488890782
1207.4334155273	0.0506260842
1209.3622229004	0.0522095263
1211.2910302734	0.0540150031
1213.2198376465	0.0554409996
1215.1486450195	0.0568778776
1217.0774523926	0.0581945255
1219.0062597656	0.0591548681
1220.9350671387	0.0598739758
1222.8638745117	0.0605578497
1224.7926818848	0.0614111871
1226.7214892578	0.0616197214
1228.6502966308	0.0620586872
1230.5791040039	0.0621318966
1232.5079113769	0.0622086003
1234.4367187500	0.0626886860
1236.3655261230	0.0625030845
1238.2943334961	0.0624192543
1240.2231408691	0.0622458607
1242.1519482422	0.0621198453
1244.0807556152	0.0616376400
1246.0095629883	0.0612404421
1247.9383703613	0.0611867234
1249.8671777344	0.0605561286
1251.7959851074	0.0599926971
1253.7247924805	0.0594738647
1255.6535998535	0.0588644035
1257.5824072266	0.0580120347
1259.5112145996	0.0571031384
1261.4400219726	0.0560805723
1263.3688293457	0.0553542748
1265.2976367187	0.0548957326
1267.2264440918	0.0539902449
1269.1552514648	0.0532675423
1271.0840588379	0.0523308516
1273.0128662109	0.0514846221
1274.9416735840	0.0507153273
1276.8704809570	0.0495417863
1278.7992883301	0.0486599058
1280.7280957031	0.0478395261
1282.6569030762	0.0467859358
1284.5857104492	0.0460764393
1286.5145178223	0.0451143496
1288.4433251953	0.0439864919
1290.3721325683	0.0440017506
1292.3009399414	0.0434027314
1294.2297473144	0.0426382646
1296.1585546875	0.0426956750
1298.0873620605	0.0426351242
1300.0161694336	0.0427866913
1301.9449768066	0.0428455919
1303.8737841797	0.0433661416
1305.8025915527	0.0436544642
1307.7313989258	0.0442105867
1309.6602062988	0.0451323017
1311.5890136719	0.0454695225
1313.5178210449	0.0465491563
1315.4466284180	0.0477945544
1317.3754357910	0.0488353893
1319.3042431640	0.0499878265
1321.2330505371	0.0518198125
1323.1618579101	0.0533734225
1325.0906652832	0.0546214134
1327.0194726562	0.0564586148
1328.9482800293	0.0577166826
1330.8770874023	0.0592344850
1332.8058947754	0.0607468188
1334.7347021484	0.0619704835
1336.6635095215	0.0624952689
1338.5923168945	0.0622112900
1340.5211242676	0.0633231997
1342.4499316406	0.0652544647
1344.3787390137	0.0656644255
1346.3075463867	0.0654639304
1348.2363537597	0.0656955838
1350.1651611328	0.0651274323
1352.0939685058	0.0648538470
1354.0227758789	0.0641985014
1355.9515832519	0.0635946691
1357.8803906250	0.0635058433
1359.8091979980	0.0623062849
1361.7380053711	0.0603308603
1363.6668127441	0.0594130494
1365.5956201172	0.0614222214
1367.5244274902	0.0603359044
1369.4532348633	0.0595420226
1371.3820422363	0.0606031343
1373.3108496094	0.0578461140
1375.2396569824	0.0582922734
1377.1684643555	0.0592148155
1379.0972717285	0.0590196140
1381.0260791015	0.0591866523
1382.9548864746	0.0586466342
1384.8836938476	0.0588437319
1386.8125012207	0.0566418245
1388.7413085937	0.0576097891
1390.6701159668	0.0615835935
1392.5989233398	0.0603920482
1394.5277307129	0.0572281852
1396.4565380859	0.0595892780
1398.3853454590	0.0597312599
1400.3141528320	0.0588823333
1402.2429602051	0.0631617233
1404.1717675781	0.0603672154
1406.1005749512	0.0603577420
1408.0293823242	0.0622988604
1409.9581896972	0.0602627099
1411.8869970703	0.0614402518
1413.8158044433	0.0594128817
1415.7446118164	0.0603471287
1417.6734191894	0.0553815700
1419.6022265625	0.0502845570
1421.5310339355	0.0562905073
1423.4598413086	0.0546681359
1425.3886486816	0.0528860018
1427.3174560547	0.0531877205
1429.2462634277	0.0496692434
1431.1750708008	0.0480203740
1433.1038781738	0.0485836007
1435.0326855469	0.0448235683
1436.9614929199	0.0389162973
1438.8903002929	0.0429508835
1440.8191076660	0.0435630456
1442.7479150390	0.0408849642
1444.6767224121	0.0422857702
1446.6055297851	0.0393806100
1448.5343371582	0.0397863165
1450.4631445312	0.0408521481
1452.3919519043	0.0416978672
1454.3207592773	0.0432016365
1456.2495666504	0.0373438522
1458.1783740234	0.0389964692
1460.1071813965	0.0495162718
1462.0359887695	0.0525930002
1463.9647961426	0.0530879572
1465.8936035156	0.0554411225
1467.8224108886	0.0620253347
1469.7512182617	0.0667564422
1471.6800256347	0.0615174621
1473.6088330078	0.0643880367
1475.5376403808	0.0727495849
1477.4664477539	0.0779668465
1479.3952551269	0.0843636245
1481.3240625000	0.0862742811
1483.2528698730	0.0909665823
1485.1816772461	0.0941081196
1487.1104846191	0.0938992128
1489.0392919922	0.0942668319
1490.9680993652	0.0951539278
1492.8969067383	0.1076103300
1494.8257141113	0.1064712554
1496.7545214843	0.0979429707
1498.6833288574	0.1087691188
1500.6121362304	0.1118356064
1502.5409436035	0.1185115799
1504.4697509765	0.1142176390
1506.3985583496	0.0887877494
1508.3273657226	0.1040177271
1510.2561730957	0.1186632514
1512.1849804687	0.1155621931
1514.1137878418	0.1237752512
1516.0425952148	0.1138814241
1517.9714025879	0.1180744022
1519.9002099609	0.1143626496
1521.8290173340	0.1020611674
1523.7578247070	0.1200905740
1525.6866320801	0.1184144020
1527.6154394531	0.1180353016
1529.5442468261	0.1278925091
1531.4730541992	0.1242536455
1533.4018615722	0.1156839132
1535.3306689453	0.1207305342
1537.2594763183	0.1275860071
1539.1882836914	0.0976581722
1541.1170910644	0.1008323058
1543.0458984375	0.1171116829
1544.9747058105	0.1132001728
1546.9035131836	0.1291202754
1548.8323205566	0.1223799884
1550.7611279297	0.1253010631
1552.6899353027	0.1246892735
1554.6187426758	0.1153628826
1556.5475500488	0.1219683886
1558.4763574218	0.0926133692
1560.4051647949	0.0970526636
1562.3339721679	0.1292779446
1564.2627795410	0.1237818897
1566.1915869140	0.1259984076
1568.1203942871	0.1252543777
1570.0492016601	0.1133256257
1571.9780090332	0.1264356077
1573.9068164062	0.1280176491
1575.8356237793	0.1056142598
1577.7644311523	0.1160779521
1579.6932385254	0.1285875589
1581.6220458984	0.1233771145
1583.5508532715	0.1262203157
1585.4796606445	0.1242492348
1587.4084680175	0.1246672273
1589.3372753906	0.1237843037
1591.2660827636	0.1229950264
1593.1948901367	0.1231379360
1595.1236975097	0.1214009002
1597.0525048828	0.1225074232
1598.9813122558	0.1215488166
1600.9101196289	0.1215392426
1602.8389270019	0.1193705425
1604.7677343750	0.1205251440
1606.6965417480	0.1186336726
1608.6253491211	0.1178662181
1610.5541564941	0.1173364446
1612.4829638672	0.1171897799
1614.4117712402	0.1182669699
1616.3405786132	0.0997311622
1618.2693859863	0.1057583168
1620.1981933593	0.1196430698
1622.1270007324	0.1080797985
1624.0558081054	0.1083201244
1625.9846154785	0.1115614027
1627.9134228515	0.1111849174
1629.8422302246	0.1100207865
1631.7710375976	0.1155448556
1633.6998449707	0.1087593883
1635.6286523437	0.0927639529
1637.5574597168	0.1046407968
1639.4862670898	0.1130768061
1641.4150744629	0.1106901318
1643.3438818359	0.1131258160
1645.2726892090	0.1044113934
1647.2014965820	0.0944343954
1649.1303039550	0.1127121001
1651.0591113281	0.1081639081
1652.9879187011	0.0757745728
1654.9167260742	0.0971279889
1656.8455334472	0.1178668141
1658.7743408203	0.1135383397
1660.7031481933	0.1169059798
1662.6319555664	0.1084880158
1664.5607629394	0.1134846210
1666.4895703125	0.1208115667
1668.4183776855	0.1092810929
1670.3471850586	0.1068679914
1672.2759924316	0.1184679642
1674.2047998047	0.1119825542
1676.1336071777	0.1082209200
1678.0624145507	0.1220124066
1679.9912219238	0.1188850701
1681.9200292968	0.1184766591
1683.8488366699	0.1006002426
1685.7776440429	0.0991163030
1687.7064514160	0.1296039671
1689.6352587890	0.1159003228
1691.5640661621	0.1250193864
1693.4928735351	0.1282152832
1695.4216809082	0.0990664363
1697.3504882812	0.1174613535
1699.2792956543	0.1072404683
1701.2081030273	0.0981472135
1703.1369104004	0.1263805330
1705.0657177734	0.1186649799
1706.9945251464	0.1191757545
1708.9233325195	0.1278154552
1710.8521398925	0.1237046570
1712.7809472656	0.1258437932
1714.7097546386	0.1190713197
1716.6385620117	0.1088272333
1718.5673693847	0.1072283834
1720.4961767578	0.1235117018
1722.4249841308	0.1274565011
1724.3537915039	0.1199695617
1726.2825988769	0.1284230202
1728.2114062500	0.1204675138
1730.1402136230	0.1213381290
1732.0690209961	0.1186568290
1733.9978283691	0.0956092626
1735.9266357421	0.1132303476
1737.8554431152	0.1236003488
1739.7842504882	0.1124767810
1741.7130578613	0.1205553785
1743.6418652343	0.1225840747
1745.5706726074	0.1226699650
1747.4994799804	0.1241228431
1749.4282873535	0.1198912114
1751.3570947265	0.1154827401
1753.2859020996	0.1255556047
1755.2147094726	0.1308712810
1757.1435168457	0.1215519607
1759.0723242187	0.1308782101
1761.0011315918	0.1250170916
1762.9299389648	0.1210239083
1764.8587463379	0.1352273822
1766.7875537109	0.1244973391
1768.7163610839	0.1251124740
1770.6451684570	0.1249610707
1772.5739758300	0.1143364608
1774.5027832031	0.1248366535
1776.4315905761	0.1307631880
1778.3603979492	0.1291022599
1780.2892053222	0.1280739605
1782.2180126953	0.1288628280
1784.1468200683	0.1287826300
1786.0756274414	0.1266588867
1788.0044348144	0.1318389177
1789.9332421875	0.1293117553
1791.8620495605	0.1194045544
1793.7908569336	0.1232673004
1795.7196643066	0.1306846738
1797.6484716796	0.1293927282
1799.5772790527	0.1276279837
1801.5060864257	0.1258310676
1803.4348937988	0.1289657354
1805.3637011718	0.1315583587
1807.2925085449	0.1300486028
1809.2213159179	0.1303946376
1811.1501232910	0.1276682913
1813.0789306640	0.1306790411
1815.0077380371	0.1313171685
1816.9365454101	0.1299006045
1818.8653527832	0.1309007555
1820.7941601562	0.1303639412
1822.7229675293	0.1318764985
1824.6517749023	0.1251484156
1826.5805822753	0.1284884959
1828.5093896484	0.1290033609
1830.4381970214	0.1225996539
1832.3670043945	0.1308212578
1834.2958117675	0.1301565170
1836.2246191406	0.1300594807
1838.1534265136	0.1295733452
1840.0822338867	0.1300864667
1842.0110412597	0.1305770278
1843.9398486328	0.1185537800
1845.8686560058	0.1244475842
1847.7974633789	0.1301682293
1849.7262707519	0.1277126372
1851.6550781250	0.1308222860
1853.5838854980	0.1287113428
1855.5126928710	0.1296225190
1857.4415002441	0.1290386617
1859.3703076171	0.1281982660
1861.2991149902	0.1290052384
1863.2279223632	0.1276738495
1865.1567297363	0.1287174821
1867.0855371093	0.1255165786
1869.0143444824	0.1212128401
1870.9431518554	0.1249836832
1872.8719592285	0.1286255121
1874.8007666015	0.1269109696
1876.7295739746	0.1275697798
1878.6583813476	0.1270737052
1880.5871887207	0.1263833642
1882.5159960937	0.1272294670
1884.4448034667	0.1256850362
1886.3736108398	0.1270491928
1888.3024182128	0.1247005761
1890.2312255859	0.1227932423
1892.1600329589	0.1263166368
1894.0888403320	0.1248559505
1896.0176477050	0.1242383420
1897.9464550781	0.1251893044
1899.8752624511	0.1248178631
1901.8040698242	0.1251544207
1903.7328771972	0.1244319007
1905.6616845703	0.1247411147
1907.5904919433	0.1237078011
1909.5192993164	0.1231202856
1911.4481066894	0.1236047298
1913.3769140625	0.1235873774
1915.3057214355	0.1245906353
1917.2345288085	0.1202307642
1919.1633361816	0.1201616675
1921.0921435546	0.1237432584
1923.0209509277	0.1206972748
1924.9497583007	0.1224945486
1926.8785656738	0.1233962625
1928.8073730468	0.1221885234
1930.7361804199	0.1232941300
1932.6649877929	0.1219526976
1934.5937951660	0.1228302866
1936.5226025390	0.1222505718
1938.4514099121	0.1224590093
1940.3802172851	0.1223746389
1942.3090246582	0.1193060130
1944.2378320312	0.1209760755
1946.1666394042	0.1219367012
1948.0954467773	0.1214297116
1950.0242541503	0.1219740808
1951.9530615234	0.1216448098
1953.8818688964	0.1215334833
1955.8106762695	0.1212632582
1957.7394836425	0.1214282662
1959.6682910156	0.1213121116
1961.5970983886	0.1209466457
1963.5259057617	0.1212169155
1965.4547131347	0.1206404641
1967.3835205078	0.1195907295
1969.3123278808	0.1203618050
1971.2411352539	0.1207936704
1973.1699426269	0.1202766672
1975.0987499999	0.1206200570
1977.0275573730	0.1201012805
1978.9563647460	0.1200636551
1980.8851721191	0.1201093718
1982.8139794921	0.1197075769
1984.7427868652	0.1198564470
1986.6715942382	0.1191911399
1988.6004016113	0.1191734225
1990.5292089843	0.1182644740
1992.4580163574	0.1170562357
1994.3868237304	0.1183691472
1996.3156311035	0.1185563505
1998.2444384765	0.1180583388
2000.1732458496	0.1181958839
2002.1020532226	0.1175473481
2004.0308605956	0.1176014990
2005.9596679687	0.1173749864
2007.8884753417	0.1168334559
2009.8172827148	0.1168344617
2011.7460900878	0.1163796037
2013.6748974609	0.1163898855
2015.6037048339	0.1158039570
2017.5325122070	0.1149864793
2019.4613195800	0.1152817830
2021.3901269531	0.1151875481
2023.3189343261	0.1149356514
2025.2477416992	0.1146835312
2027.1765490722	0.1144195646
2029.1053564453	0.1143873930
2031.0341638183	0.1140627116
2032.9629711914	0.1137577444
2034.8917785644	0.1135237664
2036.8205859374	0.1131666750
2038.7493933105	0.1128893048
2040.6782006835	0.1125855297
2042.6070080566	0.1124192625
2044.5358154296	0.1122948378
2046.4646228027	0.1120011061
2048.3934301757	0.1119129062
2050.3222375488	0.1116300970
2052.2510449218	0.1113260388
2054.1798522949	0.1111958623
2056.1086596679	0.1109567657
2058.0374670410	0.1106795073
2059.9662744140	0.1103429943
2061.8950817871	0.1102011055
2063.8238891601	0.1097528636
2065.7526965331	0.1094606668
2067.6815039062	0.1095186919
2069.6103112792	0.1093667671
2071.5391186523	0.1091719419
2073.4679260253	0.1088365093
2075.3967333984	0.1087149307
2077.3255407714	0.1084785014
2079.2543481445	0.1083320975
2081.1831555175	0.1082406789
2083.1119628906	0.1078617722
2085.0407702636	0.1076804474
2086.9695776367	0.1073523015
2088.8983850097	0.1069996953
2090.8271923828	0.1069421023
2092.7559997558	0.1069333404
2094.6848071288	0.1065488532
2096.6136145019	0.1064075753
2098.5424218749	0.1063287780
2100.4712292480	0.1060403138
2102.4000366210	0.1059576273
2104.3288439941	0.1055591404
2106.2576513671	0.1055759490
2108.1864587402	0.1054368317
2110.1152661132	0.1050672829
2112.0440734863	0.1050204039
2113.9728808593	0.1047456563
2115.9016882324	0.1047184691
2117.8304956054	0.1045942903
2119.7593029785	0.1044748947
2121.6881103515	0.1042556018
2123.6169177245	0.1040883213
2125.5457250976	0.1041099578
2127.4745324706	0.1037646234
2129.4033398437	0.1036305353
2131.3321472167	0.1035895497
2133.2609545898	0.1034712195
2135.1897619628	0.1033416837
2137.1185693359	0.1031769663
2139.0473767089	0.1029251516
2140.9761840820	0.1027984172
2142.9049914550	0.1028079242
2144.8337988281	0.1026944071
2146.7626062011	0.1025128514
2148.6914135742	0.1021950692
2150.6202209472	0.1020692512
2152.5490283203	0.1019838303
2154.4778356933	0.1020061225
2156.4066430663	0.1018433422
2158.3354504394	0.1016641855
2160.2642578124	0.1016564965
2162.1930651855	0.1013624519
2164.1218725585	0.1014384776
2166.0506799316	0.1012907922
2167.9794873046	0.1011203229
2169.9082946777	0.1010883898
2171.8371020507	0.1008152813
2173.7659094238	0.1007128954
2175.6947167968	0.1006068587
2177.6235241699	0.1006392539
2179.5523315429	0.1004264280
2181.4811389160	0.1002966911
2183.4099462890	0.1002415568
2185.3387536620	0.1000898927
2187.2675610351	0.0999959856
2189.1963684081	0.0999136716
2191.1251757812	0.0999033898
2193.0539831542	0.0995108485
2194.9827905273	0.0995126814
2196.9115979003	0.0995141268
2198.8404052734	0.0992892981
2200.7692126464	0.0991483256
2202.6980200195	0.0990162343
2204.6268273925	0.0991564617
2206.5556347656	0.0989378691
2208.4844421386	0.0988007188
2210.4132495117	0.0985316485
2212.3420568847	0.0984296650
2214.2708642577	0.0986081809
2216.1996716308	0.0983906239
2218.1284790038	0.0982588679
2220.0572863769	0.0980357081
2221.9860937499	0.0979260057
2223.9149011230	0.0977434590
2225.8437084960	0.0976879299
2227.7725158691	0.0976020098
2229.7013232421	0.0973149836
2231.6301306152	0.0973135903
2233.5589379882	0.0970667452
2235.4877453613	0.0969645530
2237.4165527343	0.0970033854
2239.3453601074	0.0968653485
2241.2741674804	0.0965627432
2243.2029748534	0.0964082330
2245.1317822265	0.0962857306
2247.0605895995	0.0960300043
2248.9893969726	0.0960544497
2250.9182043456	0.0959253460
2252.8470117187	0.0958578438
2254.7758190917	0.0956778824
2256.7046264648	0.0955350548
2258.6334338378	0.0954617262
2260.5622412109	0.0951422378
2262.4910485839	0.0950158909
2264.4198559570	0.0949330181
2266.3486633300	0.0950497687
2268.2774707031	0.0948861614
2270.2062780761	0.0946171731
2272.1350854491	0.0944945291
2274.0638928222	0.0944349319
2275.9927001952	0.0944475830
2277.9215075683	0.0941742361
2279.8503149413	0.0942254961
2281.7791223144	0.0941258371
2283.7079296874	0.0940140933
2285.6367370605	0.0939929783
2287.5655444335	0.0936675370
2289.4943518066	0.0934207812
2291.4231591796	0.0930625200
2293.3519665527	0.0928881764
2295.2807739257	0.0926411003
2297.2095812988	0.0923738182
2299.1383886718	0.0920410454
2301.0671960449	0.0916054696
2302.9960034179	0.0913301110
2304.9248107909	0.0906531960
2306.8536181640	0.0900841504
2308.7824255370	0.0895486698
2310.7112329101	0.0886819512
2312.6400402831	0.0878042281
2314.5688476562	0.0869128108
2316.4976550292	0.0858783647
2318.4264624023	0.0847174972
2320.3552697753	0.0835656524
2322.2840771484	0.0822906196
2324.2128845214	0.0812658519
2326.1416918945	0.0803946406
2328.0704992675	0.0793495551
2329.9993066406	0.0783006474
2331.9281140136	0.0776579678
2333.8569213866	0.0774516314
2335.7857287597	0.0769915059
2337.7145361327	0.0768419132
2339.6433435058	0.0768791586
2341.5721508788	0.0771676898
2343.5009582519	0.0783282220
2345.4297656249	0.0796794295
2347.3585729980	0.0831066966
2349.2873803710	0.0860501379
2351.2161877441	0.0831944868
2353.1449951171	0.0786201954
2355.0738024902	0.0757180750
2357.0026098632	0.0734238848
2358.9314172363	0.0719150305
2360.8602246093	0.0709784180
2362.7890319823	0.0708262175
2364.7178393554	0.0711583346
2366.6466467284	0.0722007006
2368.5754541015	0.0738229752
2370.5042614745	0.0756042749
2372.4330688476	0.0779045150
2374.3618762206	0.0800781846
2376.2906835937	0.0824101344
2378.2194909667	0.0843418837
2380.1482983398	0.0857489705
2382.0771057128	0.0869978815
2384.0059130859	0.0874691755
2385.9347204589	0.0878488123
2387.8635278320	0.0879227445
2389.7923352050	0.0877675861
2391.7211425780	0.0877862796
2393.6499499511	0.0876254737
2395.5787573241	0.0874812454
2397.5075646972	0.0874311030
2399.4363720702	0.0873633176
2401.3651794433	0.0871845931
2403.2939868163	0.0869303942
2405.2227941894	0.0867371112
2407.1516015624	0.0868401378
2409.0804089355	0.0867589936
2411.0092163085	0.0866000205
2412.9380236816	0.0865569562
2414.8668310546	0.0863691717
2416.7956384277	0.0863366723
2418.7244458007	0.0860526562
2420.6532531738	0.0859061480
2422.5820605468	0.0858988911
2424.5108679198	0.0857891664
2426.4396752929	0.0858553499
2428.3684826659	0.0855998695
2430.2972900390	0.0854701847
2432.2260974120	0.0854909718
2434.1549047851	0.0853040665
2436.0837121581	0.0851653367
2438.0125195312	0.0850706547
2439.9413269042	0.0849839598
2441.8701342773	0.0849456713
2443.7989416503	0.0848188624
2445.7277490234	0.0845869109
2447.6565563964	0.0844710842
2449.5853637695	0.0844160169
2451.5141711425	0.0843427032
2453.4429785155	0.0840930492
2455.3717858886	0.0840125605
2457.3005932616	0.0839503333
2459.2294006347	0.0837759078
2461.1582080077	0.0837590843
2463.0870153808	0.0835635588
2465.0158227538	0.0835976452
2466.9446301269	0.0834170729
2468.8734374999	0.0831577033
2470.8022448730	0.0832967833
2472.7310522460	0.0831262022
2474.6598596191	0.0829539448
2476.5886669921	0.0828784704
2478.5174743652	0.0827869475
2480.4462817382	0.0826579779
2482.3750891112	0.0826233774
2484.3038964843	0.0825545192
2486.2327038573	0.0823954940
2488.1615112304	0.0823214352
2490.0903186034	0.0821090192
2492.0191259765	0.0820937827
2493.9479333495	0.0819485933
2495.8767407226	0.0818377510
2497.8055480956	0.0818711668
2499.7343554687	0.0816656053
2501.6631628417	0.0815475583
2503.5919702148	0.0813684314
2505.5207775878	0.0812686831
2507.4495849609	0.0812011212
2509.3783923339	0.0810885131
2511.3071997069	0.0808931440
2513.2360070800	0.0808666050
2515.1648144530	0.0809742659
2517.0936218261	0.0806329548
2519.0224291991	0.0805589408
2520.9512365722	0.0805329680
2522.8800439452	0.0803317726
2524.8088513183	0.0803677291
2526.7376586913	0.0802733451
2528.6664660644	0.0801794007
2530.5952734374	0.0799385458
2532.5240808105	0.0797425136
2534.4528881835	0.0798661932
2536.3816955566	0.0796594843
2538.3105029296	0.0794186890
2540.2393103027	0.0795004219
2542.1681176757	0.0793777704
2544.0969250487	0.0792769194
2546.0257324218	0.0792534128
2547.9545397948	0.0790383667
2549.8833471679	0.0789404511
2551.8121545409	0.0788495243
2553.7409619140	0.0786756575
2555.6697692870	0.0785981864
2557.5985766601	0.0784860179
2559.5273840331	0.0783674717
2561.4561914062	0.0783385783
2563.3849987792	0.0782054365
2565.3138061523	0.0781279877
2567.2426135253	0.0779760778
2569.1714208984	0.0777660906
2571.1002282714	0.0778264701
2573.0290356444	0.0775815919
2574.9578430175	0.0774219558
2576.8866503905	0.0775078982
2578.8154577636	0.0773388743
2580.7442651366	0.0772312284
2582.6730725097	0.0771329105
2584.6018798827	0.0770364702
2586.5306872558	0.0769801363
2588.4594946288	0.0770031810
2590.3883020019	0.0767756104
2592.3171093749	0.0764746964
2594.2459167480	0.0765406489
2596.1747241210	0.0763877332
2598.1035314941	0.0761351436
2600.0323388671	0.0760711581
2601.9611462401	0.0760598704
2603.8899536132	0.0759304985
2605.8187609862	0.0758325160
2607.7475683593	0.0758521110
2609.6763757323	0.0757406205
2611.6051831054	0.0755818635
2613.5339904784	0.0754017383
2615.4627978515	0.0753674805
2617.3916052245	0.0753439367
2619.3204125976	0.0751755685
2621.2492199706	0.0749909729
2623.1780273437	0.0749014467
2625.1068347167	0.0747986585
2627.0356420898	0.0746841505
2628.9644494628	0.0746799558
2630.8932568358	0.0745497197
2632.8220642089	0.0745195597
2634.7508715819	0.0743182451
2636.6796789550	0.0741736591
2638.6084863280	0.0741968900
2640.5372937011	0.0738620535
2642.4661010741	0.0738864541
2644.3949084472	0.0739064217
2646.3237158202	0.0735796839
2648.2525231933	0.0735412687
2650.1813305663	0.0735517442
2652.1101379394	0.0732744634
2654.0389453124	0.0732178017
2655.9677526855	0.0732368827
2657.8965600585	0.0729480684
2659.8253674315	0.0729181767
2661.7541748046	0.0727521628
2663.6829821776	0.0726193637
2665.6117895507	0.0726678073
2667.5405969237	0.0725182593
2669.4694042968	0.0724356174
2671.3982116698	0.0722774938
2673.3270190429	0.0722373426
2675.2558264159	0.0721559823
2677.1846337890	0.0720493197
2679.1134411620	0.0719208270
2681.0422485351	0.0717172027
2682.9710559081	0.0716767907
2684.8998632812	0.0716094822
2686.8286706542	0.0715614036
2688.7574780273	0.0713848621
2690.6862854003	0.0712106526
2692.6150927733	0.0711367354
2694.5439001464	0.0711467713
2696.4727075194	0.0709497929
2698.4015148925	0.0708043501
2700.3303222655	0.0708457753
2702.2591296386	0.0705382675
2704.1879370116	0.0706157163
2706.1167443847	0.0704165176
2708.0455517577	0.0701367110
2709.9743591308	0.0703662634
2711.9031665038	0.0700684786
2713.8319738769	0.0698916465
2715.7607812499	0.0699135959
2717.6895886230	0.0697602779
2719.6183959960	0.0695803091
2721.5472033690	0.0694964603
2723.4760107421	0.0693756118
2725.4048181151	0.0692469925
2727.3336254882	0.0693420768
2729.2624328612	0.0691227987
2731.1912402343	0.0689584762
2733.1200476073	0.0689414442
2735.0488549804	0.0687552020
2736.9776623534	0.0686466545
2738.9064697265	0.0686114728
2740.8352770995	0.0684307963
2742.7640844726	0.0682652742
2744.6928918456	0.0682601035
2746.6216992187	0.0680252016
2748.5505065917	0.0679647699
2750.4793139647	0.0678873956
2752.4081213378	0.0676516816
2754.3369287108	0.0676353723
2756.2657360839	0.0675050467
2758.1945434569	0.0673686266
2760.1233508300	0.0672838986
2762.0521582030	0.0672315285
2763.9809655761	0.0670463815
2765.9097729491	0.0669712499
2767.8385803222	0.0670018345
2769.7673876952	0.0667089671
2771.6961950683	0.0665210783
2773.6250024413	0.0664666146
2775.5538098144	0.0663721263
2777.4826171874	0.0662399009
2779.4114245604	0.0661809444
2781.3402319335	0.0660848320
2783.2690393065	0.0658331588
2785.1978466796	0.0656755120
2787.1266540526	0.0656083077
2789.0554614257	0.0655171722
2790.9842687987	0.0653409883
2792.9130761718	0.0652861744
2794.8418835448	0.0651872605
2796.7706909179	0.0650148094
2798.6994982909	0.0649773628
2800.6283056640	0.0648492426
2802.5571130370	0.0647158772
2804.4859204101	0.0646303967
2806.4147277831	0.0644249320
2808.3435351562	0.0642275512
2810.2723425292	0.0640958250
2812.2011499022	0.0639342815
2814.1299572753	0.0638915077
2816.0587646483	0.0637100339
2817.9875720214	0.0634768754
2819.9163793944	0.0634920150
2821.8451867675	0.0633846670
2823.7739941405	0.0631574467
2825.7028015136	0.0630890131
2827.6316088866	0.0630139485
2829.5604162597	0.0626488030
2831.4892236327	0.0625942647
2833.4180310058	0.0625109226
2835.3468383788	0.0622729287
2837.2756457519	0.0623051003
2839.2044531249	0.0618531480
2841.1332604979	0.0616751947
2843.0620678710	0.0616232418
2844.9908752440	0.0611559302
2846.9196826171	0.0607573278
2848.8484899901	0.0604039282
2850.7772973632	0.0602773540
2852.7061047362	0.0600701682
2854.6349121093	0.0601106510
2856.5637194823	0.0601139180
2858.4925268554	0.0599424988
2860.4213342284	0.0599264912
2862.3501416015	0.0597612448
2864.2789489745	0.0597235076
2866.2077563476	0.0596357659
2868.1365637206	0.0594963655
2870.0653710936	0.0592754036
2871.9941784667	0.0592416078
2873.9229858397	0.0591553524
2875.8517932128	0.0589326955
2877.7806005858	0.0590404123
2879.7094079589	0.0588446483
2881.6382153319	0.0587957799
2883.5670227050	0.0587819517
2885.4958300780	0.0585750863
2887.4246374511	0.0584418327
2889.3534448241	0.0582609475
2891.2822521972	0.0581427366
2893.2110595702	0.0579325184
2895.1398669433	0.0578353032
2897.0686743163	0.0576167330
2898.9974816893	0.0575309321
2900.9262890624	0.0573468618
2902.8550964354	0.0570237190
2904.7839038085	0.0570654869
2906.7127111815	0.0567782968
2908.6415185546	0.0565290749
2910.5703259276	0.0563095137
2912.4991333007	0.0559235066
2914.4279406737	0.0555607192
2916.3567480468	0.0551895276
2918.2855554198	0.0549900830
2920.2143627929	0.0549293160
2922.1431701659	0.0549773499
2924.0719775390	0.0548044741
2926.0007849120	0.0547374040
2927.9295922851	0.0547766052
2929.8583996581	0.0546529442
2931.7872070311	0.0545302071
2933.7160144042	0.0544894710
2935.6448217772	0.0545436777
2937.5736291503	0.0545346513
2939.5024365233	0.0545048714
2941.4312438964	0.0542747304
2943.3600512694	0.0543176904
2945.2888586425	0.0543280393
2947.2176660155	0.0540437251
2949.1464733886	0.0540100820
2951.0752807616	0.0538585074
2953.0040881347	0.0537792630
2954.9328955077	0.0535134077
2956.8617028808	0.0532759912
2958.7905102538	0.0532314703
2960.7193176268	0.0530102178
2962.6481249999	0.0529697500
2964.5769323729	0.0526684076
2966.5057397460	0.0524879098
2968.4345471190	0.0526330173
2970.3633544921	0.0526160076
2972.2921618651	0.0526320040
2974.2209692382	0.0526351184
2976.1497766112	0.0526367687
2978.0785839843	0.0526194572
2980.0073913573	0.0525909029
2981.9361987304	0.0524862483
2983.8650061034	0.0523329377
2985.7938134765	0.0523163974
2987.7226208495	0.0521070249
2989.6514282225	0.0518374853
2991.5802355956	0.0518983752
2993.5090429686	0.0518835783
2995.4378503417	0.0517383441
2997.3666577147	0.0515966564
2999.2954650878	0.0514790937
3001.2242724608	0.0513401106
3003.1530798339	0.0510339662
3005.0818872069	0.0510193929
3007.0106945800	0.0509414449
3008.9395019530	0.0506796017
3010.8683093261	0.0505449101
3012.7971166991	0.0503221601
3014.7259240722	0.0502117872
3016.6547314452	0.0501118451
3018.5835388182	0.0500265360
3020.5123461913	0.0497090891
3022.4411535643	0.0495266430
3024.3699609374	0.0495868027
3026.2987683104	0.0492783710
3028.2275756835	0.0492100120
3030.1563830565	0.0490064770
3032.0851904296	0.0487047583
3034.0139978026	0.0486469604
3035.9428051757	0.0483905859
3037.8716125487	0.0483324379
3039.8004199218	0.0482225791
3041.7292272948	0.0479332507
3043.6580346679	0.0478484221
3045.5868420409	0.0476871505
3047.5156494139	0.0474635437
3049.4444567870	0.0473393314
3051.3732641600	0.0470694676
3053.3020715331	0.0469793230
3055.2308789061	0.0468715653
3057.1596862792	0.0465441607
3059.0884936522	0.0465062521
3061.0173010253	0.0463398248
3062.9461083983	0.0461594611
3064.8749157714	0.0459717661
3066.8037231444	0.0457282998
3068.7325305175	0.0456872769
3070.6613378905	0.0454813540
3072.5901452636	0.0452971831
3074.5189526366	0.0451866388
3076.4477600097	0.0451128259
3078.3765673827	0.0448461398
3080.3053747557	0.0445529819
3082.2341821288	0.0444789603
3084.1629895018	0.0442429036
3086.0917968749	0.0441031232
3088.0206042479	0.0440164916
3089.9494116210	0.0438946187
3091.8782189940	0.0437726155
3093.8070263671	0.0435840040
3095.7358337401	0.0432516523
3097.6646411132	0.0429462641
3099.5934484862	0.0428769737
3101.5222558593	0.0426693335
3103.4510632323	0.0424778610
3105.3798706054	0.0422830135
3107.3086779784	0.0420335643
3109.2374853514	0.0418940112
3111.1662927245	0.0417239517
3113.0951000975	0.0414905548
3115.0239074706	0.0412336588
3116.9527148436	0.0410520583
3118.8815222167	0.0408462957
3120.8103295897	0.0406896025
3122.7391369628	0.0405134186
3124.6679443358	0.0403178409
3126.5967517089	0.0401138067
3128.5255590819	0.0398811549
3130.4543664550	0.0396999381
3132.3831738280	0.0393437818
3134.3119812011	0.0391104668
3136.2407885741	0.0389656089
3138.1695959471	0.0387774780
3140.0984033202	0.0385589004
3142.0272106932	0.0383113697
3143.9560180663	0.0382311046
3145.8848254393	0.0379221141
3147.8136328124	0.0376657471
3149.7424401854	0.0376168601
3151.6712475585	0.0373076051
3153.6000549315	0.0370443873
3155.5288623046	0.0369644389
3157.4576696776	0.0367366970
3159.3864770507	0.0364586264
3161.3152844237	0.0362804718
3163.2440917968	0.0361103192
3165.1728991698	0.0359128043
3167.1017065428	0.0356196538
3169.0305139159	0.0354338959
3170.9593212889	0.0352739729
3172.8881286620	0.0350729153
3174.8169360350	0.0348826312
3176.7457434081	0.0345591530
3178.6745507811	0.0343984999
3180.6033581542	0.0343006626
3182.5321655272	0.0340522230
3184.4609729003	0.0338028371
3186.3897802733	0.0336473659
3188.3185876464	0.0334042981
3190.2473950194	0.0332167409
3192.1762023925	0.0332012214
3194.1050097655	0.0329963081
3196.0338171386	0.0328329876
3197.9626245116	0.0326293930
3199.8914318846	0.0324477702
3201.8202392577	0.0323128104
3203.7490466307	0.0320553333
3205.6778540038	0.0319751911
3207.6066613768	0.0318024270
3209.5354687499	0.0316092670
3211.4642761229	0.0314463899
3213.3930834960	0.0313019939
3215.3218908690	0.0312986225
3217.2506982421	0.0311876871
3219.1795056151	0.0309100188
3221.1083129882	0.0306969546
3223.0371203612	0.0307250917
3224.9659277343	0.0306055695
3226.8947351073	0.0304789878
3228.8235424803	0.0304021016
3230.7523498534	0.0302462950
3232.6811572264	0.0301885866
3234.6099645995	0.0300144590
3236.5387719725	0.0299623199
3238.4675793456	0.0299194790
3240.3963867186	0.0297066402
3242.3251940917	0.0296266899
3244.2540014647	0.0295589603
3246.1828088378	0.0294435322
3248.1116162108	0.0294127353
3250.0404235839	0.0293989219
3251.9692309569	0.0293195322
3253.8980383300	0.0291989762
3255.8268457030	0.0290973485
3257.7556530760	0.0290365182
3259.6844604491	0.0289172567
3261.6132678221	0.0289370827
3263.5420751952	0.0289328340
3265.4708825682	0.0288450830
3267.3996899413	0.0288424399
3269.3284973143	0.0286875181
3271.2573046874	0.0286393352
3273.1861120604	0.0285140369
3275.1149194335	0.0283254534
3277.0437268065	0.0283512287
3278.9725341796	0.0283050351
3280.9013415526	0.0282813646
3282.8301489257	0.0283097774
3284.7589562987	0.0282783583
3286.6877636717	0.0281995274
3288.6165710448	0.0280873291
3290.5453784178	0.0278946869
3292.4741857909	0.0279041976
3294.4029931639	0.0279269777
3296.3318005370	0.0278301053
3298.2606079100	0.0278457925
3300.1894152831	0.0276936144
3302.1182226561	0.0276873745
3304.0470300292	0.0276273582
3305.9758374022	0.0274734665
3307.9046447753	0.0274802539
3309.8334521483	0.0274518169
3311.7622595214	0.0274789948
3313.6910668944	0.0274057277
3315.6198742675	0.0273784176
3317.5486816405	0.0272483528
3319.4774890135	0.0271934438
3321.4062963866	0.0271694493
3323.3351037596	0.0270234495
3325.2639111327	0.0270682648
3327.1927185057	0.0269410778
3329.1215258788	0.0269686207
3331.0503332518	0.0269119628
3332.9791406249	0.0267827027
3334.9079479979	0.0268494226
3336.8367553710	0.0267009586
3338.7655627440	0.0267307144
3340.6943701171	0.0266531911
3342.6231774901	0.0264843497
3344.5519848632	0.0265060738
3346.4807922362	0.0264530443
3348.4095996092	0.0264292583
3350.3384069823	0.0263124090
3352.2672143553	0.0261902194
3354.1960217284	0.0262137912
3356.1248291014	0.0261577237
3358.0536364745	0.0261888169
3359.9824438475	0.0261749998
3361.9112512206	0.0259749927
3363.8400585936	0.0259893797
3365.7688659667	0.0259028412
3367.6976733397	0.0258277692
3369.6264807128	0.0258556381
3371.5552880858	0.0258994289
3373.4840954589	0.0259622410
3375.4129028319	0.0257740654
3377.3417102049	0.0258413609
3379.2705175780	0.0257349983
3381.1993249510	0.0256621800
3383.1281323241	0.0257923305
3385.0569396971	0.0255637169
3386.9857470702	0.0255459473
3388.9145544432	0.0255696811
3390.8433618163	0.0255729258
3392.7721691893	0.0254573077
3394.7009765624	0.0254739262
3396.6297839354	0.0255041942
3398.5585913085	0.0253920816
3400.4873986815	0.0256240182
3402.4162060546	0.0255279504
3404.3450134276	0.0255059414
3406.2738208006	0.0255593527
3408.2026281737	0.0254566558
3410.1314355467	0.0254839975
3412.0602429198	0.0254879706
3413.9890502928	0.0254878029
3415.9178576659	0.0254232995
3417.8466650389	0.0255731698
3419.7754724120	0.0253985561
3421.7042797850	0.0253733173
3423.6330871581	0.0256164148
3425.5618945311	0.0254635550
3427.4907019042	0.0255401339
3429.4195092772	0.0255588386
3431.3483166503	0.0255278423
3433.2771240233	0.0255476348
3435.2059313963	0.0254918672
3437.1347387694	0.0255869422
3439.0635461424	0.0257324502
3440.9923535155	0.0256555285
3442.9211608885	0.0255773403
3444.8499682616	0.0256204009
3446.7787756346	0.0255260542
3448.7075830077	0.0257287361
3450.6363903807	0.0257994086
3452.5651977538	0.0258224718
3454.4940051268	0.0259694383
3456.4228124999	0.0259131640
3458.3516198729	0.0259722210
3460.2804272460	0.0258757267
3462.2092346190	0.0259337928
3464.1380419921	0.0260100737
3466.0668493651	0.0260065310
3467.9956567381	0.0261211358
3469.9244641112	0.0261115339
3471.8532714842	0.0261484981
3473.7820788573	0.0261716153
3475.7108862303	0.0261756312
3477.6396936034	0.0261693634
3479.5685009764	0.0262423232
3481.4973083495	0.0261930972
3483.4261157225	0.0262579769
3485.3549230956	0.0264025740
3487.2837304686	0.0262798518
3489.2125378417	0.0263727047
3491.1413452147	0.0265512429
3493.0701525878	0.0266222693
3494.9989599608	0.0266081542
3496.9277673338	0.0266557839
3498.8565747069	0.0266902894
3500.7853820799	0.0267344080
3502.7141894530	0.0264976006
3504.6429968260	0.0264852624
3506.5718041991	0.0270792525
3508.5006115721	0.0268674456
3510.4294189452	0.0268444866
3512.3582263182	0.0270782821
3514.2870336913	0.0270976573
3516.2158410643	0.0273285527
3518.1446484374	0.0271561556
3520.0734558104	0.0273439866
3522.0022631835	0.0272923727
3523.9310705565	0.0269893296
3525.8598779295	0.0271266252
3527.7886853026	0.0271692201
3529.7174926756	0.0272474270
3531.6463000487	0.0274625830
3533.5751074217	0.0276555233
3535.5039147948	0.0275259558
3537.4327221678	0.0275595337
3539.3615295409	0.0277064722
3541.2903369139	0.0277524702
3543.2191442870	0.0276980773
3545.1479516600	0.0272701643
3547.0767590331	0.0271667354
3549.0055664061	0.0278600249
3550.9343737792	0.0280660614
3552.8631811522	0.0276601911
3554.7919885252	0.0281031709
3556.7207958983	0.0282725841
3558.6496032713	0.0281841159
3560.5784106444	0.0280585736
3562.5072180174	0.0279751960
3564.4360253905	0.0282178074
3566.3648327635	0.0267994441
3568.2936401366	0.0263773911
3570.2224475096	0.0280027166
3572.1512548827	0.0286375433
3574.0800622557	0.0285362303
3576.0088696288	0.0286006890
3577.9376770018	0.0286305696
3579.8664843749	0.0285537336
3581.7952917479	0.0286927707
3583.7240991210	0.0287470073
3585.6529064940	0.0282286517
3587.5817138670	0.0267314520
3589.5105212401	0.0271602590
3591.4393286131	0.0290960744
3593.3681359862	0.0285208635
3595.2969433592	0.0280830190
3597.2257507323	0.0286867060
3599.1545581053	0.0287086368
3601.0833654784	0.0286423266
3603.0121728514	0.0289349072
3604.9409802245	0.0293100178
3606.8697875975	0.0286645349
3608.7985949706	0.0273713730
3610.7274023436	0.0278599411
3612.6562097167	0.0283769909
3614.5850170897	0.0278663244
3616.5138244627	0.0294513218
3618.4426318358	0.0277349688
3620.3714392088	0.0269529354
3622.3002465819	0.0296451673
3624.2290539549	0.0291158110
3626.1578613280	0.0300958510
3628.0866687010	0.0265433397
3630.0154760741	0.0247233547
3631.9442834471	0.0296677332
3633.8730908202	0.0291004535
3635.8018981932	0.0293742903
3637.7307055663	0.0300475862
3639.6595129393	0.0296580121
3641.5883203124	0.0299785584
3643.5171276854	0.0297321491
3645.4459350584	0.0300055426
3647.3747424315	0.0277256705
3649.3035498045	0.0258418135
3651.2323571776	0.0261616949
3653.1611645506	0.0299815796
3655.0899719237	0.0297162719
3657.0187792967	0.0274092183
3658.9475866698	0.0305466894
3660.8763940428	0.0299224518
3662.8052014159	0.0303520374
3664.7340087889	0.0304191560
3666.6628161620	0.0302617289
3668.5916235350	0.0296221040
3670.5204309081	0.0251772217
3672.4492382811	0.0292744897
3674.3780456541	0.0283865929
3676.3068530272	0.0244486816
3678.2356604002	0.0292073376
3680.1644677733	0.0299424641
3682.0932751463	0.0298822895
3684.0220825194	0.0305423029
3685.9508898924	0.0303662494
3687.8796972655	0.0278089419
3689.8085046385	0.0258939564
3691.7373120116	0.0289981849
3693.6661193846	0.0295742080
3695.5949267577	0.0301584899
3697.5237341307	0.0302715413
3699.4525415038	0.0299793910
3701.3813488768	0.0294889286
3703.3101562499	0.0284892395
3705.2389636229	0.0306830555
3707.1677709959	0.0295340233
3709.0965783690	0.0289603621
3711.0253857420	0.0276307631
3712.9541931151	0.0262252837
3714.8830004881	0.0297281202
3716.8118078612	0.0292979255
3718.7406152342	0.0295155235
3720.6694226073	0.0291251186
3722.5982299803	0.0283537880
3724.5270373534	0.0291136075
3726.4558447264	0.0273910891
3728.3846520995	0.0292038918
3730.3134594725	0.0289132614
3732.2422668456	0.0271751024
3734.1710742186	0.0266291089
3736.0998815916	0.0255698264
3738.0286889647	0.0265855864
3739.9574963377	0.0283290073
3741.8863037108	0.0296452474
3743.8151110838	0.0240034051
3745.7439184569	0.0228774436
3747.6727258299	0.0282031689
3749.6015332030	0.0250731483
3751.5303405760	0.0235062446
3753.4591479491	0.0261201579
3755.3879553221	0.0278416015
3757.3167626952	0.0285714567
3759.2455700682	0.0269393995
3761.1743774413	0.0276618600
3763.1031848143	0.0288599394
3765.0319921873	0.0275146365
3766.9607995604	0.0278785471
3768.8896069334	0.0276532788
3770.8184143065	0.0266943984
3772.7472216795	0.0283278134
3774.6760290526	0.0283918194
3776.6048364256	0.0283347480
3778.5336437987	0.0276967157
3780.4624511717	0.0268430077
3782.3912585448	0.0282610338
3784.3200659178	0.0277064834
3786.2488732909	0.0275291167
3788.1776806639	0.0279954001
3790.1064880370	0.0278386325
3792.0352954100	0.0276768226
3793.9641027830	0.0281088538
3795.8929101561	0.0267591365
3797.8217175291	0.0265098307
3799.7505249022	0.0276102833
3801.6793322752	0.0228771716
3803.6081396483	0.0258846432
3805.5369470213	0.0276308581
3807.4657543944	0.0235876795
3809.3945617674	0.0273506623
3811.3233691405	0.0268987119
3813.2521765135	0.0277557988
3815.1809838866	0.0254534930
3817.1097912596	0.0230491608
3819.0385986327	0.0276687276
3820.9674060057	0.0234652348
3822.8962133787	0.0243649669
3824.8250207518	0.0273461603
3826.7538281248	0.0253783278
3828.6826354979	0.0268295743
3830.6114428709	0.0259668417
3832.5402502440	0.0253250394
3834.4690576170	0.0257837065
3836.3978649901	0.0247409903
3838.3266723631	0.0227474011
3840.2554797362	0.0241950043
3842.1842871092	0.0256502517
3844.1130944823	0.0248601753
3846.0419018553	0.0263738744
3847.9707092284	0.0259399898
3849.8995166014	0.0260448344
3851.8283239745	0.0238562562
3853.7571313475	0.0190404728
3855.6859387205	0.0216429327
3857.6147460936	0.0260587763
3859.5435534666	0.0255299881
3861.4723608397	0.0251928829
3863.4011682127	0.0247626565
3865.3299755858	0.0234047621
3867.2587829588	0.0255092643
3869.1875903319	0.0237892233
3871.1163977049	0.0223425850
3873.0452050780	0.0254637599
3874.9740124510	0.0238905363
3876.9028198241	0.0252253190
3878.8316271971	0.0256973058
3880.7604345702	0.0227712840
3882.6892419432	0.0253125429
3884.6180493162	0.0241132826
3886.5468566893	0.0224439576
3888.4756640623	0.0254100226
3890.4044714354	0.0242841169
3892.3332788084	0.0230922252
3894.2620861815	0.0248426199
3896.1908935545	0.0251334868
3898.1197009276	0.0241918676
3900.0485083006	0.0231074207
3901.9773156737	0.0229098760
3903.9061230467	0.0226728320
3905.8349304198	0.0230259597
3907.7637377928	0.0247122720
3909.6925451659	0.0246246345
3911.6213525389	0.0243966077
3913.5501599119	0.0247629099
3915.4789672850	0.0240604728
3917.4077746580	0.0233745519
3919.3365820311	0.0234258436
3921.2653894041	0.0240272749
3923.1941967772	0.0239374395
3925.1230041502	0.0236191750
3927.0518115233	0.0238213446
3928.9806188963	0.0241112188
3930.9094262694	0.0236276425
3932.8382336424	0.0230900869
3934.7670410155	0.0238573551
3936.6958483885	0.0239294600
3938.6246557616	0.0236320067
3940.5534631346	0.0237844028
3942.4822705076	0.0232589170
3944.4110778807	0.0232597962
3946.3398852537	0.0235857964
3948.2686926268	0.0231450051
3950.1974999998	0.0230938029
3952.1263073729	0.0234332085
3954.0551147459	0.0234145261
3955.9839221190	0.0233255588
3957.9127294920	0.0231844932
3959.8415368651	0.0231902599
3961.7703442381	0.0230893232
3963.6991516112	0.0230664872
3965.6279589842	0.0231727362
3967.5567663573	0.0230402164
3969.4855737303	0.0230883639
3971.4143811034	0.0229189768
3973.3431884764	0.0228403322
3975.2719958494	0.0227759704
3977.2008032225	0.0227172561
3979.1296105955	0.0228732638
3981.0584179686	0.0226642098
3982.9872253416	0.0227122381
3984.9160327147	0.0226054862
3986.8448400877	0.0224851407
3988.7736474608	0.0226604175
3990.7024548338	0.0225273352
3992.6312622069	0.0225009285
3994.5600695799	0.0223506652
3996.4888769530	0.0221972968
3998.4176843260	0.0222948082
4000.3464916991	0.0222791508
4002.2752990721	0.0221815370
4004.2041064451	0.0221720710
4006.1329138182	0.0221156813
4008.0617211912	0.0220059417
4009.9905285643	0.0220774766
4011.9193359373	0.0220480263
4013.8481433104	0.0219497792
4015.7769506834	0.0219521001
4017.7057580565	0.0218647793
4019.6345654295	0.0217885803
4021.5633728026	0.0217467956
4023.4921801756	0.0215765350
4025.4209875487	0.0216036141
4027.3497949217	0.0217334852
4029.2786022948	0.0215807073
4031.2074096678	0.0215237029
4033.1362170408	0.0215068292
4035.0650244139	0.0214221664
4036.9938317869	0.0214114003
4038.9226391600	0.0213775709
4040.8514465330	0.0213208199
4042.7802539061	0.0212544017
4044.7090612791	0.0211903639
4046.6378686522	0.0211607553
4048.5666760252	0.0211828090
4050.4954833983	0.0211291723
4052.4242907713	0.0210642312
4054.3530981444	0.0209570490
4056.2819055174	0.0209324434
4058.2107128905	0.0209739171
4060.1395202635	0.0207828432
4062.0683276365	0.0207789093
4063.9971350096	0.0209384225
4065.9259423826	0.0208641384
4067.8547497557	0.0207236335
4069.7835571287	0.0207273364
4071.7123645018	0.0206139684
4073.6411718748	0.0204877518
4075.5699792479	0.0205353238
4077.4987866209	0.0204186644
4079.4275939940	0.0203594677
4081.3564013670	0.0203434005
4083.2852087401	0.0202939268
4085.2140161131	0.0203157440
4087.1428234862	0.0203139707
4089.0716308592	0.0202838741
4091.0004382323	0.0202012472
4092.9292456053	0.0201268494
4094.8580529783	0.0200449768
4096.7868603514	0.0200766698
4098.7156677244	0.0200361982
4100.6444750975	0.0199640002
4102.5732824705	0.0199408010
4104.5020898436	0.0198247395
4106.4308972166	0.0198378190
4108.3597045897	0.0198433809
4110.2885119627	0.0198077820
4112.2173193358	0.0197106488
4114.1461267088	0.0196332373
4116.0749340819	0.0196645726
4118.0037414549	0.0196696837
4119.9325488280	0.0195665974
4121.8613562010	0.0194609165
4123.7901635740	0.0194698758
4125.7189709471	0.0193733498
4127.6477783201	0.0193804577
4129.5765856932	0.0193374325
4131.5053930662	0.0192521997
4133.4342004393	0.0192370154
4135.3630078123	0.0191258341
4137.2918151854	0.0191494506
4139.2206225584	0.0191159677
4141.1494299315	0.0190635733
4143.0782373045	0.0190022923
4145.0070446776	0.0190071873
4146.9358520506	0.0189718120
4148.8646594237	0.0188676082
4150.7934667967	0.0188756511
4152.7222741697	0.0187716782
4154.6510815428	0.0188058093
4156.5798889158	0.0187718384
4158.5086962889	0.0187276751
4160.4375036619	0.0187046435
4162.3663110350	0.0185880847
4164.2951184080	0.0185441729
4166.2239257811	0.0184815712
4168.1527331541	0.0185159408
4170.0815405272	0.0184751712
4172.0103479002	0.0184658524
4173.9391552733	0.0183558464
4175.8679626463	0.0183606260
4177.7967700194	0.0183368474
4179.7255773924	0.0181648768
4181.6543847654	0.0182940438
4183.5831921385	0.0181488413
4185.5119995115	0.0181520823
4187.4408068846	0.0180969685
4189.3696142576	0.0179580878
4191.2984216307	0.0180344060
4193.2272290037	0.0178738069
4195.1560363768	0.0178893488
4197.0848437498	0.0178206265
4199.0136511229	0.0178265274
4200.9424584959	0.0178357586
4202.8712658690	0.0177553482
4204.8000732420	0.0177437644
4206.7288806151	0.0176725872
4208.6576879881	0.0176739879
4210.5864953611	0.0175437815
4212.5153027342	0.0175897144
4214.4441101072	0.0175586492
4216.3729174803	0.0175485536
4218.3017248533	0.0175386705
4220.2305322264	0.0174397621
4222.1593395994	0.0174810737
4224.0881469725	0.0172771662
4226.0169543455	0.0172608569
4227.9457617186	0.0172240250
4229.8745690916	0.0172565859
4231.8033764647	0.0172539726
4233.7321838377	0.0170569457
4235.6609912108	0.0171052665
4237.5897985838	0.0170621313
4239.5186059569	0.0170707814
4241.4474133299	0.0169271231
4243.3762207029	0.0169439111
4245.3050280760	0.0169497915
4247.2338354490	0.0167274848
4249.1626428221	0.0168895237
4251.0914501951	0.0168985780
4253.0202575682	0.0168060288
4254.9490649412	0.0167195294
4256.8778723143	0.0166382752
4258.8066796873	0.0166691169
4260.7354870604	0.0166088007
4262.6642944334	0.0165017173
4264.5931018065	0.0164916180
4266.5219091795	0.0165207814
4268.4507165526	0.0164606012
4270.3795239256	0.0165108368
4272.3083312986	0.0163988955
4274.2371386717	0.0162811168
4276.1659460447	0.0163493343
4278.0947534178	0.0162871461
4280.0235607908	0.0162178203
4281.9523681639	0.0162329525
4283.8811755369	0.0161648151
4285.8099829100	0.0160660315
4287.7387902830	0.0161285289
4289.6675976561	0.0160663165
4291.5964050291	0.0160627775
4293.5252124022	0.0159822926
4295.4540197752	0.0158916451
4297.3828271483	0.0159982741
4299.3116345213	0.0158157106
4301.2404418943	0.0158055574
4303.1692492674	0.0157794580
4305.0980566404	0.0157015566
4307.0268640135	0.0157675929
4308.9556713865	0.0157109462
4310.8844787596	0.0157016553
4312.8132861326	0.0156413019
4314.7420935057	0.0156583935
4316.6709008787	0.0155862505
4318.5997082518	0.0154988896
4320.5285156248	0.0155110648
4322.4573229979	0.0154785104
4324.3861303709	0.0154456142
4326.3149377440	0.0154082431
4328.2437451170	0.0153974816
4330.1725524900	0.0153072216
4332.1013598631	0.0153222792
4334.0301672361	0.0152306156
4335.9589746092	0.0151444450
4337.8877819822	0.0151815834
4339.8165893553	0.0151370019
4341.7453967283	0.0150725842
4343.6742041014	0.0150143281
4345.6030114744	0.0151099432
4347.5318188475	0.0150017990
4349.4606262205	0.0149249351
4351.3894335936	0.0149537437
4353.3182409666	0.0149382483
4355.2470483397	0.0148470085
4357.1758557127	0.0147532355
4359.1046630858	0.0148599222
4361.0334704588	0.0146740787
4362.9622778318	0.0147558292
4364.8910852049	0.0147141498
4366.8198925779	0.0145408455
4368.7486999510	0.0146983247
4370.6775073240	0.0145007819
4372.6063146971	0.0145484060
4374.5351220701	0.0145102181
4376.4639294432	0.0144996746
4378.3927368162	0.0145819951
4380.3215441893	0.0143915731
4382.2503515623	0.0144145256
4384.1791589354	0.0142681282
4386.1079663084	0.0142389052
4388.0367736815	0.0142305372
4389.9655810545	0.0142332343
4391.8943884275	0.0143021103
4393.8231958006	0.0141556710
4395.7520031736	0.0141611081
4397.6808105467	0.0141026201
4399.6096179197	0.0141075673
4401.5384252928	0.0141073130
4403.4672326658	0.0140522271
4405.3960400389	0.0140639488
4407.3248474119	0.0139241796
4409.2536547850	0.0139076803
4411.1824621580	0.0139237158
4413.1112695311	0.0138413208
4415.0400769041	0.0138521492
4416.9688842772	0.0138580184
4418.8976916502	0.0137574216
4420.8264990232	0.0136957997
4422.7553063963	0.0136833992
4424.6841137693	0.0136584137
4426.6129211424	0.0135511830
4428.5417285154	0.0135363350
4430.4705358885	0.0136221722
4432.3993432615	0.0134865530
4434.3281506346	0.0135034434
4436.2569580076	0.0135137625
4438.1857653807	0.0133727528
4440.1145727537	0.0134603325
4442.0433801268	0.0134220235
4443.9721874998	0.0133039262
4445.9009948729	0.0132958721
4447.8298022459	0.0132691721
4449.7586096189	0.0132716354
4451.6874169920	0.0132581666
4453.6162243650	0.0132473018
4455.5450317381	0.0132370992
4457.4738391111	0.0131804319
4459.4026464842	0.0131550450
4461.3314538572	0.0130948275
4463.2602612303	0.0130961472
4465.1890686033	0.0130518368
4467.1178759764	0.0128860278
4469.0466833494	0.0129780062
4470.9754907225	0.0129214544
4472.9042980955	0.0128092291
4474.8331054686	0.0128610581
4476.7619128416	0.0127343107
4478.6907202147	0.0127537828
4480.6195275877	0.0127711985
4482.5483349607	0.0127913468
4484.4771423338	0.0127873290
4486.4059497068	0.0126533695
4488.3347570799	0.0126749557
4490.2635644529	0.0126300529
4492.1923718260	0.0126208868
4494.1211791990	0.0126089826
4496.0499865721	0.0125301778
4497.9787939451	0.0125043914
4499.9076013182	0.0124522112
4501.8364086912	0.0124489050
4503.7652160643	0.0123861488
4505.6940234373	0.0123595521
4507.6228308104	0.0123722013
4509.5516381834	0.0122830272
4511.4804455564	0.0122874212
4513.4092529295	0.0123317307
4515.3380603025	0.0122698322
4517.2668676756	0.0122353835
4519.1956750486	0.0121881049
4521.1244824217	0.0120849544
4523.0532897947	0.0120641589
4524.9820971678	0.0121326437
4526.9109045408	0.0121327974
4528.8397119139	0.0119842449
4530.7685192869	0.0120142233
4532.6973266600	0.0120372120
4534.6261340330	0.0118762683
4536.5549414061	0.0119057186
4538.4837487791	0.0118438071
4540.4125561521	0.0117590837
4542.3413635252	0.0118279941
4544.2701708982	0.0117351674
4546.1989782713	0.0117267668
4548.1277856443	0.0117812920
4550.0565930174	0.0116850799
4551.9854003904	0.0116779339
4553.9142077635	0.0116229132
4555.8430151365	0.0115599735
4557.7718225096	0.0116069466
4559.7006298826	0.0115284836
4561.6294372557	0.0115849171
4563.5582446287	0.0116045084
4565.4870520018	0.0114676841
4567.4158593748	0.0114909653
4569.3446667478	0.0114405267
4571.2734741209	0.0113732871
4573.2022814939	0.0113199782
4575.1310888670	0.0113287997
4577.0598962400	0.0113780368
4578.9887036131	0.0112385880
4580.9175109861	0.0112051759
4582.8463183592	0.0111860204
4584.7751257322	0.0111498144
4586.7039331053	0.0111820288
4588.6327404783	0.0111178746
4590.5615478514	0.0111566801
4592.4903552244	0.0111088958
4594.4191625975	0.0110132173
4596.3479699705	0.0110339196
4598.2767773435	0.0109649953
4600.2055847166	0.0110185500
4602.1343920896	0.0110119022
4604.0631994627	0.0109973922
4605.9920068357	0.0110244323
4607.9208142088	0.0108268894
4609.8496215818	0.0108437948
4611.7784289549	0.0108548310
4613.7072363279	0.0107480921
4615.6360437010	0.0107810972
4617.5648510740	0.0107755866
4619.4936584471	0.0107513275
4621.4224658201	0.0106964651
4623.3512731932	0.0106939822
4625.2800805662	0.0106985364
4627.2088879393	0.0106356163
4629.1376953123	0.0105423946
4631.0665026853	0.0105592124
4632.9953100584	0.0105070546
4634.9241174314	0.0104214409
4636.8529248045	0.0105032418
4638.7817321775	0.0103339870
4640.7105395506	0.0103437845
4642.6393469236	0.0103731770
4644.5681542967	0.0102767367
4646.4969616697	0.0104133384
4648.4257690428	0.0103371590
4650.3545764158	0.0103049763
4652.2833837889	0.0102665909
4654.2121911619	0.0102196299
4656.1409985350	0.0102216713
4658.0698059080	0.0101752523
4659.9986132810	0.0101816701
4661.9274206541	0.0101228934
4663.8562280271	0.0101602729
4665.7850354002	0.0101093892
4667.7138427732	0.0101251006
4669.6426501463	0.0100779422
4671.5714575193	0.0099687018
4673.5002648924	0.0099976026
4675.4290722654	0.0099287946
4677.3578796385	0.0100099593
4679.2866870115	0.0099691227
4681.2154943846	0.0098954979
4683.1443017576	0.0098758535
4685.0731091307	0.0098231342
4687.0019165037	0.0097770998
4688.9307238767	0.0097515061
4690.8595312498	0.0098815225
4692.7883386228	0.0097414404
4694.7171459959	0.0096762339
4696.6459533689	0.0097337738
4698.5747607420	0.0097180279
4700.5035681150	0.0097305868
4702.4323754881	0.0095973136
4704.3611828611	0.0095804334
4706.2899902342	0.0096602160
4708.2187976072	0.0096369758
4710.1476049803	0.0095260330
4712.0764123533	0.0095054973
4714.0052197264	0.0094664209
4715.9340270994	0.0095661990
4717.8628344724	0.0095741283
4719.7916418455	0.0094303247
4721.7204492185	0.0095573729
4723.6492565916	0.0093995947
4725.5780639646	0.0093859639
4727.5068713377	0.0093862116
4729.4356787107	0.0092093628
4731.3644860838	0.0092818150
4733.2932934568	0.0092123803
4735.2221008299	0.0092168683
4737.1509082029	0.0092442073
4739.0797155760	0.0092699081
4741.0085229490	0.0091791097
4742.9373303221	0.0091799917
4744.8661376951	0.0092527661
4746.7949450682	0.0091002034
4748.7237524412	0.0090796091
4750.6525598142	0.0089801550
4752.5813671873	0.0090788007
4754.5101745603	0.0090809781
4756.4389819334	0.0089624263
4758.3677893064	0.0090206824
4760.2965966795	0.0089543313
4762.2254040525	0.0089859879
4764.1542114256	0.0089249127
4766.0830187986	0.0088931154
4768.0118261717	0.0088446978
4769.9406335447	0.0088260509
4771.8694409178	0.0088560879
4773.7982482908	0.0088154003
4775.7270556639	0.0088390354
4777.6558630369	0.0087783057
4779.5846704099	0.0087623298
4781.5134777830	0.0086726435
4783.4422851560	0.0087527456
4785.3710925291	0.0087191937
4787.2998999021	0.0086421464
4789.2287072752	0.0087391920
4791.1575146482	0.0085690618
4793.0863220213	0.0085996008
4795.0151293943	0.0085251881
4796.9439367674	0.0085063307
4798.8727441404	0.0085643530
4800.8015515135	0.0084854001
4802.7303588865	0.0085319402
4804.6591662596	0.0083889151
4806.5879736326	0.0084528979
4808.5167810056	0.0084844790
4810.4455883787	0.0084165409
4812.3743957517	0.0084049506
4814.3032031248	0.0083118062
4816.2320104978	0.0083722621
4818.1608178709	0.0083379308
4820.0896252439	0.0082617234
4822.0184326170	0.0082558393
4823.9472399900	0.0083079301
4825.8760473631	0.0082997987
4827.8048547361	0.0082343966
4829.7336621092	0.0081989896
4831.6624694822	0.0081866393
4833.5912768553	0.0081721637
4835.5200842283	0.0081280936
4837.4488916013	0.0081857517
4839.3776989744	0.0081047993
4841.3065063474	0.0080532422
4843.2353137205	0.0080137318
4845.1641210935	0.0079436395
4847.0929284666	0.0080520753
4849.0217358396	0.0080470340
4850.9505432127	0.0079646707
4852.8793505857	0.0079049235
4854.8081579588	0.0078931153
4856.7369653318	0.0078850538
4858.6657727049	0.0079895901
4860.5945800779	0.0079538655
4862.5233874510	0.0078443550
4864.4521948240	0.0079571456
4866.3810021971	0.0077951131
4868.3098095701	0.0077568302
4870.2386169431	0.0078189345
4872.1674243162	0.0076839388
4874.0962316892	0.0077113938
4876.0250390623	0.0078144222
4877.9538464353	0.0077921259
4879.8826538084	0.0076394551
4881.8114611814	0.0076402668
4883.7402685545	0.0076330816
4885.6690759275	0.0075546266
4887.5978833006	0.0075584892
4889.5266906736	0.0075961351
4891.4554980467	0.0075261206
4893.3843054197	0.0074741300
4895.3131127928	0.0075672031
4897.2419201658	0.0074631111
4899.1707275388	0.0075363275
4901.0995349119	0.0075401235
4903.0283422849	0.0073445970
4904.9571496580	0.0074536884
4906.8859570310	0.0074135913
4908.8147644041	0.0072844094
4910.7435717771	0.0072897710
4912.6723791502	0.0073287431
4914.6011865232	0.0072992444
4916.5299938963	0.0073024915
4918.4588012693	0.0073256185
4920.3876086424	0.0072283419
4922.3164160154	0.0072615673
4924.2452233885	0.0072541987
4926.1740307615	0.0072341738
4928.1028381345	0.0072212056
4930.0316455076	0.0071423678
4931.9604528806	0.0071434183
4933.8892602537	0.0071068727
4935.8180676267	0.0071153389
4937.7468749998	0.0071129976
4939.6756823728	0.0070614228
4941.6044897459	0.0070474287
4943.5332971189	0.0070486432
4945.4621044920	0.0071038604
4947.3909118650	0.0070941360
4949.3197192381	0.0070247212
4951.2485266111	0.0070253233
4953.1773339842	0.0069922870
4955.1061413572	0.0069246264
4957.0349487302	0.0069232117
4958.9637561033	0.0069283992
4960.8925634763	0.0068995156
4962.8213708494	0.0068549286
4964.7501782224	0.0068314727
4966.6789855955	0.0067823362
4968.6077929685	0.0068190768
4970.5366003416	0.0068507553
4972.4654077146	0.0067735966
4974.3942150877	0.0067679230
4976.3230224607	0.0067092702
4978.2518298338	0.0067715161
4980.1806372068	0.0067474376
4982.1094445799	0.0066207154
4984.0382519529	0.0067708287
4985.9670593259	0.0067065777
4987.8958666990	0.0065791695
4989.8246740720	0.0066266614
4991.7534814451	0.0066531906
4993.6822888181	0.0066049229
4995.6110961912	0.0065148249
4997.5399035642	0.0065860860
4999.4687109373	0.0065660905
5001.3975183103	0.0064793881
5003.3263256834	0.0065004169
5005.2551330564	0.0065222261
5007.1839404295	0.0065244818
5009.1127478025	0.0064680269
5011.0415551756	0.0063913669
5012.9703625486	0.0063877213
5014.8991699217	0.0064338716
5016.8279772947	0.0063450662
5018.7567846677	0.0063370392
5020.6855920408	0.0064036879
5022.6143994138	0.0063237762
5024.5432067869	0.0063627549
5026.4720141599	0.0063241208
5028.4008215330	0.0062263859
5030.3296289060	0.0063413596
5032.2584362791	0.0062960032
5034.1872436521	0.0062097013
5036.1160510252	0.0062396834
5038.0448583982	0.0061760489
5039.9736657713	0.0062186229
5041.9024731443	0.0062385919
5043.8312805174	0.0061416021
5045.7600878904	0.0061271330
5047.6888952634	0.0061388840
5049.6177026365	0.0061244788
5051.5465100095	0.0060700197
5053.4753173826	0.0060888026
5055.4041247556	0.0060843481
5057.3329321287	0.0059910640
5059.2617395017	0.0059814202
5061.1905468748	0.0060230736
5063.1193542478	0.0059623136
5065.0481616209	0.0059173210
5066.9769689939	0.0059875036
5068.9057763670	0.0059091938
5070.8345837400	0.0059475829
5072.7633911131	0.0059761060
5074.6921984861	0.0058271931
5076.6210058591	0.0058610728
5078.5498132322	0.0058251549
5080.4786206052	0.0058569582
5082.4074279783	0.0058248891
5084.3362353513	0.0057219984
5086.2650427244	0.0058355741
5088.1938500974	0.0057995399
5090.1226574705	0.0057706488
5092.0514648435	0.0057865679
5093.9802722166	0.0057714302
5095.9090795896	0.0057397261
5097.8378869627	0.0057195718
5099.7666943357	0.0057210783
5101.6955017088	0.0056498940
5103.6243090818	0.0056734481
5105.5531164548	0.0056216856
5107.4819238279	0.0056671361
5109.4107312009	0.0057410737
5111.3395385740	0.0055961609
5113.2683459470	0.0055848733
5115.1971533201	0.0056213113
5117.1259606931	0.0056067831
5119.0547680662	0.0055691423
5120.9835754392	0.0055694617
5122.9123828123	0.0055394005
5124.8411901853	0.0055179354
5126.7699975584	0.0055401148
5128.6988049314	0.0054413532
5130.6276123045	0.0054587903
5132.5564196775	0.0054471297
5134.4852270506	0.0054633785
5136.4140344236	0.0054919031
5138.3428417966	0.0053761033
5140.2716491697	0.0053998567
5142.2004565427	0.0053295642
5144.1292639158	0.0053386372
5146.0580712888	0.0053714542
5147.9868786619	0.0053014606
5149.9156860349	0.0053789485
5151.8444934080	0.0052711056
5153.7733007810	0.0052673989
5155.7021081541	0.0053756256
5157.6309155271	0.0053021861
5159.5597229002	0.0052495813
5161.4885302732	0.0051993579
5163.4173376463	0.0052425144
5165.3461450193	0.0052558701
5167.2749523923	0.0052165324
5169.2037597654	0.0051994827
5171.1325671384	0.0051236534
5173.0613745115	0.0051006321
5174.9901818845	0.0051353406
5176.9189892576	0.0052034622
5178.8477966306	0.0051634395
5180.7766040037	0.0050848424
5182.7054113767	0.0051170196
5184.6342187498	0.0050207013
5186.5630261228	0.0049290257
5188.4918334959	0.0049936585
5190.4206408689	0.0049737641
5192.3494482420	0.0050022001
5194.2782556150	0.0050086854
5196.2070629880	0.0048493417
5198.1358703611	0.0049213730
5200.0646777341	0.0050220918
5201.9934851072	0.0049553672
5203.9222924802	0.0049674432
5205.8510998533	0.0049144533
5207.7799072263	0.0048253229
5209.7087145994	0.0048656771
5211.6375219724	0.0049045542
5213.5663293455	0.0048658228
5215.4951367185	0.0048704087
5217.4239440916	0.0048641753
5219.3527514646	0.0048526414
5221.2815588377	0.0048443745
5223.2103662107	0.0047780247
5225.1391735837	0.0047199181
5227.0679809568	0.0046747881
5228.9967883298	0.0047870171
5230.9255957029	0.0047983490
5232.8544030759	0.0047145397
5234.7832104490	0.0048089605
5236.7120178220	0.0047821281
5238.6408251951	0.0047048172
5240.5696325681	0.0047518620
5242.4984399412	0.0047543924
5244.4272473142	0.0045854379
5246.3560546873	0.0045722323
5248.2848620603	0.0045978436
5250.2136694334	0.0045584980
5252.1424768064	0.0046690404
5254.0712841795	0.0045464076
5256.0000915525	0.0045288680
5257.9288989255	0.0046024332
5259.8577062986	0.0046035489
5261.7865136716	0.0046233269
5263.7153210447	0.0044686757
5265.6441284177	0.0045293174
5267.5729357908	0.0045503830
5269.5017431638	0.0045149224
5271.4305505369	0.0045902678
5273.3593579099	0.0045471047
5275.2881652830	0.0044532353
5277.2169726560	0.0044372771
5279.1457800291	0.0045119496
5281.0745874021	0.0044781147
5283.0033947752	0.0044741360
5284.9322021482	0.0044103437
5286.8610095212	0.0044828309
5288.7898168943	0.0045069247
5290.7186242673	0.0043610111
5292.6474316404	0.0044259834
5294.5762390134	0.0043232525
5296.5050463865	0.0043726759
5298.4338537595	0.0043511190
5300.3626611326	0.0043096459
5302.2914685056	0.0044054808
5304.2202758787	0.0042905048
5306.1490832517	0.0043541356
5308.0778906248	0.0042196102
5310.0066979978	0.0042540487
5311.9355053709	0.0043551587
5313.8643127439	0.0042517418
5315.7931201169	0.0043146592
5317.7219274900	0.0042252727
5319.6507348630	0.0042576171
5321.5795422361	0.0042393962
5323.5083496091	0.0042687319
5325.4371569822	0.0042968863
5327.3659643552	0.0041308459
5329.2947717283	0.0041307351
5331.2235791013	0.0041548968
5333.1523864744	0.0041503720
5335.0811938474	0.0040920675
5337.0100012205	0.0041580414
5338.9388085935	0.0040428867
5340.8676159666	0.0040711458
5342.7964233396	0.0042427126
5344.7252307126	0.0039961799
5346.6540380857	0.0040903538
5348.5828454587	0.0041180672
5350.5116528318	0.0039945478
5352.4404602048	0.0040160175
5354.3692675779	0.0039700074
5356.2980749509	0.0040790420
5358.2268823240	0.0040850667
5360.1556896970	0.0041114632
5362.0844970701	0.0040609129
5364.0133044431	0.0039725299
5365.9421118162	0.0039612958
5367.8709191892	0.0039229910
5369.7997265623	0.0040053902
5371.7285339353	0.0038820473
5373.6573413083	0.0038632229
5375.5861486814	0.0039645694
5377.5149560544	0.0038912338
5379.4437634275	0.0039137681
5381.3725708005	0.0038931041
5383.3013781736	0.0038907118
5385.2301855466	0.0038711114
5387.1589929197	0.0038046692
5389.0878002927	0.0038883160
5391.0166076658	0.0038906769
5392.9454150388	0.0038192766
5394.8742224119	0.0037797447
5396.8030297849	0.0037577273
5398.7318371580	0.0038218105
5400.6606445310	0.0038387747
5402.5894519041	0.0037324238
5404.5182592771	0.0037097423
5406.4470666501	0.0037833403
5408.3758740232	0.0037078350
5410.3046813962	0.0037140539
5412.2334887693	0.0037200528
5414.1622961423	0.0035685310
5416.0911035154	0.0036849631
5418.0199108884	0.0037220200
5419.9487182615	0.0036689010
5421.8775256345	0.0037020501
5423.8063330076	0.0036051620
5425.7351403806	0.0036867883
5427.6639477537	0.0036868174
5429.5927551267	0.0035896776
5431.5215624998	0.0036637560
5433.4503698728	0.0036140746
5435.3791772458	0.0035723494
5437.3079846189	0.0036770548
5439.2367919919	0.0036263033
5441.1655993650	0.0035328018
5443.0944067380	0.0035918527
5445.0232141111	0.0035311687
5446.9520214841	0.0035420896
5448.8808288572	0.0035338765
5450.8096362302	0.0034522833
5452.7384436033	0.0035948062
5454.6672509763	0.0034952601
5456.5960583494	0.0034275660
5458.5248657224	0.0035485975
5460.4536730955	0.0034335763
5462.3824804685	0.0033716033
5464.3112878415	0.0034160879
5466.2400952146	0.0034734434
5468.1689025876	0.0034961137
5470.0977099607	0.0034463014
5472.0265173337	0.0034476463
5473.9553247068	0.0034515420
5475.8841320798	0.0034167324
5477.8129394529	0.0034524770
5479.7417468259	0.0034531471
5481.6705541990	0.0033503757
5483.5993615720	0.0033311537
5485.5281689451	0.0033424054
5487.4569763181	0.0033221121
5489.3857836912	0.0033129212
5491.3145910642	0.0033735223
5493.2433984372	0.0034069668
5495.1722058103	0.0032816371
5497.1010131833	0.0032442142
5499.0298205564	0.0033273790
5500.9586279294	0.0033142632
5502.8874353025	0.0032572334
5504.8162426755	0.0032891291
5506.7450500486	0.0032888209
5508.6738574216	0.0032538786
5510.6026647947	0.0032688016
5512.5314721677	0.0032588015
5514.4602795408	0.0032739379
5516.3890869138	0.0032462860
5518.3178942869	0.0031901635
5520.2467016599	0.0031842059
5522.1755090330	0.0031849868
5524.1043164060	0.0031983869
5526.0331237790	0.0031832391
5527.9619311521	0.0032024414
5529.8907385251	0.0031866184
5531.8195458982	0.0030992674
5533.7483532712	0.0031058234
5535.6771606443	0.0031331461
5537.6059680173	0.0031114426
5539.5347753904	0.0030998429
5541.4635827634	0.0030901420
5543.3923901365	0.0031074688
5545.3211975095	0.0031071100
5547.2500048826	0.0030493499
5549.1788122556	0.0030644224
5551.1076196287	0.0030745713
5553.0364270017	0.0030449484
5554.9652343747	0.0030588242
5556.8940417478	0.0030137452
5558.8228491208	0.0030177003
5560.7516564939	0.0030544125
5562.6804638669	0.0030234270
5564.6092712400	0.0030335416
5566.5380786130	0.0030142232
5568.4668859861	0.0030088294
5570.3956933591	0.0029736930
5572.3245007322	0.0029188837
5574.2533081052	0.0030222309
5576.1821154783	0.0030168402
5578.1109228513	0.0029513894
5580.0397302244	0.0029918039
5581.9685375974	0.0029695560
5583.8973449704	0.0028988766
5585.8261523435	0.0028828194
5587.7549597165	0.0029758532
5589.6837670896	0.0029491116
5591.6125744626	0.0028777889
5593.5413818357	0.0029462939
5595.4701892087	0.0029446930
5597.3989965818	0.0029033197
5599.3278039548	0.0029038968
5601.2566113279	0.0028937696
5603.1854187009	0.0028468529
5605.1142260740	0.0028563070
5607.0430334470	0.0028108803
5608.9718408201	0.0027778875
5610.9006481931	0.0028870571
5612.8294555661	0.0028315019
5614.7582629392	0.0028117916
5616.6870703122	0.0028628083
5618.6158776853	0.0028056661
5620.5446850583	0.0027786777
5622.4734924314	0.0027545700
5624.4022998044	0.0027263770
5626.3311071775	0.0027254988
5628.2599145505	0.0028116708
5630.1887219236	0.0027924241
5632.1175292966	0.0027234061
5634.0463366697	0.0027314825
5635.9751440427	0.0026462022
5637.9039514158	0.0027339291
5639.8327587888	0.0028447525
5641.7615661619	0.0026668343
5643.6903735349	0.0026430595
5645.6191809079	0.0027343440
5647.5479882810	0.0026559066
5649.4767956540	0.0027048746
5651.4056030271	0.0027174228
5653.3344104001	0.0026246677
5655.2632177732	0.0026234114
5657.1920251462	0.0026440423
5659.1208325193	0.0026920433
5661.0496398923	0.0026016720
5662.9784472654	0.0025981190
5664.9072546384	0.0026072538
5666.8360620115	0.0025367655
5668.7648693845	0.0026074564
5670.6936767576	0.0025852416
5672.6224841306	0.0026163792
5674.5512915036	0.0026013171
5676.4800988767	0.0025472967
5678.4089062497	0.0025907089
5680.3377136228	0.0025794986
5682.2665209958	0.0025633743
5684.1953283689	0.0025195521
5686.1241357419	0.0025447728
5688.0529431150	0.0024792291
5689.9817504880	0.0024617601
5691.9105578611	0.0025515330
5693.8393652341	0.0024791923
5695.7681726072	0.0024777311
5697.6969799802	0.0025473451
5699.6257873533	0.0025418042
5701.5545947263	0.0024972726
5703.4834020993	0.0024977059
5705.4122094724	0.0025202925
5707.3410168454	0.0024917307
5709.2698242185	0.0024094447
5711.1986315915	0.0024482296
5713.1274389646	0.0024779900
5715.0562463376	0.0024225428
5716.9850537107	0.0024474692
5718.9138610837	0.0023417817
5720.8426684568	0.0024015452
5722.7714758298	0.0024033943
5724.7002832029	0.0023112628
5726.6290905759	0.0024135639
5728.5578979490	0.0023439690
5730.4867053220	0.0024295710
5732.4155126950	0.0024315985
5734.3443200681	0.0023475168
5736.2731274411	0.0023899293
5738.2019348142	0.0023300308
5740.1307421872	0.0023383149
5742.0595495603	0.0022682454
5743.9883569333	0.0022731563
5745.9171643064	0.0022949881
5747.8459716794	0.0023061112
5749.7747790525	0.0023356469
5751.7035864255	0.0022728965
5753.6323937986	0.0023369738
5755.5612011716	0.0023265770
5757.4900085447	0.0022740220
5759.4188159177	0.0022762464
5761.3476232907	0.0022287339
5763.2764306638	0.0022274589
5765.2052380368	0.0022806125
5767.1340454099	0.0022368126
5769.0628527829	0.0022153649
5770.9916601560	0.0022560055
5772.9204675290	0.0022108108
5774.8492749021	0.0021891899
5776.7780822751	0.0021742000
5778.7068896482	0.0022598584
5780.6356970212	0.0022713826
5782.5645043943	0.0022259927
5784.4933117673	0.0022126352
5786.4221191404	0.0021404615
5788.3509265134	0.0021909019
5790.2797338865	0.0021545989
5792.2085412595	0.0021620467
5794.1373486325	0.0021453905
5796.0661560056	0.0021280905
5797.9949633786	0.0021970030
5799.9237707517	0.0021102503
5801.8525781247	0.0021243950
5803.7813854978	0.0021465886
5805.7101928708	0.0021544199
5807.6390002439	0.0021192264
5809.5678076169	0.0021243081
5811.4966149900	0.0021290299
5813.4254223630	0.0020627908
5815.3542297361	0.0021355678
5817.2830371091	0.0020969426
5819.2118444822	0.0020953903
5821.1406518552	0.0020818929
5823.0694592282	0.0020897267
5824.9982666013	0.0021108901
5826.9270739743	0.0020104549
5828.8558813474	0.0020249896
5830.7846887204	0.0020650639
5832.7134960935	0.0021035452
5834.6423034665	0.0019877343
5836.5711108396	0.0019733922
5838.4999182126	0.0020176382
5840.4287255857	0.0020036891
5842.3575329587	0.0020213453
5844.2863403318	0.0019102185
5846.2151477048	0.0019913786
5848.1439550779	0.0020015538
5850.0727624509	0.0019177077
5852.0015698239	0.0019029543
5853.9303771970	0.0019703084
5855.8591845700	0.0019917493
5857.7879919431	0.0018440037
5859.7167993161	0.0019298613
5861.6456066892	0.0019347802
5863.5744140622	0.0019384625
5865.5032214353	0.0019718348
5867.4320288083	0.0018917930
5869.3608361814	0.0019421715
5871.2896435544	0.0019793429
5873.2184509275	0.0019201455
5875.1472583005	0.0018332039
5877.0760656736	0.0019287367
5879.0048730466	0.0019064755
5880.9336804196	0.0018356537
5882.8624877927	0.0018490346
5884.7912951657	0.0018360551
5886.7201025388	0.0018782211
5888.6489099118	0.0018124776
5890.5777172849	0.0018835667
5892.5065246579	0.0019190897
5894.4353320310	0.0018545509
5896.3641394040	0.0017999882
5898.2929467771	0.0018274670
5900.2217541501	0.0018814877
5902.1505615232	0.0017704191
5904.0793688962	0.0018026503
5906.0081762693	0.0017282120
5907.9369836423	0.0017560533
5909.8657910154	0.0018160703
5911.7945983884	0.0017212844
5913.7234057614	0.0018041123
5915.6522131345	0.0017686640
5917.5810205075	0.0017846349
5919.5098278806	0.0017890860
5921.4386352536	0.0017764905
5923.3674426267	0.0017858421
5925.2962499997	0.0017137243
5927.2250573728	0.0017707446
5929.1538647458	0.0017704889
5931.0826721189	0.0017518988
5933.0114794919	0.0017631869
5934.9402868650	0.0017516187
5936.8690942380	0.0017023936
5938.7979016111	0.0017160550
5940.7267089841	0.0017463245
5942.6555163571	0.0016798109
5944.5843237302	0.0016819211
5946.5131311032	0.0016625798
5948.4419384763	0.0016870495
5950.3707458493	0.0017630043
5952.2995532224	0.0017467104
5954.2283605954	0.0016576379
5956.1571679685	0.0016319545
5958.0859753415	0.0016154845
5960.0147827146	0.0015699563
5961.9435900876	0.0016239305
5963.8723974607	0.0016538745
5965.8012048337	0.0016834195
5967.7300122068	0.0016440303
5969.6588195798	0.0016491456
5971.5876269528	0.0016801405
5973.5164343259	0.0016198789
5975.4452416989	0.0016428586
5977.3740490720	0.0016623980
5979.3028564450	0.0016916574
5981.2316638181	0.0015894822
5983.1604711911	0.0015672550
5985.0892785642	0.0016430961
5987.0180859372	0.0015978890
5988.9468933103	0.0016192507
5990.8757006833	0.0015974846
5992.8045080564	0.0016167897
5994.7333154294	0.0015664096
5996.6621228025	0.0015246854
5998.5909301755	0.0015571640
6000.5197375485	0.0015429046
