399.2631262207	0.0006022117
401.1919335938	-0.0001093512
403.1207409668	0.0001932561
405.0495483398	0.0003890762
406.9783557129	0.0002354519
408.9071630859	0.0002826863
410.8359704590	0.0000957394
412.7647778320	0.0009809580
414.6935852051	0.0004998627
416.6223925781	-0.0001029072
418.5511999512	0.0000280058
420.4800073242	0.0000949003
422.4088146973	0.0007915786
424.3376220703	0.0004436072
426.2664294434	0.0003328782
428.1952368164	0.0003106195
430.1240441895	0.0003408691
432.0528515625	0.0005784142
433.9816589355	0.0002109159
435.9104663086	0.0004405596
437.8392736816	0.0004111421
439.7680810547	0.0005044985
441.6968884277	0.0006585145
443.6256958008	0.0001640907
445.5545031738	-0.0001093134
447.4833105469	0.0000388024
449.4121179199	0.0000518127
451.3409252930	0.0002352916
453.2697326660	0.0006713021
455.1985400391	0.0001742760
457.1273474121	0.0003880196
459.0561547852	0.0004774317
460.9849621582	0.0001262669
462.9137695313	0.0003641675
464.8425769043	-0.0000493103
466.7713842773	0.0003384718
468.7001916504	0.0004252364
470.6289990234	0.0001851336
472.5578063965	0.0003011208
474.4866137695	0.0001360521
476.4154211426	0.0002762494
478.3442285156	0.0002122197
480.2730358887	0.0004351303
482.2018432617	0.0003076152
484.1306506348	0.0002954890
486.0594580078	0.0003686813
487.9882653809	0.0002313751
489.9170727539	0.0002224254
491.8458801270	-0.0000089698
493.7746875000	0.0004540863
495.7034948730	0.0002218190
497.6323022461	0.0000247438
499.5611096191	0.0003986171
501.4899169922	-0.0002040189
503.4187243652	-0.0002504444
505.3475317383	0.0001165775
507.2763391113	0.0000991878
509.2051464844	0.0000826155
511.1339538574	0.0001719079
513.0627612305	0.0001362797
514.9915686035	0.0003501823
516.9203759766	0.0001542378
518.8491833496	-0.0001246787
520.7779907227	0.0004380454
522.7067980957	0.0003527410
524.6356054688	0.0000984091
526.5644128418	-0.0000182348
528.4932202148	-0.0002198106
530.4220275879	0.0000230914
532.3508349609	0.0000920317
534.2796423340	0.0002054249
536.2084497070	0.0005042754
538.1372570801	0.0002742719
540.0660644531	0.0000570461
541.9948718262	0.0000880202
543.9236791992	-0.0002350033
545.8524865723	0.0002452126
547.7812939453	0.0003271961
549.7101013184	0.0000324126
551.6389086914	0.0002011137
553.5677160645	-0.0000334784
555.4965234375	0.0001988128
557.4253308105	0.0002204903
559.3541381836	0.0000945235
561.2829455566	0.0001703834
563.2117529297	0.0000952970
565.1405603027	-0.0000183875
567.0693676758	-0.0002766392
568.9981750488	0.0000741281
570.9269824219	0.0003306531
572.8557897949	-0.0001388539
574.7845971680	-0.0000890117
576.7134045410	0.0000695039
578.6422119141	0.0001084290
580.5710192871	0.0000789341
582.4998266602	-0.0002857315
584.4286340332	0.0000697281
586.3574414063	0.0003432575
588.2862487793	-0.0001473294
590.2150561523	-0.0000372545
592.1438635254	0.0002299589
594.0726708984	0.0003796511
596.0014782715	0.0003654583
597.9302856445	0.0002533617
599.8590930176	0.0003320920
601.7879003906	-0.0000258401
603.7167077637	0.0002230184
605.6455151367	0.0003119946
607.5743225098	0.0000703399
609.5031298828	0.0003471916
611.4319372559	0.0000758027
613.3607446289	0.0002118083
615.2895520020	0.0001392247
617.2183593750	0.0002696127
619.1471667480	0.0006292046
621.0759741211	0.0000017195
623.0047814941	0.0002320288
624.9335888672	0.0003672745
626.8623962402	-0.0000836869
628.7912036133	-0.0001580018
630.7200109863	-0.0000445814
632.6488183594	0.0000763554
634.5776257324	0.0000343819
636.5064331055	0.0003676810
638.4352404785	0.0005368406
640.3640478516	0.0002602709
642.2928552246	0.0004833711
644.2216625977	0.0004814954
646.1504699707	0.0004938840
648.0792773438	0.0008070969
650.0080847168	0.0004125662
651.9368920898	0.0004142508
653.8656994629	0.0007195058
655.7945068359	0.0007017422
657.7233142090	0.0007151434
659.6521215820	0.0004875021
661.5809289551	0.0005541976
663.5097363281	0.0006512461
665.4385437012	0.0006224704
667.3673510742	0.0007199330
669.2961584473	0.0006476251
671.2249658203	0.0010237029
673.1537731934	0.0011109969
675.0825805664	0.0006779897
677.0113879395	0.0009987903
678.9401953125	0.0011961289
680.8690026855	0.0010983681
682.7978100586	0.0010497184
684.7266174316	0.0008560952
686.6554248047	0.0012793378
688.5842321777	0.0012804491
690.5130395508	0.0009000358
692.4418469238	0.0010290871
694.3706542969	0.0012519456
696.2994616699	0.0014609905
698.2282690430	0.0013014103
700.1570764160	0.0016783413
702.0858837891	0.0017808871
704.0146911621	0.0012596621
705.9434985352	0.0012378260
707.8723059082	0.0009654533
709.8011132813	0.0008977845
711.7299206543	0.0006922035
713.6587280273	0.0003830098
715.5875354004	0.0000689501
717.5163427734	-0.0000731626
719.4451501465	0.0002869735
721.3739575195	0.0000590493
723.3027648926	0.0003956003
725.2315722656	0.0003208811
727.1603796387	-0.0001159221
729.0891870117	0.0001293261
731.0179943848	-0.0000473423
732.9468017578	0.0003138722
734.8756091309	0.0002990434
736.8044165039	0.0001675789
738.7332238770	0.0003042243
740.6620312500	0.0000345358
742.5908386230	0.0002298843
744.5196459961	0.0000291445
746.4484533691	0.0000624101
748.3772607422	0.0003964540
750.3060681152	0.0001070494
752.2348754883	0.0002282156
754.1636828613	0.0002314534
756.0924902344	-0.0001720443
758.0212976074	0.0000035527
759.9501049805	0.0002516112
761.8789123535	0.0001730697
763.8077197266	0.0001099379
765.7365270996	0.0001110946
767.6653344727	0.0004065657
769.5941418457	0.0003586723
771.5229492188	-0.0000037945
773.4517565918	0.0003761947
775.3805639648	0.0005559941
777.3093713379	0.0002222373
779.2381787109	0.0003490023
781.1669860840	-0.0000496506
783.0957934570	-0.0002844291
785.0246008301	0.0004170201
786.9534082031	0.0003243748
788.8822155762	0.0001895639
790.8110229492	0.0001611228
792.7398303223	0.0002114525
794.6686376953	0.0004548116
796.5974450684	-0.0000116742
798.5262524414	0.0002811489
800.4550598145	0.0005381556
802.3838671875	0.0001947826
804.3126745605	0.0002364683
806.2414819336	0.0004028023
808.1702893066	0.0004278797
810.0990966797	-0.0000997375
812.0279040527	0.0001010139
813.9567114258	0.0004878447
815.8855187988	0.0002433431
817.8143261719	0.0001856317
819.7431335449	0.0002937141
821.6719409180	0.0004844501
823.6007482910	0.0001417203
825.5295556641	0.0002235462
827.4583630371	0.0005239656
829.3871704102	0.0003502044
831.3159777832	0.0003722243
833.2447851563	0.0002883950
835.1735925293	0.0004505119
837.1023999023	0.0006479729
839.0312072754	0.0005802930
840.9600146484	0.0003951378
842.8888220215	0.0005225294
844.8176293945	0.0006879019
846.7464367676	0.0005035437
848.6752441406	0.0004366786
850.6040515137	0.0003157510
852.5328588867	0.0006315691
854.4616662598	0.0005129320
856.3904736328	0.0002038836
858.3192810059	0.0005268655
860.2480883789	0.0003458658
862.1768957520	0.0002310970
864.1057031250	0.0003959992
866.0345104980	0.0003392819
867.9633178711	0.0001649534
869.8921252441	0.0002594511
871.8209326172	0.0003061053
873.7497399902	0.0002799482
875.6785473633	0.0002341410
877.6073547363	-0.0000378450
879.5361621094	0.0003069449
881.4649694824	0.0002805062
883.3937768555	-0.0000395783
885.3225842285	0.0000825391
887.2513916016	0.0000729818
889.1801989746	0.0003268418
891.1090063477	0.0002360115
893.0378137207	0.0000478364
894.9666210938	0.0003710330
896.8954284668	0.0002833958
898.8242358398	0.0002124178
900.7530432129	0.0005123352
902.6818505859	0.0003877980
904.6106579590	0.0002008243
906.5394653320	0.0003130394
908.4682727051	0.0002846644
910.3970800781	0.0004277365
912.3258874512	0.0005015077
914.2546948242	0.0002919275
916.1835021973	0.0003389114
918.1123095703	0.0003071077
920.0411169434	0.0004216295
921.9699243164	0.0007466868
923.8987316895	0.0005346544
925.8275390625	0.0004354373
927.7563464355	0.0008006593
929.6851538086	0.0007906181
931.6139611816	0.0005721279
933.5427685547	0.0006535802
935.4715759277	0.0005788493
937.4003833008	0.0004476052
939.3291906738	0.0007864429
941.2579980469	0.0008959373
943.1868054199	0.0007484067
945.1156127930	0.0007835675
947.0444201660	0.0006863124
948.9732275391	0.0007926802
950.9020349121	0.0009143592
952.8308422852	0.0008955147
954.7596496582	0.0008081110
956.6884570313	0.0006104400
958.6172644043	0.0006260723
960.5460717773	0.0006994459
962.4748791504	0.0008736708
964.4036865234	0.0006412452
966.3324938965	0.0006149304
968.2613012695	0.0008345933
970.1901086426	0.0005536327
972.1189160156	0.0010168464
974.0477233887	0.0011916434
975.9765307617	0.0009788622
977.9053381348	0.0009866548
979.8341455078	0.0007633768
981.7629528809	0.0010788856
983.6917602539	0.0010230825
985.6205676270	0.0010690498
987.5493750000	0.0012875566
989.4781823730	0.0013548105
991.4069897461	0.0018906489
993.3357971191	0.0017306320
995.2646044922	0.0017622550
997.1934118652	0.0020450114
999.1222192383	0.0020952476
1001.0510266113	0.0023631244
1002.9798339844	0.0023834754
1004.9086413574	0.0026089964
1006.8374487305	0.0026618051
1008.7662561035	0.0027261861
1010.6950634766	0.0030116388
1012.6238708496	0.0032919198
1014.5526782227	0.0034599053
1016.4814855957	0.0033010845
1018.4102929688	0.0036748364
1020.3391003418	0.0036758238
1022.2679077148	0.0037732297
1024.1967150879	0.0043543829
1026.1255224609	0.0041695246
1028.0543298340	0.0043520853
1029.9831372070	0.0044648899
1031.9119445801	0.0044176658
1033.8407519531	0.0047114384
1035.7695593262	0.0046679494
1037.6983666992	0.0047364533
1039.6271740723	0.0047113597
1041.5559814453	0.0044940086
1043.4847888184	0.0045029549
1045.4135961914	0.0047222506
1047.3424035645	0.0045469035
1049.2712109375	0.0043007419
1051.2000183105	0.0044280980
1053.1288256836	0.0043861531
1055.0576330566	0.0043519866
1056.9864404297	0.0040604426
1058.9152478027	0.0040698471
1060.8440551758	0.0040773582
1062.7728625488	0.0036836022
1064.7016699219	0.0038836468
1066.6304772949	0.0037002154
1068.5592846680	0.0033746366
1070.4880920410	0.0033499377
1072.4168994141	0.0032477165
1074.3457067871	0.0031842457
1076.2745141602	0.0029079034
1078.2033215332	0.0028476706
1080.1321289062	0.0027469695
1082.0609362793	0.0025044037
1083.9897436523	0.0024027852
1085.9185510254	0.0022047297
1087.8473583984	0.0020885118
1089.7761657715	0.0023021805
1091.7049731445	0.0023574377
1093.6337805176	0.0020490310
1095.5625878906	0.0018162577
1097.4913952637	0.0017901544
1099.4202026367	0.0020222538
1101.3490100098	0.0018266726
1103.2778173828	0.0016419895
1105.2066247559	0.0016643736
1107.1354321289	0.0013475316
1109.0642395019	0.0014989469
1110.9930468750	0.0017433949
1112.9218542480	0.0017257018
1114.8506616211	0.0014752625
1116.7794689941	0.0015815722
1118.7082763672	0.0019342280
1120.6370837402	0.0017894891
1122.5658911133	0.0017953722
1124.4946984863	0.0015383870
1126.4235058594	0.0015875592
1128.3523132324	0.0019032764
1130.2811206055	0.0017606001
1132.2099279785	0.0018021129
1134.1387353516	0.0018415477
1136.0675427246	0.0020065722
1137.9963500977	0.0020260550
1139.9251574707	0.0020493111
1141.8539648437	0.0023066932
1143.7827722168	0.0024085138
1145.7115795898	0.0025991460
1147.6403869629	0.0027515930
1149.5691943359	0.0027853523
1151.4980017090	0.0028617459
1153.4268090820	0.0030616890
1155.3556164551	0.0030970108
1157.2844238281	0.0031799134
1159.2132312012	0.0033039637
1161.1420385742	0.0033525028
1163.0708459473	0.0037165231
1164.9996533203	0.0038491273
1166.9284606934	0.0038066143
1168.8572680664	0.0038978579
1170.7860754394	0.0041042408
1172.7148828125	0.0041120136
1174.6436901855	0.0040233755
1176.5724975586	0.0044783452
1178.5013049316	0.0046105552
1180.4301123047	0.0046399347
1182.3589196777	0.0050799563
1184.2877270508	0.0052887704
1186.2165344238	0.0054856809
1188.1453417969	0.0055235801
1190.0741491699	0.0057167392
1192.0029565430	0.0061809234
1193.9317639160	0.0061471304
1195.8605712891	0.0064193737
1197.7893786621	0.0070069982
1199.7181860351	0.0072101643
1201.6469934082	0.0073899482
1203.5758007812	0.0076713348
1205.5046081543	0.0080701737
1207.4334155273	0.0082487678
1209.3622229004	0.0085029285
1211.2910302734	0.0087648807
1213.2198376465	0.0089529920
1215.1486450195	0.0092013273
1217.0774523926	0.0090893451
1219.0062597656	0.0096053742
1220.9350671387	0.0097763529
1222.8638745117	0.0096313758
1224.7926818848	0.0100632543
1226.7214892578	0.0097938739
1228.6502966308	0.0099372044
1230.5791040039	0.0101801082
1232.5079113769	0.0100179501
1234.4367187500	0.0100222034
1236.3655261230	0.0098239630
1238.2943334961	0.0098733529
1240.2231408691	0.0098467357
1242.1519482422	0.0099708494
1244.0807556152	0.0100497520
1246.0095629883	0.0098012481
1247.9383703613	0.0098498361
1249.8671777344	0.0098449253
1251.7959851074	0.0096596032
1253.7247924805	0.0095874248
1255.6535998535	0.0094583482
1257.5824072266	0.0093321651
1259.5112145996	0.0093905963
1261.4400219726	0.0090308310
1263.3688293457	0.0089319181
1265.2976367187	0.0089920517
1267.2264440918	0.0087414011
1269.1552514648	0.0087755695
1271.0840588379	0.0084203165
1273.0128662109	0.0082992185
1274.9416735840	0.0082529001
1276.8704809570	0.0080642775
1278.7992883301	0.0080903377
1280.7280957031	0.0077348053
1282.6569030762	0.0076404056
1284.5857104492	0.0074910754
1286.5145178223	0.0072784545
1288.4433251953	0.0071405321
1290.3721325683	0.0069856355
1292.3009399414	0.0071805832
1294.2297473144	0.0071527027
1296.1585546875	0.0069927275
1298.0873620605	0.0070517785
1300.0161694336	0.0070821391
1301.9449768066	0.0068693971
1303.8737841797	0.0070434306
1305.8025915527	0.0073404284
1307.7313989258	0.0073172273
1309.6602062988	0.0073813256
1311.5890136719	0.0074347947
1313.5178210449	0.0076473365
1315.4466284180	0.0076747416
1317.3754357910	0.0078337565
1319.3042431640	0.0082325917
1321.2330505371	0.0084112175
1323.1618579101	0.0085545648
1325.0906652832	0.0086947493
1327.0194726562	0.0091038747
1328.9482800293	0.0092948042
1330.8770874023	0.0094703063
1332.8058947754	0.0098080356
1334.7347021484	0.0098350849
1336.6635095215	0.0098623596
1338.5923168945	0.0099806059
1340.5211242676	0.0102778263
1342.4499316406	0.0105128745
1344.3787390137	0.0104845166
1346.3075463867	0.0104299439
1348.2363537597	0.0106190704
1350.1651611328	0.0104703195
1352.0939685058	0.0101169702
1354.0227758789	0.0102619408
1355.9515832519	0.0100242309
1357.8803906250	0.0099242013
1359.8091979980	0.0101117995
1361.7380053711	0.0095680514
1363.6668127441	0.0093993414
1365.5956201172	0.0098159574
1367.5244274902	0.0097134691
1369.4532348633	0.0097436905
1371.3820422363	0.0097421724
1373.3108496094	0.0091863703
1375.2396569824	0.0092451964
1377.1684643555	0.0094276415
1379.0972717285	0.0093432534
1381.0260791015	0.0094004842
1382.9548864746	0.0093896249
1384.8836938476	0.0092806201
1386.8125012207	0.0089871101
1388.7413085937	0.0090777203
1390.6701159668	0.0095378458
1392.5989233398	0.0096099386
1394.5277307129	0.0091473721
1396.4565380859	0.0093300156
1398.3853454590	0.0095887240
1400.3141528320	0.0094993059
1402.2429602051	0.0099348798
1404.1717675781	0.0094999690
1406.1005749512	0.0095593939
1408.0293823242	0.0099017862
1409.9581896972	0.0096176732
1411.8869970703	0.0097603910
1413.8158044433	0.0093887188
1415.7446118164	0.0096012289
1417.6734191894	0.0087940786
1419.6022265625	0.0080299024
1421.5310339355	0.0090508256
1423.4598413086	0.0085937632
1425.3886486816	0.0085235322
1427.3174560547	0.0087121315
1429.2462634277	0.0079411883
1431.1750708008	0.0077745668
1433.1038781738	0.0076575102
1435.0326855469	0.0070915231
1436.9614929199	0.0065484187
1438.8903002929	0.0069879051
1440.8191076660	0.0069204532
1442.7479150390	0.0065811276
1444.6767224121	0.0067967921
1446.6055297851	0.0063394727
1448.5343371582	0.0064819967
1450.4631445312	0.0066755116
1452.3919519043	0.0067175319
1454.3207592773	0.0069854651
1456.2495666504	0.0060854424
1458.1783740234	0.0064027277
1460.1071813965	0.0081094317
1462.0359887695	0.0083969105
1463.9647961426	0.0083939619
1465.8936035156	0.0088650202
1467.8224108886	0.0098288972
1469.7512182617	0.0103598032
1471.6800256347	0.0096111828
1473.6088330078	0.0102060754
1475.5376403808	0.0114042619
1477.4664477539	0.0121080466
1479.3952551269	0.0128857056
1481.3240625000	0.0131347189
1483.2528698730	0.0138999950
1485.1816772461	0.0143127469
1487.1104846191	0.0144993197
1489.0392919922	0.0144481799
1490.9680993652	0.0143941538
1492.8969067383	0.0163461268
1494.8257141113	0.0160136595
1496.7545214843	0.0147732794
1498.6833288574	0.0163425934
1500.6121362304	0.0168063268
1502.5409436035	0.0179156438
1504.4697509765	0.0168912467
1506.3985583496	0.0132841505
1508.3273657226	0.0158359297
1510.2561730957	0.0177266952
1512.1849804687	0.0172717981
1514.1137878418	0.0183970295
1516.0425952148	0.0169010889
1517.9714025879	0.0175954886
1519.9002099609	0.0169679616
1521.8290173340	0.0153153557
1523.7578247070	0.0179240927
1525.6866320801	0.0176813975
1527.6154394531	0.0177077819
1529.5442468261	0.0189676769
1531.4730541992	0.0182908494
1533.4018615722	0.0170951691
1535.3306689453	0.0181377903
1537.2594763183	0.0188444182
1539.1882836914	0.0143073928
1541.1170910644	0.0151446965
1543.0458984375	0.0173881464
1544.9747058105	0.0168838445
1546.9035131836	0.0191143975
1548.8323205566	0.0179640111
1550.7611279297	0.0185815375
1552.6899353027	0.0184349939
1554.6187426758	0.0171194505
1556.5475500488	0.0179394390
1558.4763574218	0.0137164239
1560.4051647949	0.0147141740
1562.3339721679	0.0191528797
1564.2627795410	0.0180685483
1566.1915869140	0.0185724050
1568.1203942871	0.0185194481
1570.0492016601	0.0167396553
1571.9780090332	0.0188676547
1573.9068164062	0.0189910829
1575.8356237793	0.0156429689
1577.7644311523	0.0173554383
1579.6932385254	0.0192689057
1581.6220458984	0.0184427761
1583.5508532715	0.0185461007
1585.4796606445	0.0183751434
1587.4084680175	0.0185102019
1589.3372753906	0.0183906443
1591.2660827636	0.0184030347
1593.1948901367	0.0183692351
1595.1236975097	0.0182829127
1597.0525048828	0.0181922466
1598.9813122558	0.0181441475
1600.9101196289	0.0185118336
1602.8389270019	0.0180507749
1604.7677343750	0.0183524564
1606.6965417480	0.0181682520
1608.6253491211	0.0181158613
1610.5541564941	0.0180639550
1612.4829638672	0.0181701221
1614.4117712402	0.0183764696
1616.3405786132	0.0156119429
1618.2693859863	0.0168697499
1620.1981933593	0.0188967753
1622.1270007324	0.0171898119
1624.0558081054	0.0173688438
1625.9846154785	0.0180655718
1627.9134228515	0.0183553547
1629.8422302246	0.0181872472
1631.7710375976	0.0191350169
1633.6998449707	0.0180394724
1635.6286523437	0.0157969203
1637.5574597168	0.0179834794
1639.4862670898	0.0192274861
1641.4150744629	0.0191513058
1643.3438818359	0.0197213218
1645.2726892090	0.0180330183
1647.2014965820	0.0165662207
1649.1303039550	0.0199020728
1651.0591113281	0.0189015940
1652.9879187011	0.0136013739
1654.9167260742	0.0175034776
1656.8455334472	0.0208752062
1658.7743408203	0.0201005600
1660.7031481933	0.0207105242
1662.6319555664	0.0194024853
1664.5607629394	0.0203409083
1666.4895703125	0.0214622691
1668.4183776855	0.0194569007
1670.3471850586	0.0191117041
1672.2759924316	0.0208910331
1674.2047998047	0.0197455883
1676.1336071777	0.0192305166
1678.0624145507	0.0214064121
1679.9912219238	0.0208524615
1681.9200292968	0.0205941014
1683.8488366699	0.0174782462
1685.7776440429	0.0174686406
1687.7064514160	0.0224419478
1689.6352587890	0.0201060008
1691.5640661621	0.0216148123
1693.4928735351	0.0218544099
1695.4216809082	0.0169946067
1697.3504882812	0.0199449286
1699.2792956543	0.0181271844
1701.2081030273	0.0167602617
1703.1369104004	0.0212201085
1705.0657177734	0.0198848303
1706.9945251464	0.0200221092
1708.9233325195	0.0211026594
1710.8521398925	0.0203670766
1712.7809472656	0.0207233801
1714.7097546386	0.0195251871
1716.6385620117	0.0179110505
1718.5673693847	0.0176337920
1720.4961767578	0.0200808905
1722.4249841308	0.0205787905
1724.3537915039	0.0196003616
1726.2825988769	0.0207414143
1728.2114062500	0.0191870444
1730.1402136230	0.0195326582
1732.0690209961	0.0188968591
1733.9978283691	0.0153267384
1735.9266357421	0.0181948151
1737.8554431152	0.0194290522
1739.7842504882	0.0178115387
1741.7130578613	0.0191404931
1743.6418652343	0.0192781556
1745.5706726074	0.0193421319
1747.4994799804	0.0194471329
1749.4282873535	0.0185646620
1751.3570947265	0.0180553365
1753.2859020996	0.0196829140
1755.2147094726	0.0201750733
1757.1435168457	0.0187918060
1759.0723242187	0.0202700160
1761.0011315918	0.0194101781
1762.9299389648	0.0189647935
1764.8587463379	0.0209014341
1766.7875537109	0.0191592649
1768.7163610839	0.0191888958
1770.6451684570	0.0191495530
1772.5739758300	0.0176096410
1774.5027832031	0.0190887488
1776.4315905761	0.0199074969
1778.3603979492	0.0195887014
1780.2892053222	0.0195491239
1782.2180126953	0.0195976272
1784.1468200683	0.0194976479
1786.0756274414	0.0193364602
1788.0044348144	0.0200318806
1789.9332421875	0.0194976777
1791.8620495605	0.0180052593
1793.7908569336	0.0188831296
1795.7196643066	0.0199068189
1797.6484716796	0.0194290634
1799.5772790527	0.0193976332
1801.5060864257	0.0191452578
1803.4348937988	0.0194119662
1805.3637011718	0.0196836516
1807.2925085449	0.0194652267
1809.2213159179	0.0196001679
1811.1501232910	0.0192810670
1813.0789306640	0.0194768943
1815.0077380371	0.0193934925
1816.9365454101	0.0196520519
1818.8653527832	0.0198059510
1820.7941601562	0.0195454061
1822.7229675293	0.0197232272
1824.6517749023	0.0186567195
1826.5805822753	0.0192772020
1828.5093896484	0.0191330202
1830.4381970214	0.0182007365
1832.3670043945	0.0195937976
1834.2958117675	0.0194070786
1836.2246191406	0.0192474015
1838.1534265136	0.0191743486
1840.0822338867	0.0194188729
1842.0110412597	0.0193314254
1843.9398486328	0.0175721366
1845.8686560058	0.0184661895
1847.7974633789	0.0192298666
1849.7262707519	0.0189268030
1851.6550781250	0.0191804878
1853.5838854980	0.0189545788
1855.5126928710	0.0192156937
1857.4415002441	0.0189835913
1859.3703076171	0.0189141203
1861.2991149902	0.0191012397
1863.2279223632	0.0188662373
1865.1567297363	0.0190308094
1867.0855371093	0.0184735712
1869.0143444824	0.0177665725
1870.9431518554	0.0184785947
1872.8719592285	0.0189065747
1874.8007666015	0.0185643248
1876.7295739746	0.0187194198
1878.6583813476	0.0185042359
1880.5871887207	0.0184604768
1882.5159960937	0.0186303053
1884.4448034667	0.0183866806
1886.3736108398	0.0185578950
1888.3024182128	0.0181872547
1890.2312255859	0.0180383101
1892.1600329589	0.0184809379
1894.0888403320	0.0182069764
1896.0176477050	0.0180971734
1897.9464550781	0.0182260089
1899.8752624511	0.0182478204
1901.8040698242	0.0181381218
1903.7328771972	0.0180183183
1905.6616845703	0.0181151181
1907.5904919433	0.0179200023
1909.5192993164	0.0179420896
1911.4481066894	0.0179308951
1913.3769140625	0.0179088805
1915.3057214355	0.0181064587
1917.2345288085	0.0173026584
1919.1633361816	0.0173556469
1921.0921435546	0.0179759078
1923.0209509277	0.0174474046
1924.9497583007	0.0177410543
1926.8785656738	0.0178778041
1928.8073730468	0.0176253431
1930.7361804199	0.0178047642
1932.6649877929	0.0176781826
1934.5937951660	0.0178001747
1936.5226025390	0.0175523721
1938.4514099121	0.0176120605
1940.3802172851	0.0178616270
1942.3090246582	0.0173199400
1944.2378320312	0.0173911713
1946.1666394042	0.0175162479
1948.0954467773	0.0174394920
1950.0242541503	0.0176603869
1951.9530615234	0.0176352113
1953.8818688964	0.0174987242
1955.8106762695	0.0173827782
1957.7394836425	0.0174227320
1959.6682910156	0.0174626596
1961.5970983886	0.0174306668
1963.5259057617	0.0174641758
1965.4547131347	0.0173524804
1967.3835205078	0.0171287414
1969.3123278808	0.0171025917
1971.2411352539	0.0172745269
1973.1699426269	0.0172881931
1975.0987499999	0.0172285140
1977.0275573730	0.0171571691
1978.9563647460	0.0171528440
1980.8851721191	0.0171665289
1982.8139794921	0.0171137042
1984.7427868652	0.0172020681
1986.6715942382	0.0170180798
1988.6004016113	0.0169738904
1990.5292089843	0.0169771947
1992.4580163574	0.0166445784
1994.3868237304	0.0168976635
1996.3156311035	0.0170686115
1998.2444384765	0.0169038586
2000.1732458496	0.0169784985
2002.1020532226	0.0170107000
2004.0308605956	0.0169351548
2005.9596679687	0.0167352781
2007.8884753417	0.0166934039
2009.8172827148	0.0165548846
2011.7460900878	0.0164385177
2013.6748974609	0.0165421106
2015.6037048339	0.0163775533
2017.5325122070	0.0163566731
2019.4613195800	0.0164674316
2021.3901269531	0.0164505634
2023.3189343261	0.0164375305
2025.2477416992	0.0163101442
2027.1765490722	0.0162091572
2029.1053564453	0.0163122267
2031.0341638183	0.0162763186
2032.9629711914	0.0161047131
2034.8917785644	0.0161768682
2036.8205859374	0.0161306746
2038.7493933105	0.0159932300
2040.6782006835	0.0160369128
2042.6070080566	0.0159572698
2044.5358154296	0.0158552751
2046.4646228027	0.0159483477
2048.3934301757	0.0158818439
2050.3222375488	0.0158219822
2052.2510449218	0.0159660242
2054.1798522949	0.0158477630
2056.1086596679	0.0158292651
2058.0374670410	0.0157841258
2059.9662744140	0.0156533662
2061.8950817871	0.0156323221
2063.8238891601	0.0154551808
2065.7526965331	0.0155900316
2067.6815039062	0.0155348349
2069.6103112792	0.0154281687
2071.5391186523	0.0155555801
2073.4679260253	0.0154476324
2075.3967333984	0.0154916849
2077.3255407714	0.0154314684
2079.2543481445	0.0153625542
2081.1831555175	0.0153607391
2083.1119628906	0.0153255463
2085.0407702636	0.0153132547
2086.9695776367	0.0152075458
2088.8983850097	0.0151882432
2090.8271923828	0.0150819803
2092.7559997558	0.0150805283
2094.6848071288	0.0151565075
2096.6136145019	0.0151610626
2098.5424218749	0.0151299275
2100.4712292480	0.0150452964
2102.4000366210	0.0150348628
2104.3288439941	0.0150387064
2106.2576513671	0.0150335226
2108.1864587402	0.0148684885
2110.1152661132	0.0148228388
2112.0440734863	0.0148736797
2113.9728808593	0.0148657458
2115.9016882324	0.0148807811
2117.8304956054	0.0148777366
2119.7593029785	0.0149044944
2121.6881103515	0.0147535922
2123.6169177245	0.0147809293
2125.5457250976	0.0147200264
2127.4745324706	0.0145529024
2129.4033398437	0.0147885401
2131.3321472167	0.0147440955
2133.2609545898	0.0145139191
2135.1897619628	0.0145530142
2137.1185693359	0.0146417227
2139.0473767089	0.0146449860
2140.9761840820	0.0146267489
2142.9049914550	0.0145754926
2144.8337988281	0.0145859811
2146.7626062011	0.0145611269
2148.6914135742	0.0143978950
2150.6202209472	0.0143837780
2152.5490283203	0.0143779200
2154.4778356933	0.0143789910
2156.4066430663	0.0143452566
2158.3354504394	0.0143987574
2160.2642578124	0.0144508593
2162.1930651855	0.0143530322
2164.1218725585	0.0143619105
2166.0506799316	0.0142146498
2167.9794873046	0.0143249659
2169.9082946777	0.0143250367
2171.8371020507	0.0140930451
2173.7659094238	0.0141874226
2175.6947167968	0.0141136758
2177.6235241699	0.0142595675
2179.5523315429	0.0143257063
2181.4811389160	0.0141229453
2183.4099462890	0.0142309219
2185.3387536620	0.0142456610
2187.2675610351	0.0141073093
2189.1963684081	0.0141181909
2191.1251757812	0.0142354090
2193.0539831542	0.0141138891
2194.9827905273	0.0140237566
2196.9115979003	0.0140665257
2198.8404052734	0.0139184576
2200.7692126464	0.0138622187
2202.6980200195	0.0138965603
2204.6268273925	0.0139135960
2206.5556347656	0.0139326490
2208.4844421386	0.0138897840
2210.4132495117	0.0138951465
2212.3420568847	0.0139383236
2214.2708642577	0.0138891162
2216.1996716308	0.0138027603
2218.1284790038	0.0138061997
2220.0572863769	0.0138643747
2221.9860937499	0.0137950666
2223.9149011230	0.0137662170
2225.8437084960	0.0137601644
2227.7725158691	0.0136568937
2229.7013232421	0.0136657590
2231.6301306152	0.0134825837
2233.5589379882	0.0135181732
2235.4877453613	0.0136707984
2237.4165527343	0.0134095512
2239.3453601074	0.0134637961
2241.2741674804	0.0136029683
2243.2029748534	0.0136770364
2245.1317822265	0.0136471940
2247.0605895995	0.0134173306
2248.9893969726	0.0134544326
2250.9182043456	0.0135425013
2252.8470117187	0.0134889316
2254.7758190917	0.0132938251
2256.7046264648	0.0133508304
2258.6334338378	0.0133988988
2260.5622412109	0.0132026821
2262.4910485839	0.0132728256
2264.4198559570	0.0133086313
2266.3486633300	0.0132320840
2268.2774707031	0.0131897964
2270.2062780761	0.0132598849
2272.1350854491	0.0131812291
2274.0638928222	0.0130140474
2275.9927001952	0.0132002588
2277.9215075683	0.0132608097
2279.8503149413	0.0131110772
2281.7791223144	0.0130393486
2283.7079296874	0.0131098088
2285.6367370605	0.0131074097
2287.5655444335	0.0130408779
2289.4943518066	0.0130747929
2291.4231591796	0.0128997173
2293.3519665527	0.0128838765
2295.2807739257	0.0130182747
2297.2095812988	0.0128648151
2299.1383886718	0.0127744172
2301.0671960449	0.0127925947
2302.9960034179	0.0128136612
2304.9248107909	0.0127201546
2306.8536181640	0.0124775097
2308.7824255370	0.0124750193
2310.7112329101	0.0124251395
2312.6400402831	0.0121883303
2314.5688476562	0.0121158846
2316.4976550292	0.0120300585
2318.4264624023	0.0118786907
2320.3552697753	0.0116602499
2322.2840771484	0.0114438236
2324.2128845214	0.0113013741
2326.1416918945	0.0112272697
2328.0704992675	0.0111472718
2329.9993066406	0.0109208506
2331.9281140136	0.0108715026
2333.8569213866	0.0107907858
2335.7857287597	0.0106553081
2337.7145361327	0.0107837440
2339.6433435058	0.0107854158
2341.5721508788	0.0107226241
2343.5009582519	0.0108953267
2345.4297656249	0.0111592896
2347.3585729980	0.0114990724
2349.2873803710	0.0117587317
2351.2161877441	0.0114206355
2353.1449951171	0.0108966809
2355.0738024902	0.0105365235
2357.0026098632	0.0101894438
2358.9314172363	0.0100886701
2360.8602246093	0.0099508390
2362.7890319823	0.0098617617
2364.7178393554	0.0099161398
2366.6466467284	0.0100552514
2368.5754541015	0.0103382077
2370.5042614745	0.0105516212
2372.4330688476	0.0109095816
2374.3618762206	0.0112052877
2376.2906835937	0.0113673080
2378.2194909667	0.0116244256
2380.1482983398	0.0118530560
2382.0771057128	0.0119716190
2384.0059130859	0.0120254308
2385.9347204589	0.0121061979
2387.8635278320	0.0120720090
2389.7923352050	0.0119578056
2391.7211425780	0.0119228903
2393.6499499511	0.0119862333
2395.5787573241	0.0119671766
2397.5075646972	0.0119318143
2399.4363720702	0.0118469447
2401.3651794433	0.0117441490
2403.2939868163	0.0117867049
2405.2227941894	0.0117452210
2407.1516015624	0.0118536465
2409.0804089355	0.0116997659
2411.0092163085	0.0115979929
2412.9380236816	0.0118319355
2414.8668310546	0.0116393780
2416.7956384277	0.0116233770
2418.7244458007	0.0116081359
2420.6532531738	0.0116382632
2422.5820605468	0.0117743136
2424.5108679198	0.0115934014
2426.4396752929	0.0116136540
2428.3684826659	0.0115689971
2430.2972900390	0.0116037512
2432.2260974120	0.0116408365
2434.1549047851	0.0115277860
2436.0837121581	0.0115460623
2438.0125195312	0.0114853475
2439.9413269042	0.0115232989
2441.8701342773	0.0114479996
2443.7989416503	0.0113508198
2445.7277490234	0.0114386603
2447.6565563964	0.0114556942
2449.5853637695	0.0114427190
2451.5141711425	0.0113406964
2453.4429785155	0.0113010965
2455.3717858886	0.0113750752
2457.3005932616	0.0112243425
2459.2294006347	0.0111987740
2461.1582080077	0.0113685718
2463.0870153808	0.0111924987
2465.0158227538	0.0112300050
2466.9446301269	0.0112984776
2468.8734374999	0.0110723134
2470.8022448730	0.0111984583
2472.7310522460	0.0111924009
2474.6598596191	0.0110828206
2476.5886669921	0.0111606196
2478.5174743652	0.0111223366
2480.4462817382	0.0111266309
2482.3750891112	0.0111395158
2484.3038964843	0.0110151432
2486.2327038573	0.0109233763
2488.1615112304	0.0110104885
2490.0903186034	0.0110406429
2492.0191259765	0.0110229235
2493.9479333495	0.0109732896
2495.8767407226	0.0108632185
2497.8055480956	0.0108600222
2499.7343554687	0.0107835550
2501.6631628417	0.0107078254
2503.5919702148	0.0107635045
2505.5207775878	0.0108211692
2507.4495849609	0.0107729910
2509.3783923339	0.0106910281
2511.3071997069	0.0107068848
2513.2360070800	0.0107422080
2515.1648144530	0.0107682683
2517.0936218261	0.0107397223
2519.0224291991	0.0107764546
2520.9512365722	0.0108139757
2522.8800439452	0.0106146000
2524.8088513183	0.0105531430
2526.7376586913	0.0106602851
2528.6664660644	0.0106229009
2530.5952734374	0.0106209684
2532.5240808105	0.0105981492
2534.4528881835	0.0105329584
2536.3816955566	0.0104924012
2538.3105029296	0.0104929805
2540.2393103027	0.0105708223
2542.1681176757	0.0104515599
2544.0969250487	0.0104412613
2546.0257324218	0.0105002699
2547.9545397948	0.0104480973
2549.8833471679	0.0105031263
2551.8121545409	0.0104310513
2553.7409619140	0.0104217948
2555.6697692870	0.0103676841
2557.5985766601	0.0103520220
2559.5273840331	0.0104523934
2561.4561914062	0.0103725828
2563.3849987792	0.0103067867
2565.3138061523	0.0102438172
2567.2426135253	0.0103561562
2569.1714208984	0.0102784829
2571.1002282714	0.0101607665
2573.0290356444	0.0102109248
2574.9578430175	0.0100949882
2576.8866503905	0.0102054933
2578.8154577636	0.0101432875
2580.7442651366	0.0101634506
2582.6730725097	0.0102408472
2584.6018798827	0.0100674629
2586.5306872558	0.0101514496
2588.4594946288	0.0100360541
2590.3883020019	0.0100395698
2592.3171093749	0.0101739261
2594.2459167480	0.0100572202
2596.1747241210	0.0100275874
2598.1035314941	0.0099812690
2600.0323388671	0.0099388007
2601.9611462401	0.0098641152
2603.8899536132	0.0098794159
2605.8187609862	0.0099532027
2607.7475683593	0.0098735495
2609.6763757323	0.0099032801
2611.6051831054	0.0099636633
2613.5339904784	0.0098486776
2615.4627978515	0.0098858587
2617.3916052245	0.0099540260
2619.3204125976	0.0097551551
2621.2492199706	0.0097380448
2623.1780273437	0.0097758416
2625.1068347167	0.0097225513
2627.0356420898	0.0098331142
2628.9644494628	0.0098506138
2630.8932568358	0.0096902195
2632.8220642089	0.0096025402
2634.7508715819	0.0096577778
2636.6796789550	0.0096345646
2638.6084863280	0.0096456194
2640.5372937011	0.0096246842
2642.4661010741	0.0095239002
2644.3949084472	0.0095746461
2646.3237158202	0.0095307790
2648.2525231933	0.0094988085
2650.1813305663	0.0095129292
2652.1101379394	0.0095008714
2654.0389453124	0.0095131323
2655.9677526855	0.0094646933
2657.8965600585	0.0094561065
2659.8253674315	0.0094158892
2661.7541748046	0.0094172833
2663.6829821776	0.0093782041
2665.6117895507	0.0092917792
2667.5405969237	0.0093542580
2669.4694042968	0.0094295470
2671.3982116698	0.0094313063
2673.3270190429	0.0092856288
2675.2558264159	0.0092932209
2677.1846337890	0.0093754120
2679.1134411620	0.0092387181
2681.0422485351	0.0092098285
2682.9710559081	0.0091716442
2684.8998632812	0.0090901013
2686.8286706542	0.0090984600
2688.7574780273	0.0091160107
2690.6862854003	0.0091150925
2692.6150927733	0.0090424092
2694.5439001464	0.0091008414
2696.4727075194	0.0091086011
2698.4015148925	0.0090555120
2700.3303222655	0.0091009671
2702.2591296386	0.0090258382
2704.1879370116	0.0090835635
2706.1167443847	0.0090912189
2708.0455517577	0.0090283286
2709.9743591308	0.0090118349
2711.9031665038	0.0088576907
2713.8319738769	0.0089689633
2715.7607812499	0.0089723933
2717.6895886230	0.0089062899
2719.6183959960	0.0089944461
2721.5472033690	0.0088768080
2723.4760107421	0.0088707712
2725.4048181151	0.0088132573
2727.3336254882	0.0087899296
2729.2624328612	0.0087627135
2731.1912402343	0.0086759785
2733.1200476073	0.0087910164
2735.0488549804	0.0086893160
2736.9776623534	0.0087144598
2738.9064697265	0.0087805279
2740.8352770995	0.0087028788
2742.7640844726	0.0087854397
2744.6928918456	0.0087303212
2746.6216992187	0.0086485483
2748.5505065917	0.0086442027
2750.4793139647	0.0086736884
2752.4081213378	0.0086280294
2754.3369287108	0.0085601248
2756.2657360839	0.0084921531
2758.1945434569	0.0085222665
2760.1233508300	0.0086883456
2762.0521582030	0.0085232966
2763.9809655761	0.0085059721
2765.9097729491	0.0085097440
2767.8385803222	0.0083676837
2769.7673876952	0.0085035199
2771.6961950683	0.0084806792
2773.6250024413	0.0084302630
2775.5538098144	0.0083778957
2777.4826171874	0.0083668316
2779.4114245604	0.0083844792
2781.3402319335	0.0083113806
2783.2690393065	0.0083786771
2785.1978466796	0.0083443653
2787.1266540526	0.0082838405
2789.0554614257	0.0081963437
2790.9842687987	0.0081722811
2792.9130761718	0.0081785824
2794.8418835448	0.0082037933
2796.7706909179	0.0082720313
2798.6994982909	0.0081522008
2800.6283056640	0.0081986850
2802.5571130370	0.0080823507
2804.4859204101	0.0081137735
2806.4147277831	0.0082636960
2808.3435351562	0.0079939943
2810.2723425292	0.0080619333
2812.2011499022	0.0081033576
2814.1299572753	0.0079285242
2816.0587646483	0.0077892905
2817.9875720214	0.0078233052
2819.9163793944	0.0079532824
2821.8451867675	0.0077719716
2823.7739941405	0.0077698668
2825.7028015136	0.0078253672
2827.6316088866	0.0078270156
2829.5604162597	0.0078264121
2831.4892236327	0.0078120176
2833.4180310058	0.0078704273
2835.3468383788	0.0077905003
2837.2756457519	0.0077703111
2839.2044531249	0.0077438122
2841.1332604979	0.0076980880
2843.0620678710	0.0076165637
2844.9908752440	0.0076820985
2846.9196826171	0.0076700104
2848.8484899901	0.0073689995
2850.7772973632	0.0074656499
2852.7061047362	0.0074754488
2854.6349121093	0.0074033504
2856.5637194823	0.0075381659
2858.4925268554	0.0074327220
2860.4213342284	0.0073197866
2862.3501416015	0.0073882067
2864.2789489745	0.0074239182
2866.2077563476	0.0073009860
2868.1365637206	0.0073838024
2870.0653710936	0.0074101919
2871.9941784667	0.0073118201
2873.9229858397	0.0073481882
2875.8517932128	0.0072225025
2877.7806005858	0.0072109923
2879.7094079589	0.0072176610
2881.6382153319	0.0071827560
2883.5670227050	0.0072620627
2885.4958300780	0.0072353194
2887.4246374511	0.0071858773
2889.3534448241	0.0071588252
2891.2822521972	0.0070950538
2893.2110595702	0.0070967274
2895.1398669433	0.0071563972
2897.0686743163	0.0070313690
2898.9974816893	0.0070153014
2900.9262890624	0.0070829773
2902.8550964354	0.0069741118
2904.7839038085	0.0070006615
2906.7127111815	0.0069766222
2908.6415185546	0.0068840776
2910.5703259276	0.0069052707
2912.4991333007	0.0069024372
2914.4279406737	0.0068280688
2916.3567480468	0.0067436942
2918.2855554198	0.0067397729
2920.2143627929	0.0067902012
2922.1431701659	0.0067516351
2924.0719775390	0.0066522714
2926.0007849120	0.0066838809
2927.9295922851	0.0066823391
2929.8583996581	0.0066838348
2931.7872070311	0.0066766199
2933.7160144042	0.0065910211
2935.6448217772	0.0066519547
2937.5736291503	0.0066487463
2939.5024365233	0.0066330251
2941.4312438964	0.0066894186
2943.3600512694	0.0066167228
2945.2888586425	0.0065723751
2947.2176660155	0.0066436259
2949.1464733886	0.0066074696
2951.0752807616	0.0066073379
2953.0040881347	0.0066534211
2954.9328955077	0.0064799776
2956.8617028808	0.0064717624
2958.7905102538	0.0064727478
2960.7193176268	0.0063879867
2962.6481249999	0.0064429888
2964.5769323729	0.0064460700
2966.5057397460	0.0064318944
2968.4345471190	0.0063183270
2970.3633544921	0.0063960180
2972.2921618651	0.0064522671
2974.2209692382	0.0063036680
2976.1497766112	0.0063454835
2978.0785839843	0.0063359514
2980.0073913573	0.0062952382
2981.9361987304	0.0063486816
2983.8650061034	0.0064521553
2985.7938134765	0.0063413447
2987.7226208495	0.0062326062
2989.6514282225	0.0062617599
2991.5802355956	0.0061677517
2993.5090429686	0.0062324801
2995.4378503417	0.0061844978
2997.3666577147	0.0062537123
2999.2954650878	0.0063600899
3001.2242724608	0.0061635445
3003.1530798339	0.0062164608
3005.0818872069	0.0061924374
3007.0106945800	0.0061143897
3008.9395019530	0.0061707944
3010.8683093261	0.0060771266
3012.7971166991	0.0059782984
3014.7259240722	0.0059929676
3016.6547314452	0.0060576065
3018.5835388182	0.0060846438
3020.5123461913	0.0060776747
3022.4411535643	0.0059884349
3024.3699609374	0.0059574619
3026.2987683104	0.0059637674
3028.2275756835	0.0059199459
3030.1563830565	0.0059041898
3032.0851904296	0.0059179189
3034.0139978026	0.0059364522
3035.9428051757	0.0058280015
3037.8716125487	0.0058429800
3039.8004199218	0.0058908169
3041.7292272948	0.0057587419
3043.6580346679	0.0057367678
3045.5868420409	0.0058674677
3047.5156494139	0.0059771230
3049.4444567870	0.0058724619
3051.3732641600	0.0057692686
3053.3020715331	0.0057581938
3055.2308789061	0.0056804405
3057.1596862792	0.0056839152
3059.0884936522	0.0057253116
3061.0173010253	0.0056356974
3062.9461083983	0.0055628978
3064.8749157714	0.0055993004
3066.8037231444	0.0056196670
3068.7325305175	0.0056443745
3070.6613378905	0.0055445638
3072.5901452636	0.0055271862
3074.5189526366	0.0055886162
3076.4477600097	0.0055426657
3078.3765673827	0.0056870272
3080.3053747557	0.0055692671
3082.2341821288	0.0054415129
3084.1629895018	0.0055440417
3086.0917968749	0.0054401220
3088.0206042479	0.0054728622
3089.9494116210	0.0054307915
3091.8782189940	0.0053804442
3093.8070263671	0.0053980160
3095.7358337401	0.0053303931
3097.6646411132	0.0053460468
3099.5934484862	0.0052725966
3101.5222558593	0.0053698029
3103.4510632323	0.0054129781
3105.3798706054	0.0052916091
3107.3086779784	0.0052932650
3109.2374853514	0.0052397409
3111.1662927245	0.0052155722
3113.0951000975	0.0051795971
3115.0239074706	0.0051872442
3116.9527148436	0.0052166237
3118.8815222167	0.0051732231
3120.8103295897	0.0051462851
3122.7391369628	0.0051769549
3124.6679443358	0.0052464660
3126.5967517089	0.0051730508
3128.5255590819	0.0050929929
3130.4543664550	0.0050670742
3132.3831738280	0.0050934884
3134.3119812011	0.0050786645
3136.2407885741	0.0050292909
3138.1695959471	0.0050732372
3140.0984033202	0.0050093266
3142.0272106932	0.0050189644
3143.9560180663	0.0049713179
3145.8848254393	0.0049069356
3147.8136328124	0.0050101238
3149.7424401854	0.0049580326
3151.6712475585	0.0049202554
3153.6000549315	0.0049488191
3155.5288623046	0.0049631847
3157.4576696776	0.0048567690
3159.3864770507	0.0047184038
3161.3152844237	0.0047973022
3163.2440917968	0.0048958235
3165.1728991698	0.0048268363
3167.1017065428	0.0047460352
3169.0305139159	0.0048588132
3170.9593212889	0.0048035663
3172.8881286620	0.0047360789
3174.8169360350	0.0048278193
3176.7457434081	0.0048185624
3178.6745507811	0.0048255608
3180.6033581542	0.0047615282
3182.5321655272	0.0047631706
3184.4609729003	0.0046946830
3186.3897802733	0.0047528776
3188.3185876464	0.0049309712
3190.2473950194	0.0047386456
3192.1762023925	0.0047480501
3194.1050097655	0.0048044408
3196.0338171386	0.0047238478
3197.9626245116	0.0047132182
3199.8914318846	0.0047314111
3201.8202392577	0.0048231250
3203.7490466307	0.0047509661
3205.6778540038	0.0047639902
3207.6066613768	0.0047627967
3209.5354687499	0.0046781134
3211.4642761229	0.0047028866
3213.3930834960	0.0046777790
3215.3218908690	0.0046544196
3217.2506982421	0.0046688765
3219.1795056151	0.0047787600
3221.1083129882	0.0047225393
3223.0371203612	0.0046761520
3224.9659277343	0.0047977343
3226.8947351073	0.0047313888
3228.8235424803	0.0046706381
3230.7523498534	0.0046405923
3232.6811572264	0.0046901386
3234.6099645995	0.0046821362
3236.5387719725	0.0045535611
3238.4675793456	0.0046678307
3240.3963867186	0.0047462322
3242.3251940917	0.0047242027
3244.2540014647	0.0046960134
3246.1828088378	0.0046333112
3248.1116162108	0.0046808813
3250.0404235839	0.0046570683
3251.9692309569	0.0046637640
3253.8980383300	0.0047732433
3255.8268457030	0.0047451900
3257.7556530760	0.0047538918
3259.6844604491	0.0048282333
3261.6132678221	0.0047809426
3263.5420751952	0.0047270628
3265.4708825682	0.0047757169
3267.3996899413	0.0047500497
3269.3284973143	0.0047308356
3271.2573046874	0.0047910316
3273.1861120604	0.0046834555
3275.1149194335	0.0047438256
3277.0437268065	0.0048677381
3278.9725341796	0.0047492557
3280.9013415526	0.0047623008
3282.8301489257	0.0047824904
3284.7589562987	0.0047767349
3286.6877636717	0.0047870474
3288.6165710448	0.0048239138
3290.5453784178	0.0048988862
3292.4741857909	0.0047880649
3294.4029931639	0.0047732196
3296.3318005370	0.0048265252
3298.2606079100	0.0047871834
3300.1894152831	0.0047916509
3302.1182226561	0.0048456360
3304.0470300292	0.0048474018
3305.9758374022	0.0047395360
3307.9046447753	0.0048022587
3309.8334521483	0.0048460197
3311.7622595214	0.0047805421
3313.6910668944	0.0048511270
3315.6198742675	0.0048525343
3317.5486816405	0.0048596123
3319.4774890135	0.0049068700
3321.4062963866	0.0049085151
3323.3351037596	0.0049395487
3325.2639111327	0.0049006715
3327.1927185057	0.0049010795
3329.1215258788	0.0049310150
3331.0503332518	0.0048486018
3332.9791406249	0.0048857681
3334.9079479979	0.0049859192
3336.8367553710	0.0049763601
3338.7655627440	0.0049819956
3340.6943701171	0.0049822428
3342.6231774901	0.0049858307
3344.5519848632	0.0049727610
3346.4807922362	0.0049355589
3348.4095996092	0.0049790838
3350.3384069823	0.0049806088
3352.2672143553	0.0049565006
3354.1960217284	0.0049758991
3356.1248291014	0.0049460279
3358.0536364745	0.0049997373
3359.9824438475	0.0050691310
3361.9112512206	0.0050064772
3363.8400585936	0.0050204964
3365.7688659667	0.0050288918
3367.6976733397	0.0049800910
3369.6264807128	0.0050751595
3371.5552880858	0.0051291799
3373.4840954589	0.0050619938
3375.4129028319	0.0051298793
3377.3417102049	0.0051872190
3379.2705175780	0.0050536357
3381.1993249510	0.0050889999
3383.1281323241	0.0052135233
3385.0569396971	0.0051340521
3386.9857470702	0.0051052915
3388.9145544432	0.0051711034
3390.8433618163	0.0051926863
3392.7721691893	0.0052231615
3394.7009765624	0.0052039027
3396.6297839354	0.0051455968
3398.5585913085	0.0052419300
3400.4873986815	0.0052684601
3402.4162060546	0.0052343868
3404.3450134276	0.0052954219
3406.2738208006	0.0052884091
3408.2026281737	0.0053482382
3410.1314355467	0.0052853525
3412.0602429198	0.0053095696
3413.9890502928	0.0054180119
3415.9178576659	0.0052862894
3417.8466650389	0.0054185609
3419.7754724120	0.0054762708
3421.7042797850	0.0053302022
3423.6330871581	0.0052946284
3425.5618945311	0.0053212661
3427.4907019042	0.0053781429
3429.4195092772	0.0053013782
3431.3483166503	0.0053580524
3433.2771240233	0.0054332376
3435.2059313963	0.0054411548
3437.1347387694	0.0054783253
3439.0635461424	0.0054615773
3440.9923535155	0.0054700756
3442.9211608885	0.0054914919
3444.8499682616	0.0054763611
3446.7787756346	0.0053951633
3448.7075830077	0.0055109826
3450.6363903807	0.0054463660
3452.5651977538	0.0053637372
3454.4940051268	0.0055942205
3456.4228124999	0.0055528283
3458.3516198729	0.0055962941
3460.2804272460	0.0056356955
3462.2092346190	0.0055990787
3464.1380419921	0.0056180507
3466.0668493651	0.0054966426
3467.9956567381	0.0055302004
3469.9244641112	0.0055401810
3471.8532714842	0.0056261914
3473.7820788573	0.0056758286
3475.7108862303	0.0055444678
3477.6396936034	0.0055258609
3479.5685009764	0.0055252425
3481.4973083495	0.0055061230
3483.4261157225	0.0055264337
3485.3549230956	0.0056822021
3487.2837304686	0.0056004021
3489.2125378417	0.0055129835
3491.1413452147	0.0057343203
3493.0701525878	0.0057392642
3494.9989599608	0.0056293681
3496.9277673338	0.0055879946
3498.8565747069	0.0056634815
3500.7853820799	0.0056685312
3502.7141894530	0.0055996589
3504.6429968260	0.0056527592
3506.5718041991	0.0056671854
3508.5006115721	0.0057671131
3510.4294189452	0.0057571121
3512.3582263182	0.0056881290
3514.2870336913	0.0057138046
3516.2158410643	0.0056560133
3518.1446484374	0.0057150396
3520.0734558104	0.0057528783
3522.0022631835	0.0056383442
3523.9310705565	0.0055752830
3525.8598779295	0.0056707095
3527.7886853026	0.0057635200
3529.7174926756	0.0057848217
3531.6463000487	0.0058257561
3533.5751074217	0.0057446654
3535.5039147948	0.0056539048
3537.4327221678	0.0056776367
3539.3615295409	0.0057646940
3541.2903369139	0.0057635317
3543.2191442870	0.0057953456
3545.1479516600	0.0057851728
3547.0767590331	0.0055794395
3549.0055664061	0.0057415445
3550.9343737792	0.0057281447
3552.8631811522	0.0055787042
3554.7919885252	0.0057347538
3556.7207958983	0.0056444881
3558.6496032713	0.0057727937
3560.5784106444	0.0057048076
3562.5072180174	0.0055749835
3564.4360253905	0.0057734302
3566.3648327635	0.0054065706
3568.2936401366	0.0052758772
3570.2224475096	0.0056365496
3572.1512548827	0.0057420493
3574.0800622557	0.0056858547
3576.0088696288	0.0057260310
3577.9376770018	0.0057416484
3579.8664843749	0.0056645633
3581.7952917479	0.0057402626
3583.7240991210	0.0057687773
3585.6529064940	0.0055868332
3587.5817138670	0.0052731116
3589.5105212401	0.0054477481
3591.4393286131	0.0056853704
3593.3681359862	0.0054134629
3595.2969433592	0.0054752226
3597.2257507323	0.0055733835
3599.1545581053	0.0055338647
3601.0833654784	0.0055406746
3603.0121728514	0.0055596749
3604.9409802245	0.0056505008
3606.8697875975	0.0054438412
3608.7985949706	0.0051676827
3610.7274023436	0.0053029777
3612.6562097167	0.0053887088
3614.5850170897	0.0052977130
3616.5138244627	0.0056500761
3618.4426318358	0.0053757662
3620.3714392088	0.0051255990
3622.3002465819	0.0055540297
3624.2290539549	0.0055393325
3626.1578613280	0.0057041980
3628.0866687010	0.0048975516
3630.0154760741	0.0045743887
3631.9442834471	0.0056067472
3633.8730908202	0.0054878187
3635.8018981932	0.0054377466
3637.7307055663	0.0054707425
3639.6595129393	0.0054587340
3641.5883203124	0.0055584395
3643.5171276854	0.0054206448
3645.4459350584	0.0055283611
3647.3747424315	0.0050854962
3649.3035498045	0.0046327994
3651.2323571776	0.0047934456
3653.1611645506	0.0054254238
3655.0899719237	0.0053089531
3657.0187792967	0.0049367654
3658.9475866698	0.0054118028
3660.8763940428	0.0053590620
3662.8052014159	0.0053995689
3664.7340087889	0.0053653521
3666.6628161620	0.0053508487
3668.5916235350	0.0051311729
3670.5204309081	0.0045191702
3672.4492382811	0.0051022638
3674.3780456541	0.0047893850
3676.3068530272	0.0043260395
3678.2356604002	0.0050177174
3680.1644677733	0.0050868830
3682.0932751463	0.0051293932
3684.0220825194	0.0052353991
3685.9508898924	0.0051298244
3687.8796972655	0.0046008327
3689.8085046385	0.0044467952
3691.7373120116	0.0048916377
3693.6661193846	0.0048931614
3695.5949267577	0.0050470736
3697.5237341307	0.0050453311
3699.4525415038	0.0049555702
3701.3813488768	0.0048178528
3703.3101562499	0.0047313068
3705.2389636229	0.0049744863
3707.1677709959	0.0047922735
3709.0965783690	0.0048183827
3711.0253857420	0.0044637732
3712.9541931151	0.0042510526
3714.8830004881	0.0048145889
3716.8118078612	0.0047353189
3718.7406152342	0.0047424659
3720.6694226073	0.0046490342
3722.5982299803	0.0046333359
3724.5270373534	0.0046978556
3726.4558447264	0.0044223662
3728.3846520995	0.0047251503
3730.3134594725	0.0045700753
3732.2422668456	0.0043171644
3734.1710742186	0.0042269207
3736.0998815916	0.0039963536
3738.0286889647	0.0042441520
3739.9574963377	0.0045383601
3741.8863037108	0.0046012849
3743.8151110838	0.0037447573
3745.7439184569	0.0036509258
3747.6727258299	0.0044053094
3749.6015332030	0.0039207046
3751.5303405760	0.0037944003
3753.4591479491	0.0041504106
3755.3879553221	0.0043262867
3757.3167626952	0.0044458797
3759.2455700682	0.0041863490
3761.1743774413	0.0043587168
3763.1031848143	0.0045318394
3765.0319921873	0.0043025631
3766.9607995604	0.0043473467
3768.8896069334	0.0042958912
3770.8184143065	0.0042049317
3772.7472216795	0.0042986320
3774.6760290526	0.0043006153
3776.6048364256	0.0043657683
3778.5336437987	0.0042099962
3780.4624511717	0.0041538738
3782.3912585448	0.0043265922
3784.3200659178	0.0042853393
3786.2488732909	0.0042846734
3788.1776806639	0.0042810207
3790.1064880370	0.0042739166
3792.0352954100	0.0042230692
3793.9641027830	0.0043576164
3795.8929101561	0.0041123582
3797.8217175291	0.0040158695
3799.7505249022	0.0041957851
3801.6793322752	0.0034985910
3803.6081396483	0.0039623464
3805.5369470213	0.0041359793
3807.4657543944	0.0036289929
3809.3945617674	0.0042313738
3811.3233691405	0.0041344808
3813.2521765135	0.0041672681
3815.1809838866	0.0037439240
3817.1097912596	0.0035902548
3819.0385986327	0.0041686762
3820.9674060057	0.0034987153
3822.8962133787	0.0037779948
3824.8250207518	0.0041411659
3826.7538281248	0.0038428521
3828.6826354979	0.0041035833
3830.6114428709	0.0039697690
3832.5402502440	0.0037690937
3834.4690576170	0.0038670029
3836.3978649901	0.0036863601
3838.3266723631	0.0033951937
3840.2554797362	0.0037490847
3842.1842871092	0.0038296699
3844.1130944823	0.0037402175
3846.0419018553	0.0039199241
3847.9707092284	0.0038263951
3849.8995166014	0.0039587202
3851.8283239745	0.0034496756
3853.7571313475	0.0027705471
3855.6859387205	0.0032609359
3857.6147460936	0.0038881605
3859.5435534666	0.0038052481
3861.4723608397	0.0037415330
3863.4011682127	0.0036783977
3865.3299755858	0.0035278690
3867.2587829588	0.0038997738
3869.1875903319	0.0035170005
3871.1163977049	0.0033176281
3873.0452050780	0.0037483473
3874.9740124510	0.0035005459
3876.9028198241	0.0038322122
3878.8316271971	0.0037601055
3880.7604345702	0.0033311886
3882.6892419432	0.0037170479
3884.6180493162	0.0035362691
3886.5468566893	0.0033793123
3888.4756640623	0.0037351446
3890.4044714354	0.0035738423
3892.3332788084	0.0033378867
3894.2620861815	0.0035586287
3896.1908935545	0.0036446063
3898.1197009276	0.0035010036
3900.0485083006	0.0034243795
3901.9773156737	0.0034000897
3903.9061230467	0.0032816490
3905.8349304198	0.0033218870
3907.7637377928	0.0035950819
3909.6925451659	0.0035687243
3911.6213525389	0.0035927305
3913.5501599119	0.0035892441
3915.4789672850	0.0034204086
3917.4077746580	0.0034355784
3919.3365820311	0.0033894596
3921.2653894041	0.0035308087
3923.1941967772	0.0035488456
3925.1230041502	0.0033629814
3927.0518115233	0.0034944841
3928.9806188963	0.0035172994
3930.9094262694	0.0033820826
3932.8382336424	0.0033848661
3934.7670410155	0.0034777019
3936.6958483885	0.0035191362
3938.6246557616	0.0034322268
3940.5534631346	0.0034050730
3942.4822705076	0.0033982836
3944.4110778807	0.0033732299
3946.3398852537	0.0034935963
3948.2686926268	0.0034052106
3950.1974999998	0.0033020661
3952.1263073729	0.0034105061
3954.0551147459	0.0033662997
3955.9839221190	0.0033959192
3957.9127294920	0.0032857934
3959.8415368651	0.0032450203
3961.7703442381	0.0033980566
3963.6991516112	0.0032764939
3965.6279589842	0.0033009553
3967.5567663573	0.0033274954
3969.4855737303	0.0033009984
3971.4143811034	0.0032651185
3973.3431884764	0.0032070742
3975.2719958494	0.0033248959
3977.2008032225	0.0032604740
3979.1296105955	0.0032074433
3981.0584179686	0.0032239347
3982.9872253416	0.0032645534
3984.9160327147	0.0033018491
3986.8448400877	0.0032312828
3988.7736474608	0.0032228609
3990.7024548338	0.0031871083
3992.6312622069	0.0032186403
3994.5600695799	0.0031800480
3996.4888769530	0.0031741336
3998.4176843260	0.0031974262
4000.3464916991	0.0031873649
4002.2752990721	0.0032522166
4004.2041064451	0.0030443151
4006.1329138182	0.0031000040
4008.0617211912	0.0032543303
4009.9905285643	0.0031139990
4011.9193359373	0.0031070816
4013.8481433104	0.0031198382
4015.7769506834	0.0031554387
4017.7057580565	0.0030547753
4019.6345654295	0.0030380341
4021.5633728026	0.0030935267
4023.4921801756	0.0030249597
4025.4209875487	0.0031447411
4027.3497949217	0.0031336658
4029.2786022948	0.0030510686
4031.2074096678	0.0030881623
4033.1362170408	0.0031212270
4035.0650244139	0.0030242386
4036.9938317869	0.0029795561
4038.9226391600	0.0031281861
4040.8514465330	0.0030760807
4042.7802539061	0.0030685251
4044.7090612791	0.0030817878
4046.6378686522	0.0029925264
4048.5666760252	0.0029819622
4050.4954833983	0.0029324836
4052.4242907713	0.0029670028
4054.3530981444	0.0029855040
4056.2819055174	0.0030157021
4058.2107128905	0.0030321088
4060.1395202635	0.0028730002
4062.0683276365	0.0028914846
4063.9971350096	0.0029950431
4065.9259423826	0.0028887209
4067.8547497557	0.0029019350
4069.7835571287	0.0029719630
4071.7123645018	0.0028971685
4073.6411718748	0.0028946633
4075.5699792479	0.0028848394
4077.4987866209	0.0029366096
4079.4275939940	0.0028792731
4081.3564013670	0.0027819714
4083.2852087401	0.0029290034
4085.2140161131	0.0029077493
4087.1428234862	0.0028407401
4089.0716308592	0.0028239016
4091.0004382323	0.0028292642
4092.9292456053	0.0028429909
4094.8580529783	0.0028132093
4096.7868603514	0.0028103171
4098.7156677244	0.0027477341
4100.6444750975	0.0028266348
4102.5732824705	0.0028010877
4104.5020898436	0.0027804279
4106.4308972166	0.0028048423
4108.3597045897	0.0027221367
4110.2885119627	0.0028090095
4112.2173193358	0.0027243667
4114.1461267088	0.0026998317
4116.0749340819	0.0027342108
4118.0037414549	0.0026660895
4119.9325488280	0.0027085890
4121.8613562010	0.0027159275
4123.7901635740	0.0027798829
4125.7189709471	0.0027381568
4127.6477783201	0.0026459973
4129.5765856932	0.0026419801
4131.5053930662	0.0027172023
4133.4342004393	0.0027421096
4135.3630078123	0.0026618070
4137.2918151854	0.0026528123
4139.2206225584	0.0026364073
4141.1494299315	0.0027377894
4143.0782373045	0.0026951879
4145.0070446776	0.0026575816
4146.9358520506	0.0027344537
4148.8646594237	0.0026042010
4150.7934667967	0.0026468732
4152.7222741697	0.0026881387
4154.6510815428	0.0026890030
4156.5798889158	0.0026807773
4158.5086962889	0.0025709476
4160.4375036619	0.0026532176
4162.3663110350	0.0026858919
4164.2951184080	0.0025957925
4166.2239257811	0.0024973154
4168.1527331541	0.0024961755
4170.0815405272	0.0025846586
4172.0103479002	0.0025869617
4173.9391552733	0.0026332121
4175.8679626463	0.0025884383
4177.7967700194	0.0025153081
4179.7255773924	0.0025450476
4181.6543847654	0.0024943722
4183.5831921385	0.0025492697
4185.5119995115	0.0025413805
4187.4408068846	0.0024435348
4189.3696142576	0.0024859393
4191.2984216307	0.0024909121
4193.2272290037	0.0025176888
4195.1560363768	0.0024441364
4197.0848437498	0.0024170321
4199.0136511229	0.0025019085
4200.9424584959	0.0025045769
4202.8712658690	0.0025288365
4204.8000732420	0.0024346225
4206.7288806151	0.0024075075
4208.6576879881	0.0023970208
4210.5864953611	0.0024226143
4212.5153027342	0.0024419664
4214.4441101072	0.0023352131
4216.3729174803	0.0024071324
4218.3017248533	0.0023576319
4220.2305322264	0.0023734940
4222.1593395994	0.0024101846
4224.0881469725	0.0023510444
4226.0169543455	0.0024306984
4227.9457617186	0.0023854866
4229.8745690916	0.0023818838
4231.8033764647	0.0024169104
4233.7321838377	0.0024161306
4235.6609912108	0.0023064176
4237.5897985838	0.0023287083
4239.5186059569	0.0024391203
4241.4474133299	0.0022789498
4243.3762207029	0.0022417451
4245.3050280760	0.0022855364
4247.2338354490	0.0023622969
4249.1626428221	0.0023316732
4251.0914501951	0.0022761496
4253.0202575682	0.0023140507
4254.9490649412	0.0022977907
4256.8778723143	0.0023658369
4258.8066796873	0.0022917495
4260.7354870604	0.0023133447
4262.6642944334	0.0023378453
4264.5931018065	0.0022604363
4266.5219091795	0.0022560845
4268.4507165526	0.0022592109
4270.3795239256	0.0023462200
4272.3083312986	0.0022451433
4274.2371386717	0.0021960847
4276.1659460447	0.0022443677
4278.0947534178	0.0022377097
4280.0235607908	0.0022158735
4281.9523681639	0.0022039285
4283.8811755369	0.0021974316
4285.8099829100	0.0021074051
4287.7387902830	0.0022469908
4289.6675976561	0.0022675095
4291.5964050291	0.0021635166
4293.5252124022	0.0021710871
4295.4540197752	0.0021709660
4297.3828271483	0.0022037188
4299.3116345213	0.0021149637
4301.2404418943	0.0021475274
4303.1692492674	0.0021790729
4305.0980566404	0.0021606111
4307.0268640135	0.0021610267
4308.9556713865	0.0020891768
4310.8844787596	0.0021395329
4312.8132861326	0.0021386254
4314.7420935057	0.0020776202
4316.6709008787	0.0021202625
4318.5997082518	0.0021221205
4320.5285156248	0.0020743334
4322.4573229979	0.0021899913
4324.3861303709	0.0021669776
4326.3149377440	0.0020960546
4328.2437451170	0.0021283301
4330.1725524900	0.0020393603
4332.1013598631	0.0020884187
4334.0301672361	0.0020653596
4335.9589746092	0.0020409659
4337.8877819822	0.0020550699
4339.8165893553	0.0020584795
4341.7453967283	0.0021230881
4343.6742041014	0.0020614511
4345.6030114744	0.0020233523
4347.5318188475	0.0019653616
4349.4606262205	0.0020378132
4351.3894335936	0.0019786987
4353.3182409666	0.0019613854
4355.2470483397	0.0020881011
4357.1758557127	0.0020051543
4359.1046630858	0.0020933161
4361.0334704588	0.0020379422
4362.9622778318	0.0020528906
4364.8910852049	0.0020645065
4366.8198925779	0.0019502067
4368.7486999510	0.0020269356
4370.6775073240	0.0019506442
4372.6063146971	0.0019217941
4374.5351220701	0.0019340680
4376.4639294432	0.0020349566
4378.3927368162	0.0019636624
4380.3215441893	0.0019471028
4382.2503515623	0.0020235898
4384.1791589354	0.0017944695
4386.1079663084	0.0019593770
4388.0367736815	0.0020036057
4389.9655810545	0.0019257580
4391.8943884275	0.0019771580
4393.8231958006	0.0019215288
4395.7520031736	0.0019618534
4397.6808105467	0.0018723786
4399.6096179197	0.0019105123
4401.5384252928	0.0018957041
4403.4672326658	0.0018500644
4405.3960400389	0.0019130595
4407.3248474119	0.0019351377
4409.2536547850	0.0019234618
4411.1824621580	0.0018300858
4413.1112695311	0.0018998007
4415.0400769041	0.0018662175
4416.9688842772	0.0018526237
4418.8976916502	0.0018322272
4420.8264990232	0.0017960521
4422.7553063963	0.0018870253
4424.6841137693	0.0017943482
4426.6129211424	0.0018647583
4428.5417285154	0.0018774569
4430.4705358885	0.0018399302
4432.3993432615	0.0018880826
4434.3281506346	0.0018077684
4436.2569580076	0.0018742685
4438.1857653807	0.0018546220
4440.1145727537	0.0017991930
4442.0433801268	0.0018120557
4443.9721874998	0.0017878315
4445.9009948729	0.0018201264
4447.8298022459	0.0017504547
4449.7586096189	0.0017284341
4451.6874169920	0.0018193017
4453.6162243650	0.0018045634
4455.5450317381	0.0018224507
4457.4738391111	0.0018383021
4459.4026464842	0.0017595240
4461.3314538572	0.0017833021
4463.2602612303	0.0017964892
4465.1890686033	0.0017441649
4467.1178759764	0.0016932809
4469.0466833494	0.0017059811
4470.9754907225	0.0017533796
4472.9042980955	0.0016933889
4474.8331054686	0.0017270122
4476.7619128416	0.0017654605
4478.6907202147	0.0017411371
4480.6195275877	0.0016895279
4482.5483349607	0.0016285235
4484.4771423338	0.0017411911
4486.4059497068	0.0017187600
4488.3347570799	0.0016241148
4490.2635644529	0.0016588200
4492.1923718260	0.0016450479
4494.1211791990	0.0016729202
4496.0499865721	0.0016645826
4497.9787939451	0.0016351971
4499.9076013182	0.0016730939
4501.8364086912	0.0016090800
4503.7652160643	0.0016183842
4505.6940234373	0.0017142055
4507.6228308104	0.0016700265
4509.5516381834	0.0016759429
4511.4804455564	0.0017044771
4513.4092529295	0.0016279790
4515.3380603025	0.0015789178
4517.2668676756	0.0016036083
4519.1956750486	0.0016731507
4521.1244824217	0.0016813396
4523.0532897947	0.0015817976
4524.9820971678	0.0015371013
4526.9109045408	0.0016467996
4528.8397119139	0.0016315242
4530.7685192869	0.0015872587
4532.6973266600	0.0016855388
4534.6261340330	0.0016304136
4536.5549414061	0.0016037929
4538.4837487791	0.0016360509
4540.4125561521	0.0015447508
4542.3413635252	0.0015497589
4544.2701708982	0.0016471379
4546.1989782713	0.0015989175
4548.1277856443	0.0015137162
4550.0565930174	0.0015600370
4551.9854003904	0.0015538997
4553.9142077635	0.0015282773
4555.8430151365	0.0015135230
4557.7718225096	0.0015070417
4559.7006298826	0.0015538847
4561.6294372557	0.0016053668
4563.5582446287	0.0016129485
4565.4870520018	0.0015075598
4567.4158593748	0.0014931990
4569.3446667478	0.0014476867
4571.2734741209	0.0014558828
4573.2022814939	0.0015354920
4575.1310888670	0.0014328900
4577.0598962400	0.0014942174
4578.9887036131	0.0015120641
4580.9175109861	0.0014947986
4582.8463183592	0.0014921947
4584.7751257322	0.0013656208
4586.7039331053	0.0014744693
4588.6327404783	0.0015166112
4590.5615478514	0.0014483328
4592.4903552244	0.0014641569
4594.4191625975	0.0014493185
4596.3479699705	0.0014122804
4598.2767773435	0.0014433975
4600.2055847166	0.0014985900
4602.1343920896	0.0014372785
4604.0631994627	0.0014857096
4605.9920068357	0.0014437592
4607.9208142088	0.0013899503
4609.8496215818	0.0014649264
4611.7784289549	0.0013725804
4613.7072363279	0.0013867591
4615.6360437010	0.0014207830
4617.5648510740	0.0014763768
4619.4936584471	0.0014946400
4621.4224658201	0.0013617766
4623.3512731932	0.0014012924
4625.2800805662	0.0013911637
4627.2088879393	0.0013865401
4629.1376953123	0.0013973651
4631.0665026853	0.0013898343
4632.9953100584	0.0014380389
4634.9241174314	0.0012864543
4636.8529248045	0.0013350248
4638.7817321775	0.0014880989
4640.7105395506	0.0013767343
4642.6393469236	0.0013577259
4644.5681542967	0.0013737271
4646.4969616697	0.0012981223
4648.4257690428	0.0012819073
4650.3545764158	0.0013876730
4652.2833837889	0.0014325400
4654.2121911619	0.0013433979
4656.1409985350	0.0013518410
4658.0698059080	0.0013548066
4659.9986132810	0.0013711465
4661.9274206541	0.0014014172
4663.8562280271	0.0012838702
4665.7850354002	0.0013064502
4667.7138427732	0.0013369189
4669.6426501463	0.0012922706
4671.5714575193	0.0013445679
4673.5002648924	0.0012818989
4675.4290722654	0.0012746539
4677.3578796385	0.0012947209
4679.2866870115	0.0012486306
4681.2154943846	0.0012805859
4683.1443017576	0.0012858605
4685.0731091307	0.0013090996
4687.0019165037	0.0012539753
4688.9307238767	0.0012828141
4690.8595312498	0.0013888279
4692.7883386228	0.0012597609
4694.7171459959	0.0012463533
4696.6459533689	0.0012925162
4698.5747607420	0.0012399174
4700.5035681150	0.0012516249
4702.4323754881	0.0012511439
4704.3611828611	0.0013012630
4706.2899902342	0.0012809874
4708.2187976072	0.0012242743
4710.1476049803	0.0013069891
4712.0764123533	0.0013143381
4714.0052197264	0.0012804987
4715.9340270994	0.0012976336
4717.8628344724	0.0012977608
4719.7916418455	0.0012411753
4721.7204492185	0.0011682166
4723.6492565916	0.0012167818
4725.5780639646	0.0012697591
4727.5068713377	0.0012951060
4729.4356787107	0.0012298581
4731.3644860838	0.0011799391
4733.2932934568	0.0013092109
4735.2221008299	0.0012204533
4737.1509082029	0.0011790872
4739.0797155760	0.0012253101
4741.0085229490	0.0011183750
4742.9373303221	0.0012322806
4744.8661376951	0.0012569863
4746.7949450682	0.0011605159
4748.7237524412	0.0011628924
4750.6525598142	0.0011857422
4752.5813671873	0.0012136860
4754.5101745603	0.0011476477
4756.4389819334	0.0011759766
4758.3677893064	0.0011816102
4760.2965966795	0.0011466863
4762.2254040525	0.0012156789
4764.1542114256	0.0011820425
4766.0830187986	0.0011338078
4768.0118261717	0.0012153701
4769.9406335447	0.0012236168
4771.8694409178	0.0011408896
4773.7982482908	0.0011452069
4775.7270556639	0.0011018130
4777.6558630369	0.0011061931
4779.5846704099	0.0010875140
4781.5134777830	0.0010103352
4783.4422851560	0.0011229024
4785.3710925291	0.0011388890
4787.2998999021	0.0011301849
4789.2287072752	0.0011688760
4791.1575146482	0.0011763308
4793.0863220213	0.0011688665
4795.0151293943	0.0010961497
4796.9439367674	0.0011324168
4798.8727441404	0.0011367009
4800.8015515135	0.0011009703
4802.7303588865	0.0010867423
4804.6591662596	0.0010784084
4806.5879736326	0.0010723958
4808.5167810056	0.0010611715
4810.4455883787	0.0011037239
4812.3743957517	0.0010559855
4814.3032031248	0.0010712638
4816.2320104978	0.0011266628
4818.1608178709	0.0010732095
4820.0896252439	0.0010525663
4822.0184326170	0.0011198970
4823.9472399900	0.0011220115
4825.8760473631	0.0010961308
4827.8048547361	0.0011480239
4829.7336621092	0.0010022635
4831.6624694822	0.0009898921
4833.5912768553	0.0011279937
4835.5200842283	0.0011015357
4837.4488916013	0.0010362072
4839.3776989744	0.0009639518
4841.3065063474	0.0010864337
4843.2353137205	0.0011033749
4845.1641210935	0.0010584213
4847.0929284666	0.0010348861
4849.0217358396	0.0009116345
4850.9505432127	0.0009651442
4852.8793505857	0.0009495588
4854.8081579588	0.0009783562
4856.7369653318	0.0010109058
4858.6657727049	0.0009964157
4860.5945800779	0.0010564832
4862.5233874510	0.0010031898
4864.4521948240	0.0010146574
4866.3810021971	0.0009947252
4868.3098095701	0.0010326178
4870.2386169431	0.0010216485
4872.1674243162	0.0009454229
4874.0962316892	0.0010425793
4876.0250390623	0.0009717352
4877.9538464353	0.0009513615
4879.8826538084	0.0009935482
4881.8114611814	0.0009682929
4883.7402685545	0.0009977652
4885.6690759275	0.0010052992
4887.5978833006	0.0010682880
4889.5266906736	0.0010254257
4891.4554980467	0.0009924532
4893.3843054197	0.0009985904
4895.3131127928	0.0009543210
4897.2419201658	0.0009903274
4899.1707275388	0.0009254006
4901.0995349119	0.0009122971
4903.0283422849	0.0009807249
4904.9571496580	0.0010073342
4906.8859570310	0.0010276935
4908.8147644041	0.0009396450
4910.7435717771	0.0009336278
4912.6723791502	0.0009904794
4914.6011865232	0.0010062988
4916.5299938963	0.0009602848
4918.4588012693	0.0008309223
4920.3876086424	0.0008727916
4922.3164160154	0.0009606122
4924.2452233885	0.0009220178
4926.1740307615	0.0008832221
4928.1028381345	0.0009191136
4930.0316455076	0.0009547207
4931.9604528806	0.0008985800
4933.8892602537	0.0008802962
4935.8180676267	0.0008899875
4937.7468749998	0.0009018958
4939.6756823728	0.0009090987
4941.6044897459	0.0008513458
4943.5332971189	0.0008512957
4945.4621044920	0.0009368375
4947.3909118650	0.0009762158
4949.3197192381	0.0009362728
4951.2485266111	0.0009098152
4953.1773339842	0.0008817577
4955.1061413572	0.0008492892
4957.0349487302	0.0008440401
4958.9637561033	0.0008445202
4960.8925634763	0.0008142281
4962.8213708494	0.0008159641
4964.7501782224	0.0009312838
4966.6789855955	0.0009516034
4968.6077929685	0.0009199762
4970.5366003416	0.0008805010
4972.4654077146	0.0007830483
4974.3942150877	0.0008363175
4976.3230224607	0.0009030080
4978.2518298338	0.0008830754
4980.1806372068	0.0008888793
4982.1094445799	0.0008931483
4984.0382519529	0.0008697190
4985.9670593259	0.0008612192
4987.8958666990	0.0008635632
4989.8246740720	0.0008589689
4991.7534814451	0.0008568584
4993.6822888181	0.0008389503
4995.6110961912	0.0008918203
4997.5399035642	0.0008852621
4999.4687109373	0.0007778225
5001.3975183103	0.0008282439
5003.3263256834	0.0008939543
5005.2551330564	0.0008102492
5007.1839404295	0.0008487129
5009.1127478025	0.0008823285
5011.0415551756	0.0007853169
5012.9703625486	0.0008753473
5014.8991699217	0.0008643194
5016.8279772947	0.0008011583
5018.7567846677	0.0008641980
5020.6855920408	0.0008158614
5022.6143994138	0.0008042403
5024.5432067869	0.0007719863
5026.4720141599	0.0007849988
5028.4008215330	0.0007740914
5030.3296289060	0.0007580188
5032.2584362791	0.0008022896
5034.1872436521	0.0007736807
5036.1160510252	0.0008288360
5038.0448583982	0.0007820004
5039.9736657713	0.0008096329
5041.9024731443	0.0008049457
5043.8312805174	0.0007966231
5045.7600878904	0.0009051531
5047.6888952634	0.0007829482
5049.6177026365	0.0008560071
5051.5465100095	0.0008026728
5053.4753173826	0.0007110165
5055.4041247556	0.0007886452
5057.3329321287	0.0006842810
5059.2617395017	0.0007900302
5061.1905468748	0.0007652311
5063.1193542478	0.0006992676
5065.0481616209	0.0007771403
5066.9769689939	0.0007606358
5068.9057763670	0.0007814203
5070.8345837400	0.0007558429
5072.7633911131	0.0007722117
5074.6921984861	0.0007678990
5076.6210058591	0.0007329368
5078.5498132322	0.0007261124
5080.4786206052	0.0008079052
5082.4074279783	0.0008084300
5084.3362353513	0.0006768635
5086.2650427244	0.0007346080
5088.1938500974	0.0007192604
5090.1226574705	0.0007117763
5092.0514648435	0.0007317180
5093.9802722166	0.0006739988
5095.9090795896	0.0007416240
5097.8378869627	0.0007444301
5099.7666943357	0.0006850285
5101.6955017088	0.0006630712
5103.6243090818	0.0007004070
5105.5531164548	0.0007106593
5107.4819238279	0.0006738044
5109.4107312009	0.0006448536
5111.3395385740	0.0006774609
5113.2683459470	0.0007491832
5115.1971533201	0.0006621468
5117.1259606931	0.0007174728
5119.0547680662	0.0007975428
5120.9835754392	0.0007186198
5122.9123828123	0.0007539790
5124.8411901853	0.0006873652
5126.7699975584	0.0006392478
5128.6988049314	0.0006969332
5130.6276123045	0.0006847171
5132.5564196775	0.0007131057
5134.4852270506	0.0006912156
5136.4140344236	0.0007190655
5138.3428417966	0.0007762140
5140.2716491697	0.0006630129
5142.2004565427	0.0006757481
5144.1292639158	0.0006827730
5146.0580712888	0.0005966044
5147.9868786619	0.0006428816
5149.9156860349	0.0006194471
5151.8444934080	0.0007133167
5153.7733007810	0.0007610027
5155.7021081541	0.0006448104
5157.6309155271	0.0007060003
5159.5597229002	0.0006730122
5161.4885302732	0.0006563951
5163.4173376463	0.0006550766
5165.3461450193	0.0006049703
5167.2749523923	0.0006698982
5169.2037597654	0.0006505187
5171.1325671384	0.0006287555
5173.0613745115	0.0005969050
5174.9901818845	0.0006108308
5176.9189892576	0.0006418839
5178.8477966306	0.0006340569
5180.7766040037	0.0006723132
5182.7054113767	0.0006248975
5184.6342187498	0.0006551180
5186.5630261228	0.0007040214
5188.4918334959	0.0006628843
5190.4206408689	0.0006115816
5192.3494482420	0.0006347242
5194.2782556150	0.0006390248
5196.2070629880	0.0005772104
5198.1358703611	0.0006244497
5200.0646777341	0.0005386544
5201.9934851072	0.0005848450
5203.9222924802	0.0006585924
5205.8510998533	0.0005551229
5207.7799072263	0.0006329180
5209.7087145994	0.0005982142
5211.6375219724	0.0006011365
5213.5663293455	0.0005889504
5215.4951367185	0.0005623399
5217.4239440916	0.0006745194
5219.3527514646	0.0006032469
5221.2815588377	0.0005940314
5223.2103662107	0.0006265329
5225.1391735837	0.0006569646
5227.0679809568	0.0006162733
5228.9967883298	0.0005560460
5230.9255957029	0.0005787899
5232.8544030759	0.0005111785
5234.7832104490	0.0006280924
5236.7120178220	0.0006614279
5238.6408251951	0.0005858074
5240.5696325681	0.0006104946
5242.4984399412	0.0005817092
5244.4272473142	0.0005868238
5246.3560546873	0.0005458716
5248.2848620603	0.0005613512
5250.2136694334	0.0005973486
5252.1424768064	0.0005777230
5254.0712841795	0.0005981931
5256.0000915525	0.0005734226
5257.9288989255	0.0005176469
5259.8577062986	0.0005631968
5261.7865136716	0.0006082745
5263.7153210447	0.0005781674
5265.6441284177	0.0006546978
5267.5729357908	0.0006042427
5269.5017431638	0.0005876244
5271.4305505369	0.0006514404
5273.3593579099	0.0004813003
5275.2881652830	0.0005019540
5277.2169726560	0.0005766707
5279.1457800291	0.0005375191
5281.0745874021	0.0006012332
5283.0033947752	0.0005644632
5284.9322021482	0.0004895559
5286.8610095212	0.0005172339
5288.7898168943	0.0005337861
5290.7186242673	0.0005559054
5292.6474316404	0.0005420109
5294.5762390134	0.0005132554
5296.5050463865	0.0005921382
5298.4338537595	0.0005567697
5300.3626611326	0.0005917106
5302.2914685056	0.0006342998
5304.2202758787	0.0004823295
5306.1490832517	0.0004826276
5308.0778906248	0.0004486559
5310.0066979978	0.0004562563
5311.9355053709	0.0005022767
5313.8643127439	0.0005198802
5315.7931201169	0.0005865921
5317.7219274900	0.0004993774
5319.6507348630	0.0005544083
5321.5795422361	0.0005839473
5323.5083496091	0.0005070110
5325.4371569822	0.0004958742
5327.3659643552	0.0004952697
5329.2947717283	0.0005320412
5331.2235791013	0.0004488147
5333.1523864744	0.0004974818
5335.0811938474	0.0005352661
5337.0100012205	0.0004661577
5338.9388085935	0.0005436467
5340.8676159666	0.0005279950
5342.7964233396	0.0004650650
5344.7252307126	0.0004949556
5346.6540380857	0.0005822617
5348.5828454587	0.0005651392
5350.5116528318	0.0005364174
5352.4404602048	0.0005652148
5354.3692675779	0.0004485451
5356.2980749509	0.0004871663
5358.2268823240	0.0005761507
5360.1556896970	0.0004904108
5362.0844970701	0.0005057117
5364.0133044431	0.0005343838
5365.9421118162	0.0005235267
5367.8709191892	0.0004651367
5369.7997265623	0.0004014249
5371.7285339353	0.0004505045
5373.6573413083	0.0004316441
5375.5861486814	0.0004153009
5377.5149560544	0.0004315732
5379.4437634275	0.0004722587
5381.3725708005	0.0005329537
5383.3013781736	0.0004731131
5385.2301855466	0.0004831760
5387.1589929197	0.0005052330
5389.0878002927	0.0004863496
5391.0166076658	0.0004840035
5392.9454150388	0.0004797775
5394.8742224119	0.0005039509
5396.8030297849	0.0004490230
5398.7318371580	0.0004576045
5400.6606445310	0.0004979696
5402.5894519041	0.0004978530
5404.5182592771	0.0004432756
5406.4470666501	0.0004361820
5408.3758740232	0.0005459593
5410.3046813962	0.0004383768
5412.2334887693	0.0003944212
5414.1622961423	0.0004519551
5416.0911035154	0.0004116876
5418.0199108884	0.0004449611
5419.9487182615	0.0004829155
5421.8775256345	0.0005019718
5423.8063330076	0.0004154791
5425.7351403806	0.0004144305
5427.6639477537	0.0004724544
5429.5927551267	0.0004195682
5431.5215624998	0.0004432219
5433.4503698728	0.0004172850
5435.3791772458	0.0004178238
5437.3079846189	0.0004695359
5439.2367919919	0.0004392139
5441.1655993650	0.0004675900
5443.0944067380	0.0004981044
5445.0232141111	0.0004534169
5446.9520214841	0.0004391696
5448.8808288572	0.0004963399
5450.8096362302	0.0004930861
5452.7384436033	0.0003781203
5454.6672509763	0.0003817804
5456.5960583494	0.0005028421
5458.5248657224	0.0004854237
5460.4536730955	0.0004339670
5462.3824804685	0.0004409928
5464.3112878415	0.0004001470
5466.2400952146	0.0003706375
5468.1689025876	0.0004014331
5470.0977099607	0.0004339244
5472.0265173337	0.0004224992
5473.9553247068	0.0003955835
5475.8841320798	0.0003865275
5477.8129394529	0.0003897697
5479.7417468259	0.0003983166
5481.6705541990	0.0004480385
5483.5993615720	0.0004331850
5485.5281689451	0.0003923724
5487.4569763181	0.0004577194
5489.3857836912	0.0004430953
5491.3145910642	0.0004370674
5493.2433984372	0.0004345728
5495.1722058103	0.0004003560
5497.1010131833	0.0004486103
5499.0298205564	0.0004451381
5500.9586279294	0.0004694248
5502.8874353025	0.0004418316
5504.8162426755	0.0003651618
5506.7450500486	0.0003900647
5508.6738574216	0.0004297082
5510.6026647947	0.0004326095
5512.5314721677	0.0004073617
5514.4602795408	0.0004117334
5516.3890869138	0.0004201093
5518.3178942869	0.0004450640
5520.2467016599	0.0003611433
5522.1755090330	0.0002894171
5524.1043164060	0.0003509032
5526.0331237790	0.0003400709
5527.9619311521	0.0003855475
5529.8907385251	0.0003948323
5531.8195458982	0.0003458172
5533.7483532712	0.0003532551
5535.6771606443	0.0003572829
5537.6059680173	0.0004014215
5539.5347753904	0.0003950603
5541.4635827634	0.0003850130
5543.3923901365	0.0004049197
5545.3211975095	0.0003792634
5547.2500048826	0.0004173362
5549.1788122556	0.0004860602
5551.1076196287	0.0004315538
5553.0364270017	0.0003826969
5554.9652343747	0.0003594119
5556.8940417478	0.0003751964
5558.8228491208	0.0004389760
5560.7516564939	0.0003552492
5562.6804638669	0.0003383485
5564.6092712400	0.0003675832
5566.5380786130	0.0003630513
5568.4668859861	0.0003592662
5570.3956933591	0.0003331604
5572.3245007322	0.0003724414
5574.2533081052	0.0002864627
5576.1821154783	0.0003417471
5578.1109228513	0.0004092095
5580.0397302244	0.0003411096
5581.9685375974	0.0004152063
5583.8973449704	0.0003301628
5585.8261523435	0.0003536805
5587.7549597165	0.0004506644
5589.6837670896	0.0003423020
5591.6125744626	0.0003509700
5593.5413818357	0.0004037288
5595.4701892087	0.0003939083
5597.3989965818	0.0003533582
5599.3278039548	0.0003485295
5601.2566113279	0.0003930066
5603.1854187009	0.0003857905
5605.1142260740	0.0003395977
5607.0430334470	0.0003099524
5608.9718408201	0.0003354529
5610.9006481931	0.0003705028
5612.8294555661	0.0003378361
5614.7582629392	0.0003718963
5616.6870703122	0.0004567498
5618.6158776853	0.0003732234
5620.5446850583	0.0003503517
5622.4734924314	0.0004037434
5624.4022998044	0.0003353706
5626.3311071775	0.0003001677
5628.2599145505	0.0003409393
5630.1887219236	0.0003857998
5632.1175292966	0.0003744543
5634.0463366697	0.0003273848
5635.9751440427	0.0002697569
5637.9039514158	0.0002781973
5639.8327587888	0.0003098827
5641.7615661619	0.0003431383
5643.6903735349	0.0003847872
5645.6191809079	0.0002789924
5647.5479882810	0.0002968215
5649.4767956540	0.0003511076
5651.4056030271	0.0003015421
5653.3344104001	0.0003692264
5655.2632177732	0.0003680443
5657.1920251462	0.0003005868
5659.1208325193	0.0002492258
5661.0496398923	0.0002484446
5662.9784472654	0.0002611813
5664.9072546384	0.0002903361
5666.8360620115	0.0003349878
5668.7648693845	0.0002818618
5670.6936767576	0.0003326591
5672.6224841306	0.0003254142
5674.5512915036	0.0002681320
5676.4800988767	0.0003165153
5678.4089062497	0.0002742389
5680.3377136228	0.0003152575
5682.2665209958	0.0003548938
5684.1953283689	0.0002903154
5686.1241357419	0.0002997987
5688.0529431150	0.0003170845
5689.9817504880	0.0003275638
5691.9105578611	0.0002964776
5693.8393652341	0.0002463289
5695.7681726072	0.0003291348
5697.6969799802	0.0003735083
5699.6257873533	0.0002814843
5701.5545947263	0.0002700093
5703.4834020993	0.0003080672
5705.4122094724	0.0003351158
5707.3410168454	0.0003232742
5709.2698242185	0.0003072946
5711.1986315915	0.0003666884
5713.1274389646	0.0003129603
5715.0562463376	0.0002473766
5716.9850537107	0.0002778479
5718.9138610837	0.0002933083
5720.8426684568	0.0002837888
5722.7714758298	0.0002553533
5724.7002832029	0.0003078249
5726.6290905759	0.0003212888
5728.5578979490	0.0002815062
5730.4867053220	0.0003225647
5732.4155126950	0.0003332953
5734.3443200681	0.0002979315
5736.2731274411	0.0003093740
5738.2019348142	0.0003295494
5740.1307421872	0.0002699193
5742.0595495603	0.0002867666
5743.9883569333	0.0003173141
5745.9171643064	0.0002681530
5747.8459716794	0.0002868162
5749.7747790525	0.0002750518
5751.7035864255	0.0002709287
5753.6323937986	0.0002813976
5755.5612011716	0.0003048922
5757.4900085447	0.0002924692
5759.4188159177	0.0002327364
5761.3476232907	0.0002999017
5763.2764306638	0.0003266367
5765.2052380368	0.0003267476
5767.1340454099	0.0002636514
5769.0628527829	0.0002301816
5770.9916601560	0.0002904582
5772.9204675290	0.0002379889
5774.8492749021	0.0002769042
5776.7780822751	0.0002526507
5778.7068896482	0.0001912068
5780.6356970212	0.0002199208
5782.5645043943	0.0002387398
5784.4933117673	0.0002586191
5786.4221191404	0.0002009050
5788.3509265134	0.0002465183
5790.2797338865	0.0002293791
5792.2085412595	0.0002020273
5794.1373486325	0.0002577965
5796.0661560056	0.0002053134
5797.9949633786	0.0002720261
5799.9237707517	0.0003053320
5801.8525781247	0.0002347860
5803.7813854978	0.0002286443
5805.7101928708	0.0002485021
5807.6390002439	0.0002958855
5809.5678076169	0.0003326943
5811.4966149900	0.0002710929
5813.4254223630	0.0002161116
5815.3542297361	0.0002714417
5817.2830371091	0.0002512023
5819.2118444822	0.0002385274
5821.1406518552	0.0002946372
5823.0694592282	0.0003044812
5824.9982666013	0.0002835276
5826.9270739743	0.0002861934
5828.8558813474	0.0002787517
5830.7846887204	0.0002177073
5832.7134960935	0.0002538400
5834.6423034665	0.0002608437
5836.5711108396	0.0002717585
5838.4999182126	0.0003208292
5840.4287255857	0.0002801276
5842.3575329587	0.0002512728
5844.2863403318	0.0002022866
5846.2151477048	0.0002595849
5848.1439550779	0.0002700889
5850.0727624509	0.0002194461
5852.0015698239	0.0002914317
5853.9303771970	0.0002656671
5855.8591845700	0.0002314348
5857.7879919431	0.0002255392
5859.7167993161	0.0002034413
5861.6456066892	0.0002551101
5863.5744140622	0.0002673071
5865.5032214353	0.0002012276
5867.4320288083	0.0002429301
5869.3608361814	0.0002683529
5871.2896435544	0.0002582148
5873.2184509275	0.0003107014
5875.1472583005	0.0002114113
5877.0760656736	0.0002231385
5879.0048730466	0.0002715240
5880.9336804196	0.0002116718
5882.8624877927	0.0002699450
5884.7912951657	0.0002313403
5886.7201025388	0.0001564075
5888.6489099118	0.0001853048
5890.5777172849	0.0002153302
5892.5065246579	0.0001419674
5894.4353320310	0.0001461627
5896.3641394040	0.0002502994
5898.2929467771	0.0001829689
5900.2217541501	0.0001331567
5902.1505615232	0.0001454704
5904.0793688962	0.0001527654
5906.0081762693	0.0002201779
5907.9369836423	0.0002726176
5909.8657910154	0.0002606686
5911.7945983884	0.0001985193
5913.7234057614	0.0001432136
5915.6522131345	0.0002251239
5917.5810205075	0.0002721050
5919.5098278806	0.0001623475
5921.4386352536	0.0002336316
5923.3674426267	0.0002809039
5925.2962499997	0.0002269218
5927.2250573728	0.0002047762
5929.1538647458	0.0002000729
5931.0826721189	0.0002950309
5933.0114794919	0.0002027828
5934.9402868650	0.0002122729
5936.8690942380	0.0002698157
5938.7979016111	0.0001310902
5940.7267089841	0.0001626099
5942.6555163571	0.0001808160
5944.5843237302	0.0001861607
5946.5131311032	0.0002132353
5948.4419384763	0.0002147128
5950.3707458493	0.0002146356
5952.2995532224	0.0001607514
5954.2283605954	0.0001989636
5956.1571679685	0.0002166163
5958.0859753415	0.0001556837
5960.0147827146	0.0001408174
5961.9435900876	0.0001917749
5963.8723974607	0.0002085176
5965.8012048337	0.0002124382
5967.7300122068	0.0002043266
5969.6588195798	0.0001759529
5971.5876269528	0.0002319425
5973.5164343259	0.0002157364
5975.4452416989	0.0001780024
5977.3740490720	0.0001639663
5979.3028564450	0.0001985809
5981.2316638181	0.0002363032
5983.1604711911	0.0001182167
5985.0892785642	0.0001693072
5987.0180859372	0.0002573409
5988.9468933103	0.0002054281
5990.8757006833	0.0001992187
5992.8045080564	0.0001703130
5994.7333154294	0.0002263318
5996.6621228025	0.0002438246
5998.5909301755	0.0001502180
6000.5197375485	0.0001557209
