399.2631262207	0.0012473853
401.1919335938	0.0011416159
403.1207409668	0.0010203556
405.0495483398	0.0009084883
406.9783557129	0.0009334337
408.9071630859	0.0011154248
410.8359704590	0.0014666729
412.7647778320	0.0013774808
414.6935852051	0.0013811822
416.6223925781	0.0013931589
418.5511999512	0.0012810469
420.4800073242	0.0010746367
422.4088146973	0.0015862340
424.3376220703	0.0017761444
426.2664294434	0.0011733221
428.1952368164	0.0013051238
430.1240441895	0.0014824633
432.0528515625	0.0017292439
433.9816589355	0.0014714481
435.9104663086	0.0012365391
437.8392736816	0.0013363310
439.7680810547	0.0012222657
441.6968884277	0.0013740116
443.6256958008	0.0013125885
445.5545031738	0.0015941642
447.4833105469	0.0015090652
449.4121179199	0.0012469289
451.3409252930	0.0009985261
453.2697326660	0.0007230857
455.1985400391	0.0012410453
457.1273474121	0.0010699037
459.0561547852	0.0009354224
460.9849621582	0.0010837370
462.9137695313	0.0011068867
464.8425769043	0.0013011976
466.7713842773	0.0008095396
468.7001916504	0.0008229538
470.6289990234	0.0011037568
472.5578063965	0.0009762454
474.4866137695	0.0012147988
476.4154211426	0.0008182260
478.3442285156	0.0007858085
480.2730358887	0.0010409938
482.2018432617	0.0006863952
484.1306506348	0.0006308919
486.0594580078	0.0005859298
487.9882653809	0.0010975152
489.9170727539	0.0009733143
491.8458801270	0.0005988270
493.7746875000	0.0009581692
495.7034948730	0.0006405903
497.6323022461	0.0006320531
499.5611096191	0.0006103457
501.4899169922	0.0006205227
503.4187243652	0.0009784349
505.3475317383	0.0009019862
507.2763391113	0.0007877055
509.2051464844	0.0006586230
511.1339538574	0.0008030819
513.0627612305	0.0006620400
514.9915686035	0.0004128290
516.9203759766	0.0005615086
518.8491833496	0.0006092178
520.7779907227	0.0009340600
522.7067980957	0.0011363440
524.6356054688	0.0007493619
526.5644128418	0.0008442365
528.4932202148	0.0011531560
530.4220275879	0.0007227301
532.3508349609	0.0007026997
534.2796423340	0.0007664817
536.2084497070	0.0006302879
538.1372570801	0.0009698479
540.0660644531	0.0009484207
541.9948718262	0.0008022415
543.9236791992	0.0006575643
545.8524865723	0.0008191153
547.7812939453	0.0010929001
549.7101013184	0.0007697463
551.6389086914	0.0009172254
553.5677160645	0.0007683395
555.4965234375	0.0005033193
557.4253308105	0.0010715787
559.3541381836	0.0008368354
561.2829455566	0.0008440797
563.2117529297	0.0011490431
565.1405603027	0.0006867136
567.0693676758	0.0006378057
568.9981750488	0.0006648915
570.9269824219	0.0008649532
572.8557897949	0.0007436757
574.7845971680	0.0007251508
576.7134045410	0.0009573987
578.6422119141	0.0006924637
580.5710192871	0.0010248818
582.4998266602	0.0007779448
584.4286340332	0.0007847919
586.3574414063	0.0010314469
588.2862487793	0.0007670595
590.2150561523	0.0010087691
592.1438635254	0.0005263412
594.0726708984	0.0006060704
596.0014782715	0.0007544784
597.9302856445	0.0004408176
599.8590930176	0.0009395364
601.7879003906	0.0010816286
603.7167077637	0.0008455082
605.6455151367	0.0006383079
607.5743225098	0.0006481006
609.5031298828	0.0005254454
611.4319372559	0.0011345306
613.3607446289	0.0014104645
615.2895520020	0.0006630771
617.2183593750	0.0008124209
619.1471667480	0.0003368898
621.0759741211	0.0003851935
623.0047814941	0.0009821856
624.9335888672	0.0006759726
626.8623962402	0.0006807165
628.7912036133	0.0004179488
630.7200109863	0.0009115641
632.6488183594	0.0009804908
634.5776257324	0.0005579020
636.5064331055	0.0011478993
638.4352404785	0.0012299663
640.3640478516	0.0011767078
642.2928552246	0.0013573430
644.2216625977	0.0016096353
646.1504699707	0.0019755249
648.0792773438	0.0019949004
650.0080847168	0.0020483739
651.9368920898	0.0020475150
653.8656994629	0.0022122250
655.7945068359	0.0024516699
657.7233142090	0.0020537835
659.6521215820	0.0024143816
661.5809289551	0.0028693024
663.5097363281	0.0025229384
665.4385437012	0.0026246570
667.3673510742	0.0023556887
669.2961584473	0.0024662912
671.2249658203	0.0028591263
673.1537731934	0.0029496779
675.0825805664	0.0034746039
677.0113879395	0.0033329108
678.9401953125	0.0035031114
680.8690026855	0.0035419683
682.7978100586	0.0033578696
684.7266174316	0.0036857747
686.6554248047	0.0033859177
688.5842321777	0.0035714169
690.5130395508	0.0037055844
692.4418469238	0.0038505974
694.3706542969	0.0043246569
696.2994616699	0.0044726208
698.2282690430	0.0053165462
700.1570764160	0.0060121780
702.0858837891	0.0058103250
704.0146911621	0.0053566098
705.9434985352	0.0048724357
707.8723059082	0.0040112874
709.8011132813	0.0034552175
711.7299206543	0.0026692199
713.6587280273	0.0013152661
715.5875354004	0.0008730612
717.5163427734	0.0004504755
719.4451501465	0.0004421748
721.3739575195	0.0003733059
723.3027648926	0.0001589328
725.2315722656	0.0005294802
727.1603796387	0.0004052546
729.0891870117	0.0007191880
731.0179943848	0.0006108901
732.9468017578	0.0004285588
734.8756091309	0.0006927568
736.8044165039	0.0004446491
738.7332238770	0.0004866379
740.6620312500	0.0006896154
742.5908386230	0.0007133406
744.5196459961	0.0008110566
746.4484533691	0.0007685819
748.3772607422	0.0005931468
750.3060681152	0.0006114164
752.2348754883	0.0005083753
754.1636828613	0.0006745656
756.0924902344	0.0006678024
758.0212976074	0.0007010833
759.9501049805	0.0008968291
761.8789123535	0.0006902378
763.8077197266	0.0009106656
765.7365270996	0.0008344661
767.6653344727	0.0006647137
769.5941418457	0.0005916844
771.5229492188	0.0007148542
773.4517565918	0.0009378963
775.3805639648	0.0006376521
777.3093713379	0.0008335309
779.2381787109	0.0007141129
781.1669860840	0.0006042310
783.0957934570	0.0008557818
785.0246008301	0.0008041310
786.9534082031	0.0006763520
788.8822155762	0.0005871657
790.8110229492	0.0008932746
792.7398303223	0.0007524531
794.6686376953	0.0006967475
796.5974450684	0.0008756958
798.5262524414	0.0009759161
800.4550598145	0.0011303918
802.3838671875	0.0008002449
804.3126745605	0.0007431592
806.2414819336	0.0008674922
808.1702893066	0.0007979064
810.0990966797	0.0007503632
812.0279040527	0.0007984249
813.9567114258	0.0005996380
815.8855187988	0.0005050731
817.8143261719	0.0006309318
819.7431335449	0.0007799533
821.6719409180	0.0011559494
823.6007482910	0.0008698530
825.5295556641	0.0007259243
827.4583630371	0.0006642884
829.3871704102	0.0008799768
831.3159777832	0.0012531150
833.2447851563	0.0008971072
835.1735925293	0.0014951902
837.1023999023	0.0017552918
839.0312072754	0.0014536069
840.9600146484	0.0014863421
842.8888220215	0.0014192826
844.8176293945	0.0014652172
846.7464367676	0.0012431520
848.6752441406	0.0011222161
850.6040515137	0.0009857317
852.5328588867	0.0013362798
854.4616662598	0.0014152841
856.3904736328	0.0010319763
858.3192810059	0.0012994035
860.2480883789	0.0009362993
862.1768957520	0.0004442358
864.1057031250	0.0006985162
866.0345104980	0.0008755614
867.9633178711	0.0005862242
869.8921252441	0.0006674915
871.8209326172	0.0009949954
873.7497399902	0.0009901213
875.6785473633	0.0008991236
877.6073547363	0.0005741610
879.5361621094	0.0004539213
881.4649694824	0.0007936464
883.3937768555	0.0009539684
885.3225842285	0.0006344466
887.2513916016	0.0006296793
889.1801989746	0.0008540699
891.1090063477	0.0009020617
893.0378137207	0.0008719687
894.9666210938	0.0006974499
896.8954284668	0.0008297267
898.8242358398	0.0008423208
900.7530432129	0.0007854295
902.6818505859	0.0007059159
904.6106579590	0.0006819541
906.5394653320	0.0008296944
908.4682727051	0.0007180625
910.3970800781	0.0010748012
912.3258874512	0.0010760729
914.2546948242	0.0010010585
916.1835021973	0.0012253051
918.1123095703	0.0009868816
920.0411169434	0.0013374570
921.9699243164	0.0015950289
923.8987316895	0.0017144884
925.8275390625	0.0017754866
927.7563464355	0.0016597784
929.6851538086	0.0019941900
931.6139611816	0.0019191953
933.5427685547	0.0020870045
935.4715759277	0.0025747302
937.4003833008	0.0024313601
939.3291906738	0.0025213575
941.2579980469	0.0027214843
943.1868054199	0.0026366243
945.1156127930	0.0029211484
947.0444201660	0.0029008877
948.9732275391	0.0028423462
950.9020349121	0.0029291078
952.8308422852	0.0027917747
954.7596496582	0.0028085033
956.6884570313	0.0025314866
958.6172644043	0.0025474308
960.5460717773	0.0026786600
962.4748791504	0.0029668235
964.4036865234	0.0029020135
966.3324938965	0.0026511736
968.2613012695	0.0034116150
970.1901086426	0.0032257838
972.1189160156	0.0032252343
974.0477233887	0.0036197158
975.9765307617	0.0035772417
977.9053381348	0.0040973406
979.8341455078	0.0043726731
981.7629528809	0.0049126800
983.6917602539	0.0052831508
985.6205676270	0.0058026621
987.5493750000	0.0067272661
989.4781823730	0.0073664617
991.4069897461	0.0082059093
993.3357971191	0.0088968771
995.2646044922	0.0097781215
997.1934118652	0.0106253950
999.1222192383	0.0111876791
1001.0510266113	0.0120801954
1002.9798339844	0.0132612232
1004.9086413574	0.0139208920
1006.8374487305	0.0146624856
1008.7662561035	0.0158638395
1010.6950634766	0.0166510157
1012.6238708496	0.0176282339
1014.5526782227	0.0184886567
1016.4814855957	0.0194788426
1018.4102929688	0.0205011033
1020.3391003418	0.0213165060
1022.2679077148	0.0223267283
1024.1967150879	0.0230249669
1026.1255224609	0.0242053978
1028.0543298340	0.0251279119
1029.9831372070	0.0256458391
1031.9119445801	0.0263050869
1033.8407519531	0.0268333890
1035.7695593262	0.0273948871
1037.6983666992	0.0276429951
1039.6271740723	0.0279030912
1041.5559814453	0.0275283717
1043.4847888184	0.0271553546
1045.4135961914	0.0272147954
1047.3424035645	0.0268380493
1049.2712109375	0.0266972706
1051.2000183105	0.0260847248
1053.1288256836	0.0251862723
1055.0576330566	0.0248338357
1056.9864404297	0.0243922174
1058.9152478027	0.0238452367
1060.8440551758	0.0231535994
1062.7728625488	0.0224303901
1064.7016699219	0.0217638351
1066.6304772949	0.0208667126
1068.5592846680	0.0201809388
1070.4880920410	0.0192421488
1072.4168994141	0.0180737637
1074.3457067871	0.0175650679
1076.2745141602	0.0166218728
1078.2033215332	0.0155509766
1080.1321289062	0.0150028775
1082.0609362793	0.0143318661
1083.9897436523	0.0137102325
1085.9185510254	0.0130983349
1087.8473583984	0.0126363104
1089.7761657715	0.0120883510
1091.7049731445	0.0113867335
1093.6337805176	0.0109782135
1095.5625878906	0.0107797738
1097.4913952637	0.0104485583
1099.4202026367	0.0099553224
1101.3490100098	0.0096224882
1103.2778173828	0.0095408559
1105.2066247559	0.0095261093
1107.1354321289	0.0091813998
1109.0642395019	0.0089944489
1110.9930468750	0.0088275690
1112.9218542480	0.0086495262
1114.8506616211	0.0086777359
1116.7794689941	0.0085451994
1118.7082763672	0.0088902321
1120.6370837402	0.0087323496
1122.5658911133	0.0085542351
1124.4946984863	0.0090199746
1126.4235058594	0.0090329768
1128.3523132324	0.0094652036
1130.2811206055	0.0095926002
1132.2099279785	0.0094378889
1134.1387353516	0.0098561887
1136.0675427246	0.0104508530
1137.9963500977	0.0111244349
1139.9251574707	0.0114593878
1141.8539648437	0.0123058269
1143.7827722168	0.0132986736
1145.7115795898	0.0139481518
1147.6403869629	0.0147444019
1149.5691943359	0.0154862665
1151.4980017090	0.0163576864
1153.4268090820	0.0169553980
1155.3556164551	0.0179631151
1157.2844238281	0.0189541653
1159.2132312012	0.0192440823
1161.1420385742	0.0201188531
1163.0708459473	0.0210046098
1164.9996533203	0.0217051245
1166.9284606934	0.0223377068
1168.8572680664	0.0231132582
1170.7860754394	0.0241809599
1172.7148828125	0.0248818118
1174.6436901855	0.0259350017
1176.5724975586	0.0270263441
1178.5013049316	0.0280430913
1180.4301123047	0.0292958245
1182.3589196777	0.0305087268
1184.2877270508	0.0317613184
1186.2165344238	0.0330302343
1188.1453417969	0.0346664637
1190.0741491699	0.0361146629
1192.0029565430	0.0376420319
1193.9317639160	0.0394528769
1195.8605712891	0.0412370488
1197.7893786621	0.0432808250
1199.7181860351	0.0450823382
1201.6469934082	0.0469897911
1203.5758007812	0.0490138158
1205.5046081543	0.0508021712
1207.4334155273	0.0526247099
1209.3622229004	0.0546493530
1211.2910302734	0.0562360585
1213.2198376465	0.0575559214
1215.1486450195	0.0591595024
1217.0774523926	0.0601320378
1219.0062597656	0.0613125414
1220.9350671387	0.0624869429
1222.8638745117	0.0630336404
1224.7926818848	0.0637505949
1226.7214892578	0.0642697960
1228.6502966308	0.0645475984
1230.5791040039	0.0647352189
1232.5079113769	0.0649446771
1234.4367187500	0.0650167614
1236.3655261230	0.0650739223
1238.2943334961	0.0648188964
1240.2231408691	0.0646114647
1242.1519482422	0.0644746721
1244.0807556152	0.0639867485
1246.0095629883	0.0640193522
1247.9383703613	0.0634846389
1249.8671777344	0.0629074499
1251.7959851074	0.0624223650
1253.7247924805	0.0616194904
1255.6535998535	0.0610972755
1257.5824072266	0.0600678623
1259.5112145996	0.0592462495
1261.4400219726	0.0584152229
1263.3688293457	0.0576644838
1265.2976367187	0.0569771901
1267.2264440918	0.0563328192
1269.1552514648	0.0556870215
1271.0840588379	0.0546080247
1273.0128662109	0.0537804365
1274.9416735840	0.0525521338
1276.8704809570	0.0517337024
1278.7992883301	0.0507130027
1280.7280957031	0.0496594459
1282.6569030762	0.0489916280
1284.5857104492	0.0478209257
1286.5145178223	0.0471243113
1288.4433251953	0.0460866578
1290.3721325683	0.0455724970
1292.3009399414	0.0450452678
1294.2297473144	0.0445016250
1296.1585546875	0.0445323437
1298.0873620605	0.0442655310
1300.0161694336	0.0445491448
1301.9449768066	0.0445447564
1303.8737841797	0.0450971946
1305.8025915527	0.0455021150
1307.7313989258	0.0460393578
1309.6602062988	0.0470612459
1311.5890136719	0.0473471731
1313.5178210449	0.0485825762
1315.4466284180	0.0497326329
1317.3754357910	0.0509414263
1319.3042431640	0.0522296429
1321.2330505371	0.0537936427
1323.1618579101	0.0555932447
1325.0906652832	0.0567432866
1327.0194726562	0.0586245805
1328.9482800293	0.0600668080
1330.8770874023	0.0616677031
1332.8058947754	0.0633182079
1334.7347021484	0.0643338189
1336.6635095215	0.0651366115
1338.5923168945	0.0646984354
1340.5211242676	0.0656747222
1342.4499316406	0.0679788738
1344.3787390137	0.0682391822
1346.3075463867	0.0681558549
1348.2363537597	0.0682621002
1350.1651611328	0.0676407367
1352.0939685058	0.0675714910
1354.0227758789	0.0666984171
1355.9515832519	0.0660798848
1357.8803906250	0.0660012588
1359.8091979980	0.0648387372
1361.7380053711	0.0626100898
1363.6668127441	0.0617025979
1365.5956201172	0.0642601103
1367.5244274902	0.0630608425
1369.4532348633	0.0618904941
1371.3820422363	0.0628089309
1373.3108496094	0.0602382272
1375.2396569824	0.0607607663
1377.1684643555	0.0617366731
1379.0972717285	0.0616597161
1381.0260791015	0.0615224838
1382.9548864746	0.0611838773
1384.8836938476	0.0615775324
1386.8125012207	0.0591733456
1388.7413085937	0.0601654574
1390.6701159668	0.0639534816
1392.5989233398	0.0627404600
1394.5277307129	0.0597301647
1396.4565380859	0.0618333891
1398.3853454590	0.0620599203
1400.3141528320	0.0616231114
1402.2429602051	0.0656667650
1404.1717675781	0.0629088953
1406.1005749512	0.0630701929
1408.0293823242	0.0647113770
1409.9581896972	0.0629458800
1411.8869970703	0.0642886907
1413.8158044433	0.0620148256
1415.7446118164	0.0628095269
1417.6734191894	0.0577930436
1419.6022265625	0.0526212454
1421.5310339355	0.0584324077
1423.4598413086	0.0569195487
1425.3886486816	0.0552209839
1427.3174560547	0.0554133430
1429.2462634277	0.0518107526
1431.1750708008	0.0502080992
1433.1038781738	0.0507575721
1435.0326855469	0.0467286333
1436.9614929199	0.0405324660
1438.8903002929	0.0445298031
1440.8191076660	0.0452978238
1442.7479150390	0.0422574766
1444.6767224121	0.0436606370
1446.6055297851	0.0409285165
1448.5343371582	0.0412658267
1450.4631445312	0.0426591858
1452.3919519043	0.0433762968
1454.3207592773	0.0450525247
1456.2495666504	0.0390175879
1458.1783740234	0.0403822064
1460.1071813965	0.0515755750
1462.0359887695	0.0546823591
1463.9647961426	0.0550842620
1465.8936035156	0.0575013086
1467.8224108886	0.0645210519
1469.7512182617	0.0693242475
1471.6800256347	0.0637153387
1473.6088330078	0.0671368539
1475.5376403808	0.0754765421
1477.4664477539	0.0808023214
1479.3952551269	0.0877324641
1481.3240625000	0.0898339972
1483.2528698730	0.0948331729
1485.1816772461	0.0979364514
1487.1104846191	0.0976731926
1489.0392919922	0.0979786515
1490.9680993652	0.0990563929
1492.8969067383	0.1119217053
1494.8257141113	0.1105564684
1496.7545214843	0.1016708836
1498.6833288574	0.1129766926
1500.6121362304	0.1163388640
1502.5409436035	0.1229595989
1504.4697509765	0.1185289472
1506.3985583496	0.0920779034
1508.3273657226	0.1079672426
1510.2561730957	0.1234181225
1512.1849804687	0.1198151559
1514.1137878418	0.1283687204
1516.0425952148	0.1181375757
1517.9714025879	0.1225792021
1519.9002099609	0.1188335344
1521.8290173340	0.1060147732
1523.7578247070	0.1247627586
1525.6866320801	0.1229885891
1527.6154394531	0.1226779595
1529.5442468261	0.1325636208
1531.4730541992	0.1288985759
1533.4018615722	0.1203382239
1535.3306689453	0.1254763603
1537.2594763183	0.1325810105
1539.1882836914	0.1013326496
1541.1170910644	0.1046545804
1543.0458984375	0.1214018911
1544.9747058105	0.1173305213
1546.9035131836	0.1340746582
1548.8323205566	0.1270190775
1550.7611279297	0.1301031113
1552.6899353027	0.1292425990
1554.6187426758	0.1194169745
1556.5475500488	0.1263690293
1558.4763574218	0.0959357768
1560.4051647949	0.1004601270
1562.3339721679	0.1338526458
1564.2627795410	0.1282654107
1566.1915869140	0.1303840578
1568.1203942871	0.1294878721
1570.0492016601	0.1173564047
1571.9780090332	0.1310472041
1573.9068164062	0.1324566603
1575.8356237793	0.1093539819
1577.7644311523	0.1202354729
1579.6932385254	0.1328349710
1581.6220458984	0.1275045276
1583.5508532715	0.1304192990
1585.4796606445	0.1283548772
1587.4084680175	0.1287772954
1589.3372753906	0.1277614236
1591.2660827636	0.1270902753
1593.1948901367	0.1270133555
1595.1236975097	0.1251178831
1597.0525048828	0.1262316108
1598.9813122558	0.1251492649
1600.9101196289	0.1253836453
1602.8389270019	0.1229490787
1604.7677343750	0.1239631176
1606.6965417480	0.1221611798
1608.6253491211	0.1211772934
1610.5541564941	0.1205236912
1612.4829638672	0.1202898026
1614.4117712402	0.1212013215
1616.3405786132	0.1023017317
1618.2693859863	0.1084720343
1620.1981933593	0.1225963235
1622.1270007324	0.1106746793
1624.0558081054	0.1107453629
1625.9846154785	0.1142042428
1627.9134228515	0.1136178225
1629.8422302246	0.1123498976
1631.7710375976	0.1181580275
1633.6998449707	0.1107672900
1635.6286523437	0.0945903212
1637.5574597168	0.1069029570
1639.4862670898	0.1153685078
1641.4150744629	0.1132443845
1643.3438818359	0.1157457978
1645.2726892090	0.1067577824
1647.2014965820	0.0965315029
1649.1303039550	0.1152143553
1651.0591113281	0.1107237786
1652.9879187011	0.0777372047
1654.9167260742	0.0994707868
1656.8455334472	0.1205967069
1658.7743408203	0.1163769960
1660.7031481933	0.1199294478
1662.6319555664	0.1114321426
1664.5607629394	0.1166805029
1666.4895703125	0.1242127120
1668.4183776855	0.1122174263
1670.3471850586	0.1100163087
1672.2759924316	0.1222680435
1674.2047998047	0.1151880771
1676.1336071777	0.1114852428
1678.0624145507	0.1257396340
1679.9912219238	0.1224345118
1681.9200292968	0.1222325563
1683.8488366699	0.1036912948
1685.7776440429	0.1023262292
1687.7064514160	0.1336252987
1689.6352587890	0.1194763035
1691.5640661621	0.1290908307
1693.4928735351	0.1322118789
1695.4216809082	0.1023191810
1697.3504882812	0.1215596125
1699.2792956543	0.1110188589
1701.2081030273	0.1016654819
1703.1369104004	0.1308767051
1705.0657177734	0.1226665527
1706.9945251464	0.1233345717
1708.9233325195	0.1325515211
1710.8521398925	0.1281842440
1712.7809472656	0.1305990070
1714.7097546386	0.1233975515
1716.6385620117	0.1127077565
1718.5673693847	0.1113091484
1720.4961767578	0.1279394925
1722.4249841308	0.1319918633
1724.3537915039	0.1244070679
1726.2825988769	0.1332539022
1728.2114062500	0.1249388829
1730.1402136230	0.1259868741
1732.0690209961	0.1232296675
1733.9978283691	0.0991581827
1735.9266357421	0.1176646277
1737.8554431152	0.1282738149
1739.7842504882	0.1166512966
1741.7130578613	0.1252327561
1743.6418652343	0.1273521781
1745.5706726074	0.1275554597
1747.4994799804	0.1291332692
1749.4282873535	0.1247860044
1751.3570947265	0.1201946884
1753.2859020996	0.1305320263
1755.2147094726	0.1358452588
1757.1435168457	0.1262456626
1759.0723242187	0.1360683143
1761.0011315918	0.1300005019
1762.9299389648	0.1261087954
1764.8587463379	0.1406886578
1766.7875537109	0.1293465346
1768.7163610839	0.1300835460
1770.6451684570	0.1300294995
1772.5739758300	0.1191335097
1774.5027832031	0.1298371553
1776.4315905761	0.1359191537
1778.3603979492	0.1343219727
1780.2892053222	0.1331772506
1782.2180126953	0.1339464784
1784.1468200683	0.1339188218
1786.0756274414	0.1316219866
1788.0044348144	0.1371249259
1789.9332421875	0.1346772611
1791.8620495605	0.1241291836
1793.7908569336	0.1283470541
1795.7196643066	0.1360734701
1797.6484716796	0.1344349980
1799.5772790527	0.1328470111
1801.5060864257	0.1310108304
1803.4348937988	0.1341404617
1805.3637011718	0.1367229223
1807.2925085449	0.1352598965
1809.2213159179	0.1356959641
1811.1501232910	0.1328038871
1813.0789306640	0.1360087097
1815.0077380371	0.1365378946
1816.9365454101	0.1352950484
1818.8653527832	0.1363700628
1820.7941601562	0.1356610954
1822.7229675293	0.1374277622
1824.6517749023	0.1303442121
1826.5805822753	0.1337028295
1828.5093896484	0.1341276765
1830.4381970214	0.1275232434
1832.3670043945	0.1361865699
1834.2958117675	0.1354953945
1836.2246191406	0.1354032308
1838.1534265136	0.1348787695
1840.0822338867	0.1354515254
1842.0110412597	0.1357740909
1843.9398486328	0.1233298779
1845.8686560058	0.1295957267
1847.7974633789	0.1353645623
1849.7262707519	0.1327960491
1851.6550781250	0.1361782402
1853.5838854980	0.1339792907
1855.5126928710	0.1346599460
1857.4415002441	0.1341627687
1859.3703076171	0.1334054172
1861.2991149902	0.1340417117
1863.2279223632	0.1329287589
1865.1567297363	0.1341758966
1867.0855371093	0.1305953562
1869.0143444824	0.1261362731
1870.9431518554	0.1300101280
1872.8719592285	0.1337227821
1874.8007666015	0.1320526153
1876.7295739746	0.1325395405
1878.6583813476	0.1321209073
1880.5871887207	0.1316704452
1882.5159960937	0.1324128211
1884.4448034667	0.1306145191
1886.3736108398	0.1320092976
1888.3024182128	0.1297874004
1890.2312255859	0.1276118457
1892.1600329589	0.1312260777
1894.0888403320	0.1298631132
1896.0176477050	0.1291953772
1897.9464550781	0.1304367632
1899.8752624511	0.1298430860
1901.8040698242	0.1300495863
1903.7328771972	0.1294341236
1905.6616845703	0.1297059655
1907.5904919433	0.1285363436
1909.5192993164	0.1279583275
1911.4481066894	0.1286919266
1913.3769140625	0.1285095066
1915.3057214355	0.1294998229
1917.2345288085	0.1249314994
1919.1633361816	0.1248134747
1921.0921435546	0.1285707355
1923.0209509277	0.1253238320
1924.9497583007	0.1273960918
1926.8785656738	0.1282965243
1928.8073730468	0.1271306574
1930.7361804199	0.1282315999
1932.6649877929	0.1267724037
1934.5937951660	0.1278844625
1936.5226025390	0.1270661801
1938.4514099121	0.1273344159
1940.3802172851	0.1272529662
1942.3090246582	0.1240304187
1944.2378320312	0.1256285310
1946.1666394042	0.1264947653
1948.0954467773	0.1262799501
1950.0242541503	0.1267921627
1951.9530615234	0.1264699996
1953.8818688964	0.1263701618
1955.8106762695	0.1259326190
1957.7394836425	0.1261305660
1959.6682910156	0.1260600388
1961.5970983886	0.1257329583
1963.5259057617	0.1259773076
1965.4547131347	0.1252814680
1967.3835205078	0.1241963431
1969.3123278808	0.1252373159
1971.2411352539	0.1256134808
1973.1699426269	0.1250294149
1975.0987499999	0.1253556758
1977.0275573730	0.1246422678
1978.9563647460	0.1248315424
1980.8851721191	0.1247037575
1982.8139794921	0.1241896749
1984.7427868652	0.1244964302
1986.6715942382	0.1237104833
1988.6004016113	0.1237964630
1990.5292089843	0.1228395253
1992.4580163574	0.1215497553
1994.3868237304	0.1230004057
1996.3156311035	0.1231991351
1998.2444384765	0.1224689260
2000.1732458496	0.1225473732
2002.1020532226	0.1220790520
2004.0308605956	0.1220602095
2005.9596679687	0.1217126921
2007.8884753417	0.1212762296
2009.8172827148	0.1213347465
2011.7460900878	0.1208162308
2013.6748974609	0.1208825409
2015.6037048339	0.1201031953
2017.5325122070	0.1192725301
2019.4613195800	0.1198491454
2021.3901269531	0.1196017414
2023.3189343261	0.1193018109
2025.2477416992	0.1190745234
2027.1765490722	0.1188317388
2029.1053564453	0.1187056452
2031.0341638183	0.1181438565
2032.9629711914	0.1180819571
2034.8917785644	0.1179275215
2036.8205859374	0.1174928546
2038.7493933105	0.1173196137
2040.6782006835	0.1167493463
2042.6070080566	0.1164072230
2044.5358154296	0.1164550483
2046.4646228027	0.1161286682
2048.3934301757	0.1160356700
2050.3222375488	0.1158557534
2052.2510449218	0.1155730635
2054.1798522949	0.1153431460
2056.1086596679	0.1149832755
2058.0374670410	0.1148361415
2059.9662744140	0.1144142523
2061.8950817871	0.1143519282
2063.8238891601	0.1140162498
2065.7526965331	0.1133866459
2067.6815039062	0.1134865135
2069.6103112792	0.1133373082
2071.5391186523	0.1131450385
2073.4679260253	0.1129018813
2075.3967333984	0.1126704663
2077.3255407714	0.1124458909
2079.2543481445	0.1121354699
2081.1831555175	0.1120375171
2083.1119628906	0.1118022054
2085.0407702636	0.1116418839
2086.9695776367	0.1113784909
2088.8983850097	0.1110756993
2090.8271923828	0.1109093726
2092.7559997558	0.1108117551
2094.6848071288	0.1106480658
2096.6136145019	0.1104260087
2098.5424218749	0.1102086306
2100.4712292480	0.1099846214
2102.4000366210	0.1099417061
2104.3288439941	0.1096224785
2106.2576513671	0.1093738154
2108.1864587402	0.1092596874
2110.1152661132	0.1090914458
2112.0440734863	0.1088315696
2113.9728808593	0.1084628478
2115.9016882324	0.1084636226
2117.8304956054	0.1084015593
2119.7593029785	0.1082024127
2121.6881103515	0.1079114974
2123.6169177245	0.1077648997
2125.5457250976	0.1077109873
2127.4745324706	0.1075754315
2129.4033398437	0.1074787974
2131.3321472167	0.1072443724
2133.2609545898	0.1070862785
2135.1897619628	0.1068897247
2137.1185693359	0.1068965495
2139.0473767089	0.1065954715
2140.9761840820	0.1063857526
2142.9049914550	0.1065592244
2144.8337988281	0.1062230915
2146.7626062011	0.1061929315
2148.6914135742	0.1060540825
2150.6202209472	0.1057672799
2152.5490283203	0.1056928933
2154.4778356933	0.1054895222
2156.4066430663	0.1054742336
2158.3354504394	0.1053566039
2160.2642578124	0.1051360145
2162.1930651855	0.1051047519
2164.1218725585	0.1050392240
2166.0506799316	0.1048369408
2167.9794873046	0.1048509479
2169.9082946777	0.1046280190
2171.8371020507	0.1044556946
2173.7659094238	0.1044428945
2175.6947167968	0.1041929871
2177.6235241699	0.1042347848
2179.5523315429	0.1040753499
2181.4811389160	0.1039176285
2183.4099462890	0.1038240269
2185.3387536620	0.1036963165
2187.2675610351	0.1035832316
2189.1963684081	0.1034666151
2191.1251757812	0.1034795940
2193.0539831542	0.1031438857
2194.9827905273	0.1030757055
2196.9115979003	0.1030804813
2198.8404052734	0.1029166207
2200.7692126464	0.1025869250
2202.6980200195	0.1024512202
2204.6268273925	0.1025730669
2206.5556347656	0.1023389250
2208.4844421386	0.1024066955
2210.4132495117	0.1021596789
2212.3420568847	0.1020835638
2214.2708642577	0.1020382270
2216.1996716308	0.1016814709
2218.1284790038	0.1017968059
2220.0572863769	0.1015974134
2221.9860937499	0.1014893949
2223.9149011230	0.1013139263
2225.8437084960	0.1012062952
2227.7725158691	0.1010612771
2229.7013232421	0.1007926762
2231.6301306152	0.1008736193
2233.5589379882	0.1006576866
2235.4877453613	0.1005500406
2237.4165527343	0.1003489494
2239.3453601074	0.1002171487
2241.2741674804	0.1001159698
2243.2029748534	0.0999350995
2245.1317822265	0.0998336226
2247.0605895995	0.0995831490
2248.9893969726	0.0994732827
2250.9182043456	0.0991861746
2252.8470117187	0.0991725773
2254.7758190917	0.0990253091
2256.7046264648	0.0988536626
2258.6334338378	0.0988435000
2260.5622412109	0.0985689610
2262.4910485839	0.0986327901
2264.4198559570	0.0983689576
2266.3486633300	0.0981168002
2268.2774707031	0.0981472358
2270.2062780761	0.0981229171
2272.1350854491	0.0979989618
2274.0638928222	0.0977923870
2275.9927001952	0.0978277326
2277.9215075683	0.0977439880
2279.8503149413	0.0976084992
2281.7791223144	0.0974385589
2283.7079296874	0.0973428041
2285.6367370605	0.0972062945
2287.5655444335	0.0969967991
2289.4943518066	0.0966705084
2291.4231591796	0.0963881686
2293.3519665527	0.0962448418
2295.2807739257	0.0958007127
2297.2095812988	0.0956490785
2299.1383886718	0.0952233225
2301.0671960449	0.0947840139
2302.9960034179	0.0944243819
2304.9248107909	0.0937632769
2306.8536181640	0.0934631675
2308.7824255370	0.0927093178
2310.7112329101	0.0919343531
2312.6400402831	0.0910455883
2314.5688476562	0.0900592133
2316.4976550292	0.0891133100
2318.4264624023	0.0876628458
2320.3552697753	0.0866403356
2322.2840771484	0.0853486881
2324.2128845214	0.0840737373
2326.1416918945	0.0833237916
2328.0704992675	0.0822714418
2329.9993066406	0.0812255740
2331.9281140136	0.0805315673
2333.8569213866	0.0802401751
2335.7857287597	0.0799255669
2337.7145361327	0.0797975957
2339.6433435058	0.0796813741
2341.5721508788	0.0799170211
2343.5009582519	0.0810970291
2345.4297656249	0.0825842470
2347.3585729980	0.0862244070
2349.2873803710	0.0891905576
2351.2161877441	0.0861581862
2353.1449951171	0.0815647840
2355.0738024902	0.0785433650
2357.0026098632	0.0758434385
2358.9314172363	0.0744398683
2360.8602246093	0.0736051798
2362.7890319823	0.0733706355
2364.7178393554	0.0738786012
2366.6466467284	0.0748575777
2368.5754541015	0.0765411109
2370.5042614745	0.0783967525
2372.4330688476	0.0807595327
2374.3618762206	0.0830748975
2376.2906835937	0.0853130817
2378.2194909667	0.0873617977
2380.1482983398	0.0888019130
2382.0771057128	0.0899694711
2384.0059130859	0.0905144364
2385.9347204589	0.0908419490
2387.8635278320	0.0908705443
2389.7923352050	0.0908213258
2391.7211425780	0.0909137204
2393.6499499511	0.0907665342
2395.5787573241	0.0906815380
2397.5075646972	0.0904798210
2399.4363720702	0.0902379155
2401.3651794433	0.0902111083
2403.2939868163	0.0901734084
2405.2227941894	0.0899515003
2407.1516015624	0.0898793042
2409.0804089355	0.0897860304
2411.0092163085	0.0896773040
2412.9380236816	0.0895677581
2414.8668310546	0.0893878192
2416.7956384277	0.0895060971
2418.7244458007	0.0891434401
2420.6532531738	0.0889785141
2422.5820605468	0.0891444832
2424.5108679198	0.0888070762
2426.4396752929	0.0886666477
2428.3684826659	0.0885942280
2430.2972900390	0.0885484070
2432.2260974120	0.0884613991
2434.1549047851	0.0882995948
2436.0837121581	0.0881193057
2438.0125195312	0.0880171955
2439.9413269042	0.0880156234
2441.8701342773	0.0878272802
2443.7989416503	0.0877404362
2445.7277490234	0.0875421613
2447.6565563964	0.0874618813
2449.5853637695	0.0874141604
2451.5141711425	0.0872137696
2453.4429785155	0.0871513113
2455.3717858886	0.0870068967
2457.3005932616	0.0869267359
2459.2294006347	0.0868409127
2461.1582080077	0.0867772549
2463.0870153808	0.0865951404
2465.0158227538	0.0864472389
2466.9446301269	0.0864738449
2468.8734374999	0.0862874016
2470.8022448730	0.0861567780
2472.7310522460	0.0860520601
2474.6598596191	0.0859289914
2476.5886669921	0.0858054310
2478.5174743652	0.0856360942
2480.4462817382	0.0855475664
2482.3750891112	0.0854703933
2484.3038964843	0.0854032934
2486.2327038573	0.0852954835
2488.1615112304	0.0850315839
2490.0903186034	0.0849590302
2492.0191259765	0.0850036517
2493.9479333495	0.0847120807
2495.8767407226	0.0845449120
2497.8055480956	0.0845052153
2499.7343554687	0.0845097303
2501.6631628417	0.0843954086
2503.5919702148	0.0841939449
2505.5207775878	0.0842263252
2507.4495849609	0.0839432627
2509.3783923339	0.0838734657
2511.3071997069	0.0837927461
2513.2360070800	0.0835135430
2515.1648144530	0.0835922137
2517.0936218261	0.0834477246
2519.0224291991	0.0833682120
2520.9512365722	0.0832978711
2522.8800439452	0.0831232443
2524.8088513183	0.0830376297
2526.7376586913	0.0828849599
2528.6664660644	0.0828622878
2530.5952734374	0.0828225464
2532.5240808105	0.0826499164
2534.4528881835	0.0824966654
2536.3816955566	0.0823254585
2538.3105029296	0.0821249336
2540.2393103027	0.0821826756
2542.1681176757	0.0820983797
2544.0969250487	0.0819305927
2546.0257324218	0.0819487348
2547.9545397948	0.0817636847
2549.8833471679	0.0816795230
2551.8121545409	0.0815350860
2553.7409619140	0.0813885704
2555.6697692870	0.0813854039
2557.5985766601	0.0811818093
2559.5273840331	0.0809959471
2561.4561914062	0.0809773952
2563.3849987792	0.0809240192
2565.3138061523	0.0807310492
2567.2426135253	0.0806229711
2569.1714208984	0.0805825293
2571.1002282714	0.0805031359
2573.0290356444	0.0802227408
2574.9578430175	0.0801357031
2576.8866503905	0.0802167803
2578.8154577636	0.0799791366
2580.7442651366	0.0799053460
2582.6730725097	0.0798013434
2584.6018798827	0.0796921402
2586.5306872558	0.0795589909
2588.4594946288	0.0793275461
2590.3883020019	0.0793504417
2592.3171093749	0.0792252570
2594.2459167480	0.0790570825
2596.1747241210	0.0789859295
2598.1035314941	0.0788912922
2600.0323388671	0.0787349343
2601.9611462401	0.0786630139
2603.8899536132	0.0785748512
2605.8187609862	0.0784261376
2607.7475683593	0.0783894211
2609.6763757323	0.0781276077
2611.6051831054	0.0780765638
2613.5339904784	0.0781268775
2615.4627978515	0.0779326409
2617.3916052245	0.0777710676
2619.3204125976	0.0775512904
2621.2492199706	0.0774447173
2623.1780273437	0.0774170011
2625.1068347167	0.0773077086
2627.0356420898	0.0773038343
2628.9644494628	0.0773282200
2630.8932568358	0.0770275444
2632.8220642089	0.0769429132
2634.7508715819	0.0769537389
2636.6796789550	0.0766439736
2638.6084863280	0.0766018480
2640.5372937011	0.0765083283
2642.4661010741	0.0763717815
2644.3949084472	0.0762473792
2646.3237158202	0.0761163309
2648.2525231933	0.0760704875
2650.1813305663	0.0758830160
2652.1101379394	0.0758779049
2654.0389453124	0.0757306963
2655.9677526855	0.0755253136
2657.8965600585	0.0755083859
2659.8253674315	0.0753868893
2661.7541748046	0.0752557367
2663.6829821776	0.0751002133
2665.6117895507	0.0749638677
2667.5405969237	0.0749216303
2669.4694042968	0.0748533607
2671.3982116698	0.0746750608
2673.3270190429	0.0746286809
2675.2558264159	0.0744386613
2677.1846337890	0.0742247105
2679.1134411620	0.0743237138
2681.0422485351	0.0741046071
2682.9710559081	0.0739353299
2684.8998632812	0.0740243495
2686.8286706542	0.0738672316
2688.7574780273	0.0737091526
2690.6862854003	0.0736427680
2692.6150927733	0.0734900162
2694.5439001464	0.0733275563
2696.4727075194	0.0732736811
2698.4015148925	0.0731842369
2700.3303222655	0.0729998946
2702.2591296386	0.0728955045
2704.1879370116	0.0727932751
2706.1167443847	0.0727224424
2708.0455517577	0.0726897493
2709.9743591308	0.0724541545
2711.9031665038	0.0723750666
2713.8319738769	0.0722572207
2715.7607812499	0.0720826089
2717.6895886230	0.0722104236
2719.6183959960	0.0719713792
2721.5472033690	0.0717533231
2723.4760107421	0.0716971755
2725.4048181151	0.0715575665
2727.3336254882	0.0714988410
2729.2624328612	0.0712928101
2731.1912402343	0.0712369159
2733.1200476073	0.0711027533
2735.0488549804	0.0710416436
2736.9776623534	0.0709954798
2738.9064697265	0.0707066804
2740.8352770995	0.0706832930
2742.7640844726	0.0705581307
2744.6928918456	0.0703932345
2746.6216992187	0.0703117102
2748.5505065917	0.0701212287
2750.4793139647	0.0700125098
2752.4081213378	0.0699013323
2754.3369287108	0.0697310641
2756.2657360839	0.0696731359
2758.1945434569	0.0695550889
2760.1233508300	0.0693086684
2762.0521582030	0.0693118349
2763.9809655761	0.0691793784
2765.9097729491	0.0690237433
2767.8385803222	0.0689574853
2769.7673876952	0.0686891675
2771.6961950683	0.0687167123
2773.6250024413	0.0686517954
2775.5538098144	0.0684280396
2777.4826171874	0.0683711469
2779.4114245604	0.0681563094
2781.3402319335	0.0680595264
2783.2690393065	0.0680451393
2785.1978466796	0.0677720308
2787.1266540526	0.0676076859
2789.0554614257	0.0675667524
2790.9842687987	0.0673605800
2792.9130761718	0.0672256947
2794.8418835448	0.0671144873
2796.7706909179	0.0669332147
2798.6994982909	0.0668013468
2800.6283056640	0.0666965023
2802.5571130370	0.0665565133
2804.4859204101	0.0663901120
2806.4147277831	0.0663065687
2808.3435351562	0.0661774129
2810.2723425292	0.0660451651
2812.2011499022	0.0659526363
2814.1299572753	0.0657543391
2816.0587646483	0.0655882806
2817.9875720214	0.0655195266
2819.9163793944	0.0653404742
2821.8451867675	0.0651901215
2823.7739941405	0.0651065856
2825.7028015136	0.0649149716
2827.6316088866	0.0648658425
2829.5604162597	0.0647023916
2831.4892236327	0.0644731373
2833.4180310058	0.0643922240
2835.3468383788	0.0641990602
2837.2756457519	0.0640094057
2839.2044531249	0.0637864769
2841.1332604979	0.0635598898
2843.0620678710	0.0632932037
2844.9908752440	0.0630406141
2846.9196826171	0.0626648143
2848.8484899901	0.0621345565
2850.7772973632	0.0619575307
2852.7061047362	0.0619440675
2854.6349121093	0.0618165433
2856.5637194823	0.0616890974
2858.4925268554	0.0616613701
2860.4213342284	0.0615860224
2862.3501416015	0.0616541803
2864.2789489745	0.0615755543
2866.2077563476	0.0612413958
2868.1365637206	0.0612283871
2870.0653710936	0.0611022487
2871.9941784667	0.0609957837
2873.9229858397	0.0609118566
2875.8517932128	0.0607404560
2877.7806005858	0.0606154315
2879.7094079589	0.0604649782
2881.6382153319	0.0604037382
2883.5670227050	0.0602596700
2885.4958300780	0.0602625608
2887.4246374511	0.0600341633
2889.3534448241	0.0599221624
2891.2822521972	0.0598764941
2893.2110595702	0.0595125817
2895.1398669433	0.0594490767
2897.0686743163	0.0592132732
2898.9974816893	0.0591494925
2900.9262890624	0.0590038151
2902.8550964354	0.0586426482
2904.7839038085	0.0584492236
2906.7127111815	0.0581970625
2908.6415185546	0.0580690913
2910.5703259276	0.0577116907
2912.4991333007	0.0574575886
2914.4279406737	0.0570772961
2916.3567480468	0.0568122491
2918.2855554198	0.0566765890
2920.2143627929	0.0562973209
2922.1431701659	0.0564078242
2924.0719775390	0.0563281253
2926.0007849120	0.0562110320
2927.9295922851	0.0561781004
2929.8583996581	0.0560058951
2931.7872070311	0.0560167283
2933.7160144042	0.0560729727
2935.6448217772	0.0560042784
2937.5736291503	0.0558260046
2939.5024365233	0.0559447929
2941.4312438964	0.0558053777
2943.3600512694	0.0557507575
2945.2888586425	0.0557537451
2947.2176660155	0.0555066615
2949.1464733886	0.0555070415
2951.0752807616	0.0552240349
2953.0040881347	0.0550376400
2954.9328955077	0.0548599288
2956.8617028808	0.0546541139
2958.7905102538	0.0545810834
2960.7193176268	0.0543430746
2962.6481249999	0.0541889220
2964.5769323729	0.0540343896
2966.5057397460	0.0539901778
2968.4345471190	0.0538942032
2970.3633544921	0.0538808778
2972.2921618651	0.0538785309
2974.2209692382	0.0538557954
2976.1497766112	0.0538921319
2978.0785839843	0.0537266843
2980.0073913573	0.0537643507
2981.9361987304	0.0537411682
2983.8650061034	0.0536580458
2985.7938134765	0.0534987561
2987.7226208495	0.0532550365
2989.6514282225	0.0532842800
2991.5802355956	0.0531654656
2993.5090429686	0.0529676303
2995.4378503417	0.0529028624
2997.3666577147	0.0527836159
2999.2954650878	0.0525965765
3001.2242724608	0.0524766669
3003.1530798339	0.0522215590
3005.0818872069	0.0520199910
3007.0106945800	0.0519434251
3008.9395019530	0.0517066345
3010.8683093261	0.0515971854
3012.7971166991	0.0514222234
3014.7259240722	0.0511755720
3016.6547314452	0.0510431379
3018.5835388182	0.0509564616
3020.5123461913	0.0508189648
3022.4411535643	0.0506902337
3024.3699609374	0.0505347103
3026.2987683104	0.0502660498
3028.2275756835	0.0501727387
3030.1563830565	0.0499130785
3032.0851904296	0.0497271642
3034.0139978026	0.0495617241
3035.9428051757	0.0492881238
3037.8716125487	0.0492975563
3039.8004199218	0.0490528867
3041.7292272948	0.0488837585
3043.6580346679	0.0487169996
3045.5868420409	0.0484342240
3047.5156494139	0.0483741015
3049.4444567870	0.0480986908
3051.3732641600	0.0479386002
3053.3020715331	0.0479552597
3055.2308789061	0.0476670191
3057.1596862792	0.0473428592
3059.0884936522	0.0472983532
3061.0173010253	0.0471078157
3062.9461083983	0.0468349382
3064.8749157714	0.0467049703
3066.8037231444	0.0464743450
3068.7325305175	0.0463008359
3070.6613378905	0.0460921526
3072.5901452636	0.0459546447
3074.5189526366	0.0459217131
3076.4477600097	0.0456708446
3078.3765673827	0.0453441888
3080.3053747557	0.0451826826
3082.2341821288	0.0451056324
3084.1629895018	0.0449175686
3086.0917968749	0.0446958430
3088.0206042479	0.0444286056
3089.9494116210	0.0442451984
3091.8782189940	0.0441487730
3093.8070263671	0.0438870415
3095.7358337401	0.0435700975
3097.6646411132	0.0434236601
3099.5934484862	0.0433099605
3101.5222558593	0.0429479331
3103.4510632323	0.0427287221
3105.3798706054	0.0426398069
3107.3086779784	0.0423710346
3109.2374853514	0.0422262028
3111.1662927245	0.0419994295
3113.0951000975	0.0416973233
3115.0239074706	0.0416016541
3116.9527148436	0.0413126796
3118.8815222167	0.0409916714
3120.8103295897	0.0408113524
3122.7391369628	0.0405496247
3124.6679443358	0.0404186286
3126.5967517089	0.0401798263
3128.5255590819	0.0399134085
3130.4543664550	0.0397656038
3132.3831738280	0.0394351110
3134.3119812011	0.0392408557
3136.2407885741	0.0391770974
3138.1695959471	0.0389091745
3140.0984033202	0.0385515429
3142.0272106932	0.0383532047
3143.9560180663	0.0381663106
3145.8848254393	0.0379715487
3147.8136328124	0.0377918258
3149.7424401854	0.0375177078
3151.6712475585	0.0372462273
3153.6000549315	0.0369255543
3155.5288623046	0.0367075466
3157.4576696776	0.0364578888
3159.3864770507	0.0363442600
3161.3152844237	0.0361843482
3163.2440917968	0.0357900932
3165.1728991698	0.0357452445
3167.1017065428	0.0354915373
3169.0305139159	0.0352028012
3170.9593212889	0.0350384898
3172.8881286620	0.0347751491
3174.8169360350	0.0346572325
3176.7457434081	0.0343772471
3178.6745507811	0.0341905951
3180.6033581542	0.0340111330
3182.5321655272	0.0337426513
3184.4609729003	0.0335004441
3186.3897802733	0.0332438573
3188.3185876464	0.0330901183
3190.2473950194	0.0330441855
3192.1762023925	0.0328545757
3194.1050097655	0.0325057581
3196.0338171386	0.0324118733
3197.9626245116	0.0321186334
3199.8914318846	0.0320107825
3201.8202392577	0.0320090577
3203.7490466307	0.0316575468
3205.6778540038	0.0315768681
3207.6066613768	0.0313749053
3209.5354687499	0.0312432591
3211.4642761229	0.0311136357
3213.3930834960	0.0308965836
3215.3218908690	0.0308257695
3217.2506982421	0.0306266323
3219.1795056151	0.0304994322
3221.1083129882	0.0303306803
3223.0371203612	0.0302098691
3224.9659277343	0.0301490240
3226.8947351073	0.0301407352
3228.8235424803	0.0299132392
3230.7523498534	0.0296848547
3232.6811572264	0.0297061671
3234.6099645995	0.0294715054
3236.5387719725	0.0294354446
3238.4675793456	0.0293270256
3240.3963867186	0.0291699432
3242.3251940917	0.0291820597
3244.2540014647	0.0290287621
3246.1828088378	0.0289605614
3248.1116162108	0.0288870819
3250.0404235839	0.0288311355
3251.9692309569	0.0288079567
3253.8980383300	0.0288073774
3255.8268457030	0.0286745243
3257.7556530760	0.0286127385
3259.6844604491	0.0285501704
3261.6132678221	0.0283706374
3263.5420751952	0.0284061022
3265.4708825682	0.0282686967
3267.3996899413	0.0282321200
3269.3284973143	0.0281408690
3271.2573046874	0.0280214883
3273.1861120604	0.0281187799
3275.1149194335	0.0280441176
3277.0437268065	0.0279741343
3278.9725341796	0.0277718455
3280.9013415526	0.0277589709
3282.8301489257	0.0278002471
3284.7589562987	0.0277205743
3286.6877636717	0.0277121477
3288.6165710448	0.0275754035
3290.5453784178	0.0275755394
3292.4741857909	0.0275394395
3294.4029931639	0.0274601765
3296.3318005370	0.0273613706
3298.2606079100	0.0273094662
3300.1894152831	0.0273074098
3302.1182226561	0.0271500163
3304.0470300292	0.0271298047
3305.9758374022	0.0270954408
3307.9046447753	0.0269980412
3309.8334521483	0.0269149803
3311.7622595214	0.0269099958
3313.6910668944	0.0269266795
3315.6198742675	0.0268162191
3317.5486816405	0.0268297046
3319.4774890135	0.0267614610
3321.4062963866	0.0266172662
3323.3351037596	0.0266032629
3325.2639111327	0.0265382901
3327.1927185057	0.0265174937
3329.1215258788	0.0264617614
3331.0503332518	0.0263508894
3332.9791406249	0.0263774879
3334.9079479979	0.0263000112
3336.8367553710	0.0262274090
3338.7655627440	0.0262246802
3340.6943701171	0.0261237137
3342.6231774901	0.0260716323
3344.5519848632	0.0260376669
3346.4807922362	0.0260169450
3348.4095996092	0.0258684065
3350.3384069823	0.0258196164
3352.2672143553	0.0259083305
3354.1960217284	0.0257890876
3356.1248291014	0.0258075558
3358.0536364745	0.0257869996
3359.9824438475	0.0256152339
3361.9112512206	0.0256411545
3363.8400585936	0.0256273393
3365.7688659667	0.0254954845
3367.6976733397	0.0254605785
3369.6264807128	0.0254229046
3371.5552880858	0.0254231468
3373.4840954589	0.0254380219
3375.4129028319	0.0253863744
3377.3417102049	0.0254459456
3379.2705175780	0.0253616422
3381.1993249510	0.0253305249
3383.1281323241	0.0254109092
3385.0569396971	0.0252910201
3386.9857470702	0.0252239145
3388.9145544432	0.0252928026
3390.8433618163	0.0252951682
3392.7721691893	0.0251087211
3394.7009765624	0.0251828264
3396.6297839354	0.0252335593
3398.5585913085	0.0251224339
3400.4873986815	0.0251880065
3402.4162060546	0.0251565129
3404.3450134276	0.0251781493
3406.2738208006	0.0251639690
3408.2026281737	0.0252239220
3410.1314355467	0.0252388436
3412.0602429198	0.0252301246
3413.9890502928	0.0252761245
3415.9178576659	0.0251862202
3417.8466650389	0.0253527705
3419.7754724120	0.0252715591
3421.7042797850	0.0251950324
3423.6330871581	0.0253484659
3425.5618945311	0.0253195912
3427.4907019042	0.0253629517
3429.4195092772	0.0253625289
3431.3483166503	0.0253637545
3433.2771240233	0.0254003108
3435.2059313963	0.0253807437
3437.1347387694	0.0253728740
3439.0635461424	0.0255555827
3440.9923535155	0.0254862458
3442.9211608885	0.0254123062
3444.8499682616	0.0255429707
3446.7787756346	0.0253235623
3448.7075830077	0.0254489444
3450.6363903807	0.0256254971
3452.5651977538	0.0256182849
3454.4940051268	0.0256556831
3456.4228124999	0.0256640203
3458.3516198729	0.0258264616
3460.2804272460	0.0258113984
3462.2092346190	0.0257825814
3464.1380419921	0.0258668140
3466.0668493651	0.0259617008
3467.9956567381	0.0259109586
3469.9244641112	0.0260663871
3471.8532714842	0.0261757113
3473.7820788573	0.0260496549
3475.7108862303	0.0261753853
3477.6396936034	0.0261700284
3479.5685009764	0.0261939541
3481.4973083495	0.0260397475
3483.4261157225	0.0262169596
3485.3549230956	0.0264394563
3487.2837304686	0.0262254067
3489.2125378417	0.0265310183
3491.1413452147	0.0266129915
3493.0701525878	0.0266192108
3494.9989599608	0.0267004035
3496.9277673338	0.0266863927
3498.8565747069	0.0267653931
3500.7853820799	0.0266890526
3502.7141894530	0.0264645740
3504.6429968260	0.0265090913
3506.5718041991	0.0270435326
3508.5006115721	0.0268953219
3510.4294189452	0.0268249102
3512.3582263182	0.0270561203
3514.2870336913	0.0271198358
3516.2158410643	0.0273365080
3518.1446484374	0.0272215605
3520.0734558104	0.0273947380
3522.0022631835	0.0272539705
3523.9310705565	0.0270828996
3525.8598779295	0.0272701420
3527.7886853026	0.0271901898
3529.7174926756	0.0274029896
3531.6463000487	0.0276251622
3533.5751074217	0.0277455077
3535.5039147948	0.0276499949
3537.4327221678	0.0277265627
3539.3615295409	0.0280102603
3541.2903369139	0.0280314740
3543.2191442870	0.0280109644
3545.1479516600	0.0275455751
3547.0767590331	0.0272921324
3549.0055664061	0.0280342028
3550.9343737792	0.0281993076
3552.8631811522	0.0277081728
3554.7919885252	0.0281784087
3556.7207958983	0.0284546427
3558.6496032713	0.0283289589
3560.5784106444	0.0282521434
3562.5072180174	0.0282645319
3564.4360253905	0.0284349509
3566.3648327635	0.0271184314
3568.2936401366	0.0266440250
3570.2224475096	0.0283417609
3572.1512548827	0.0289990157
3574.0800622557	0.0286975279
3576.0088696288	0.0288685430
3577.9376770018	0.0288773552
3579.8664843749	0.0288933869
3581.7952917479	0.0289796665
3583.7240991210	0.0289788805
3585.6529064940	0.0286196657
3587.5817138670	0.0269346070
3589.5105212401	0.0274793450
3591.4393286131	0.0294033177
3593.3681359862	0.0288221724
3595.2969433592	0.0285242759
3597.2257507323	0.0289296545
3599.1545581053	0.0291740336
3601.0833654784	0.0291223302
3603.0121728514	0.0291595012
3604.9409802245	0.0296427906
3606.8697875975	0.0290548131
3608.7985949706	0.0276683476
3610.7274023436	0.0281624924
3612.6562097167	0.0287605375
3614.5850170897	0.0281156041
3616.5138244627	0.0297023784
3618.4426318358	0.0281265788
3620.3714392088	0.0274219867
3622.3002465819	0.0300437026
3624.2290539549	0.0294575766
3626.1578613280	0.0306514837
3628.0866687010	0.0270039327
3630.0154760741	0.0250497218
3631.9442834471	0.0300129857
3633.8730908202	0.0295467414
3635.8018981932	0.0298988558
3637.7307055663	0.0304049030
3639.6595129393	0.0301976092
3641.5883203124	0.0305449180
3643.5171276854	0.0301591232
3645.4459350584	0.0305019617
3647.3747424315	0.0281259827
3649.3035498045	0.0263014250
3651.2323571776	0.0266536213
3653.1611645506	0.0305488408
3655.0899719237	0.0303537566
3657.0187792967	0.0278636161
3658.9475866698	0.0311150029
3660.8763940428	0.0305882953
3662.8052014159	0.0309438482
3664.7340087889	0.0310074780
3666.6628161620	0.0307895541
3668.5916235350	0.0301865041
3670.5204309081	0.0257191565
3672.4492382811	0.0298163258
3674.3780456541	0.0289343521
3676.3068530272	0.0249442663
3678.2356604002	0.0298888329
3680.1644677733	0.0304869376
3682.0932751463	0.0304209441
3684.0220825194	0.0313381143
3685.9508898924	0.0308839642
3687.8796972655	0.0283470117
3689.8085046385	0.0265643280
3691.7373120116	0.0295820162
3693.6661193846	0.0302323326
3695.5949267577	0.0307342634
3697.5237341307	0.0308096893
3699.4525415038	0.0305015761
3701.3813488768	0.0299520716
3703.3101562499	0.0290261507
3705.2389636229	0.0313442536
3707.1677709959	0.0301638842
3709.0965783690	0.0295583345
3711.0253857420	0.0282248911
3712.9541931151	0.0266983062
3714.8830004881	0.0304098427
3716.8118078612	0.0300676674
3718.7406152342	0.0301063787
3720.6694226073	0.0296808332
3722.5982299803	0.0289293118
3724.5270373534	0.0297408290
3726.4558447264	0.0279809590
3728.3846520995	0.0298615694
3730.3134594725	0.0294418782
3732.2422668456	0.0276171155
3734.1710742186	0.0271611474
3736.0998815916	0.0260099769
3738.0286889647	0.0271927752
3739.9574963377	0.0289080609
3741.8863037108	0.0301962756
3743.8151110838	0.0246029105
3745.7439184569	0.0233474970
3747.6727258299	0.0288486220
3749.6015332030	0.0256453417
3751.5303405760	0.0239876434
3753.4591479491	0.0266702585
3755.3879553221	0.0283986516
3757.3167626952	0.0292512849
3759.2455700682	0.0274901167
3761.1743774413	0.0282263085
3763.1031848143	0.0295413658
3765.0319921873	0.0280784443
3766.9607995604	0.0284214877
3768.8896069334	0.0281442106
3770.8184143065	0.0271801837
3772.7472216795	0.0288756844
3774.6760290526	0.0289364792
3776.6048364256	0.0289603956
3778.5336437987	0.0283471234
3780.4624511717	0.0274115168
3782.3912585448	0.0287506990
3784.3200659178	0.0282242503
3786.2488732909	0.0281431712
3788.1776806639	0.0285485759
3790.1064880370	0.0283543468
3792.0352954100	0.0282357410
3793.9641027830	0.0286916941
3795.8929101561	0.0273061246
3797.8217175291	0.0269541405
3799.7505249022	0.0280815903
3801.6793322752	0.0233402215
3803.6081396483	0.0264430977
3805.5369470213	0.0282342881
3807.4657543944	0.0240190737
3809.3945617674	0.0279336944
3811.3233691405	0.0274788998
3813.2521765135	0.0282367636
3815.1809838866	0.0259515848
3817.1097912596	0.0234240852
3819.0385986327	0.0282040928
3820.9674060057	0.0239452999
3822.8962133787	0.0247388557
3824.8250207518	0.0279219002
3826.7538281248	0.0259491391
3828.6826354979	0.0274351351
3830.6114428709	0.0265185013
3832.5402502440	0.0257932972
3834.4690576170	0.0263159014
3836.3978649901	0.0251890402
3838.3266723631	0.0231425129
3840.2554797362	0.0247451663
3842.1842871092	0.0262781121
3844.1130944823	0.0252825655
3846.0419018553	0.0268114582
3847.9707092284	0.0264900364
3849.8995166014	0.0265840031
3851.8283239745	0.0244165137
3853.7571313475	0.0193778202
3855.6859387205	0.0220326856
3857.6147460936	0.0266149230
3859.5435534666	0.0259337500
3861.4723608397	0.0256509632
3863.4011682127	0.0252743922
3865.3299755858	0.0239080861
3867.2587829588	0.0259974208
3869.1875903319	0.0241250247
3871.1163977049	0.0227364488
3873.0452050780	0.0259429887
3874.9740124510	0.0243022889
3876.9028198241	0.0256686509
3878.8316271971	0.0261447281
3880.7604345702	0.0232254174
3882.6892419432	0.0257641859
3884.6180493162	0.0244997721
3886.5468566893	0.0228490829
3888.4756640623	0.0258163139
3890.4044714354	0.0247730948
3892.3332788084	0.0235674344
3894.2620861815	0.0252696909
3896.1908935545	0.0256637819
3898.1197009276	0.0246653445
3900.0485083006	0.0235743448
3901.9773156737	0.0233765524
3903.9061230467	0.0231778044
3905.8349304198	0.0235625077
3907.7637377928	0.0250935890
3909.6925451659	0.0250598975
3911.6213525389	0.0248444937
3913.5501599119	0.0251441374
3915.4789672850	0.0246231165
3917.4077746580	0.0240036529
3919.3365820311	0.0238725916
3921.2653894041	0.0245017074
3923.1941967772	0.0243927911
3925.1230041502	0.0239417367
3927.0518115233	0.0242587291
3928.9806188963	0.0244809277
3930.9094262694	0.0240772106
3932.8382336424	0.0236062258
3934.7670410155	0.0241656788
3936.6958483885	0.0243661292
3938.6246557616	0.0241802372
3940.5534631346	0.0242248178
3942.4822705076	0.0235869791
3944.4110778807	0.0237355679
3946.3398852537	0.0240652878
3948.2686926268	0.0234727412
3950.1974999998	0.0235203542
3952.1263073729	0.0237700362
3954.0551147459	0.0238329396
3955.9839221190	0.0238071270
3957.9127294920	0.0235321857
3959.8415368651	0.0236242916
3961.7703442381	0.0235145744
3963.6991516112	0.0234776493
3965.6279589842	0.0236641988
3967.5567663573	0.0234912410
3969.4855737303	0.0235235449
3971.4143811034	0.0234430470
3973.3431884764	0.0232704245
3975.2719958494	0.0232243668
3977.2008032225	0.0231108405
3979.1296105955	0.0231578648
3981.0584179686	0.0231666826
3982.9872253416	0.0230670013
3984.9160327147	0.0229856819
3986.8448400877	0.0229520015
3988.7736474608	0.0229408946
3990.7024548338	0.0228772163
3992.6312622069	0.0228055660
3994.5600695799	0.0228516441
3996.4888769530	0.0227705799
3998.4176843260	0.0226490628
4000.3464916991	0.0226892345
4002.2752990721	0.0225647353
4004.2041064451	0.0225111749
4006.1329138182	0.0225608461
4008.0617211912	0.0224728100
4009.9905285643	0.0223387331
4011.9193359373	0.0223286450
4013.8481433104	0.0223500840
4015.7769506834	0.0222711675
4017.7057580565	0.0222118217
4019.6345654295	0.0221290477
4021.5633728026	0.0221273527
4023.4921801756	0.0220686123
4025.4209875487	0.0220543668
4027.3497949217	0.0220498499
4029.2786022948	0.0219295807
4031.2074096678	0.0220272522
4033.1362170408	0.0219604392
4035.0650244139	0.0217149500
4036.9938317869	0.0216906853
4038.9226391600	0.0217447057
4040.8514465330	0.0216181166
4042.7802539061	0.0215880144
4044.7090612791	0.0216229409
4046.6378686522	0.0214976855
4048.5666760252	0.0215109773
4050.4954833983	0.0214625429
4052.4242907713	0.0214301422
4054.3530981444	0.0213793796
4056.2819055174	0.0212630592
4058.2107128905	0.0212484319
4060.1395202635	0.0212001484
4062.0683276365	0.0211583637
4063.9971350096	0.0210848860
4065.9259423826	0.0211570747
4067.8547497557	0.0210937448
4069.7835571287	0.0209443495
4071.7123645018	0.0209922157
4073.6411718748	0.0209228620
4075.5699792479	0.0208435133
4077.4987866209	0.0207997374
4079.4275939940	0.0207232274
4081.3564013670	0.0207470879
4083.2852087401	0.0208018646
4085.2140161131	0.0206412971
4087.1428234862	0.0206041038
4089.0716308592	0.0205932558
4091.0004382323	0.0204980411
4092.9292456053	0.0205246527
4094.8580529783	0.0203855298
4096.7868603514	0.0203374773
4098.7156677244	0.0202816203
4100.6444750975	0.0203090664
4102.5732824705	0.0203114562
4104.5020898436	0.0201411098
4106.4308972166	0.0201595202
4108.3597045897	0.0200997107
4110.2885119627	0.0200578552
4112.2173193358	0.0199662037
4114.1461267088	0.0199863538
4116.0749340819	0.0199428871
4118.0037414549	0.0198440887
4119.9325488280	0.0199051537
4121.8613562010	0.0196840558
4123.7901635740	0.0196902808
4125.7189709471	0.0197293498
4127.6477783201	0.0196811967
4129.5765856932	0.0196828917
4131.5053930662	0.0196110867
4133.4342004393	0.0195552465
4135.3630078123	0.0194432251
4137.2918151854	0.0195278767
4139.2206225584	0.0194453243
4141.1494299315	0.0193352737
4143.0782373045	0.0192988794
4145.0070446776	0.0192217696
4146.9358520506	0.0192378536
4148.8646594237	0.0191128664
4150.7934667967	0.0191147830
4152.7222741697	0.0191386044
4154.6510815428	0.0190381333
4156.5798889158	0.0190063734
4158.5086962889	0.0190532617
4160.4375036619	0.0189311076
4162.3663110350	0.0188060310
4164.2951184080	0.0188239906
4166.2239257811	0.0187922716
4168.1527331541	0.0188369192
4170.0815405272	0.0187866874
4172.0103479002	0.0187433548
4173.9391552733	0.0186357796
4175.8679626463	0.0185759868
4177.7967700194	0.0185716823
4179.7255773924	0.0184378661
4181.6543847654	0.0184630305
4183.5831921385	0.0183825009
4185.5119995115	0.0183454175
4187.4408068846	0.0183764994
4189.3696142576	0.0183343217
4191.2984216307	0.0182803720
4193.2272290037	0.0182765648
4195.1560363768	0.0182175115
4197.0848437498	0.0180798955
4199.0136511229	0.0181623250
4200.9424584959	0.0180760100
4202.8712658690	0.0180466026
4204.8000732420	0.0180028398
4206.7288806151	0.0178861469
4208.6576879881	0.0178815201
4210.5864953611	0.0177680962
4212.5153027342	0.0177953560
4214.4441101072	0.0176931452
4216.3729174803	0.0177005343
4218.3017248533	0.0177265257
4220.2305322264	0.0176402181
4222.1593395994	0.0176105201
4224.0881469725	0.0175354704
4226.0169543455	0.0175888687
4227.9457617186	0.0175389647
4229.8745690916	0.0175244547
4231.8033764647	0.0173934177
4233.7321838377	0.0173260439
4235.6609912108	0.0172611866
4237.5897985838	0.0171628632
4239.5186059569	0.0172672439
4241.4474133299	0.0171174146
4243.3762207029	0.0171120837
4245.3050280760	0.0170559790
4247.2338354490	0.0170632042
4249.1626428221	0.0170716643
4251.0914501951	0.0169579405
4253.0202575682	0.0170962028
4254.9490649412	0.0169497430
4256.8778723143	0.0169017594
4258.8066796873	0.0168465786
4260.7354870604	0.0167631190
4262.6642944334	0.0168300532
4264.5931018065	0.0167668965
4266.5219091795	0.0167501289
4268.4507165526	0.0166619048
4270.3795239256	0.0166117661
4272.3083312986	0.0165835060
4274.2371386717	0.0165177546
4276.1659460447	0.0164513029
4278.0947534178	0.0165280215
4280.0235607908	0.0164939743
4281.9523681639	0.0164000075
4283.8811755369	0.0164408647
4285.8099829100	0.0163464285
4287.7387902830	0.0163216013
4289.6675976561	0.0162200183
4291.5964050291	0.0162664484
4293.5252124022	0.0161937214
4295.4540197752	0.0161447190
4297.3828271483	0.0162573252
4299.3116345213	0.0160302669
4301.2404418943	0.0161054581
4303.1692492674	0.0160841942
4305.0980566404	0.0160006825
4307.0268640135	0.0159307998
4308.9556713865	0.0158525277
4310.8844787596	0.0159357358
4312.8132861326	0.0157563090
4314.7420935057	0.0158392303
4316.6709008787	0.0158830695
4318.5997082518	0.0157746077
4320.5285156248	0.0156553369
4322.4573229979	0.0156552568
4324.3861303709	0.0157578327
4326.3149377440	0.0156431422
4328.2437451170	0.0156407151
4330.1725524900	0.0154444240
4332.1013598631	0.0154130990
4334.0301672361	0.0154334921
4335.9589746092	0.0153540820
4337.8877819822	0.0154892579
4339.8165893553	0.0153826848
4341.7453967283	0.0152832046
4343.6742041014	0.0152527448
4345.6030114744	0.0152492020
4347.5318188475	0.0151943890
4349.4606262205	0.0150685217
4351.3894335936	0.0150373373
4353.3182409666	0.0150860101
4355.2470483397	0.0150963981
4357.1758557127	0.0149891451
4359.1046630858	0.0149546722
4361.0334704588	0.0149099156
4362.9622778318	0.0149006722
4364.8910852049	0.0148010328
4366.8198925779	0.0148012713
4368.7486999510	0.0148825552
4370.6775073240	0.0147387367
4372.6063146971	0.0146409497
4374.5351220701	0.0146376397
4376.4639294432	0.0147397611
4378.3927368162	0.0146756880
4380.3215441893	0.0145825157
4382.2503515623	0.0145346951
4384.1791589354	0.0145606548
4386.1079663084	0.0145686753
4388.0367736815	0.0143946838
4389.9655810545	0.0144722303
4391.8943884275	0.0143595692
4393.8231958006	0.0143183544
4395.7520031736	0.0143612474
4397.6808105467	0.0141930496
4399.6096179197	0.0142759848
4401.5384252928	0.0142657645
4403.4672326658	0.0141581595
4405.3960400389	0.0141048459
4407.3248474119	0.0141143305
4409.2536547850	0.0140662584
4411.1824621580	0.0140554029
4413.1112695311	0.0140173035
4415.0400769041	0.0139580257
4416.9688842772	0.0140742362
4418.8976916502	0.0139462827
4420.8264990232	0.0139283938
4422.7553063963	0.0139056975
4424.6841137693	0.0138236992
4426.6129211424	0.0137775782
4428.5417285154	0.0136531703
4430.4705358885	0.0137661956
4432.3993432615	0.0136615280
4434.3281506346	0.0136093255
4436.2569580076	0.0136380997
4438.1857653807	0.0135557689
4440.1145727537	0.0135813169
4442.0433801268	0.0135086244
4443.9721874998	0.0134854503
4445.9009948729	0.0134614669
4447.8298022459	0.0135063985
4449.7586096189	0.0134406760
4451.6874169920	0.0133397914
4453.6162243650	0.0134295002
4455.5450317381	0.0132825077
4457.4738391111	0.0132224951
4459.4026464842	0.0132966936
4461.3314538572	0.0132011529
4463.2602612303	0.0131838992
4465.1890686033	0.0131555740
4467.1178759764	0.0131061245
4469.0466833494	0.0131567065
4470.9754907225	0.0131261414
4472.9042980955	0.0130673982
4474.8331054686	0.0129730366
4476.7619128416	0.0128903240
4478.6907202147	0.0129178893
4480.6195275877	0.0129721090
4482.5483349607	0.0129367150
4484.4771423338	0.0127888499
4486.4059497068	0.0128470967
4488.3347570799	0.0128565244
4490.2635644529	0.0128001776
4492.1923718260	0.0127423313
4494.1211791990	0.0126169259
4496.0499865721	0.0127303936
4497.9787939451	0.0126236826
4499.9076013182	0.0125483237
4501.8364086912	0.0125506148
4503.7652160643	0.0124132391
4505.6940234373	0.0124879153
4507.6228308104	0.0124445595
4509.5516381834	0.0124652432
4511.4804455564	0.0124696391
4513.4092529295	0.0123871043
4515.3380603025	0.0124094784
4517.2668676756	0.0123187099
4519.1956750486	0.0122885685
4521.1244824217	0.0122464439
4523.0532897947	0.0121923378
4524.9820971678	0.0122154700
4526.9109045408	0.0122153433
4528.8397119139	0.0122004133
4530.7685192869	0.0121573396
4532.6973266600	0.0120881982
4534.6261340330	0.0120111955
4536.5549414061	0.0120079303
4538.4837487791	0.0120129418
4540.4125561521	0.0119647142
4542.3413635252	0.0119958855
4544.2701708982	0.0119309044
4546.1989782713	0.0118034799
4548.1277856443	0.0118880589
4550.0565930174	0.0118411947
4551.9854003904	0.0117792301
4553.9142077635	0.0117543563
4555.8430151365	0.0116418842
4557.7718225096	0.0117217097
4559.7006298826	0.0116475737
4561.6294372557	0.0115684103
4563.5582446287	0.0116093531
4565.4870520018	0.0115533229
4567.4158593748	0.0115395673
4569.3446667478	0.0115362899
4571.2734741209	0.0115038846
4573.2022814939	0.0114441281
4575.1310888670	0.0114637837
4577.0598962400	0.0113999005
4578.9887036131	0.0113574667
4580.9175109861	0.0113299079
4582.8463183592	0.0113080293
4584.7751257322	0.0114007657
4586.7039331053	0.0112650711
4588.6327404783	0.0111985784
4590.5615478514	0.0112207308
4592.4903552244	0.0112079363
4594.4191625975	0.0111655565
4596.3479699705	0.0111033684
4598.2767773435	0.0111064017
4600.2055847166	0.0110130981
4602.1343920896	0.0110242702
4604.0631994627	0.0110341273
4605.9920068357	0.0110113285
4607.9208142088	0.0109265056
4609.8496215818	0.0108992420
4611.7784289549	0.0109513700
4613.7072363279	0.0108835949
4615.6360437010	0.0109046698
4617.5648510740	0.0108174775
4619.4936584471	0.0108367391
4621.4224658201	0.0108251786
4623.3512731932	0.0107454509
4625.2800805662	0.0107728131
4627.2088879393	0.0106411669
4629.1376953123	0.0106433984
4631.0665026853	0.0106536606
4632.9953100584	0.0106688347
4634.9241174314	0.0106193731
4636.8529248045	0.0105819535
4638.7817321775	0.0106068328
4640.7105395506	0.0105326371
4642.6393469236	0.0105813425
4644.5681542967	0.0104616955
4646.4969616697	0.0104429862
4648.4257690428	0.0104664071
4650.3545764158	0.0103804301
4652.2833837889	0.0103410985
4654.2121911619	0.0102323452
4656.1409985350	0.0103295129
4658.0698059080	0.0103064179
4659.9986132810	0.0102184936
4661.9274206541	0.0102458624
4663.8562280271	0.0102302777
4665.7850354002	0.0102273878
4667.7138427732	0.0101644639
4669.6426501463	0.0101543935
4671.5714575193	0.0101276860
4673.5002648924	0.0100763030
4675.4290722654	0.0100572966
4677.3578796385	0.0100134732
4679.2866870115	0.0099290507
4681.2154943846	0.0099001480
4683.1443017576	0.0098998109
4685.0731091307	0.0098428838
4687.0019165037	0.0098505765
4688.9307238767	0.0098192384
4690.8595312498	0.0097852340
4692.7883386228	0.0097678034
4694.7171459959	0.0097729480
4696.6459533689	0.0098089054
4698.5747607420	0.0097620059
4700.5035681150	0.0098030791
4702.4323754881	0.0097653661
4704.3611828611	0.0096208490
4706.2899902342	0.0096993484
4708.2187976072	0.0096983574
4710.1476049803	0.0095910188
4712.0764123533	0.0096351691
4714.0052197264	0.0095672291
4715.9340270994	0.0095385779
4717.8628344724	0.0095604723
4719.7916418455	0.0094901528
4721.7204492185	0.0094829947
4723.6492565916	0.0094799008
4725.5780639646	0.0094986446
4727.5068713377	0.0094050523
4729.4356787107	0.0094045531
4731.3644860838	0.0093931267
4733.2932934568	0.0092122965
4735.2221008299	0.0092666335
4737.1509082029	0.0093309507
4739.0797155760	0.0093221664
4741.0085229490	0.0092224777
4742.9373303221	0.0091620889
4744.8661376951	0.0092652040
4746.7949450682	0.0092318431
4748.7237524412	0.0091048060
4750.6525598142	0.0090487460
4752.5813671873	0.0090913028
4754.5101745603	0.0091076242
4756.4389819334	0.0091218259
4758.3677893064	0.0090398891
4760.2965966795	0.0090149567
4762.2254040525	0.0090858545
4764.1542114256	0.0089947395
4766.0830187986	0.0088900514
4768.0118261717	0.0088384561
4769.9406335447	0.0089422297
4771.8694409178	0.0089290254
4773.7982482908	0.0088545345
4775.7270556639	0.0088433530
4777.6558630369	0.0087730587
4779.5846704099	0.0088079190
4781.5134777830	0.0087512266
4783.4422851560	0.0087552983
4785.3710925291	0.0087211849
4787.2998999021	0.0086653326
4789.2287072752	0.0087242573
4791.1575146482	0.0086192330
4793.0863220213	0.0086662620
4795.0151293943	0.0087766051
4796.9439367674	0.0086041456
4798.8727441404	0.0084995721
4800.8015515135	0.0085957814
4802.7303588865	0.0085588722
4804.6591662596	0.0085215895
4806.5879736326	0.0084791472
4808.5167810056	0.0084489761
4810.4455883787	0.0084714675
4812.3743957517	0.0084141530
4814.3032031248	0.0084656412
4816.2320104978	0.0083612120
4818.1608178709	0.0083679501
4820.0896252439	0.0084074168
4822.0184326170	0.0082904575
4823.9472399900	0.0082926927
4825.8760473631	0.0082420763
4827.8048547361	0.0082925698
4829.7336621092	0.0081624724
4831.6624694822	0.0081622824
4833.5912768553	0.0082423501
4835.5200842283	0.0081515741
4837.4488916013	0.0082241967
4839.3776989744	0.0081065930
4841.3065063474	0.0080690105
4843.2353137205	0.0080740899
4845.1641210935	0.0080698282
4847.0929284666	0.0080537070
4849.0217358396	0.0080389939
4850.9505432127	0.0080651939
4852.8793505857	0.0079198293
4854.8081579588	0.0079259882
4856.7369653318	0.0078433184
4858.6657727049	0.0079034204
4860.5945800779	0.0079738852
4862.5233874510	0.0078540090
4864.4521948240	0.0078260330
4866.3810021971	0.0077558383
4868.3098095701	0.0078155352
4870.2386169431	0.0077348594
4872.1674243162	0.0077951192
4874.0962316892	0.0077836202
4876.0250390623	0.0076454971
4877.9538464353	0.0077595925
4879.8826538084	0.0076607652
4881.8114611814	0.0076747821
4883.7402685545	0.0077020512
4885.6690759275	0.0076625710
4887.5978833006	0.0076793935
4889.5266906736	0.0076828836
4891.4554980467	0.0076805749
4893.3843054197	0.0075624119
4895.3131127928	0.0075326357
4897.2419201658	0.0074990126
4899.1707275388	0.0074941609
4901.0995349119	0.0074900743
4903.0283422849	0.0074857939
4904.9571496580	0.0074363844
4906.8859570310	0.0073907711
4908.8147644041	0.0074474551
4910.7435717771	0.0073842122
4912.6723791502	0.0073671453
4914.6011865232	0.0073258658
4916.5299938963	0.0073447791
4918.4588012693	0.0073658223
4920.3876086424	0.0073453235
4922.3164160154	0.0073572202
4924.2452233885	0.0072538001
4926.1740307615	0.0072450400
4928.1028381345	0.0072442526
4930.0316455076	0.0072446577
4931.9604528806	0.0071296915
4933.8892602537	0.0071128849
4935.8180676267	0.0071679433
4937.7468749998	0.0070416834
4939.6756823728	0.0071307826
4941.6044897459	0.0071167769
4943.5332971189	0.0070479847
4945.4621044920	0.0070407810
4947.3909118650	0.0069912411
4949.3197192381	0.0070322957
4951.2485266111	0.0070357863
4953.1773339842	0.0070192716
4955.1061413572	0.0069910791
4957.0349487302	0.0069801686
4958.9637561033	0.0068529230
4960.8925634763	0.0068607340
4962.8213708494	0.0069677886
4964.7501782224	0.0068657459
4966.6789855955	0.0068251565
4968.6077929685	0.0068459269
4970.5366003416	0.0068584103
4972.4654077146	0.0067913393
4974.3942150877	0.0067514786
4976.3230224607	0.0067452253
4978.2518298338	0.0067461981
4980.1806372068	0.0067762332
4982.1094445799	0.0066738268
4984.0382519529	0.0066283923
4985.9670593259	0.0067035044
4987.8958666990	0.0066905217
4989.8246740720	0.0065378519
4991.7534814451	0.0066021853
4993.6822888181	0.0066621257
4995.6110961912	0.0065728910
4997.5399035642	0.0066287406
4999.4687109373	0.0065024178
5001.3975183103	0.0064917444
5003.3263256834	0.0065802177
5005.2551330564	0.0064827171
5007.1839404295	0.0064583207
5009.1127478025	0.0064184563
5011.0415551756	0.0064350972
5012.9703625486	0.0064411229
5014.8991699217	0.0064043705
5016.8279772947	0.0063950280
5018.7567846677	0.0063310806
5020.6855920408	0.0063400874
5022.6143994138	0.0063390285
5024.5432067869	0.0062342342
5026.4720141599	0.0062580104
5028.4008215330	0.0063594738
5030.3296289060	0.0063116020
5032.2584362791	0.0062599089
5034.1872436521	0.0062461896
5036.1160510252	0.0062353555
5038.0448583982	0.0062384913
5039.9736657713	0.0062149912
5041.9024731443	0.0062090643
5043.8312805174	0.0062098373
5045.7600878904	0.0062109656
5047.6888952634	0.0061697066
5049.6177026365	0.0061287060
5051.5465100095	0.0060631493
5053.4753173826	0.0060335780
5055.4041247556	0.0060948730
5057.3329321287	0.0060509667
5059.2617395017	0.0060702125
5061.1905468748	0.0060760393
5063.1193542478	0.0059713009
5065.0481616209	0.0059703942
5066.9769689939	0.0059509627
5068.9057763670	0.0059491745
5070.8345837400	0.0059146490
5072.7633911131	0.0058602914
5074.6921984861	0.0059312573
5076.6210058591	0.0058667678
5078.5498132322	0.0057937293
5080.4786206052	0.0058736205
5082.4074279783	0.0058618924
5084.3362353513	0.0058006914
5086.2650427244	0.0058138319
5088.1938500974	0.0058244509
5090.1226574705	0.0058001326
5092.0514648435	0.0057577351
5093.9802722166	0.0057131350
5095.9090795896	0.0057169837
5097.8378869627	0.0056844503
5099.7666943357	0.0056666089
5101.6955017088	0.0056610643
5103.6243090818	0.0056370660
5105.5531164548	0.0057076868
5107.4819238279	0.0056389123
5109.4107312009	0.0056008957
5111.3395385740	0.0056137880
5113.2683459470	0.0055115419
5115.1971533201	0.0055824621
5117.1259606931	0.0055884188
5119.0547680662	0.0055219578
5120.9835754392	0.0055245021
5122.9123828123	0.0055265650
5124.8411901853	0.0055326265
5126.7699975584	0.0054872851
5128.6988049314	0.0054957643
5130.6276123045	0.0054881284
5132.5564196775	0.0054552248
5134.4852270506	0.0054051992
5136.4140344236	0.0054205442
5138.3428417966	0.0054735583
5140.2716491697	0.0054072803
5142.2004565427	0.0053689638
5144.1292639158	0.0053760591
5146.0580712888	0.0053748842
5147.9868786619	0.0052788705
5149.9156860349	0.0053004902
5151.8444934080	0.0053951023
5153.7733007810	0.0052963980
5155.7021081541	0.0052555157
5157.6309155271	0.0052548032
5159.5597229002	0.0051952037
5161.4885302732	0.0051738904
5163.4173376463	0.0051976144
5165.3461450193	0.0051641832
5167.2749523923	0.0051818471
5169.2037597654	0.0051965872
5171.1325671384	0.0051256455
5173.0613745115	0.0051251072
5174.9901818845	0.0050868145
5176.9189892576	0.0050806114
5178.8477966306	0.0050483122
5180.7766040037	0.0050750999
5182.7054113767	0.0050565694
5184.6342187498	0.0049675456
5186.5630261228	0.0051168371
5188.4918334959	0.0050493111
5190.4206408689	0.0050173365
5192.3494482420	0.0050892150
5194.2782556150	0.0049808826
5196.2070629880	0.0050068609
5198.1358703611	0.0049915626
5200.0646777341	0.0049687591
5201.9934851072	0.0049605942
5203.9222924802	0.0049354844
5205.8510998533	0.0049541993
5207.7799072263	0.0048687160
5209.7087145994	0.0047957441
5211.6375219724	0.0049007488
5213.5663293455	0.0049734004
5215.4951367185	0.0048500416
5217.4239440916	0.0048344713
5219.3527514646	0.0048658447
5221.2815588377	0.0048119482
5223.2103662107	0.0048392201
5225.1391735837	0.0047825780
5227.0679809568	0.0046889097
5228.9967883298	0.0047911950
5230.9255957029	0.0048256195
5232.8544030759	0.0047240593
5234.7832104490	0.0046593696
5236.7120178220	0.0046194019
5238.6408251951	0.0046958644
5240.5696325681	0.0047635725
5242.4984399412	0.0047030644
5244.4272473142	0.0045639472
5246.3560546873	0.0045726933
5248.2848620603	0.0045868270
5250.2136694334	0.0045598401
5252.1424768064	0.0047295587
5254.0712841795	0.0045920340
5256.0000915525	0.0045680744
5257.9288989255	0.0046346937
5259.8577062986	0.0044680224
5261.7865136716	0.0046017487
5263.7153210447	0.0045475829
5265.6441284177	0.0044474467
5267.5729357908	0.0044762213
5269.5017431638	0.0044323234
5271.4305505369	0.0044765817
5273.3593579099	0.0045020045
5275.2881652830	0.0044779563
5277.2169726560	0.0044495347
5279.1457800291	0.0045052883
5281.0745874021	0.0044263806
5283.0033947752	0.0044135433
5284.9322021482	0.0044432068
5286.8610095212	0.0044161715
5288.7898168943	0.0044330359
5290.7186242673	0.0043597985
5292.6474316404	0.0044012838
5294.5762390134	0.0043850685
5296.5050463865	0.0044296836
5298.4338537595	0.0043987846
5300.3626611326	0.0043347916
5302.2914685056	0.0043773241
5304.2202758787	0.0043120841
5306.1490832517	0.0043670479
5308.0778906248	0.0042233621
5310.0066979978	0.0042288816
5311.9355053709	0.0043474906
5313.8643127439	0.0042837043
5315.7931201169	0.0042090756
5317.7219274900	0.0041234354
5319.6507348630	0.0042652385
5321.5795422361	0.0042040092
5323.5083496091	0.0041597961
5325.4371569822	0.0041904012
5327.3659643552	0.0041379151
5329.2947717283	0.0041195378
5331.2235791013	0.0040765284
5333.1523864744	0.0041207261
5335.0811938474	0.0040559610
5337.0100012205	0.0041421633
5338.9388085935	0.0040381616
5340.8676159666	0.0040198835
5342.7964233396	0.0041624298
5344.7252307126	0.0039649704
5346.6540380857	0.0040692301
5348.5828454587	0.0040538777
5350.5116528318	0.0040037525
5352.4404602048	0.0040102731
5354.3692675779	0.0039253794
5356.2980749509	0.0040614549
5358.2268823240	0.0040428061
5360.1556896970	0.0040567131
5362.0844970701	0.0040287394
5364.0133044431	0.0039523495
5365.9421118162	0.0039683562
5367.8709191892	0.0039780112
5369.7997265623	0.0039969264
5371.7285339353	0.0038859649
5373.6573413083	0.0038878170
5375.5861486814	0.0039399052
5377.5149560544	0.0038400097
5379.4437634275	0.0038296990
5381.3725708005	0.0039195446
5383.3013781736	0.0038775411
5385.2301855466	0.0038320904
5387.1589929197	0.0038421035
5389.0878002927	0.0038641561
5391.0166076658	0.0038488579
5392.9454150388	0.0037689116
5394.8742224119	0.0038009831
5396.8030297849	0.0037699742
5398.7318371580	0.0037852153
5400.6606445310	0.0037782723
5402.5894519041	0.0037099910
5404.5182592771	0.0037740311
5406.4470666501	0.0037333695
5408.3758740232	0.0036900491
5410.3046813962	0.0036518686
5412.2334887693	0.0036291471
5414.1622961423	0.0035992982
5416.0911035154	0.0036365190
5418.0199108884	0.0036445195
5419.9487182615	0.0035704146
5421.8775256345	0.0036938530
5423.8063330076	0.0036372133
5425.7351403806	0.0036536329
5427.6639477537	0.0036405993
5429.5927551267	0.0034711356
5431.5215624998	0.0036315806
5433.4503698728	0.0036052451
5435.3791772458	0.0034948438
5437.3079846189	0.0035665086
5439.2367919919	0.0035348353
5441.1655993650	0.0034784421
5443.0944067380	0.0034912860
5445.0232141111	0.0034628371
5446.9520214841	0.0034538303
5448.8808288572	0.0035186815
5450.8096362302	0.0035047089
5452.7384436033	0.0034915498
5454.6672509763	0.0034172134
5456.5960583494	0.0034163324
5458.5248657224	0.0034410078
5460.4536730955	0.0033366885
5462.3824804685	0.0034265073
5464.3112878415	0.0034953775
5466.2400952146	0.0034089284
5468.1689025876	0.0033601541
5470.0977099607	0.0033801310
5472.0265173337	0.0034608291
5473.9553247068	0.0034018948
5475.8841320798	0.0032824699
5477.8129394529	0.0033736369
5479.7417468259	0.0034124940
5481.6705541990	0.0033557904
5483.5993615720	0.0033989549
5485.5281689451	0.0033272393
5487.4569763181	0.0032458331
5489.3857836912	0.0032805577
5491.3145910642	0.0033268253
5493.2433984372	0.0032830667
5495.1722058103	0.0032488313
5497.1010131833	0.0032681879
5499.0298205564	0.0032196252
5500.9586279294	0.0032858686
5502.8874353025	0.0032905133
5504.8162426755	0.0032257198
5506.7450500486	0.0032121171
5508.6738574216	0.0032395760
5510.6026647947	0.0032496266
5512.5314721677	0.0031608013
5514.4602795408	0.0032343820
5516.3890869138	0.0031643205
5518.3178942869	0.0031367755
5520.2467016599	0.0032428238
5522.1755090330	0.0031152088
5524.1043164060	0.0031399191
5526.0331237790	0.0031705743
5527.9619311521	0.0031107818
5529.8907385251	0.0031220340
5531.8195458982	0.0031463183
5533.7483532712	0.0031261104
5535.6771606443	0.0031069587
5537.6059680173	0.0031215530
5539.5347753904	0.0030477713
5541.4635827634	0.0030644643
5543.3923901365	0.0030939868
5545.3211975095	0.0030951321
5547.2500048826	0.0030803178
5549.1788122556	0.0030345819
5551.1076196287	0.0030070669
5553.0364270017	0.0029687183
5554.9652343747	0.0030593597
5556.8940417478	0.0030247648
5558.8228491208	0.0030128928
5560.7516564939	0.0030470625
5562.6804638669	0.0029210858
5564.6092712400	0.0029855510
5566.5380786130	0.0029569298
5568.4668859861	0.0028593191
5570.3956933591	0.0029389963
5572.3245007322	0.0029188527
5574.2533081052	0.0028854953
5576.1821154783	0.0029475463
5578.1109228513	0.0029715998
5580.0397302244	0.0029178835
5581.9685375974	0.0029447973
5583.8973449704	0.0029102783
5585.8261523435	0.0028128964
5587.7549597165	0.0029175589
5589.6837670896	0.0028716975
5591.6125744626	0.0027742977
5593.5413818357	0.0028428771
5595.4701892087	0.0027970828
5597.3989965818	0.0028012064
5599.3278039548	0.0028333887
5601.2566113279	0.0028434652
5603.1854187009	0.0028148880
5605.1142260740	0.0027705738
5607.0430334470	0.0028262208
5608.9718408201	0.0027834191
5610.9006481931	0.0028119853
5612.8294555661	0.0028037815
5614.7582629392	0.0027787203
5616.6870703122	0.0028332730
5618.6158776853	0.0027410584
5620.5446850583	0.0027562804
5622.4734924314	0.0027287775
5624.4022998044	0.0026793140
5626.3311071775	0.0026829485
5628.2599145505	0.0027373154
5630.1887219236	0.0028312481
5632.1175292966	0.0026737722
5634.0463366697	0.0027092998
5635.9751440427	0.0027892827
5637.9039514158	0.0027181366
5639.8327587888	0.0027233851
5641.7615661619	0.0026237273
5643.6903735349	0.0026757454
5645.6191809079	0.0027327836
5647.5479882810	0.0026153252
5649.4767956540	0.0025981227
5651.4056030271	0.0026096147
5653.3344104001	0.0026326638
5655.2632177732	0.0026735675
5657.1920251462	0.0025935355
5659.1208325193	0.0025718794
5661.0496398923	0.0026336275
5662.9784472654	0.0025500502
5664.9072546384	0.0025363869
5666.8360620115	0.0025623110
5668.7648693845	0.0025278786
5670.6936767576	0.0025775291
5672.6224841306	0.0025874788
5674.5512915036	0.0025932966
5676.4800988767	0.0025853473
5678.4089062497	0.0024941899
5680.3377136228	0.0024923806
5682.2665209958	0.0025412973
5684.1953283689	0.0025198720
5686.1241357419	0.0025056386
5688.0529431150	0.0024983492
5689.9817504880	0.0025009557
5691.9105578611	0.0025318963
5693.8393652341	0.0025230874
5695.7681726072	0.0024599838
5697.6969799802	0.0024026686
5699.6257873533	0.0024335040
5701.5545947263	0.0024543875
5703.4834020993	0.0024010260
5705.4122094724	0.0023983498
5707.3410168454	0.0024894928
5709.2698242185	0.0024381513
5711.1986315915	0.0023369584
5713.1274389646	0.0024082181
5715.0562463376	0.0023753932
5716.9850537107	0.0023997438
5718.9138610837	0.0024129231
5720.8426684568	0.0023010222
5722.7714758298	0.0023722516
5724.7002832029	0.0023674199
5726.6290905759	0.0023404721
5728.5578979490	0.0023792451
5730.4867053220	0.0023512472
5732.4155126950	0.0023278259
5734.3443200681	0.0023321703
5736.2731274411	0.0023625423
5738.2019348142	0.0023457797
5740.1307421872	0.0023384802
5742.0595495603	0.0023109268
5743.9883569333	0.0022917637
5745.9171643064	0.0022869660
5747.8459716794	0.0022796015
5749.7747790525	0.0023024946
5751.7035864255	0.0022360343
5753.6323937986	0.0022053090
5755.5612011716	0.0022530144
5757.4900085447	0.0022386261
5759.4188159177	0.0022019586
5761.3476232907	0.0022681118
5763.2764306638	0.0022467328
5765.2052380368	0.0021546364
5767.1340454099	0.0022090534
5769.0628527829	0.0022106199
5770.9916601560	0.0022111922
5772.9204675290	0.0021649676
5774.8492749021	0.0021059280
5776.7780822751	0.0021844776
5778.7068896482	0.0021554502
5780.6356970212	0.0021455230
5782.5645043943	0.0021722172
5784.4933117673	0.0020895605
5786.4221191404	0.0020860075
5788.3509265134	0.0021133549
5790.2797338865	0.0021271044
5792.2085412595	0.0021716827
5794.1373486325	0.0021199959
5796.0661560056	0.0021120876
5797.9949633786	0.0020931466
5799.9237707517	0.0020885430
5801.8525781247	0.0021569156
5803.7813854978	0.0019737037
5805.7101928708	0.0020076679
5807.6390002439	0.0021681208
5809.5678076169	0.0020551893
5811.4966149900	0.0020453380
5813.4254223630	0.0020203358
5815.3542297361	0.0020337305
5817.2830371091	0.0020397268
5819.2118444822	0.0019663712
5821.1406518552	0.0020234277
5823.0694592282	0.0020407236
5824.9982666013	0.0019978457
5826.9270739743	0.0019752604
5828.8558813474	0.0020042132
5830.7846887204	0.0019770616
5832.7134960935	0.0019024484
5834.6423034665	0.0019566186
5836.5711108396	0.0019755354
5838.4999182126	0.0019034554
5840.4287255857	0.0019390346
5842.3575329587	0.0019332254
5844.2863403318	0.0018898536
5846.2151477048	0.0019975726
5848.1439550779	0.0020015333
5850.0727624509	0.0020098404
5852.0015698239	0.0020306464
5853.9303771970	0.0018939334
5855.8591845700	0.0018711544
5857.7879919431	0.0018991726
5859.7167993161	0.0018837738
5861.6456066892	0.0019157927
5863.5744140622	0.0019373529
5865.5032214353	0.0018834618
5867.4320288083	0.0019121120
5869.3608361814	0.0019588708
5871.2896435544	0.0019202007
5873.2184509275	0.0019347547
5875.1472583005	0.0018811368
5877.0760656736	0.0018869706
5879.0048730466	0.0018987885
5880.9336804196	0.0018163187
5882.8624877927	0.0018447803
5884.7912951657	0.0018192312
5886.7201025388	0.0017657694
5888.6489099118	0.0017668176
5890.5777172849	0.0017855186
5892.5065246579	0.0018670564
5894.4353320310	0.0018291590
5896.3641394040	0.0017295321
5898.2929467771	0.0017820569
5900.2217541501	0.0018108471
5902.1505615232	0.0018039066
5904.0793688962	0.0017599636
5906.0081762693	0.0017327189
5907.9369836423	0.0018191356
5909.8657910154	0.0017405486
5911.7945983884	0.0017443344
5913.7234057614	0.0017652693
5915.6522131345	0.0016754768
5917.5810205075	0.0017497622
5919.5098278806	0.0017081999
5921.4386352536	0.0017199654
5923.3674426267	0.0017734431
5925.2962499997	0.0016950245
5927.2250573728	0.0016689653
5929.1538647458	0.0016471035
5931.0826721189	0.0017074037
5933.0114794919	0.0017416051
5934.9402868650	0.0016707575
5936.8690942380	0.0016766350
5938.7979016111	0.0017243798
5940.7267089841	0.0016403188
5942.6555163571	0.0016257807
5944.5843237302	0.0017042173
5946.5131311032	0.0016455185
5948.4419384763	0.0016176109
5950.3707458493	0.0016347405
5952.2995532224	0.0016230168
5954.2283605954	0.0015924042
5956.1571679685	0.0016376184
5958.0859753415	0.0016513069
5960.0147827146	0.0015762930
5961.9435900876	0.0016458998
5963.8723974607	0.0016751904
5965.8012048337	0.0015852472
5967.7300122068	0.0015632819
5969.6588195798	0.0016408990
5971.5876269528	0.0016318439
5973.5164343259	0.0015714613
5975.4452416989	0.0015612590
5977.3740490720	0.0015490686
5979.3028564450	0.0015792393
5981.2316638181	0.0015445179
5983.1604711911	0.0015587774
5985.0892785642	0.0015735765
5987.0180859372	0.0015455855
5988.9468933103	0.0015694338
5990.8757006833	0.0015623727
5992.8045080564	0.0015249590
5994.7333154294	0.0014785385
5996.6621228025	0.0015483875
5998.5909301755	0.0015156559
6000.5197375485	0.0014372168
